# == pyFAI calibration ==
# Distance Sample to Detector: 0.216 m
# PONI: 1.166e-01, 1.308e-01 m
# Rotations: 0.000000 0.000000 0.000000 rad
# 
# == Fit2d calibration ==
# Distance Sample-beamCenter: 216.000 mm
# Center: x=1744.293, y=1555.000 pix
# Tilt: 0.000 deg  TiltPlanRot: 0.000 deg
# 
# Detector Eiger 9M	 PixelSize= 7.500e-05, 7.500e-05 m
#    Detector has a mask: True 
#    Detector has a dark current: False 
#    detector has a flat field: False 
# 
# Wavelength: 9.8e-11 m
# Mask applied: from detector
# Dark current applied: False
# Flat field applied: False
# Polarization factor: None
# Normalization factor: 1.0
# 
# Headers of the input frame:
# {
# "_array_data.header_convention": "SLS_1.0",
# "_array_data.header_contents": "# Detector: Dectris Eiger 9M, S/N E-18-0102\r\n# Pixel_size 75e-6 m x 75e-6 m\r\n# Silicon sensor, thickness 0.000450 m\r\n# Exposure_time 0.024997 s\r\n# Exposure_period 0.025000 s\r\n# Count_cutoff 62318 counts\r\n# Wavelength 0.980106 A\r\n# Detector_distance 0.215992 m\r\n# Beam_xy (1555, 1744) pixels\r\n# Start_angle 0.000000 deg.\r\n# Angle_increment 0.000000 deg.",
# "Content-Type": "application/octet-stream;",
# "conversions": "x-CBF_BYTE_OFFSET",
# "Content-Transfer-Encoding": "BINARY",
# "X-Binary-Size": "10166604",
# "X-Binary-ID": "1",
# "X-Binary-Element-Type": "signed 32-bit integer",
# "X-Binary-Element-Byte-Order": "LITTLE_ENDIAN",
# "Content-MD5": "et6wmNSbEoVNCfHAGkteuw==",
# "X-Binary-Number-of-Elements": "10166590",
# "X-Binary-Size-Fastest-Dimension": "3110",
# "X-Binary-Size-Second-Dimension": "3269",
# "X-Binary-Size-Padding": "4095"
# }
# --> H:/Proxima2a_2019-04-05/RAW_DATA/C5_gel17_position5/C5_mesh_1_data.cbf/C5_mesh_1_data.cbf000193.dat
#        q_A^-1              I           sigma 
  1.105228e-03    1.043134e+00   5.526587e-01
  3.315685e-03    1.868395e+00   4.496554e-01
  5.526141e-03    1.485261e+00   3.100085e-01
  7.736597e-03    1.343591e+00   2.490885e-01
  9.947054e-03    1.365861e+00   2.214011e-01
  1.215751e-02    1.356997e+00   1.995529e-01
  1.436797e-02    1.627229e+00   2.010019e-01
  1.657842e-02    1.627659e+00   1.871226e-01
  1.878888e-02    1.392688e+00   1.625887e-01
  2.099934e-02    1.294638e+00   1.483120e-01
  2.320979e-02    1.428871e+00   1.481935e-01
  2.542025e-02    1.283733e+00   1.342292e-01
  2.763070e-02    1.249706e+00   1.270265e-01
  2.984116e-02    1.311008e+00   1.251928e-01
  3.205162e-02    1.396099e+00   1.246649e-01
  3.426207e-02    1.227343e+00   1.130467e-01
  3.647253e-02    1.485457e+00   1.205368e-01
  3.868299e-02    1.469635e+00   1.164261e-01
  4.089344e-02    1.330627e+00   1.077479e-01
  4.310390e-02    1.468785e+00   1.102562e-01
  4.531436e-02    1.514797e+00   1.092051e-01
  4.752481e-02    1.380535e+00   1.017988e-01
  4.973527e-02    1.298152e+00   9.649718e-02
  5.194572e-02    1.444728e+00   9.960838e-02
  5.415618e-02    1.549220e+00   1.010172e-01
  5.636664e-02    1.425530e+00   9.498465e-02
  5.857709e-02    1.387074e+00   9.191032e-02
  6.078755e-02    1.386780e+00   9.021133e-02
  6.299801e-02    1.538809e+00   9.334451e-02
  6.520846e-02    1.516033e+00   9.106786e-02
  6.741892e-02    1.452214e+00   8.765267e-02
  6.962938e-02    1.452682e+00   8.626837e-02
  7.183983e-02    1.489353e+00   8.599453e-02
  7.405029e-02    1.452831e+00   8.365440e-02
  7.626074e-02    1.516214e+00   8.421135e-02
  7.847120e-02    1.502928e+00   8.265004e-02
  8.068166e-02    1.455581e+00   8.021517e-02
  8.289211e-02    1.463074e+00   7.934141e-02
  8.510257e-02    1.373685e+00   7.587401e-02
  8.731303e-02    1.338597e+00   7.394173e-02
  8.952348e-02    1.440946e+00   7.576548e-02
  9.173394e-02    1.609435e+00   7.909892e-02
  9.394439e-02    1.557167e+00   7.688063e-02
  9.615485e-02    1.517808e+00   7.502364e-02
  9.836531e-02    1.573909e+00   7.553220e-02
  1.005758e-01    1.602589e+00   7.537556e-02
  1.027862e-01    1.555371e+00   7.345220e-02
  1.049967e-01    1.541532e+00   7.234962e-02
  1.072071e-01    1.540071e+00   7.156509e-02
  1.094176e-01    1.515304e+00   7.026553e-02
  1.116280e-01    1.574886e+00   7.091925e-02
  1.138385e-01    1.609129e+00   7.098535e-02
  1.160490e-01    1.570920e+00   6.946548e-02
  1.182594e-01    1.620043e+00   6.987931e-02
  1.204699e-01    1.517930e+00   6.701725e-02
  1.226803e-01    1.522506e+00   6.650799e-02
  1.248908e-01    1.629245e+00   6.818749e-02
  1.271012e-01    1.679429e+00   6.862368e-02
  1.293117e-01    1.735230e+00   6.915481e-02
  1.315222e-01    1.625041e+00   6.635679e-02
  1.337326e-01    1.623342e+00   6.577042e-02
  1.359431e-01    1.578982e+00   6.490355e-02
  1.381535e-01    1.547175e+00   6.510889e-02
  1.403640e-01    1.532659e+00   6.508252e-02
  1.425744e-01    1.558681e+00   6.573755e-02
  1.447849e-01    1.647069e+00   6.759130e-02
  1.469953e-01    1.527736e+00   6.505596e-02
  1.492058e-01    1.604602e+00   6.659497e-02
  1.514163e-01    1.628222e+00   6.697197e-02
  1.536267e-01    1.610761e+00   6.648181e-02
  1.558372e-01    1.620971e+00   6.654495e-02
  1.580476e-01    1.650851e+00   6.699252e-02
  1.602581e-01    1.689923e+00   6.760853e-02
  1.624685e-01    1.635100e+00   6.632076e-02
  1.646790e-01    1.592951e+00   6.527243e-02
  1.668895e-01    1.590476e+00   6.503331e-02
  1.690999e-01    1.712675e+00   6.728274e-02
  1.713104e-01    1.725622e+00   6.732699e-02
  1.735208e-01    1.808816e+00   6.871649e-02
  1.757313e-01    1.799433e+00   6.832323e-02
  1.779417e-01    1.822489e+00   6.853530e-02
  1.801522e-01    1.935641e+00   7.040586e-02
  1.823626e-01    1.997600e+00   7.128574e-02
  1.845731e-01    1.868593e+00   6.872211e-02
  1.867836e-01    1.985675e+00   7.060330e-02
  1.889940e-01    1.959070e+00   6.989961e-02
  1.912045e-01    1.979261e+00   7.002422e-02
  1.934149e-01    2.075961e+00   7.147440e-02
  1.956254e-01    2.025062e+00   7.035993e-02
  1.978358e-01    1.973989e+00   6.922894e-02
  2.000463e-01    2.021381e+00   6.982289e-02
  2.022568e-01    1.995193e+00   6.914143e-02
  2.044672e-01    2.031060e+00   6.952114e-02
  2.066777e-01    2.043541e+00   6.950299e-02
  2.088881e-01    1.989383e+00   6.835147e-02
  2.110986e-01    1.939576e+00   6.725896e-02
  2.133090e-01    2.011142e+00   6.826589e-02
  2.155195e-01    1.992427e+00   6.772217e-02
  2.177300e-01    1.895439e+00   6.553438e-02
  2.199404e-01    1.910076e+00   6.405346e-02
  2.221509e-01    1.934914e+00   6.340997e-02
  2.243613e-01    1.991314e+00   6.351198e-02
  2.265718e-01    2.096622e+00   6.445140e-02
  2.287822e-01    2.172225e+00   6.495383e-02
  2.309927e-01    2.216754e+00   6.501845e-02
  2.332031e-01    2.219644e+00   6.450399e-02
  2.354136e-01    2.139113e+00   6.280981e-02
  2.376241e-01    2.146979e+00   6.243677e-02
  2.398345e-01    2.177969e+00   6.242037e-02
  2.420450e-01    2.175832e+00   6.194386e-02
  2.442554e-01    2.159023e+00   6.127902e-02
  2.464659e-01    2.206113e+00   6.152781e-02
  2.486763e-01    2.187430e+00   6.086404e-02
  2.508868e-01    2.134269e+00   5.974060e-02
  2.530973e-01    2.206576e+00   6.036758e-02
  2.553077e-01    2.158985e+00   5.935081e-02
  2.575182e-01    2.185829e+00   5.936533e-02
  2.597286e-01    2.124399e+00   5.818497e-02
  2.619391e-01    2.110840e+00   5.766508e-02
  2.641495e-01    2.080075e+00   5.692651e-02
  2.663600e-01    1.998711e+00   5.549514e-02
  2.685704e-01    2.116156e+00   5.679279e-02
  2.707809e-01    2.037903e+00   5.543703e-02
  2.729914e-01    1.991976e+00   5.452315e-02
  2.752018e-01    2.022182e+00   5.464904e-02
  2.774123e-01    2.118895e+00   5.565487e-02
  2.796227e-01    2.104506e+00   5.519122e-02
  2.818332e-01    2.067182e+00   5.442674e-02
  2.840436e-01    1.988944e+00   5.312805e-02
  2.862541e-01    1.957103e+00   5.244775e-02
  2.884646e-01    1.941351e+00   5.198834e-02
  2.906750e-01    1.993161e+00   5.242774e-02
  2.928855e-01    1.941268e+00   5.150099e-02
  2.950959e-01    1.947588e+00   5.134780e-02
  2.973064e-01    1.974977e+00   5.147519e-02
  2.995168e-01    1.977703e+00   5.127743e-02
  3.017273e-01    1.926245e+00   5.038281e-02
  3.039377e-01    1.925262e+00   5.014938e-02
  3.061482e-01    1.988433e+00   5.074503e-02
  3.083587e-01    1.930416e+00   4.978282e-02
  3.105691e-01    1.964818e+00   5.000992e-02
  3.127796e-01    1.964149e+00   4.979121e-02
  3.149900e-01    1.951760e+00   4.942712e-02
  3.172005e-01    1.891602e+00   4.846047e-02
  3.194109e-01    1.820711e+00   4.734745e-02
  3.216214e-01    1.862444e+00   4.769161e-02
  3.238319e-01    1.931472e+00   4.837494e-02
  3.260423e-01    1.910932e+00   4.792538e-02
  3.282528e-01    1.943474e+00   4.813932e-02
  3.304632e-01    1.915347e+00   4.760457e-02
  3.326737e-01    1.865371e+00   4.679611e-02
  3.348841e-01    1.894612e+00   4.697857e-02
  3.370946e-01    1.890931e+00   4.675632e-02
  3.393050e-01    1.910036e+00   4.681395e-02
  3.415155e-01    1.836061e+00   4.572586e-02
  3.437260e-01    1.823168e+00   4.539615e-02
  3.459364e-01    1.820968e+00   4.520093e-02
  3.481469e-01    1.842312e+00   4.529910e-02
  3.503573e-01    1.882416e+00   4.562268e-02
  3.525678e-01    1.868396e+00   4.529051e-02
  3.547782e-01    1.837489e+00   4.475199e-02
  3.569887e-01    1.815154e+00   4.432159e-02
  3.591992e-01    1.742995e+00   4.327800e-02
  3.614096e-01    1.752802e+00   4.324910e-02
  3.636201e-01    1.811718e+00   4.381544e-02
  3.658305e-01    1.809214e+00   4.363580e-02
  3.680410e-01    1.782387e+00   4.316211e-02
  3.702514e-01    1.807911e+00   4.332385e-02
  3.724619e-01    1.809609e+00   4.319661e-02
  3.746724e-01    1.817015e+00   4.314049e-02
  3.768828e-01    1.776072e+00   4.250815e-02
  3.790933e-01    1.774834e+00   4.235486e-02
  3.813037e-01    1.769190e+00   4.214912e-02
  3.835142e-01    1.740794e+00   4.167217e-02
  3.857246e-01    1.782284e+00   4.202939e-02
  3.879351e-01    1.781397e+00   4.188294e-02
  3.901455e-01    1.808832e+00   4.206984e-02
  3.923560e-01    1.811197e+00   4.196355e-02
  3.945665e-01    1.805795e+00   4.176804e-02
  3.967769e-01    1.848681e+00   4.212876e-02
  3.989874e-01    1.839070e+00   4.188791e-02
  4.011978e-01    1.802767e+00   4.134487e-02
  4.034083e-01    1.794389e+00   4.112207e-02
  4.056187e-01    1.819784e+00   4.128445e-02
  4.078292e-01    1.776915e+00   4.067185e-02
  4.100397e-01    1.801735e+00   4.082984e-02
  4.122501e-01    1.851880e+00   4.127029e-02
  4.144606e-01    1.801130e+00   4.058017e-02
  4.166710e-01    1.816216e+00   4.062860e-02
  4.188815e-01    1.811599e+00   4.045705e-02
  4.210919e-01    1.843335e+00   4.069030e-02
  4.233024e-01    1.829134e+00   4.041403e-02
  4.255128e-01    1.788300e+00   3.984487e-02
  4.277233e-01    1.766776e+00   3.949056e-02
  4.299338e-01    1.803077e+00   3.977940e-02
  4.321442e-01    1.826916e+00   3.992693e-02
  4.343547e-01    1.815997e+00   3.969488e-02
  4.365651e-01    1.830210e+00   3.973668e-02
  4.387756e-01    1.790667e+00   3.919503e-02
  4.409860e-01    1.767575e+00   3.883358e-02
  4.431965e-01    1.734321e+00   3.836018e-02
  4.454070e-01    1.807923e+00   3.905674e-02
  4.476174e-01    1.802917e+00   3.889554e-02
  4.498279e-01    1.768899e+00   3.842204e-02
  4.520383e-01    1.728938e+00   3.788130e-02
  4.542488e-01    1.746863e+00   3.797451e-02
  4.564592e-01    1.759002e+00   3.800397e-02
  4.586697e-01    1.749868e+00   3.780458e-02
  4.608801e-01    1.752547e+00   3.773217e-02
  4.630906e-01    1.767415e+00   3.779154e-02
  4.653011e-01    1.766953e+00   3.768725e-02
  4.675115e-01    1.737937e+00   3.727806e-02
  4.697220e-01    1.793125e+00   3.776620e-02
  4.719324e-01    1.767629e+00   3.739976e-02
  4.741429e-01    1.708784e+00   3.667721e-02
  4.763533e-01    1.711373e+00   3.661088e-02
  4.785638e-01    1.760770e+00   3.703955e-02
  4.807743e-01    1.780808e+00   3.715500e-02
  4.829847e-01    1.767384e+00   3.692120e-02
  4.851952e-01    1.687592e+00   3.598683e-02
  4.874056e-01    1.668285e+00   3.569016e-02
  4.896161e-01    1.712070e+00   3.606580e-02
  4.918265e-01    1.712698e+00   3.598286e-02
  4.940370e-01    1.668262e+00   3.542531e-02
  4.962475e-01    1.678536e+00   3.544648e-02
  4.984579e-01    1.687199e+00   3.545025e-02
  5.006684e-01    1.706080e+00   3.556114e-02
  5.028788e-01    1.714755e+00   3.556504e-02
  5.050893e-01    1.709789e+00   3.542713e-02
  5.072997e-01    1.722131e+00   3.546890e-02
  5.095102e-01    1.677856e+00   3.492615e-02
  5.117206e-01    1.705648e+00   3.513047e-02
  5.139311e-01    1.652932e+00   3.450149e-02
  5.161416e-01    1.626023e+00   3.413863e-02
  5.183520e-01    1.688010e+00   3.470059e-02
  5.205625e-01    1.680225e+00   3.453938e-02
  5.227729e-01    1.743834e+00   3.510503e-02
  5.249834e-01    1.694454e+00   3.452409e-02
  5.271938e-01    1.701057e+00   3.451059e-02
  5.294043e-01    1.670638e+00   3.412169e-02
  5.316148e-01    1.749444e+00   3.483722e-02
  5.338252e-01    1.762139e+00   3.488350e-02
  5.360357e-01    1.763053e+00   3.481311e-02
  5.382461e-01    1.758985e+00   3.469432e-02
  5.404566e-01    1.740439e+00   3.443240e-02
  5.426670e-01    1.747511e+00   3.442453e-02
  5.448775e-01    1.753666e+00   3.440806e-02
  5.470879e-01    1.786873e+00   3.465484e-02
  5.492984e-01    1.829944e+00   3.499204e-02
  5.515089e-01    1.804087e+00   3.466689e-02
  5.537193e-01    1.782302e+00   3.438104e-02
  5.559298e-01    1.761484e+00   3.410469e-02
  5.581402e-01    1.765050e+00   3.406458e-02
  5.603507e-01    1.835201e+00   3.465934e-02
  5.625611e-01    1.800017e+00   3.425102e-02
  5.647716e-01    1.788437e+00   3.406652e-02
  5.669821e-01    1.793581e+00   3.404194e-02
  5.691925e-01    1.803238e+00   3.406018e-02
  5.714030e-01    1.813321e+00   3.408247e-02
  5.736134e-01    1.769452e+00   3.359606e-02
  5.758239e-01    1.745781e+00   3.329936e-02
  5.780343e-01    1.760000e+00   3.336395e-02
  5.802448e-01    1.738811e+00   3.309312e-02
  5.824552e-01    1.624450e+00   3.191922e-02
  5.846657e-01    1.624475e+00   3.185292e-02
  5.868762e-01    1.662223e+00   3.215380e-02
  5.890866e-01    1.631224e+00   3.178649e-02
  5.912971e-01    1.595139e+00   3.136786e-02
  5.935075e-01    1.607920e+00   3.142817e-02
  5.957180e-01    1.646277e+00   3.173558e-02
  5.979284e-01    1.640589e+00   3.161605e-02
  6.001389e-01    1.639756e+00   3.154364e-02
  6.023494e-01    1.676872e+00   3.183390e-02
  6.045598e-01    1.644351e+00   3.145950e-02
  6.067703e-01    1.661703e+00   3.156145e-02
  6.089807e-01    1.691651e+00   3.178056e-02
  6.111912e-01    1.731640e+00   3.208981e-02
  6.134016e-01    1.667773e+00   3.142967e-02
  6.156121e-01    1.675585e+00   3.144055e-02
  6.178226e-01    1.687537e+00   3.149004e-02
  6.200330e-01    1.675815e+00   3.131857e-02
  6.222435e-01    1.669505e+00   3.119763e-02
  6.244539e-01    1.726661e+00   3.166502e-02
  6.266644e-01    1.758375e+00   3.189219e-02
  6.288748e-01    1.712434e+00   3.141155e-02
  6.310853e-01    1.693768e+00   3.117923e-02
  6.332957e-01    1.738667e+00   3.152879e-02
  6.355062e-01    1.735369e+00   3.143768e-02
  6.377167e-01    1.728359e+00   3.131393e-02
  6.399271e-01    1.689753e+00   3.090290e-02
  6.421376e-01    1.708483e+00   3.101436e-02
  6.443480e-01    1.714264e+00   3.100772e-02
  6.465585e-01    1.717423e+00   3.097746e-02
  6.487689e-01    1.698426e+00   3.074751e-02
  6.509794e-01    1.654769e+00   3.029251e-02
  6.531899e-01    1.614923e+00   2.986932e-02
  6.554003e-01    1.603894e+00   2.971115e-02
  6.576108e-01    1.605595e+00   2.967158e-02
  6.598212e-01    1.609069e+00   2.964845e-02
  6.620317e-01    1.630899e+00   2.979358e-02
  6.642421e-01    1.628968e+00   2.972084e-02
  6.664526e-01    1.612878e+00   2.951922e-02
  6.686630e-01    1.582924e+00   2.918974e-02
  6.708735e-01    1.587059e+00   2.917423e-02
  6.730840e-01    1.608068e+00   2.931315e-02
  6.752944e-01    1.620737e+00   2.937488e-02
  6.775049e-01    1.630363e+00   2.940848e-02
  6.797153e-01    1.627731e+00   2.933154e-02
  6.819258e-01    1.629772e+00   2.929697e-02
  6.841362e-01    1.637710e+00   2.931543e-02
  6.863467e-01    1.622288e+00   2.912482e-02
  6.885572e-01    1.629894e+00   2.914070e-02
  6.907676e-01    1.635344e+00   2.913708e-02
  6.929781e-01    1.583714e+00   2.862248e-02
  6.951885e-01    1.581338e+00   2.855034e-02
  6.973990e-01    1.610717e+00   2.876337e-02
  6.996094e-01    1.662078e+00   2.916698e-02
  7.018199e-01    1.626098e+00   2.879891e-02
  7.040303e-01    1.624930e+00   2.873801e-02
  7.062408e-01    1.606593e+00   2.852534e-02
  7.084513e-01    1.608185e+00   2.848981e-02
  7.106617e-01    1.632619e+00   2.865556e-02
  7.128722e-01    1.616341e+00   2.846301e-02
  7.150826e-01    1.605182e+00   2.831570e-02
  7.172931e-01    1.588582e+00   2.812036e-02
  7.195035e-01    1.576488e+00   2.796493e-02
  7.217140e-01    1.609721e+00   2.830816e-02
  7.239245e-01    1.579106e+00   2.826475e-02
  7.261349e-01    1.555582e+00   2.816136e-02
  7.283454e-01    1.576398e+00   2.842160e-02
  7.305558e-01    1.587754e+00   2.857801e-02
  7.327663e-01    1.587857e+00   2.862161e-02
  7.349767e-01    1.609791e+00   2.883517e-02
  7.371872e-01    1.596941e+00   2.870858e-02
  7.393976e-01    1.582348e+00   2.856283e-02
  7.416081e-01    1.575828e+00   2.848775e-02
  7.438186e-01    1.574835e+00   2.833443e-02
  7.460290e-01    1.596152e+00   2.822931e-02
  7.482395e-01    1.555183e+00   2.769458e-02
  7.504499e-01    1.543036e+00   2.745129e-02
  7.526604e-01    1.566578e+00   2.754366e-02
  7.548708e-01    1.564757e+00   2.743852e-02
  7.570813e-01    1.557117e+00   2.732076e-02
  7.592918e-01    1.568918e+00   2.738898e-02
  7.615022e-01    1.568371e+00   2.735048e-02
  7.637127e-01    1.557150e+00   2.721985e-02
  7.659231e-01    1.566986e+00   2.727377e-02
  7.681336e-01    1.586624e+00   2.741241e-02
  7.703440e-01    1.609771e+00   2.758009e-02
  7.725545e-01    1.583270e+00   2.732114e-02
  7.747650e-01    1.612327e+00   2.753208e-02
  7.769754e-01    1.545846e+00   2.690627e-02
  7.791859e-01    1.560554e+00   2.698074e-02
  7.813963e-01    1.554933e+00   2.687990e-02
  7.836068e-01    1.593016e+00   2.715495e-02
  7.858172e-01    1.589279e+00   2.707238e-02
  7.880277e-01    1.560766e+00   2.677740e-02
  7.902381e-01    1.614078e+00   2.718138e-02
  7.924486e-01    1.647880e+00   2.741367e-02
  7.946591e-01    1.614983e+00   2.709014e-02
  7.968695e-01    1.612104e+00   2.701756e-02
  7.990800e-01    1.622975e+00   2.706004e-02
  8.012904e-01    1.626720e+00   2.704439e-02
  8.035009e-01    1.642085e+00   2.712344e-02
  8.057113e-01    1.668168e+00   2.729077e-02
  8.079218e-01    1.670666e+00   2.726406e-02
  8.101323e-01    1.637101e+00   2.694296e-02
  8.123427e-01    1.639564e+00   2.691724e-02
  8.145532e-01    1.628075e+00   2.677689e-02
  8.167636e-01    1.627198e+00   2.672465e-02
  8.189741e-01    1.621992e+00   2.663738e-02
  8.211845e-01    1.641257e+00   2.675021e-02
  8.233950e-01    1.616555e+00   2.650497e-02
  8.256054e-01    1.625918e+00   2.653754e-02
  8.278159e-01    1.661967e+00   2.678586e-02
  8.300264e-01    1.651929e+00   2.666155e-02
  8.322368e-01    1.669730e+00   2.676131e-02
  8.344473e-01    1.650340e+00   2.656193e-02
  8.366577e-01    1.644454e+00   2.647188e-02
  8.388682e-01    1.620297e+00   2.623471e-02
  8.410786e-01    1.664300e+00   2.654618e-02
  8.432891e-01    1.683288e+00   2.665478e-02
  8.454996e-01    1.663086e+00   2.645243e-02
  8.477100e-01    1.631461e+00   2.615812e-02
  8.499205e-01    1.636727e+00   2.615916e-02
  8.521309e-01    1.612026e+00   2.592054e-02
  8.543414e-01    1.607326e+00   2.584233e-02
  8.565518e-01    1.624049e+00   2.593599e-02
  8.587623e-01    1.627014e+00   2.591922e-02
  8.609727e-01    1.657262e+00   2.611849e-02
  8.631832e-01    1.625937e+00   2.583060e-02
  8.653937e-01    1.596526e+00   2.555657e-02
  8.676041e-01    1.563840e+00   2.525545e-02
  8.698146e-01    1.594827e+00   2.546542e-02
  8.720250e-01    1.624093e+00   2.565887e-02
  8.742355e-01    1.601352e+00   2.543980e-02
  8.764459e-01    1.619848e+00   2.554727e-02
  8.786564e-01    1.596264e+00   2.532282e-02
  8.808669e-01    1.594583e+00   2.527109e-02
  8.830773e-01    1.629191e+00   2.550539e-02
  8.852878e-01    1.621811e+00   2.540942e-02
  8.874982e-01    1.628474e+00   2.542461e-02
  8.897087e-01    1.615376e+00   2.528431e-02
  8.919191e-01    1.636074e+00   2.540759e-02
  8.941296e-01    1.647423e+00   2.545776e-02
  8.963401e-01    1.600168e+00   2.505354e-02
  8.985505e-01    1.578741e+00   2.484853e-02
  9.007610e-01    1.569405e+00   2.473855e-02
  9.029714e-01    1.592737e+00   2.488601e-02
  9.051819e-01    1.589446e+00   2.482319e-02
  9.073923e-01    1.606832e+00   2.492192e-02
  9.096028e-01    1.625662e+00   2.503233e-02
  9.118132e-01    1.621865e+00   2.496663e-02
  9.140237e-01    1.598943e+00   2.475294e-02
  9.162342e-01    1.611804e+00   2.481761e-02
  9.184446e-01    1.610958e+00   2.477521e-02
  9.206551e-01    1.616175e+00   2.477954e-02
  9.228655e-01    1.608988e+00   2.468903e-02
  9.250760e-01    1.605639e+00   2.462794e-02
  9.272864e-01    1.627285e+00   2.475885e-02
  9.294969e-01    1.621851e+00   2.468148e-02
  9.317074e-01    1.598939e+00   2.447188e-02
  9.339178e-01    1.626531e+00   2.464841e-02
  9.361283e-01    1.623865e+00   2.459189e-02
  9.383387e-01    1.655933e+00   2.479975e-02
  9.405492e-01    1.638856e+00   2.463709e-02
  9.427596e-01    1.646178e+00   2.465652e-02
  9.449701e-01    1.661725e+00   2.473902e-02
  9.471805e-01    1.646570e+00   2.459107e-02
  9.493910e-01    1.695695e+00   2.492096e-02
  9.516015e-01    1.687069e+00   2.482279e-02
  9.538119e-01    1.687748e+00   2.479376e-02
  9.560224e-01    1.728303e+00   2.505455e-02
  9.582328e-01    1.761087e+00   2.525714e-02
  9.604433e-01    1.764462e+00   2.524553e-02
  9.626537e-01    1.771921e+00   2.526483e-02
  9.648642e-01    1.784323e+00   2.531835e-02
  9.670747e-01    1.808408e+00   2.545351e-02
  9.692851e-01    1.817229e+00   2.548161e-02
  9.714956e-01    1.804403e+00   2.535571e-02
  9.737060e-01    1.871851e+00   2.579132e-02
  9.759165e-01    1.893909e+00   2.590628e-02
  9.781269e-01    1.871816e+00   2.572105e-02
  9.803374e-01    1.862924e+00   2.562438e-02
  9.825478e-01    1.848104e+00   2.548859e-02
  9.847583e-01    1.832683e+00   2.534755e-02
  9.869688e-01    1.819592e+00   2.522307e-02
  9.891792e-01    1.783695e+00   2.493982e-02
  9.913897e-01    1.777193e+00   2.486074e-02
  9.936001e-01    1.735755e+00   2.453704e-02
  9.958106e-01    1.700754e+00   2.425537e-02
  9.980210e-01    1.657640e+00   2.391488e-02
  1.000231e+00    1.668274e+00   2.412289e-02
  1.002442e+00    1.627405e+00   2.395218e-02
  1.004652e+00    1.619153e+00   2.395802e-02
  1.006863e+00    1.587071e+00   2.376870e-02
  1.009073e+00    1.615505e+00   2.401737e-02
  1.011284e+00    1.607376e+00   2.398892e-02
  1.013494e+00    1.569680e+00   2.372945e-02
  1.015705e+00    1.565098e+00   2.371719e-02
  1.017915e+00    1.543918e+00   2.357239e-02
  1.020126e+00    1.587437e+00   2.391846e-02
  1.022336e+00    1.536781e+00   2.354535e-02
  1.024547e+00    1.548641e+00   2.364722e-02
  1.026757e+00    1.560288e+00   2.374438e-02
  1.028967e+00    1.565516e+00   2.379186e-02
  1.031178e+00    1.572704e+00   2.385267e-02
  1.033388e+00    1.542349e+00   2.362643e-02
  1.035599e+00    1.594342e+00   2.402482e-02
  1.037809e+00    1.667993e+00   2.457688e-02
  1.040020e+00    1.762660e+00   2.526608e-02
  1.042230e+00    1.705647e+00   2.485618e-02
  1.044441e+00    1.673535e+00   2.462084e-02
  1.046651e+00    1.838441e+00   2.580549e-02
  1.048862e+00    1.888469e+00   2.615350e-02
  1.051072e+00    1.675308e+00   2.463077e-02
  1.053282e+00    1.570206e+00   2.384466e-02
  1.055493e+00    1.542052e+00   2.362550e-02
  1.057703e+00    1.551691e+00   2.369771e-02
  1.059914e+00    1.544619e+00   2.363930e-02
  1.062124e+00    1.576613e+00   2.387867e-02
  1.064335e+00    1.725993e+00   2.498055e-02
  1.066545e+00    1.859437e+00   2.592161e-02
  1.068756e+00    1.672941e+00   2.458344e-02
  1.070966e+00    1.492573e+00   2.321380e-02
  1.073177e+00    1.467578e+00   2.301253e-02
  1.075387e+00    1.489622e+00   2.317945e-02
  1.077597e+00    1.509429e+00   2.332571e-02
  1.079808e+00    1.472286e+00   2.290384e-02
  1.082018e+00    1.466521e+00   2.266962e-02
  1.084229e+00    1.456871e+00   2.248504e-02
  1.086439e+00    1.398982e+00   2.194803e-02
  1.088650e+00    1.435856e+00   2.216020e-02
  1.090860e+00    1.460988e+00   2.228553e-02
  1.093071e+00    1.438620e+00   2.205235e-02
  1.095281e+00    1.440521e+00   2.200976e-02
  1.097492e+00    1.436438e+00   2.192382e-02
  1.099702e+00    1.431435e+00   2.183436e-02
  1.101912e+00    1.424717e+00   2.173447e-02
  1.104123e+00    1.432228e+00   2.174353e-02
  1.106333e+00    1.430107e+00   2.168304e-02
  1.108544e+00    1.437406e+00   2.169394e-02
  1.110754e+00    1.421016e+00   2.152696e-02
  1.112965e+00    1.431209e+00   2.156335e-02
  1.115175e+00    1.435085e+00   2.155116e-02
  1.117386e+00    1.396636e+00   2.122148e-02
  1.119596e+00    1.403335e+00   2.123454e-02
  1.121807e+00    1.416275e+00   2.129333e-02
  1.124017e+00    1.386305e+00   2.103044e-02
  1.126228e+00    1.414902e+00   2.121035e-02
  1.128438e+00    1.396912e+00   2.103840e-02
  1.130648e+00    1.379580e+00   2.087338e-02
  1.132859e+00    1.377347e+00   2.082236e-02
  1.135069e+00    1.390478e+00   2.088667e-02
  1.137280e+00    1.398291e+00   2.091220e-02
  1.139490e+00    1.380567e+00   2.074623e-02
  1.141701e+00    1.399462e+00   2.085443e-02
  1.143911e+00    1.392579e+00   2.077110e-02
  1.146122e+00    1.410113e+00   2.086912e-02
  1.148332e+00    1.371214e+00   2.054748e-02
  1.150543e+00    1.362016e+00   2.044778e-02
  1.152753e+00    1.354289e+00   2.035912e-02
  1.154963e+00    1.352006e+00   2.031114e-02
  1.157174e+00    1.357002e+00   2.031865e-02
  1.159384e+00    1.345638e+00   2.020385e-02
  1.161595e+00    1.366984e+00   2.033363e-02
  1.163805e+00    1.383245e+00   2.042480e-02
  1.166016e+00    1.373915e+00   2.032633e-02
  1.168226e+00    1.362765e+00   2.021475e-02
  1.170437e+00    1.363614e+00   2.019245e-02
  1.172647e+00    1.357081e+00   2.011522e-02
  1.174858e+00    1.377874e+00   2.024048e-02
  1.177068e+00    1.357837e+00   2.006459e-02
  1.179278e+00    1.362220e+00   2.006836e-02
  1.181489e+00    1.364938e+00   2.006130e-02
  1.183699e+00    1.370367e+00   2.007349e-02
  1.185910e+00    1.329448e+00   1.974403e-02
  1.188120e+00    1.359587e+00   1.993985e-02
  1.190331e+00    1.382228e+00   2.007818e-02
  1.192541e+00    1.370914e+00   1.996828e-02
  1.194752e+00    1.370565e+00   1.993853e-02
  1.196962e+00    1.356756e+00   1.981203e-02
  1.199173e+00    1.344834e+00   1.969836e-02
  1.201383e+00    1.339454e+00   1.963185e-02
  1.203593e+00    1.355958e+00   1.972755e-02
  1.205804e+00    1.349018e+00   1.965110e-02
  1.208014e+00    1.336536e+00   1.953325e-02
  1.210225e+00    1.359919e+00   1.967796e-02
  1.212435e+00    1.364479e+00   1.968601e-02
  1.214646e+00    1.327618e+00   1.939241e-02
  1.216856e+00    1.354232e+00   1.956027e-02
  1.219067e+00    1.350536e+00   1.950911e-02
  1.221277e+00    1.336218e+00   1.938051e-02
  1.223488e+00    1.358139e+00   1.951302e-02
  1.225698e+00    1.355110e+00   1.946429e-02
  1.227909e+00    1.333277e+00   1.927689e-02
  1.230119e+00    1.330015e+00   1.922166e-02
  1.232329e+00    1.319911e+00   1.911813e-02
  1.234540e+00    1.343878e+00   1.926071e-02
  1.236750e+00    1.317246e+00   1.903902e-02
  1.238961e+00    1.327355e+00   1.908517e-02
  1.241171e+00    1.368295e+00   1.935292e-02
  1.243382e+00    1.342770e+00   1.914812e-02
  1.245592e+00    1.338146e+00   1.909113e-02
  1.247803e+00    1.338515e+00   1.907021e-02
  1.250013e+00    1.334806e+00   1.902035e-02
  1.252224e+00    1.325363e+00   1.892992e-02
  1.254434e+00    1.369588e+00   1.921924e-02
  1.256644e+00    1.349598e+00   1.905527e-02
  1.258855e+00    1.325287e+00   1.885982e-02
  1.261065e+00    1.320544e+00   1.880291e-02
  1.263276e+00    1.311381e+00   1.871495e-02
  1.265486e+00    1.343716e+00   1.892144e-02
  1.267697e+00    1.358317e+00   1.900088e-02
  1.269907e+00    1.356824e+00   1.896770e-02
  1.272118e+00    1.350343e+00   1.889976e-02
  1.274328e+00    1.348576e+00   1.886467e-02
  1.276539e+00    1.330981e+00   1.871857e-02
  1.278749e+00    1.319117e+00   1.861293e-02
  1.280959e+00    1.340826e+00   1.874300e-02
  1.283170e+00    1.340679e+00   1.871962e-02
  1.285380e+00    1.351661e+00   1.877367e-02
  1.287591e+00    1.356998e+00   1.878862e-02
  1.289801e+00    1.356122e+00   1.876127e-02
  1.292012e+00    1.354518e+00   1.873305e-02
  1.294222e+00    1.349897e+00   1.868484e-02
  1.296433e+00    1.348035e+00   1.865635e-02
  1.298643e+00    1.362858e+00   1.874210e-02
  1.300854e+00    1.354965e+00   1.867131e-02
  1.303064e+00    1.358952e+00   1.867945e-02
  1.305274e+00    1.357387e+00   1.864721e-02
  1.307485e+00    1.346563e+00   1.855119e-02
  1.309695e+00    1.334141e+00   1.844333e-02
  1.311906e+00    1.341593e+00   1.847311e-02
  1.314116e+00    1.367627e+00   1.863056e-02
  1.316327e+00    1.372869e+00   1.864436e-02
  1.318537e+00    1.364416e+00   1.856489e-02
  1.320748e+00    1.361828e+00   1.852560e-02
  1.322958e+00    1.371620e+00   1.857142e-02
  1.325169e+00    1.387592e+00   1.865791e-02
  1.327379e+00    1.366988e+00   1.849695e-02
  1.329589e+00    1.362966e+00   1.844852e-02
  1.331800e+00    1.385844e+00   1.858175e-02
  1.334010e+00    1.367395e+00   1.843687e-02
  1.336221e+00    1.364616e+00   1.839625e-02
  1.338431e+00    1.358971e+00   1.833723e-02
  1.340642e+00    1.353808e+00   1.836661e-02
  1.342852e+00    1.342222e+00   1.838824e-02
  1.345063e+00    1.339050e+00   1.841578e-02
  1.347273e+00    1.350305e+00   1.852825e-02
  1.349484e+00    1.354976e+00   1.858800e-02
  1.351694e+00    1.361595e+00   1.865617e-02
  1.353905e+00    1.320977e+00   1.839359e-02
  1.356115e+00    1.333174e+00   1.849325e-02
  1.358325e+00    1.331842e+00   1.849725e-02
  1.360536e+00    1.342165e+00   1.858038e-02
  1.362746e+00    1.343005e+00   1.859574e-02
  1.364957e+00    1.313993e+00   1.840135e-02
  1.367167e+00    1.327490e+00   1.850271e-02
  1.369378e+00    1.330586e+00   1.853025e-02
  1.371588e+00    1.336869e+00   1.857909e-02
  1.373799e+00    1.299825e+00   1.832348e-02
  1.376009e+00    1.295268e+00   1.829468e-02
  1.378220e+00    1.316370e+00   1.844558e-02
  1.380430e+00    1.320058e+00   1.847414e-02
  1.382640e+00    1.309248e+00   1.839922e-02
  1.384851e+00    1.299766e+00   1.833335e-02
  1.387061e+00    1.278867e+00   1.818565e-02
  1.389272e+00    1.299085e+00   1.832904e-02
  1.391482e+00    1.283820e+00   1.822037e-02
  1.393693e+00    1.279308e+00   1.818745e-02
  1.395903e+00    1.261497e+00   1.805892e-02
  1.398114e+00    1.253422e+00   1.799966e-02
  1.400324e+00    1.269396e+00   1.811185e-02
  1.402535e+00    1.293746e+00   1.828243e-02
  1.404745e+00    1.276237e+00   1.815594e-02
  1.406955e+00    1.290316e+00   1.825307e-02
  1.409166e+00    1.292148e+00   1.826272e-02
  1.411376e+00    1.241703e+00   1.789961e-02
  1.413587e+00    1.227088e+00   1.779018e-02
  1.415797e+00    1.271523e+00   1.810590e-02
  1.418008e+00    1.256496e+00   1.795696e-02
  1.420218e+00    1.226962e+00   1.759747e-02
  1.422429e+00    1.243314e+00   1.762994e-02
  1.424639e+00    1.260917e+00   1.768984e-02
  1.426850e+00    1.262238e+00   1.764458e-02
  1.429060e+00    1.272676e+00   1.766834e-02
  1.431270e+00    1.277246e+00   1.765561e-02
  1.433481e+00    1.286961e+00   1.768138e-02
  1.435691e+00    1.287017e+00   1.764310e-02
  1.437902e+00    1.299077e+00   1.768868e-02
  1.440112e+00    1.283143e+00   1.754436e-02
  1.442323e+00    1.274507e+00   1.745209e-02
  1.444533e+00    1.277596e+00   1.744060e-02
  1.446744e+00    1.249624e+00   1.721773e-02
  1.448954e+00    1.282287e+00   1.741095e-02
  1.451165e+00    1.261612e+00   1.724038e-02
  1.453375e+00    1.254925e+00   1.716674e-02
  1.455586e+00    1.254443e+00   1.713545e-02
  1.457796e+00    1.271665e+00   1.722514e-02
  1.460006e+00    1.276066e+00   1.722761e-02
  1.462217e+00    1.277282e+00   1.720952e-02
  1.464427e+00    1.285427e+00   1.723854e-02
  1.466638e+00    1.260840e+00   1.704765e-02
  1.468848e+00    1.251528e+00   1.695940e-02
  1.471059e+00    1.258023e+00   1.697839e-02
  1.473269e+00    1.221146e+00   1.670377e-02
  1.475480e+00    1.248803e+00   1.686828e-02
  1.477690e+00    1.268918e+00   1.697975e-02
  1.479901e+00    1.277328e+00   1.701201e-02
  1.482111e+00    1.257620e+00   1.685703e-02
  1.484321e+00    1.268134e+00   1.690420e-02
  1.486532e+00    1.279593e+00   1.695797e-02
  1.488742e+00    1.261091e+00   1.681231e-02
  1.490953e+00    1.271660e+00   1.685994e-02
  1.493163e+00    1.255515e+00   1.673037e-02
  1.495374e+00    1.254144e+00   1.669981e-02
  1.497584e+00    1.244599e+00   1.661464e-02
  1.499795e+00    1.225791e+00   1.646726e-02
  1.502005e+00    1.244082e+00   1.656813e-02
  1.504216e+00    1.243660e+00   1.654440e-02
  1.506426e+00    1.276226e+00   1.673865e-02
  1.508636e+00    1.254347e+00   1.657414e-02
  1.510847e+00    1.244016e+00   1.648403e-02
  1.513057e+00    1.248174e+00   1.648655e-02
  1.515268e+00    1.239429e+00   1.640313e-02
  1.517478e+00    1.247299e+00   1.643004e-02
  1.519689e+00    1.232875e+00   1.631003e-02
  1.521899e+00    1.242462e+00   1.635029e-02
  1.524110e+00    1.285120e+00   1.660803e-02
  1.526320e+00    1.245928e+00   1.633330e-02
  1.528531e+00    1.242647e+00   1.629207e-02
  1.530741e+00    1.223512e+00   1.614720e-02
  1.532951e+00    1.233696e+00   1.619480e-02
  1.535162e+00    1.263883e+00   1.647882e-02
  1.537372e+00    1.249301e+00   1.645041e-02
  1.539583e+00    1.239249e+00   1.641821e-02
  1.541793e+00    1.236050e+00   1.640390e-02
  1.544004e+00    1.244843e+00   1.646242e-02
  1.546214e+00    1.248443e+00   1.648468e-02
  1.548425e+00    1.280085e+00   1.669255e-02
  1.550635e+00    1.251057e+00   1.651191e-02
  1.552846e+00    1.220391e+00   1.631785e-02
  1.555056e+00    1.224033e+00   1.630103e-02
  1.557266e+00    1.221352e+00   1.617375e-02
  1.559477e+00    1.224337e+00   1.613486e-02
  1.561687e+00    1.260776e+00   1.634233e-02
  1.563898e+00    1.290223e+00   1.651460e-02
  1.566108e+00    1.357165e+00   1.692093e-02
  1.568319e+00    1.377382e+00   1.703010e-02
  1.570529e+00    1.322481e+00   1.666135e-02
  1.572740e+00    1.268441e+00   1.628950e-02
  1.574950e+00    1.239886e+00   1.607881e-02
  1.577161e+00    1.253448e+00   1.614095e-02
  1.579371e+00    1.248171e+00   1.608324e-02
  1.581582e+00    1.255297e+00   1.610923e-02
  1.583792e+00    1.252630e+00   1.607403e-02
  1.586002e+00    1.249017e+00   1.603318e-02
  1.588213e+00    1.232328e+00   1.590854e-02
  1.590423e+00    1.238860e+00   1.593063e-02
  1.592634e+00    1.232780e+00   1.586995e-02
  1.594844e+00    1.235856e+00   1.586841e-02
  1.597055e+00    1.234131e+00   1.583690e-02
  1.599265e+00    1.243369e+00   1.587532e-02
  1.601476e+00    1.250440e+00   1.590002e-02
  1.603686e+00    1.239615e+00   1.581129e-02
  1.605897e+00    1.246866e+00   1.583725e-02
  1.608107e+00    1.229612e+00   1.570779e-02
  1.610317e+00    1.242244e+00   1.576892e-02
  1.612528e+00    1.206908e+00   1.552408e-02
  1.614738e+00    1.213557e+00   1.554796e-02
  1.616949e+00    1.189079e+00   1.537168e-02
  1.619159e+00    1.206739e+00   1.546680e-02
  1.621370e+00    1.192750e+00   1.535864e-02
  1.623580e+00    1.190001e+00   1.532277e-02
  1.625791e+00    1.191180e+00   1.531224e-02
  1.628001e+00    1.157082e+00   1.507358e-02
  1.630212e+00    1.171561e+00   1.514999e-02
  1.632422e+00    1.178493e+00   1.517691e-02
  1.634632e+00    1.175361e+00   1.513948e-02
  1.636843e+00    1.148926e+00   1.495094e-02
  1.639053e+00    1.143931e+00   1.490133e-02
  1.641264e+00    1.142423e+00   1.487461e-02
  1.643474e+00    1.147770e+00   1.489209e-02
  1.645685e+00    1.149315e+00   1.488550e-02
  1.647895e+00    1.165307e+00   1.497206e-02
  1.650106e+00    1.151901e+00   1.486868e-02
  1.652316e+00    1.136914e+00   1.475524e-02
  1.654527e+00    1.132302e+00   1.470867e-02
  1.656737e+00    1.131565e+00   1.468736e-02
  1.658947e+00    1.144267e+00   1.475320e-02
  1.661158e+00    1.157028e+00   1.481875e-02
  1.663368e+00    1.154933e+00   1.478908e-02
  1.665579e+00    1.131598e+00   1.462269e-02
  1.667789e+00    1.103080e+00   1.442111e-02
  1.670000e+00    1.087021e+00   1.430045e-02
  1.672210e+00    1.080709e+00   1.424317e-02
  1.674421e+00    1.081516e+00   1.423334e-02
  1.676631e+00    1.086715e+00   1.425174e-02
  1.678842e+00    1.111524e+00   1.439763e-02
  1.681052e+00    1.119533e+00   1.443387e-02
  1.683263e+00    1.082173e+00   1.417590e-02
  1.685473e+00    1.067934e+00   1.406729e-02
  1.687683e+00    1.060446e+00   1.400264e-02
  1.689894e+00    1.054234e+00   1.394597e-02
  1.692104e+00    1.060513e+00   1.397265e-02
  1.694315e+00    1.051931e+00   1.390161e-02
  1.696525e+00    1.060102e+00   1.394043e-02
  1.698736e+00    1.058035e+00   1.391205e-02
  1.700946e+00    1.038891e+00   1.377064e-02
  1.703157e+00    1.039397e+00   1.375947e-02
  1.705367e+00    1.050419e+00   1.381776e-02
  1.707578e+00    1.043895e+00   1.376024e-02
  1.709788e+00    1.010592e+00   1.352510e-02
  1.711998e+00    1.018259e+00   1.356146e-02
  1.714209e+00    1.017166e+00   1.353990e-02
  1.716419e+00    1.013647e+00   1.350234e-02
  1.718630e+00    1.022476e+00   1.354679e-02
  1.720840e+00    1.017437e+00   1.349928e-02
  1.723051e+00    1.003866e+00   1.339523e-02
  1.725261e+00    1.003411e+00   1.337763e-02
  1.727472e+00    9.895452e-01   1.327092e-02
  1.729682e+00    9.855078e-01   1.323055e-02
  1.731893e+00    9.983695e-01   1.330277e-02
  1.734103e+00    1.007396e+00   1.334902e-02
  1.736313e+00    1.006452e+00   1.332874e-02
  1.738524e+00    1.012499e+00   1.335482e-02
  1.740734e+00    9.917610e-01   1.320370e-02
  1.742945e+00    9.768278e-01   1.309059e-02
  1.745155e+00    9.820142e-01   1.311192e-02
  1.747366e+00    9.770142e-01   1.306477e-02
  1.749576e+00    9.773649e-01   1.305350e-02
  1.751787e+00    9.696472e-01   1.298861e-02
  1.753997e+00    9.529383e-01   1.286302e-02
  1.756208e+00    9.583021e-01   1.288607e-02
  1.758418e+00    9.618014e-01   1.289654e-02
  1.760628e+00    9.493377e-01   1.279949e-02
  1.762839e+00    9.540576e-01   1.281812e-02
  1.765049e+00    9.362547e-01   1.268504e-02
  1.767260e+00    9.259794e-01   1.260264e-02
  1.769470e+00    9.175227e-01   1.253224e-02
  1.771681e+00    9.479798e-01   1.272542e-02
  1.773891e+00    9.498986e-01   1.272527e-02
  1.776102e+00    9.289616e-01   1.257149e-02
  1.778312e+00    9.118100e-01   1.244240e-02
  1.780523e+00    9.033843e-01   1.237228e-02
  1.782733e+00    9.412236e-01   1.261604e-02
  1.784944e+00    9.321619e-01   1.254231e-02
  1.787154e+00    9.188505e-01   1.243999e-02
  1.789364e+00    9.278712e-01   1.248845e-02
  1.791575e+00    9.518663e-01   1.263615e-02
  1.793785e+00    9.800810e-01   1.280932e-02
  1.795996e+00    9.528401e-01   1.261733e-02
  1.798206e+00    9.332793e-01   1.247451e-02
  1.800417e+00    9.613014e-01   1.264741e-02
  1.802627e+00    9.517020e-01   1.257195e-02
  1.804838e+00    9.636711e-01   1.263827e-02
  1.807048e+00    1.005813e+00   1.289817e-02
  1.809259e+00    9.579353e-01   1.257351e-02
  1.811469e+00    8.970838e-01   1.215266e-02
  1.813679e+00    9.093611e-01   1.222050e-02
  1.815890e+00    9.234957e-01   1.230015e-02
  1.818100e+00    9.033276e-01   1.214995e-02
  1.820311e+00    8.898505e-01   1.204423e-02
  1.822521e+00    9.007846e-01   1.210306e-02
  1.824732e+00    8.746616e-01   1.191160e-02
  1.826942e+00    8.566157e-01   1.177596e-02
  1.829153e+00    8.648590e-01   1.182092e-02
  1.831363e+00    8.676152e-01   1.182782e-02
  1.833574e+00    8.777753e-01   1.188522e-02
  1.835784e+00    8.599012e-01   1.175228e-02
  1.837994e+00    8.959125e-01   1.198400e-02
  1.840205e+00    8.900353e-01   1.193337e-02
  1.842415e+00    8.843719e-01   1.188350e-02
  1.844626e+00    8.770061e-01   1.182230e-02
  1.846836e+00    8.817129e-01   1.184247e-02
  1.849047e+00    8.728329e-01   1.177102e-02
  1.851257e+00    8.542749e-01   1.163571e-02
  1.853468e+00    8.483992e-01   1.158688e-02
  1.855678e+00    8.575464e-01   1.164031e-02
  1.857889e+00    8.502488e-01   1.158221e-02
  1.860099e+00    8.613274e-01   1.164879e-02
  1.862309e+00    8.484212e-01   1.155271e-02
  1.864520e+00    8.448939e-01   1.152015e-02
  1.866730e+00    8.513436e-01   1.155467e-02
  1.868941e+00    8.796036e-01   1.173376e-02
  1.871151e+00    8.669407e-01   1.163752e-02
  1.873362e+00    8.527703e-01   1.153064e-02
  1.875572e+00    8.375102e-01   1.141616e-02
  1.877783e+00    8.427494e-01   1.144040e-02
  1.879993e+00    8.515721e-01   1.148896e-02
  1.882204e+00    8.387865e-01   1.139152e-02
  1.884414e+00    8.436134e-01   1.141317e-02
  1.886624e+00    8.485957e-01   1.143573e-02
  1.888835e+00    8.384206e-01   1.135601e-02
  1.891045e+00    8.312672e-01   1.129664e-02
  1.893256e+00    8.236708e-01   1.123390e-02
  1.895466e+00    8.424411e-01   1.134999e-02
  1.897677e+00    8.344299e-01   1.128497e-02
  1.899887e+00    8.382428e-01   1.129973e-02
  1.902098e+00    8.141264e-01   1.112526e-02
  1.904308e+00    8.183427e-01   1.114352e-02
  1.906519e+00    8.104503e-01   1.107896e-02
  1.908729e+00    8.087109e-01   1.105657e-02
  1.910940e+00    8.156581e-01   1.109293e-02
  1.913150e+00    7.926039e-01   1.092466e-02
  1.915360e+00    8.129286e-01   1.105328e-02
  1.917571e+00    8.267477e-01   1.113595e-02
  1.919781e+00    8.202746e-01   1.108160e-02
  1.921992e+00    8.128498e-01   1.102075e-02
  1.924202e+00    8.078380e-01   1.097602e-02
  1.926413e+00    8.275735e-01   1.109890e-02
  1.928623e+00    8.280434e-01   1.109145e-02
  1.930834e+00    8.147794e-01   1.099180e-02
  1.933044e+00    7.900332e-01   1.081308e-02
  1.935255e+00    8.068233e-01   1.091704e-02
  1.937465e+00    7.948846e-01   1.082569e-02
  1.939675e+00    8.005243e-01   1.085321e-02
  1.941886e+00    8.096417e-01   1.090452e-02
  1.944096e+00    7.917814e-01   1.077349e-02
  1.946307e+00    8.019766e-01   1.083226e-02
  1.948517e+00    7.962584e-01   1.078317e-02
  1.950728e+00    7.994928e-01   1.079479e-02
  1.952938e+00    8.027256e-01   1.080647e-02
  1.955149e+00    7.964764e-01   1.075409e-02
  1.957359e+00    7.792493e-01   1.062724e-02
  1.959570e+00    7.854947e-01   1.065889e-02
  1.961780e+00    8.049634e-01   1.078023e-02
  1.963990e+00    7.837070e-01   1.062685e-02
  1.966201e+00    7.866952e-01   1.063706e-02
  1.968411e+00    7.855304e-01   1.061906e-02
  1.970622e+00    7.829124e-01   1.059129e-02
  1.972832e+00    7.823166e-01   1.057732e-02
  1.975043e+00    7.820424e-01   1.056544e-02
  1.977253e+00    7.845654e-01   1.057253e-02
  1.979464e+00    7.767410e-01   1.050969e-02
  1.981674e+00    7.848577e-01   1.055418e-02
  1.983885e+00    7.835010e-01   1.053502e-02
  1.986095e+00    7.823318e-01   1.051744e-02
  1.988305e+00    7.931536e-01   1.057997e-02
  1.990516e+00    7.711067e-01   1.042202e-02
  1.992726e+00    7.503079e-01   1.027099e-02
  1.994937e+00    7.571418e-01   1.030766e-02
  1.997147e+00    7.600288e-01   1.031768e-02
  1.999358e+00    7.674888e-01   1.035837e-02
  2.001568e+00    7.775126e-01   1.041495e-02
  2.003779e+00    7.709105e-01   1.035874e-02
  2.005989e+00    7.720206e-01   1.035416e-02
  2.008200e+00    7.835385e-01   1.041950e-02
  2.010410e+00    7.702269e-01   1.031886e-02
  2.012621e+00    7.774068e-01   1.035506e-02
  2.014831e+00    7.566189e-01   1.020430e-02
  2.017041e+00    7.581940e-01   1.020458e-02
  2.019252e+00    7.663851e-01   1.024959e-02
  2.021462e+00    7.669125e-01   1.024360e-02
  2.023673e+00    7.510149e-01   1.012757e-02
  2.025883e+00    7.576097e-01   1.016243e-02
  2.028094e+00    7.688587e-01   1.022795e-02
  2.030304e+00    7.659213e-01   1.019881e-02
  2.032515e+00    7.660815e-01   1.019055e-02
  2.034725e+00    7.613362e-01   1.014949e-02
  2.036936e+00    7.681975e-01   1.018572e-02
  2.039146e+00    7.571702e-01   1.010278e-02
  2.041356e+00    7.520466e-01   1.005893e-02
  2.043567e+00    7.511606e-01   1.004372e-02
  2.045777e+00    7.627881e-01   1.011185e-02
  2.047988e+00    7.460819e-01   9.991220e-03
  2.050198e+00    7.385173e-01   9.932070e-03
  2.052409e+00    7.433355e-01   9.956813e-03
  2.054619e+00    7.395608e-01   9.924190e-03
  2.056830e+00    7.262780e-01   9.827608e-03
  2.059040e+00    7.211099e-01   9.785211e-03
  2.061251e+00    7.483293e-01   9.960933e-03
  2.063461e+00    7.502418e-01   9.966065e-03
  2.065671e+00    7.548496e-01   9.987860e-03
  2.067882e+00    7.546760e-01   9.977683e-03
  2.070092e+00    7.482361e-01   9.925812e-03
  2.072303e+00    7.458829e-01   9.901064e-03
  2.074513e+00    7.574843e-01   9.968357e-03
  2.076724e+00    7.684139e-01   1.003041e-02
  2.078934e+00    7.638319e-01   9.991342e-03
  2.081145e+00    7.295706e-01   9.755695e-03
  2.083355e+00    7.266697e-01   9.727182e-03
  2.085566e+00    7.406737e-01   9.811566e-03
  2.087776e+00    7.414179e-01   9.806966e-03
  2.089986e+00    7.508225e-01   9.860118e-03
  2.092197e+00    7.544858e-01   9.875083e-03
  2.094407e+00    7.344021e-01   9.733563e-03
  2.096618e+00    7.115963e-01   9.572472e-03
  2.098828e+00    7.096016e-01   9.549899e-03
  2.101039e+00    7.230188e-01   9.630832e-03
  2.103249e+00    7.381409e-01   9.722316e-03
  2.105460e+00    7.393219e-01   9.721029e-03
  2.107670e+00    7.346926e-01   9.681782e-03
  2.109881e+00    7.115302e-01   9.518872e-03
  2.112091e+00    7.212457e-01   9.574672e-03
  2.114301e+00    7.258262e-01   9.596245e-03
  2.116512e+00    7.133602e-01   9.504751e-03
  2.118722e+00    7.005582e-01   9.410382e-03
  2.120933e+00    7.191225e-01   9.525382e-03
  2.123143e+00    7.178060e-01   9.507781e-03
  2.125354e+00    7.045718e-01   9.411266e-03
  2.127564e+00    7.067850e-01   9.417358e-03
  2.129775e+00    7.092220e-01   9.424898e-03
  2.131985e+00    7.219788e-01   9.500178e-03
  2.134196e+00    7.108248e-01   9.417932e-03
  2.136406e+00    7.001444e-01   9.338251e-03
  2.138617e+00    7.010940e-01   9.336164e-03
  2.140827e+00    6.993194e-01   9.340305e-03
  2.143037e+00    6.971468e-01   9.370922e-03
  2.145248e+00    7.113234e-01   9.487825e-03
  2.147458e+00    7.042695e-01   9.455797e-03
  2.149669e+00    6.969983e-01   9.418664e-03
  2.151879e+00    6.932642e-01   9.402554e-03
  2.154090e+00    7.093025e-01   9.518061e-03
  2.156300e+00    7.052217e-01   9.497266e-03
  2.158511e+00    6.931011e-01   9.420581e-03
  2.160721e+00    6.988177e-01   9.464161e-03
  2.162932e+00    7.002974e-01   9.477924e-03
  2.165142e+00    7.086676e-01   9.537436e-03
  2.167352e+00    6.972171e-01   9.463004e-03
  2.169563e+00    6.926956e-01   9.434224e-03
  2.171773e+00    6.827909e-01   9.368929e-03
  2.173984e+00    7.066641e-01   9.532750e-03
  2.176194e+00    6.901793e-01   9.422123e-03
  2.178405e+00    6.772004e-01   9.333777e-03
  2.180615e+00    6.729150e-01   9.304889e-03
  2.182826e+00    6.628206e-01   9.235480e-03
  2.185036e+00    6.789792e-01   9.347428e-03
  2.187247e+00    6.845286e-01   9.385499e-03
  2.189457e+00    6.919292e-01   9.435695e-03
  2.191667e+00    6.923771e-01   9.438572e-03
  2.193878e+00    6.900598e-01   9.422203e-03
  2.196088e+00    6.826696e-01   9.370923e-03
  2.198299e+00    6.697891e-01   9.281032e-03
  2.200509e+00    6.684504e-01   9.270683e-03
  2.202720e+00    6.728524e-01   9.300034e-03
  2.204930e+00    6.780335e-01   9.334517e-03
  2.207141e+00    6.831061e-01   9.368265e-03
  2.209351e+00    6.751562e-01   9.311712e-03
  2.211562e+00    6.751155e-01   9.309817e-03
  2.213772e+00    6.829916e-01   9.308222e-03
  2.215982e+00    6.785291e-01   9.233500e-03
  2.218193e+00    6.672404e-01   9.126894e-03
  2.220403e+00    6.763231e-01   9.164182e-03
  2.222614e+00    6.862143e-01   9.209841e-03
  2.224824e+00    6.563829e-01   8.988274e-03
  2.227035e+00    6.806442e-01   9.135331e-03
  2.229245e+00    6.871653e-01   9.161832e-03
  2.231456e+00    6.638086e-01   8.989281e-03
  2.233666e+00    6.565199e-01   8.924819e-03
  2.235877e+00    6.687076e-01   8.993056e-03
  2.238087e+00    6.713894e-01   8.997564e-03
  2.240298e+00    6.716980e-01   8.985852e-03
  2.242508e+00    6.653616e-01   8.928270e-03
  2.244718e+00    6.665713e-01   8.920589e-03
  2.246929e+00    6.826414e-01   9.012924e-03
  2.249139e+00    6.674065e-01   8.899400e-03
  2.251350e+00    6.714553e-01   8.914591e-03
  2.253560e+00    6.684848e-01   8.883296e-03
  2.255771e+00    6.533965e-01   8.771151e-03
  2.257981e+00    6.611053e-01   8.811599e-03
  2.260192e+00    6.581594e-01   8.780890e-03
  2.262402e+00    6.543709e-01   8.744794e-03
  2.264613e+00    6.696744e-01   8.835589e-03
  2.266823e+00    6.712871e-01   8.835747e-03
  2.269033e+00    6.719640e-01   8.829780e-03
  2.271244e+00    6.560856e-01   8.714468e-03
  2.273454e+00    6.680984e-01   8.783593e-03
  2.275665e+00    6.516294e-01   8.664427e-03
  2.277875e+00    6.580094e-01   8.696831e-03
  2.280086e+00    6.673294e-01   8.748106e-03
  2.282296e+00    6.737118e-01   8.780335e-03
  2.284507e+00    6.656128e-01   8.717236e-03
  2.286717e+00    6.503727e-01   8.607423e-03
  2.288928e+00    6.586700e-01   8.652285e-03
  2.291138e+00    6.506675e-01   8.590195e-03
  2.293348e+00    6.324618e-01   8.459791e-03
  2.295559e+00    6.382505e-01   8.489217e-03
  2.297769e+00    6.485350e-01   8.548141e-03
  2.299980e+00    6.657343e-01   8.651323e-03
  2.302190e+00    6.552211e-01   8.573607e-03
  2.304401e+00    6.528820e-01   8.548963e-03
  2.306611e+00    6.457188e-01   8.492780e-03
  2.308822e+00    6.674611e-01   8.626085e-03
  2.311032e+00    6.421180e-01   8.454346e-03
  2.313243e+00    6.372207e-01   8.415818e-03
  2.315453e+00    6.528256e-01   8.510641e-03
  2.317663e+00    6.399968e-01   8.417541e-03
  2.319874e+00    6.555458e-01   8.510376e-03
  2.322084e+00    6.611230e-01   8.537458e-03
  2.324295e+00    6.491778e-01   8.451717e-03
  2.326505e+00    6.317146e-01   8.328311e-03
  2.328716e+00    6.400459e-01   8.374501e-03
  2.330926e+00    6.470237e-01   8.411218e-03
  2.333137e+00    6.623319e-01   8.501620e-03
  2.335347e+00    6.460648e-01   8.387687e-03
  2.337558e+00    6.474876e-01   8.388634e-03
  2.339768e+00    6.405181e-01   8.334790e-03
  2.341979e+00    6.429793e-01   8.342384e-03
  2.344189e+00    6.473992e-01   8.362554e-03
  2.346399e+00    6.414238e-01   8.315351e-03
  2.348610e+00    6.288083e-01   8.224760e-03
  2.350820e+00    6.240565e-01   8.185494e-03
  2.353031e+00    6.313565e-01   8.224986e-03
  2.355241e+00    6.162031e-01   8.117726e-03
  2.357452e+00    6.217026e-01   8.145520e-03
  2.359662e+00    6.239351e-01   8.151954e-03
  2.361873e+00    6.240135e-01   8.144288e-03
  2.364083e+00    6.283124e-01   8.164303e-03
  2.366294e+00    6.240054e-01   8.128182e-03
  2.368504e+00    6.084987e-01   8.018614e-03
  2.370714e+00    6.329705e-01   8.170136e-03
  2.372925e+00    6.311505e-01   8.150314e-03
  2.375135e+00    6.164650e-01   8.046928e-03
  2.377346e+00    6.131096e-01   8.017109e-03
  2.379556e+00    6.299622e-01   8.118612e-03
  2.381767e+00    6.143502e-01   8.009559e-03
  2.383977e+00    6.165692e-01   8.016107e-03
  2.386188e+00    6.139904e-01   7.991434e-03
  2.388398e+00    6.273371e-01   8.069821e-03
  2.390609e+00    6.204219e-01   8.017489e-03
  2.392819e+00    6.040903e-01   7.903548e-03
  2.395029e+00    6.172699e-01   7.981625e-03
  2.397240e+00    6.127334e-01   7.944398e-03
  2.399450e+00    5.949628e-01   7.820658e-03
  2.401661e+00    5.964944e-01   7.823128e-03
  2.403871e+00    6.031098e-01   7.858686e-03
  2.406082e+00    6.113212e-01   7.904557e-03
  2.408292e+00    6.009720e-01   7.829630e-03
  2.410503e+00    6.091943e-01   7.875502e-03
  2.412713e+00    6.113446e-01   7.881583e-03
  2.414924e+00    5.954768e-01   7.771208e-03
  2.417134e+00    5.957952e-01   7.765692e-03
  2.419344e+00    5.944598e-01   7.749638e-03
  2.421555e+00    5.917638e-01   7.724604e-03
  2.423765e+00    5.972311e-01   7.752805e-03
  2.425976e+00    5.917519e-01   7.709423e-03
  2.428186e+00    5.869180e-01   7.670722e-03
  2.430397e+00    5.835754e-01   7.641451e-03
  2.432607e+00    5.702996e-01   7.546902e-03
  2.434818e+00    5.831968e-01   7.624309e-03
  2.437028e+00    5.831377e-01   7.616822e-03
  2.439239e+00    5.970433e-01   7.699439e-03
  2.441449e+00    5.867157e-01   7.625397e-03
  2.443659e+00    5.776698e-01   7.559119e-03
  2.445870e+00    5.781208e-01   7.574189e-03
  2.448080e+00    5.798867e-01   7.620472e-03
  2.450291e+00    5.734683e-01   7.594716e-03
  2.452501e+00    5.867020e-01   7.693119e-03
  2.454712e+00    5.707814e-01   7.596442e-03
  2.456922e+00    5.651165e-01   7.565224e-03
  2.459133e+00    5.819464e-01   7.682553e-03
  2.461343e+00    5.686312e-01   7.598523e-03
  2.463554e+00    5.552926e-01   7.512314e-03
  2.465764e+00    5.635281e-01   7.570937e-03
  2.467975e+00    5.579502e-01   7.535681e-03
  2.470185e+00    5.530375e-01   7.504651e-03
  2.472395e+00    5.527236e-01   7.503762e-03
  2.474606e+00    5.493785e-01   7.482549e-03
  2.476816e+00    5.513491e-01   7.496723e-03
  2.479027e+00    5.389360e-01   7.412672e-03
  2.481237e+00    5.401958e-01   7.421622e-03
  2.483448e+00    5.306388e-01   7.355959e-03
  2.485658e+00    5.351427e-01   7.386978e-03
  2.487869e+00    5.365176e-01   7.396495e-03
  2.490079e+00    5.282136e-01   7.338524e-03
  2.492290e+00    5.425768e-01   7.437180e-03
  2.494500e+00    5.332367e-01   7.372187e-03
  2.496710e+00    5.215583e-01   7.290309e-03
  2.498921e+00    5.268278e-01   7.326051e-03
  2.501131e+00    5.230836e-01   7.299055e-03
  2.503342e+00    5.243457e-01   7.306583e-03
  2.505552e+00    5.264907e-01   7.320394e-03
  2.507763e+00    5.219910e-01   7.287644e-03
  2.509973e+00    5.106178e-01   7.206433e-03
  2.512184e+00    5.265803e-01   7.316594e-03
  2.514394e+00    5.386494e-01   7.390507e-03
  2.516605e+00    5.314757e-01   7.293854e-03
  2.518815e+00    5.170076e-01   7.165801e-03
  2.521025e+00    5.207348e-01   7.170713e-03
  2.523236e+00    5.170235e-01   7.127278e-03
  2.525446e+00    5.219780e-01   7.145797e-03
  2.527657e+00    5.234230e-01   7.141109e-03
  2.529867e+00    5.114713e-01   7.045106e-03
  2.532078e+00    5.258293e-01   7.128255e-03
  2.534288e+00    5.293779e-01   7.138320e-03
  2.536499e+00    5.389211e-01   7.190279e-03
  2.538709e+00    5.246713e-01   7.083582e-03
  2.540920e+00    5.286536e-01   7.099728e-03
  2.543130e+00    5.202879e-01   7.032996e-03
  2.545340e+00    5.183498e-01   7.009877e-03
  2.547551e+00    5.176764e-01   6.995433e-03
  2.549761e+00    5.220261e-01   7.015165e-03
  2.551972e+00    5.296526e-01   7.056812e-03
  2.554182e+00    5.152324e-01   6.950968e-03
  2.556393e+00    5.206032e-01   6.978002e-03
  2.558603e+00    5.191420e-01   6.959130e-03
  2.560814e+00    5.293040e-01   7.018161e-03
  2.563024e+00    5.179508e-01   6.933897e-03
  2.565235e+00    5.172472e-01   6.919697e-03
  2.567445e+00    5.178333e-01   6.914067e-03
  2.569656e+00    5.266091e-01   6.962589e-03
  2.571866e+00    5.204008e-01   6.912050e-03
  2.574076e+00    5.158545e-01   6.872525e-03
  2.576287e+00    5.063754e-01   6.800849e-03
  2.578497e+00    5.127033e-01   6.835385e-03
  2.580708e+00    5.084149e-01   6.798714e-03
  2.582918e+00    5.025702e-01   6.751845e-03
  2.585129e+00    5.114613e-01   6.803578e-03
  2.587339e+00    5.070508e-01   6.766567e-03
  2.589550e+00    5.069286e-01   6.758232e-03
  2.591760e+00    5.145177e-01   6.800876e-03
  2.593971e+00    5.200859e-01   6.829997e-03
  2.596181e+00    4.972865e-01   6.672485e-03
  2.598391e+00    5.090136e-01   6.745500e-03
  2.600602e+00    5.086764e-01   6.737371e-03
  2.602812e+00    5.072126e-01   6.720157e-03
  2.605023e+00    4.982728e-01   6.653563e-03
  2.607233e+00    5.030817e-01   6.678492e-03
  2.609444e+00    5.045224e-01   6.680842e-03
  2.611654e+00    5.054270e-01   6.679513e-03
  2.613865e+00    5.192893e-01   6.763364e-03
  2.616075e+00    5.030269e-01   6.649513e-03
  2.618286e+00    5.068299e-01   6.667597e-03
  2.620496e+00    4.976223e-01   6.600101e-03
  2.622706e+00    5.036078e-01   6.633942e-03
  2.624917e+00    4.999250e-01   6.603818e-03
  2.627127e+00    5.105835e-01   6.668057e-03
  2.629338e+00    5.046960e-01   6.623533e-03
  2.631548e+00    4.993426e-01   6.582163e-03
  2.633759e+00    4.967081e-01   6.557664e-03
  2.635969e+00    4.925279e-01   6.523394e-03
  2.638180e+00    4.978817e-01   6.551782e-03
  2.640390e+00    5.149912e-01   6.656713e-03
  2.642601e+00    4.901571e-01   6.487658e-03
  2.644811e+00    4.980639e-01   6.532694e-03
  2.647021e+00    5.071685e-01   6.585523e-03
  2.649232e+00    5.102474e-01   6.598690e-03
  2.651442e+00    5.134119e-01   6.612537e-03
  2.653653e+00    5.020021e-01   6.531834e-03
  2.655863e+00    5.061226e-01   6.551838e-03
  2.658074e+00    5.017649e-01   6.516960e-03
  2.660284e+00    4.807661e-01   6.372868e-03
  2.662495e+00    5.016987e-01   6.503336e-03
  2.664705e+00    5.095546e-01   6.547420e-03
  2.666916e+00    4.928946e-01   6.433060e-03
  2.669126e+00    4.877958e-01   6.393278e-03
  2.671337e+00    5.019081e-01   6.478485e-03
  2.673547e+00    5.036867e-01   6.483520e-03
  2.675757e+00    4.929020e-01   6.407300e-03
  2.677968e+00    4.955049e-01   6.417661e-03
  2.680178e+00    4.945325e-01   6.404942e-03
  2.682389e+00    5.038335e-01   6.458445e-03
  2.684599e+00    4.894870e-01   6.359656e-03
  2.686810e+00    5.054755e-01   6.455988e-03
  2.689020e+00    4.902362e-01   6.351667e-03
  2.691231e+00    4.764838e-01   6.255730e-03
  2.693441e+00    4.869435e-01   6.317886e-03
  2.695652e+00    4.917739e-01   6.342638e-03
  2.697862e+00    4.804867e-01   6.263140e-03
  2.700072e+00    4.803133e-01   6.255985e-03
  2.702283e+00    4.845337e-01   6.277214e-03
  2.704493e+00    5.018790e-01   6.382213e-03
  2.706704e+00    4.966244e-01   6.342275e-03
  2.708914e+00    4.695082e-01   6.160849e-03
  2.711125e+00    4.718371e-01   6.169938e-03
  2.713335e+00    4.893917e-01   6.277577e-03
  2.715546e+00    4.908284e-01   6.280301e-03
  2.717756e+00    4.921072e-01   6.282554e-03
  2.719967e+00    4.814289e-01   6.207849e-03
  2.722177e+00    4.920680e-01   6.269870e-03
  2.724387e+00    4.937378e-01   6.274371e-03
  2.726598e+00    4.858018e-01   6.217671e-03
  2.728808e+00    4.889499e-01   6.231612e-03
  2.731019e+00    4.769935e-01   6.148878e-03
  2.733229e+00    4.771873e-01   6.144362e-03
  2.735440e+00    4.714726e-01   6.101275e-03
  2.737650e+00    4.708410e-01   6.091235e-03
  2.739861e+00    4.770877e-01   6.125492e-03
  2.742071e+00    4.762265e-01   6.114251e-03
  2.744282e+00    4.832213e-01   6.152745e-03
  2.746492e+00    4.855251e-01   6.161346e-03
  2.748702e+00    4.756276e-01   6.092348e-03
  2.750913e+00    4.786452e-01   6.105872e-03
  2.753123e+00    4.731861e-01   6.064894e-03
  2.755334e+00    4.819403e-01   6.114636e-03
  2.757544e+00    4.942398e-01   6.186373e-03
  2.759755e+00    4.846694e-01   6.120266e-03
  2.761965e+00    4.686519e-01   6.012379e-03
  2.764176e+00    4.854027e-01   6.112854e-03
  2.766386e+00    4.826066e-01   6.089421e-03
  2.768597e+00    4.888269e-01   6.122622e-03
  2.770807e+00    4.744018e-01   6.025755e-03
  2.773017e+00    4.878952e-01   6.104827e-03
  2.775228e+00    4.752848e-01   6.019652e-03
  2.777438e+00    4.909334e-01   6.112065e-03
  2.779649e+00    4.885152e-01   6.091036e-03
  2.781859e+00    4.872010e-01   6.077026e-03
  2.784070e+00    4.719106e-01   5.975069e-03
  2.786280e+00    4.799350e-01   6.019874e-03
  2.788491e+00    4.833665e-01   6.035474e-03
  2.790701e+00    4.910947e-01   6.077805e-03
  2.792912e+00    4.793553e-01   5.998740e-03
  2.795122e+00    4.793956e-01   5.993240e-03
  2.797333e+00    4.763946e-01   5.968890e-03
  2.799543e+00    4.627784e-01   5.877185e-03
  2.801753e+00    4.779390e-01   5.966800e-03
  2.803964e+00    4.806041e-01   5.977724e-03
  2.806174e+00    4.747544e-01   5.935085e-03
  2.808385e+00    4.794564e-01   5.957575e-03
  2.810595e+00    4.772474e-01   5.936947e-03
  2.812806e+00    4.736320e-01   5.907828e-03
  2.815016e+00    4.698604e-01   5.879530e-03
  2.817227e+00    4.717361e-01   5.917108e-03
  2.819437e+00    4.854325e-01   6.013615e-03
  2.821648e+00    4.856134e-01   6.017054e-03
  2.823858e+00    4.749957e-01   5.956272e-03
  2.826068e+00    4.700320e-01   5.930013e-03
  2.828279e+00    4.771358e-01   5.978730e-03
  2.830489e+00    4.699380e-01   5.936779e-03
  2.832700e+00    4.788193e-01   5.995200e-03
  2.834910e+00    4.627227e-01   5.895617e-03
  2.837121e+00    4.692120e-01   5.938498e-03
  2.839331e+00    4.809251e-01   6.013427e-03
  2.841542e+00    4.791702e-01   6.003452e-03
  2.843752e+00    4.780664e-01   5.997353e-03
  2.845963e+00    4.729875e-01   5.965780e-03
  2.848173e+00    4.817074e-01   6.020628e-03
  2.850383e+00    4.745957e-01   5.976308e-03
  2.852594e+00    4.681160e-01   5.935294e-03
  2.854804e+00    4.600966e-01   5.883728e-03
  2.857015e+00    4.668210e-01   5.926144e-03
  2.859225e+00    4.641359e-01   5.908823e-03
  2.861436e+00    4.650403e-01   5.913923e-03
  2.863646e+00    4.687569e-01   5.937543e-03
  2.865857e+00    4.709083e-01   5.951495e-03
  2.868067e+00    4.651119e-01   5.914982e-03
  2.870278e+00    4.677958e-01   5.931661e-03
  2.872488e+00    4.633407e-01   5.902203e-03
  2.874698e+00    4.537983e-01   5.840075e-03
  2.876909e+00    4.611430e-01   5.885795e-03
  2.879119e+00    4.709810e-01   5.946629e-03
  2.881330e+00    4.682454e-01   5.927848e-03
  2.883540e+00    4.702920e-01   5.939407e-03
  2.885751e+00    4.622948e-01   5.887025e-03
  2.887961e+00    4.651449e-01   5.903262e-03
  2.890172e+00    4.730394e-01   5.951518e-03
  2.892382e+00    4.589513e-01   5.860434e-03
  2.894593e+00    4.714341e-01   5.937742e-03
  2.896803e+00    4.674146e-01   5.910408e-03
  2.899014e+00    4.537165e-01   5.821235e-03
  2.901224e+00    4.678950e-01   5.909493e-03
  2.903434e+00    4.626650e-01   5.874427e-03
  2.905645e+00    4.593807e-01   5.851310e-03
  2.907855e+00    4.533256e-01   5.810539e-03
  2.910066e+00    4.510829e-01   5.794078e-03
  2.912276e+00    4.556681e-01   5.821349e-03
  2.914487e+00    4.551522e-01   5.815599e-03
  2.916697e+00    4.618030e-01   5.855692e-03
  2.918908e+00    4.614390e-01   5.851393e-03
  2.921118e+00    4.487272e-01   5.767567e-03
  2.923329e+00    4.556216e-01   5.809371e-03
  2.925539e+00    4.576484e-01   5.820029e-03
  2.927749e+00    4.579760e-01   5.819769e-03
  2.929960e+00    4.669139e-01   5.873484e-03
  2.932170e+00    4.637909e-01   5.851484e-03
  2.934381e+00    4.631659e-01   5.845059e-03
  2.936591e+00    4.593974e-01   5.818652e-03
  2.938802e+00    4.549274e-01   5.787579e-03
  2.941012e+00    4.514217e-01   5.762896e-03
  2.943223e+00    4.547270e-01   5.781277e-03
  2.945433e+00    4.428624e-01   5.701660e-03
  2.947644e+00    4.649764e-01   5.838098e-03
  2.949854e+00    4.768113e-01   5.907583e-03
  2.952064e+00    4.631278e-01   5.817921e-03
  2.954275e+00    4.605331e-01   5.797184e-03
  2.956485e+00    4.517192e-01   5.737246e-03
  2.958696e+00    4.563500e-01   5.762202e-03
  2.960906e+00    4.514764e-01   5.727196e-03
  2.963117e+00    4.482319e-01   5.702124e-03
  2.965327e+00    4.379229e-01   5.632333e-03
  2.967538e+00    4.379562e-01   5.629696e-03
  2.969748e+00    4.392998e-01   5.635550e-03
  2.971959e+00    4.464743e-01   5.678265e-03
  2.974169e+00    4.473117e-01   5.681037e-03
  2.976379e+00    4.477859e-01   5.681147e-03
  2.978590e+00    4.451460e-01   5.661265e-03
  2.980800e+00    4.545704e-01   5.718090e-03
  2.983011e+00    4.442473e-01   5.650017e-03
  2.985221e+00    4.566914e-01   5.725438e-03
  2.987432e+00    4.553391e-01   5.713844e-03
  2.989642e+00    4.522085e-01   5.691553e-03
  2.991853e+00    4.571872e-01   5.719496e-03
  2.994063e+00    4.495777e-01   5.668817e-03
  2.996274e+00    4.451424e-01   5.637624e-03
  2.998484e+00    4.447248e-01   5.632313e-03
  3.000694e+00    4.505666e-01   5.665730e-03
  3.002905e+00    4.520162e-01   5.671918e-03
  3.005115e+00    4.517171e-01   5.667063e-03
  3.007326e+00    4.533431e-01   5.674091e-03
  3.009536e+00    4.478330e-01   5.636280e-03
  3.011747e+00    4.489622e-01   5.640474e-03
  3.013957e+00    4.646758e-01   5.735105e-03
  3.016168e+00    4.523900e-01   5.655541e-03
  3.018378e+00    4.579819e-01   5.687316e-03
  3.020589e+00    4.487539e-01   5.626533e-03
  3.022799e+00    4.442623e-01   5.595182e-03
  3.025010e+00    4.424306e-01   5.580405e-03
  3.027220e+00    4.558899e-01   5.661542e-03
  3.029430e+00    4.647082e-01   5.712748e-03
  3.031641e+00    4.640269e-01   5.705381e-03
  3.033851e+00    4.523091e-01   5.629370e-03
  3.036062e+00    4.562434e-01   5.650993e-03
  3.038272e+00    4.580238e-01   5.658408e-03
  3.040483e+00    4.566302e-01   5.646562e-03
  3.042693e+00    4.412854e-01   5.547646e-03
  3.044904e+00    4.571432e-01   5.642385e-03
  3.047114e+00    4.538877e-01   5.617449e-03
  3.049325e+00    4.299528e-01   5.463053e-03
  3.051535e+00    4.305942e-01   5.462795e-03
  3.053745e+00    4.444260e-01   5.545138e-03
  3.055956e+00    4.541542e-01   5.600907e-03
  3.058166e+00    4.587360e-01   5.624796e-03
  3.060377e+00    4.649431e-01   5.657861e-03
  3.062587e+00    4.617509e-01   5.633746e-03
  3.064798e+00    4.408021e-01   5.500242e-03
  3.067008e+00    4.338574e-01   5.452092e-03
  3.069219e+00    4.384055e-01   5.476140e-03
  3.071429e+00    4.416472e-01   5.492862e-03
  3.073640e+00    4.540428e-01   5.566066e-03
  3.075850e+00    4.374083e-01   5.459625e-03
  3.078060e+00    4.453537e-01   5.505896e-03
  3.080271e+00    4.527540e-01   5.547956e-03
  3.082481e+00    4.491788e-01   5.522565e-03
  3.084692e+00    4.534766e-01   5.545518e-03
  3.086902e+00    4.516340e-01   5.530988e-03
  3.089113e+00    4.557190e-01   5.552343e-03
  3.091323e+00    4.496709e-01   5.512008e-03
  3.093534e+00    4.481626e-01   5.499362e-03
  3.095744e+00    4.465958e-01   5.486381e-03
  3.097955e+00    4.514602e-01   5.512621e-03
  3.100165e+00    4.469026e-01   5.481375e-03
  3.102375e+00    4.510707e-01   5.503467e-03
  3.104586e+00    4.413099e-01   5.440105e-03
  3.106796e+00    4.341813e-01   5.392524e-03
  3.109007e+00    4.476600e-01   5.472368e-03
  3.111217e+00    4.313238e-01   5.367953e-03
  3.113428e+00    4.456945e-01   5.453236e-03
  3.115638e+00    4.374391e-01   5.399275e-03
  3.117849e+00    4.478320e-01   5.459328e-03
  3.120059e+00    4.376450e-01   5.393421e-03
  3.122270e+00    4.492685e-01   5.461330e-03
  3.124480e+00    4.451144e-01   5.432302e-03
  3.126691e+00    4.590310e-01   5.512962e-03
  3.128901e+00    4.486351e-01   5.447055e-03
  3.131111e+00    4.423116e-01   5.404677e-03
  3.133322e+00    4.489053e-01   5.441364e-03
  3.135532e+00    4.402452e-01   5.385240e-03
  3.137743e+00    4.385291e-01   5.371265e-03
  3.139953e+00    4.432938e-01   5.396687e-03
  3.142164e+00    4.378523e-01   5.375403e-03
  3.144374e+00    4.371006e-01   5.399032e-03
  3.146585e+00    4.458699e-01   5.467530e-03
  3.148795e+00    4.408490e-01   5.447424e-03
  3.151006e+00    4.461960e-01   5.488931e-03
  3.153216e+00    4.472148e-01   5.502407e-03
  3.155426e+00    4.449774e-01   5.494940e-03
  3.157637e+00    4.398647e-01   5.468819e-03
  3.159847e+00    4.290689e-01   5.406090e-03
  3.162058e+00    4.430994e-01   5.498199e-03
  3.164268e+00    4.415453e-01   5.492644e-03
  3.166479e+00    4.247452e-01   5.390713e-03
  3.168689e+00    4.352157e-01   5.460105e-03
  3.170900e+00    4.451610e-01   5.525318e-03
  3.173110e+00    4.446569e-01   5.525101e-03
  3.175321e+00    4.395216e-01   5.495600e-03
  3.177531e+00    4.385098e-01   5.491996e-03
  3.179741e+00    4.297742e-01   5.439096e-03
  3.181952e+00    4.309284e-01   5.448455e-03
  3.184162e+00    4.378616e-01   5.494325e-03
  3.186373e+00    4.390833e-01   5.503580e-03
  3.188583e+00    4.282317e-01   5.436922e-03
  3.190794e+00    4.511787e-01   5.582464e-03
  3.193004e+00    4.376812e-01   5.499579e-03
  3.195215e+00    4.399956e-01   5.515615e-03
  3.197425e+00    4.280150e-01   5.441208e-03
  3.199636e+00    4.413178e-01   5.524329e-03
  3.201846e+00    4.293072e-01   5.448051e-03
  3.204056e+00    4.278677e-01   5.439776e-03
  3.206267e+00    4.241359e-01   5.416850e-03
  3.208477e+00    4.320883e-01   5.468313e-03
  3.210688e+00    4.231440e-01   5.412262e-03
  3.212898e+00    4.217082e-01   5.403640e-03
  3.215109e+00    4.251711e-01   5.426510e-03
  3.217319e+00    4.331991e-01   5.478145e-03
  3.219530e+00    4.401552e-01   5.522357e-03
  3.221740e+00    4.318849e-01   5.470790e-03
  3.223951e+00    4.240041e-01   5.421131e-03
  3.226161e+00    4.240081e-01   5.421304e-03
  3.228372e+00    4.501083e-01   5.586222e-03
  3.230582e+00    4.232042e-01   5.416878e-03
  3.232792e+00    4.206277e-01   5.400549e-03
  3.235003e+00    4.337773e-01   5.484558e-03
  3.237213e+00    4.374492e-01   5.507842e-03
  3.239424e+00    4.332834e-01   5.481540e-03
  3.241634e+00    4.354115e-01   5.495129e-03
  3.243845e+00    4.266540e-01   5.439641e-03
  3.246055e+00    4.225940e-01   5.413436e-03
  3.248266e+00    4.240315e-01   5.422832e-03
  3.250476e+00    4.332835e-01   5.481362e-03
  3.252687e+00    4.294903e-01   5.457241e-03
  3.254897e+00    4.217114e-01   5.407488e-03
  3.257107e+00    4.186623e-01   5.387580e-03
  3.259318e+00    4.232588e-01   5.416820e-03
  3.261528e+00    4.254391e-01   5.430650e-03
  3.263739e+00    4.321275e-01   5.472590e-03
  3.265949e+00    4.240661e-01   5.421198e-03
  3.268160e+00    4.169489e-01   5.375095e-03
  3.270370e+00    4.145557e-01   5.359136e-03
  3.272581e+00    4.270501e-01   5.439015e-03
  3.274791e+00    4.182809e-01   5.382373e-03
  3.277002e+00    4.205315e-01   5.396252e-03
  3.279212e+00    4.230815e-01   5.412232e-03
  3.281422e+00    4.268905e-01   5.435940e-03
  3.283633e+00    4.447523e-01   5.547815e-03
  3.285843e+00    4.240453e-01   5.416800e-03
  3.288054e+00    4.242058e-01   5.416871e-03
  3.290264e+00    4.333360e-01   5.474534e-03
  3.292475e+00    4.230440e-01   5.408328e-03
  3.294685e+00    4.153877e-01   5.358506e-03
  3.296896e+00    4.272626e-01   5.433806e-03
  3.299106e+00    4.280081e-01   5.437997e-03
  3.301317e+00    4.253229e-01   5.419874e-03
  3.303527e+00    4.269050e-01   5.429474e-03
  3.305737e+00    4.354548e-01   5.482520e-03
  3.307948e+00    4.241793e-01   5.410410e-03
  3.310158e+00    4.216261e-01   5.393246e-03
  3.312369e+00    4.097742e-01   5.316031e-03
  3.314579e+00    4.188665e-01   5.373764e-03
  3.316790e+00    4.413547e-01   5.515418e-03
  3.319000e+00    4.301651e-01   5.443875e-03
  3.321211e+00    4.184266e-01   5.368475e-03
  3.323421e+00    4.193638e-01   5.373290e-03
  3.325632e+00    4.123815e-01   5.327479e-03
  3.327842e+00    4.143758e-01   5.339441e-03
  3.330052e+00    4.205149e-01   5.377768e-03
  3.332263e+00    4.265540e-01   5.415254e-03
  3.334473e+00    3.978618e-01   5.229059e-03
  3.336684e+00    4.236163e-01   5.394351e-03
  3.338894e+00    4.335241e-01   5.456252e-03
  3.341105e+00    4.235595e-01   5.391957e-03
  3.343315e+00    4.279945e-01   5.418967e-03
  3.345526e+00    4.229561e-01   5.386075e-03
  3.347736e+00    4.273217e-01   5.412374e-03
  3.349947e+00    4.174332e-01   5.348469e-03
  3.352157e+00    4.100204e-01   5.299589e-03
  3.354368e+00    4.148738e-01   5.329578e-03
  3.356578e+00    4.262111e-01   5.400877e-03
  3.358788e+00    4.130781e-01   5.315713e-03
  3.360999e+00    4.032548e-01   5.250885e-03
  3.363209e+00    4.217446e-01   5.368905e-03
  3.365420e+00    4.095852e-01   5.289446e-03
  3.367630e+00    4.112376e-01   5.299080e-03
  3.369841e+00    4.211427e-01   5.361095e-03
  3.372051e+00    4.346408e-01   5.444314e-03
  3.374262e+00    4.108881e-01   5.291047e-03
  3.376472e+00    4.172233e-01   5.329221e-03
  3.378683e+00    4.150227e-01   5.312649e-03
  3.380893e+00    4.043915e-01   5.241859e-03
  3.383103e+00    4.095168e-01   5.272291e-03
  3.385314e+00    4.044355e-01   5.237279e-03
  3.387524e+00    4.135156e-01   5.293011e-03
  3.389735e+00    4.159254e-01   5.305770e-03
  3.391945e+00    4.118323e-01   5.275944e-03
  3.394156e+00    4.115930e-01   5.270191e-03
  3.396366e+00    4.141645e-01   5.283208e-03
  3.398577e+00    4.181633e-01   5.305591e-03
  3.400787e+00    4.064912e-01   5.242864e-03
  3.402998e+00    4.095148e-01   5.300358e-03
  3.405208e+00    4.018379e-01   5.271019e-03
  3.407418e+00    3.931374e-01   5.229279e-03
  3.409629e+00    3.873839e-01   5.204574e-03
  3.411839e+00    3.897365e-01   5.232002e-03
  3.414050e+00    3.892121e-01   5.239351e-03
  3.416260e+00    3.909221e-01   5.260466e-03
  3.418471e+00    3.822952e-01   5.211377e-03
  3.420681e+00    3.808737e-01   5.210047e-03
  3.422892e+00    3.710926e-01   5.150500e-03
  3.425102e+00    3.739926e-01   5.178242e-03
  3.427313e+00    3.737268e-01   5.183456e-03
  3.429523e+00    3.834720e-01   5.257626e-03
  3.431733e+00    3.816199e-01   5.251538e-03
  3.433944e+00    3.965250e-01   5.359709e-03
  3.436154e+00    3.784410e-01   5.242291e-03
  3.438365e+00    3.613946e-01   5.128581e-03
  3.440575e+00    3.718859e-01   5.208376e-03
  3.442786e+00    3.775994e-01   5.253830e-03
  3.444996e+00    3.923747e-01   5.361249e-03
  3.447207e+00    3.651193e-01   5.176933e-03
  3.449417e+00    3.665649e-01   5.227676e-03
  3.451628e+00    3.823413e-01   5.368973e-03
  3.453838e+00    3.806669e-01   5.378736e-03
  3.456049e+00    3.886727e-01   5.459600e-03
  3.458259e+00    3.621680e-01   5.291995e-03
  3.460469e+00    3.609994e-01   5.303051e-03
  3.462680e+00    3.799152e-01   5.459663e-03
  3.464890e+00    3.597021e-01   5.330046e-03
  3.467101e+00    3.732508e-01   5.447088e-03
  3.469311e+00    3.793029e-01   5.507849e-03
  3.471522e+00    3.805941e-01   5.533708e-03
  3.473732e+00    4.108562e-01   5.766133e-03
  3.475943e+00    4.062726e-01   5.750051e-03
  3.478153e+00    4.123459e-01   5.808807e-03
  3.480364e+00    4.067355e-01   5.784551e-03
  3.482574e+00    4.037369e-01   5.778519e-03
  3.484784e+00    4.125637e-01   5.856266e-03
  3.486995e+00    4.218119e-01   5.936719e-03
  3.489205e+00    4.110723e-01   5.875145e-03
  3.491416e+00    4.318773e-01   6.036950e-03
  3.493626e+00    4.393018e-01   6.103290e-03
  3.495837e+00    4.497122e-01   6.190109e-03
  3.498047e+00    4.607175e-01   6.280142e-03
  3.500258e+00    4.437693e-01   6.177998e-03
  3.502468e+00    4.405277e-01   6.169590e-03
  3.504679e+00    4.603564e-01   6.321370e-03
  3.506889e+00    4.817521e-01   6.481296e-03
  3.509099e+00    4.851995e-01   6.519026e-03
  3.511310e+00    4.862254e-01   6.540535e-03
  3.513520e+00    4.890873e-01   6.574265e-03
  3.515731e+00    4.872392e-01   6.576243e-03
  3.517941e+00    4.920999e-01   6.623356e-03
  3.520152e+00    4.853551e-01   6.591970e-03
  3.522362e+00    5.025882e-01   6.722485e-03
  3.524573e+00    5.058602e-01   6.758623e-03
  3.526783e+00    5.242537e-01   6.893912e-03
  3.528994e+00    5.268217e-01   6.923146e-03
  3.531204e+00    5.397868e-01   7.020502e-03
  3.533414e+00    5.251421e-01   6.936700e-03
  3.535625e+00    5.229341e-01   6.934386e-03
  3.537835e+00    5.320830e-01   7.006893e-03
  3.540046e+00    5.282503e-01   6.990494e-03
  3.542256e+00    5.367305e-01   7.053918e-03
  3.544467e+00    5.587140e-01   7.204686e-03
  3.546677e+00    5.457942e-01   7.128585e-03
  3.548888e+00    5.395271e-01   7.095039e-03
  3.551098e+00    5.295482e-01   7.036358e-03
  3.553309e+00    5.303504e-01   7.049830e-03
  3.555519e+00    5.537978e-01   7.215419e-03
  3.557729e+00    5.255519e-01   7.040682e-03
  3.559940e+00    5.245807e-01   7.045530e-03
  3.562150e+00    5.431026e-01   7.180663e-03
  3.564361e+00    5.389306e-01   7.166350e-03
  3.566571e+00    5.505806e-01   7.257428e-03
  3.568782e+00    5.387182e-01   7.193007e-03
  3.570992e+00    5.400240e-01   7.215470e-03
  3.573203e+00    5.703319e-01   7.429790e-03
  3.575413e+00    5.494693e-01   7.306631e-03
  3.577624e+00    5.277308e-01   7.174611e-03
  3.579834e+00    5.231432e-01   7.157081e-03
  3.582045e+00    5.441180e-01   7.313267e-03
  3.584255e+00    5.223438e-01   7.179343e-03
  3.586465e+00    5.208590e-01   7.182862e-03
  3.588676e+00    5.335637e-01   7.284063e-03
  3.590886e+00    5.442159e-01   7.370269e-03
  3.593097e+00    5.294939e-01   7.284277e-03
  3.595307e+00    5.437532e-01   7.395779e-03
  3.597518e+00    5.391154e-01   7.378406e-03
  3.599728e+00    5.405869e-01   7.402634e-03
  3.601939e+00    5.452253e-01   7.448526e-03
  3.604149e+00    5.447171e-01   7.459578e-03
  3.606360e+00    5.444422e-01   7.471958e-03
  3.608570e+00    5.399143e-01   7.455062e-03
  3.610780e+00    5.372545e-01   7.447735e-03
  3.612991e+00    5.489529e-01   7.538514e-03
  3.615201e+00    5.526237e-01   7.573663e-03
  3.617412e+00    5.454192e-01   7.531480e-03
  3.619622e+00    5.470032e-01   7.548432e-03
  3.621833e+00    5.139950e-01   7.323718e-03
  3.624043e+00    5.421888e-01   7.531451e-03
  3.626254e+00    5.511718e-01   7.603467e-03
  3.628464e+00    5.367486e-01   7.514307e-03
  3.630675e+00    5.347899e-01   7.514727e-03
  3.632885e+00    5.416537e-01   7.577334e-03
  3.635095e+00    5.511516e-01   7.658128e-03
  3.637306e+00    5.420194e-01   7.608891e-03
  3.639516e+00    5.406162e-01   7.613669e-03
  3.641727e+00    5.456570e-01   7.663797e-03
  3.643937e+00    5.236776e-01   7.522321e-03
  3.646148e+00    5.533103e-01   7.747067e-03
  3.648358e+00    5.360371e-01   7.640085e-03
  3.650569e+00    5.525149e-01   7.771652e-03
  3.652779e+00    5.365022e-01   7.673030e-03
  3.654990e+00    5.346243e-01   7.674467e-03
  3.657200e+00    5.519492e-01   7.813020e-03
  3.659410e+00    5.444097e-01   7.774652e-03
  3.661621e+00    5.310865e-01   7.693963e-03
  3.663831e+00    5.457597e-01   7.814855e-03
  3.666042e+00    5.460266e-01   7.832151e-03
  3.668252e+00    5.329641e-01   7.753153e-03
  3.670463e+00    5.207211e-01   7.678670e-03
  3.672673e+00    5.134917e-01   7.640355e-03
  3.674884e+00    5.145463e-01   7.663339e-03
  3.677094e+00    5.289066e-01   7.785041e-03
  3.679305e+00    5.362691e-01   7.854689e-03
  3.681515e+00    5.264059e-01   7.797676e-03
  3.683726e+00    5.159078e-01   7.735137e-03
  3.685936e+00    5.233954e-01   7.806666e-03
  3.688146e+00    5.121804e-01   7.738130e-03
  3.690357e+00    5.349830e-01   7.924517e-03
  3.692567e+00    5.411776e-01   7.986668e-03
  3.694778e+00    5.348659e-01   7.956134e-03
  3.696988e+00    5.243271e-01   7.893256e-03
  3.699199e+00    5.363405e-01   7.999633e-03
  3.701409e+00    5.154517e-01   7.858516e-03
  3.703620e+00    5.135469e-01   7.860095e-03
  3.705830e+00    5.252569e-01   7.965618e-03
  3.708041e+00    5.323685e-01   8.036117e-03
  3.710251e+00    5.142681e-01   7.914872e-03
  3.712461e+00    5.053417e-01   7.862342e-03
  3.714672e+00    5.075347e-01   7.895882e-03
  3.716882e+00    5.162542e-01   7.980051e-03
  3.719093e+00    5.362413e-01   8.150432e-03
  3.721303e+00    5.416206e-01   8.208569e-03
  3.723514e+00    5.055541e-01   7.947603e-03
  3.725724e+00    5.125210e-01   8.019187e-03
  3.727935e+00    5.255474e-01   8.138074e-03
  3.730145e+00    5.194534e-01   8.108148e-03
  3.732356e+00    4.946904e-01   7.929668e-03
  3.734566e+00    4.874239e-01   7.888268e-03
  3.736776e+00    4.910063e-01   7.934533e-03
  3.738987e+00    5.157089e-01   8.149412e-03
  3.741197e+00    5.123238e-01   8.140704e-03
  3.743408e+00    5.034626e-01   8.087812e-03
  3.745618e+00    4.904040e-01   8.000161e-03
  3.747829e+00    5.197198e-01   8.254030e-03
  3.750039e+00    4.965074e-01   8.085697e-03
  3.752250e+00    4.884830e-01   8.038185e-03
  3.754460e+00    5.069012e-01   8.206769e-03
  3.756671e+00    5.075994e-01   8.231185e-03
  3.758881e+00    5.069714e-01   8.244741e-03
  3.761091e+00    5.243790e-01   8.404466e-03
  3.763302e+00    5.214085e-01   8.400024e-03
  3.765512e+00    5.155699e-01   8.372228e-03
  3.767723e+00    5.197881e-01   8.425983e-03
  3.769933e+00    5.215684e-01   8.460054e-03
  3.772144e+00    5.094067e-01   8.380469e-03
  3.774354e+00    5.223924e-01   8.506781e-03
  3.776565e+00    4.966118e-01   8.313944e-03
  3.778775e+00    5.091497e-01   8.438182e-03
  3.780986e+00    5.134080e-01   8.493996e-03
  3.783196e+00    5.344312e-01   8.686934e-03
  3.785407e+00    4.961901e-01   8.390725e-03
  3.787617e+00    5.089125e-01   8.518456e-03
  3.789827e+00    5.079139e-01   8.530740e-03
  3.792038e+00    4.938692e-01   8.432647e-03
  3.794248e+00    4.972122e-01   8.482199e-03
  3.796459e+00    4.858743e-01   8.405949e-03
  3.798669e+00    5.119334e-01   8.650045e-03
  3.800880e+00    5.095821e-01   8.651812e-03
  3.803090e+00    5.199566e-01   8.761654e-03
  3.805301e+00    5.171603e-01   8.760571e-03
  3.807511e+00    4.954843e-01   8.596905e-03
  3.809722e+00    4.933036e-01   8.600061e-03
  3.811932e+00    4.772366e-01   8.480541e-03
  3.814142e+00    4.717124e-01   8.453552e-03
  3.816353e+00    5.098709e-01   8.811930e-03
  3.818563e+00    5.133467e-01   8.865311e-03
  3.820774e+00    4.787377e-01   8.584048e-03
  3.822984e+00    4.954407e-01   8.755700e-03
  3.825195e+00    5.358720e-01   9.130669e-03
  3.827405e+00    4.970344e-01   8.817416e-03
  3.829616e+00    4.941991e-01   8.816229e-03
  3.831826e+00    4.953115e-01   8.850201e-03
  3.834037e+00    4.988707e-01   8.906582e-03
  3.836247e+00    4.987015e-01   8.929763e-03
  3.838457e+00    4.657826e-01   8.654273e-03
  3.840668e+00    4.825322e-01   8.833281e-03
  3.842878e+00    4.911397e-01   8.937126e-03
  3.845089e+00    5.118392e-01   9.149506e-03
  3.847299e+00    5.010132e-01   9.078204e-03
  3.849510e+00    4.942427e-01   9.042490e-03
  3.851720e+00    5.045084e-01   9.157470e-03
  3.853931e+00    4.815947e-01   8.965909e-03
  3.856141e+00    4.776860e-01   8.948082e-03
  3.858352e+00    4.880206e-01   9.063488e-03
  3.860562e+00    4.769027e-01   8.978645e-03
  3.862772e+00    5.024951e-01   9.236110e-03
  3.864983e+00    4.935345e-01   9.173128e-03
  3.867193e+00    4.918047e-01   9.176709e-03
  3.869404e+00    5.222137e-01   9.476602e-03
  3.871614e+00    5.015782e-01   9.307595e-03
  3.873825e+00    4.952898e-01   9.269455e-03
  3.876035e+00    4.894365e-01   9.234948e-03
  3.878246e+00    4.974619e-01   9.336333e-03
  3.880456e+00    5.023174e-01   9.410992e-03
  3.882667e+00    5.060002e-01   9.475241e-03
  3.884877e+00    4.844205e-01   9.300501e-03
  3.887087e+00    4.857115e-01   9.342643e-03
  3.889298e+00    4.840645e-01   9.356901e-03
  3.891508e+00    4.984703e-01   9.525893e-03
  3.893719e+00    5.073189e-01   9.641620e-03
  3.895929e+00    4.946902e-01   9.552380e-03
  3.898140e+00    5.088294e-01   9.720217e-03
  3.900350e+00    4.993463e-01   9.661654e-03
  3.902561e+00    4.765317e-01   9.470295e-03
  3.904771e+00    4.776931e-01   9.514126e-03
  3.906982e+00    5.074047e-01   9.839344e-03
  3.909192e+00    5.169499e-01   9.965904e-03
  3.911403e+00    4.849112e-01   9.686073e-03
  3.913613e+00    4.856050e-01   9.727064e-03
  3.915823e+00    5.092783e-01   9.996882e-03
  3.918034e+00    5.106702e-01   1.004663e-02
  3.920244e+00    5.223470e-01   1.019779e-02
  3.922455e+00    5.057246e-01   1.007100e-02
  3.924665e+00    4.926874e-01   9.976855e-03
  3.926876e+00    4.718911e-01   9.800568e-03
  3.929086e+00    4.979631e-01   1.010539e-02
  3.931297e+00    4.794112e-01   9.949850e-03
  3.933507e+00    5.292705e-01   1.048465e-02
  3.935718e+00    5.011852e-01   1.023188e-02
  3.937928e+00    4.785199e-01   1.002698e-02
  3.940138e+00    5.021684e-01   1.030146e-02
  3.942349e+00    5.068811e-01   1.038024e-02
  3.944559e+00    4.931685e-01   1.026902e-02
  3.946770e+00    5.044927e-01   1.041695e-02
  3.948980e+00    4.751049e-01   1.013944e-02
  3.951191e+00    4.894604e-01   1.032237e-02
  3.953401e+00    4.953786e-01   1.041618e-02
  3.955612e+00    4.933813e-01   1.042711e-02
  3.957822e+00    4.870285e-01   1.039145e-02
  3.960033e+00    4.952005e-01   1.051113e-02
  3.962243e+00    5.171409e-01   1.077552e-02
  3.964453e+00    4.833166e-01   1.045008e-02
  3.966664e+00    5.087450e-01   1.075563e-02
  3.968874e+00    5.115014e-01   1.081393e-02
  3.971085e+00    4.946217e-01   1.065605e-02
  3.973295e+00    4.920614e-01   1.065017e-02
  3.975506e+00    4.935162e-01   1.068764e-02
  3.977716e+00    4.712348e-01   1.046522e-02
  3.979927e+00    4.847579e-01   1.063641e-02
  3.982137e+00    4.959437e-01   1.078106e-02
  3.984348e+00    4.925498e-01   1.076678e-02
  3.986558e+00    4.720928e-01   1.056283e-02
  3.988768e+00    4.940077e-01   1.082841e-02
  3.990979e+00    4.721769e-01   1.060899e-02
  3.993189e+00    4.439734e-01   1.030926e-02
  3.995400e+00    4.722874e-01   1.065617e-02
  3.997610e+00    4.559460e-01   1.049907e-02
  3.999821e+00    4.899406e-01   1.092114e-02
  4.002031e+00    5.012797e-01   1.108589e-02
  4.004242e+00    4.665265e-01   1.073247e-02
  4.006452e+00    5.022174e-01   1.117545e-02
  4.008663e+00    4.792854e-01   1.095710e-02
  4.010873e+00    4.882969e-01   1.109989e-02
  4.013084e+00    4.725240e-01   1.095940e-02
  4.015294e+00    4.467737e-01   1.069611e-02
  4.017504e+00    4.452945e-01   1.071833e-02
  4.019715e+00    5.294622e-01   1.173201e-02
  4.021925e+00    4.935544e-01   1.137072e-02
  4.024136e+00    4.757622e-01   1.120704e-02
  4.026346e+00    4.676591e-01   1.115475e-02
  4.028557e+00    4.602699e-01   1.110932e-02
  4.030767e+00    4.554273e-01   1.109513e-02
  4.032978e+00    4.946626e-01   1.160999e-02
  4.035188e+00    4.661566e-01   1.131572e-02
  4.037399e+00    5.100276e-01   1.188517e-02
  4.039609e+00    4.919966e-01   1.172145e-02
  4.041819e+00    4.541414e-01   1.130866e-02
  4.044030e+00    4.618747e-01   1.145330e-02
  4.046240e+00    4.690353e-01   1.159091e-02
  4.048451e+00    4.492572e-01   1.139298e-02
  4.050661e+00    4.985611e-01   1.205411e-02
  4.052872e+00    5.169761e-01   1.232937e-02
  4.055082e+00    4.862032e-01   1.201047e-02
  4.057293e+00    4.996029e-01   1.222951e-02
  4.059503e+00    4.972394e-01   1.225607e-02
  4.061714e+00    4.691499e-01   1.196062e-02
  4.063924e+00    4.430579e-01   1.167762e-02
  4.066134e+00    4.696112e-01   1.207901e-02
  4.068345e+00    4.640912e-01   1.206588e-02
  4.070555e+00    4.498743e-01   1.193674e-02
  4.072766e+00    4.639717e-01   1.218199e-02
  4.074976e+00    4.920096e-01   1.260725e-02
  4.077187e+00    4.784347e-01   1.249416e-02
  4.079397e+00    4.748007e-01   1.250982e-02
  4.081608e+00    5.260239e-01   1.323604e-02
  4.083818e+00    4.500645e-01   1.230687e-02
  4.086029e+00    4.599032e-01   1.250615e-02
  4.088239e+00    4.900007e-01   1.297838e-02
  4.090449e+00    4.879190e-01   1.302112e-02
  4.092660e+00    4.684266e-01   1.282845e-02
  4.094870e+00    4.972674e-01   1.329098e-02
  4.097081e+00    5.049387e-01   1.346650e-02
  4.099291e+00    4.923338e-01   1.335236e-02
  4.101502e+00    5.126928e-01   1.367667e-02
  4.103712e+00    4.822764e-01   1.331404e-02
  4.105923e+00    5.150887e-01   1.381266e-02
  4.108133e+00    5.248114e-01   1.399639e-02
  4.110344e+00    4.721502e-01   1.332640e-02
  4.112554e+00    5.082137e-01   1.388039e-02
  4.114764e+00    5.252936e-01   1.416854e-02
  4.116975e+00    4.976386e-01   1.384487e-02
  4.119185e+00    4.598893e-01   1.336354e-02
  4.121396e+00    4.256825e-01   1.290996e-02
  4.123606e+00    4.944703e-01   1.397087e-02
  4.125817e+00    5.081040e-01   1.422193e-02
  4.128027e+00    4.763157e-01   1.382760e-02
  4.130238e+00    4.708866e-01   1.380775e-02
  4.132448e+00    4.669072e-01   1.380861e-02
  4.134659e+00    4.910632e-01   1.422237e-02
  4.136869e+00    5.493008e-01   1.510921e-02
  4.139080e+00    5.102996e-01   1.462874e-02
  4.141290e+00    4.803927e-01   1.425633e-02
  4.143500e+00    4.653521e-01   1.409613e-02
  4.145711e+00    4.870774e-01   1.448874e-02
  4.147921e+00    4.650397e-01   1.422217e-02
  4.150132e+00    4.746709e-01   1.443709e-02
  4.152342e+00    5.116341e-01   1.506148e-02
  4.154553e+00    4.698255e-01   1.450172e-02
  4.156763e+00    4.424765e-01   1.414270e-02
  4.158974e+00    4.706449e-01   1.465930e-02
  4.161184e+00    4.591287e-01   1.455077e-02
  4.163395e+00    5.193762e-01   1.555493e-02
  4.165605e+00    4.847490e-01   1.510577e-02
  4.167815e+00    4.619007e-01   1.482225e-02
  4.170026e+00    4.567705e-01   1.481740e-02
  4.172236e+00    4.649083e-01   1.502959e-02
  4.174447e+00    4.400942e-01   1.470285e-02
  4.176657e+00    4.169484e-01   1.438888e-02
  4.178868e+00    4.635605e-01   1.525782e-02
  4.181078e+00    4.932913e-01   1.582813e-02
  4.183289e+00    4.803612e-01   1.570884e-02
  4.185499e+00    4.725784e-01   1.567284e-02
  4.187710e+00    5.319332e-01   1.672546e-02
  4.189920e+00    5.024573e-01   1.635366e-02
  4.192130e+00    4.564895e-01   1.568258e-02
  4.194341e+00    5.134184e-01   1.673362e-02
  4.196551e+00    4.809793e-01   1.629941e-02
  4.198762e+00    4.269168e-01   1.545331e-02
  4.200972e+00    4.915738e-01   1.668946e-02
  4.203183e+00    4.505633e-01   1.608351e-02
  4.205393e+00    4.752753e-01   1.662874e-02
  4.207604e+00    4.769956e-01   1.677254e-02
  4.209814e+00    4.817169e-01   1.697071e-02
  4.212025e+00    4.202465e-01   1.596358e-02
  4.214235e+00    4.478522e-01   1.659612e-02
  4.216445e+00    5.254403e-01   1.810639e-02
  4.218656e+00    4.567648e-01   1.700813e-02
  4.220866e+00    5.078181e-01   1.806653e-02
  4.223077e+00    4.992425e-01   1.805082e-02
  4.225287e+00    4.843485e-01   1.791953e-02
  4.227498e+00    4.481890e-01   1.737306e-02
  4.229708e+00    4.338378e-01   1.723132e-02
  4.231919e+00    5.507028e-01   1.957439e-02
  4.234129e+00    5.195873e-01   1.917309e-02
  4.236340e+00    4.901714e-01   1.878181e-02
  4.238550e+00    4.806952e-01   1.876371e-02
  4.240761e+00    5.005674e-01   1.931644e-02
  4.242971e+00    5.317010e-01   2.009098e-02
  4.245181e+00    4.846902e-01   1.936182e-02
  4.247392e+00    5.379383e-01   2.058865e-02
  4.249602e+00    5.111738e-01   2.026933e-02
  4.251813e+00    4.620955e-01   1.946164e-02
  4.254023e+00    4.118870e-01   1.855933e-02
  4.256234e+00    4.819013e-01   2.028893e-02
  4.258444e+00    4.571121e-01   1.996724e-02
  4.260655e+00    4.616779e-01   2.028678e-02
  4.262865e+00    5.581092e-01   2.255840e-02
  4.265076e+00    4.423277e-01   2.031134e-02
  4.267286e+00    4.473929e-01   2.066952e-02
  4.269496e+00    5.035412e-01   2.219550e-02
  4.271707e+00    4.950280e-01   2.227904e-02
  4.273917e+00    4.232215e-01   2.086657e-02
  4.276128e+00    4.794261e-01   2.250327e-02
  4.278338e+00    5.125162e-01   2.357834e-02
  4.280549e+00    4.792750e-01   2.312708e-02
  4.282759e+00    5.388634e-01   2.487593e-02
  4.284970e+00    5.183783e-01   2.475918e-02
  4.287180e+00    4.228713e-01   2.263078e-02
  4.289391e+00    3.912927e-01   2.193235e-02
  4.291601e+00    4.459072e-01   2.359986e-02
  4.293811e+00    5.439730e-01   2.627001e-02
  4.296022e+00    4.822835e-01   2.493458e-02
  4.298232e+00    5.078743e-01   2.580152e-02
  4.300443e+00    4.746454e-01   2.514980e-02
  4.302653e+00    4.231324e-01   2.395120e-02
  4.304864e+00    3.680718e-01   2.253135e-02
  4.307074e+00    4.698937e-01   2.568657e-02
  4.309285e+00    5.188438e-01   2.723724e-02
  4.311495e+00    4.731150e-01   2.625218e-02
  4.313706e+00    5.135328e-01   2.760778e-02
  4.315916e+00    4.071910e-01   2.482587e-02
  4.318126e+00    5.062237e-01   2.795456e-02
  4.320337e+00    4.229756e-01   2.581053e-02
  4.322547e+00    4.840610e-01   2.790513e-02
  4.324758e+00    4.861739e-01   2.825582e-02
  4.326968e+00    4.580218e-01   2.773573e-02
  4.329179e+00    5.417944e-01   3.049681e-02
  4.331389e+00    4.876825e-01   2.926824e-02
  4.333600e+00    4.261757e-01   2.768682e-02
  4.335810e+00    5.098910e-01   3.064408e-02
  4.338021e+00    5.214667e-01   3.138718e-02
  4.340231e+00    4.079447e-01   2.810979e-02
  4.342442e+00    4.406361e-01   2.960628e-02
  4.344652e+00    4.310612e-01   2.968019e-02
  4.346862e+00    4.656369e-01   3.127977e-02
  4.349073e+00    3.987240e-01   2.936591e-02
  4.351283e+00    5.056614e-01   3.356416e-02
  4.353494e+00    4.683745e-01   3.280237e-02
  4.355704e+00    4.978121e-01   3.436206e-02
  4.357915e+00    4.174178e-01   3.198918e-02
  4.360125e+00    4.704331e-01   3.453952e-02
  4.362336e+00    4.331445e-01   3.374695e-02
  4.364546e+00    4.700855e-01   3.579607e-02
  4.366757e+00    3.895910e-01   3.323576e-02
  4.368967e+00    4.099070e-01   3.477117e-02
  4.371177e+00    5.610561e-01   4.154548e-02
  4.373388e+00    4.123544e-01   3.641359e-02
  4.375598e+00    5.096525e-01   4.140313e-02
  4.377809e+00    5.149285e-01   4.267295e-02
  4.380019e+00    2.712172e-01   3.174733e-02
  4.382230e+00    2.722352e-01   3.269416e-02
  4.384440e+00    4.480231e-01   4.315071e-02
  4.386651e+00    5.729075e-01   5.029837e-02
  4.388861e+00    4.833619e-01   4.775192e-02
  4.391072e+00    3.829702e-01   4.399786e-02
  4.393282e+00    4.381177e-01   4.887806e-02
  4.395492e+00    6.764731e-01   6.326125e-02
  4.397703e+00    4.862621e-01   5.608640e-02
  4.399913e+00    3.824574e-01   5.225916e-02
  4.402124e+00    2.578947e-01   4.534452e-02
  4.404334e+00    1.973647e-01   4.216371e-02
  4.406545e+00    1.305318e-01   3.684947e-02
  4.408755e+00    1.837014e-01   4.739918e-02
  4.410966e+00    4.301346e-01   8.027845e-02
  4.413176e+00    5.004020e-01   9.801394e-02
  4.415387e+00   -3.669974e-01            nan
  4.417597e+00   -2.029266e+00            nan
  4.419807e+00   -3.766224e-01            nan
