# == pyFAI calibration ==
# Distance Sample to Detector: 0.216 m
# PONI: 1.166e-01, 1.308e-01 m
# Rotations: 0.000000 0.000000 0.000000 rad
# 
# == Fit2d calibration ==
# Distance Sample-beamCenter: 216.000 mm
# Center: x=1744.293, y=1555.000 pix
# Tilt: 0.000 deg  TiltPlanRot: 0.000 deg
# 
# Detector Eiger 9M	 PixelSize= 7.500e-05, 7.500e-05 m
#    Detector has a mask: True 
#    Detector has a dark current: False 
#    detector has a flat field: False 
# 
# Wavelength: 9.8e-11 m
# Mask applied: from detector
# Dark current applied: False
# Flat field applied: False
# Polarization factor: None
# Normalization factor: 1.0
# 
# Headers of the input frame:
# {
# "_array_data.header_convention": "SLS_1.0",
# "_array_data.header_contents": "# Detector: Dectris Eiger 9M, S/N E-18-0102\r\n# Pixel_size 75e-6 m x 75e-6 m\r\n# Silicon sensor, thickness 0.000450 m\r\n# Exposure_time 0.024997 s\r\n# Exposure_period 0.025000 s\r\n# Count_cutoff 62318 counts\r\n# Wavelength 0.980106 A\r\n# Detector_distance 0.215992 m\r\n# Beam_xy (1555, 1744) pixels\r\n# Start_angle 0.000000 deg.\r\n# Angle_increment 0.000000 deg.",
# "Content-Type": "application/octet-stream;",
# "conversions": "x-CBF_BYTE_OFFSET",
# "Content-Transfer-Encoding": "BINARY",
# "X-Binary-Size": "10166594",
# "X-Binary-ID": "1",
# "X-Binary-Element-Type": "signed 32-bit integer",
# "X-Binary-Element-Byte-Order": "LITTLE_ENDIAN",
# "Content-MD5": "0WnkHqguZUwO/Z1kwq4mXw==",
# "X-Binary-Number-of-Elements": "10166590",
# "X-Binary-Size-Fastest-Dimension": "3110",
# "X-Binary-Size-Second-Dimension": "3269",
# "X-Binary-Size-Padding": "4095"
# }
# --> H:/Proxima2a_2019-04-05/RAW_DATA/C5_gel17_position5/C5_mesh_1_data.cbf/C5_mesh_1_data.cbf000123.dat
#        q_A^-1              I           sigma 
  1.105228e-03    1.993481e+00   7.639995e-01
  3.315685e-03    9.989288e-01   3.287856e-01
  5.526141e-03    1.096823e+00   2.664038e-01
  7.736597e-03    1.258492e+00   2.410713e-01
  9.947054e-03    1.218516e+00   2.091183e-01
  1.215751e-02    1.314024e+00   1.963678e-01
  1.436797e-02    1.387251e+00   1.855894e-01
  1.657842e-02    1.594254e+00   1.851924e-01
  1.878888e-02    1.530842e+00   1.704625e-01
  2.099934e-02    1.596426e+00   1.646935e-01
  2.320979e-02    1.406407e+00   1.470240e-01
  2.542025e-02    1.373434e+00   1.388396e-01
  2.763070e-02    1.447106e+00   1.366912e-01
  2.984116e-02    1.249361e+00   1.222139e-01
  3.205162e-02    1.299036e+00   1.202532e-01
  3.426207e-02    1.434617e+00   1.222202e-01
  3.647253e-02    1.373639e+00   1.159113e-01
  3.868299e-02    1.437135e+00   1.151316e-01
  4.089344e-02    1.381279e+00   1.097795e-01
  4.310390e-02    1.393369e+00   1.073883e-01
  4.531436e-02    1.413314e+00   1.054837e-01
  4.752481e-02    1.413452e+00   1.030053e-01
  4.973527e-02    1.516637e+00   1.043020e-01
  5.194572e-02    1.314430e+00   9.501053e-02
  5.415618e-02    1.373134e+00   9.510320e-02
  5.636664e-02    1.514340e+00   9.789871e-02
  5.857709e-02    1.349609e+00   9.066058e-02
  6.078755e-02    1.372653e+00   8.975069e-02
  6.299801e-02    1.336567e+00   8.699449e-02
  6.520846e-02    1.345016e+00   8.577770e-02
  6.741892e-02    1.316757e+00   8.346467e-02
  6.962938e-02    1.370284e+00   8.378604e-02
  7.183983e-02    1.347754e+00   8.180452e-02
  7.405029e-02    1.329233e+00   8.001690e-02
  7.626074e-02    1.412853e+00   8.129033e-02
  7.847120e-02    1.451178e+00   8.121465e-02
  8.068166e-02    1.438635e+00   7.974686e-02
  8.289211e-02    1.417506e+00   7.809608e-02
  8.510257e-02    1.448655e+00   7.791694e-02
  8.731303e-02    1.475749e+00   7.763739e-02
  8.952348e-02    1.471723e+00   7.657036e-02
  9.173394e-02    1.423009e+00   7.437683e-02
  9.394439e-02    1.489330e+00   7.518735e-02
  9.615485e-02    1.455962e+00   7.347925e-02
  9.836531e-02    1.432775e+00   7.206615e-02
  1.005758e-01    1.467902e+00   7.213864e-02
  1.027862e-01    1.466158e+00   7.131455e-02
  1.049967e-01    1.547310e+00   7.248507e-02
  1.072071e-01    1.520252e+00   7.110311e-02
  1.094176e-01    1.555633e+00   7.119443e-02
  1.116280e-01    1.500453e+00   6.922308e-02
  1.138385e-01    1.531971e+00   6.926256e-02
  1.160490e-01    1.511271e+00   6.813390e-02
  1.182594e-01    1.527663e+00   6.785769e-02
  1.204699e-01    1.540742e+00   6.751893e-02
  1.226803e-01    1.541952e+00   6.693140e-02
  1.248908e-01    1.557828e+00   6.667626e-02
  1.271012e-01    1.579339e+00   6.654739e-02
  1.293117e-01    1.535442e+00   6.505198e-02
  1.315222e-01    1.489501e+00   6.352922e-02
  1.337326e-01    1.565256e+00   6.458300e-02
  1.359431e-01    1.610706e+00   6.555229e-02
  1.381535e-01    1.591398e+00   6.603286e-02
  1.403640e-01    1.494030e+00   6.425713e-02
  1.425744e-01    1.611800e+00   6.684831e-02
  1.447849e-01    1.593955e+00   6.649255e-02
  1.469953e-01    1.540216e+00   6.532115e-02
  1.492058e-01    1.500781e+00   6.440456e-02
  1.514163e-01    1.538380e+00   6.509802e-02
  1.536267e-01    1.689284e+00   6.808300e-02
  1.558372e-01    1.652734e+00   6.719376e-02
  1.580476e-01    1.646251e+00   6.689911e-02
  1.602581e-01    1.623397e+00   6.626441e-02
  1.624685e-01    1.641615e+00   6.645273e-02
  1.646790e-01    1.719882e+00   6.782311e-02
  1.668895e-01    1.766692e+00   6.854139e-02
  1.690999e-01    1.682994e+00   6.669720e-02
  1.713104e-01    1.722189e+00   6.725999e-02
  1.735208e-01    1.852291e+00   6.953737e-02
  1.757313e-01    1.894053e+00   7.009656e-02
  1.779417e-01    1.801924e+00   6.814754e-02
  1.801522e-01    1.826984e+00   6.840122e-02
  1.823626e-01    1.890553e+00   6.934939e-02
  1.845731e-01    1.938403e+00   6.999405e-02
  1.867836e-01    2.046964e+00   7.168464e-02
  1.889940e-01    1.983568e+00   7.033527e-02
  1.912045e-01    1.925895e+00   6.907378e-02
  1.934149e-01    1.977970e+00   6.976711e-02
  1.956254e-01    1.919068e+00   6.849383e-02
  1.978358e-01    1.963933e+00   6.905237e-02
  2.000463e-01    1.952129e+00   6.861641e-02
  2.022568e-01    1.948616e+00   6.832963e-02
  2.044672e-01    1.970642e+00   6.847933e-02
  2.066777e-01    1.937657e+00   6.767841e-02
  2.088881e-01    1.957556e+00   6.780249e-02
  2.110986e-01    1.956598e+00   6.755345e-02
  2.133090e-01    1.929231e+00   6.686126e-02
  2.155195e-01    1.873792e+00   6.567505e-02
  2.177300e-01    1.850238e+00   6.474824e-02
  2.199404e-01    1.928834e+00   6.436720e-02
  2.221509e-01    1.951372e+00   6.367907e-02
  2.243613e-01    1.989148e+00   6.347743e-02
  2.265718e-01    2.017920e+00   6.323016e-02
  2.287822e-01    2.064989e+00   6.333025e-02
  2.309927e-01    2.073791e+00   6.288695e-02
  2.332031e-01    2.023677e+00   6.159074e-02
  2.354136e-01    2.033881e+00   6.124538e-02
  2.376241e-01    2.192664e+00   6.309754e-02
  2.398345e-01    2.245179e+00   6.337617e-02
  2.420450e-01    2.180833e+00   6.201500e-02
  2.442554e-01    2.180601e+00   6.158449e-02
  2.464659e-01    2.134438e+00   6.052008e-02
  2.486763e-01    2.085116e+00   5.942355e-02
  2.508868e-01    2.130728e+00   5.969102e-02
  2.530973e-01    2.208508e+00   6.039399e-02
  2.553077e-01    2.081889e+00   5.828151e-02
  2.575182e-01    1.982411e+00   5.653554e-02
  2.597286e-01    1.994905e+00   5.638376e-02
  2.619391e-01    1.997459e+00   5.609499e-02
  2.641495e-01    2.001273e+00   5.583778e-02
  2.663600e-01    1.934543e+00   5.459705e-02
  2.685704e-01    1.968043e+00   5.476923e-02
  2.707809e-01    2.040692e+00   5.547494e-02
  2.729914e-01    2.056475e+00   5.539884e-02
  2.752018e-01    1.955920e+00   5.374623e-02
  2.774123e-01    1.973241e+00   5.370793e-02
  2.796227e-01    2.028263e+00   5.418225e-02
  2.818332e-01    1.954732e+00   5.292570e-02
  2.840436e-01    1.878028e+00   5.162544e-02
  2.862541e-01    1.915147e+00   5.188250e-02
  2.884646e-01    1.937075e+00   5.193105e-02
  2.906750e-01    1.955328e+00   5.192775e-02
  2.928855e-01    2.017222e+00   5.249884e-02
  2.950959e-01    1.965906e+00   5.158872e-02
  2.973064e-01    1.950388e+00   5.115376e-02
  2.995168e-01    1.957507e+00   5.101493e-02
  3.017273e-01    1.944166e+00   5.061664e-02
  3.039377e-01    1.943987e+00   5.039267e-02
  3.061482e-01    1.921545e+00   4.988424e-02
  3.083587e-01    1.842964e+00   4.864214e-02
  3.105691e-01    1.860281e+00   4.866137e-02
  3.127796e-01    1.907005e+00   4.906156e-02
  3.149900e-01    1.918833e+00   4.900841e-02
  3.172005e-01    1.870830e+00   4.819365e-02
  3.194109e-01    1.847701e+00   4.769708e-02
  3.216214e-01    1.866426e+00   4.774258e-02
  3.238319e-01    1.827396e+00   4.705357e-02
  3.260423e-01    1.833762e+00   4.694771e-02
  3.282528e-01    1.848722e+00   4.695117e-02
  3.304632e-01    1.853711e+00   4.683235e-02
  3.326737e-01    1.840085e+00   4.647785e-02
  3.348841e-01    1.876521e+00   4.675374e-02
  3.370946e-01    1.902763e+00   4.690238e-02
  3.393050e-01    1.809889e+00   4.557016e-02
  3.415155e-01    1.775354e+00   4.496356e-02
  3.437260e-01    1.817542e+00   4.532605e-02
  3.459364e-01    1.836777e+00   4.539672e-02
  3.481469e-01    1.819858e+00   4.502222e-02
  3.503573e-01    1.778642e+00   4.434732e-02
  3.525678e-01    1.791693e+00   4.435109e-02
  3.547782e-01    1.838291e+00   4.476176e-02
  3.569887e-01    1.850631e+00   4.475262e-02
  3.591992e-01    1.786466e+00   4.381437e-02
  3.614096e-01    1.777192e+00   4.354898e-02
  3.636201e-01    1.738796e+00   4.292459e-02
  3.658305e-01    1.727954e+00   4.264460e-02
  3.680410e-01    1.802460e+00   4.340447e-02
  3.702514e-01    1.785270e+00   4.305173e-02
  3.724619e-01    1.748642e+00   4.246271e-02
  3.746724e-01    1.740390e+00   4.222105e-02
  3.768828e-01    1.770443e+00   4.244073e-02
  3.790933e-01    1.812171e+00   4.279806e-02
  3.813037e-01    1.718629e+00   4.154247e-02
  3.835142e-01    1.743243e+00   4.170147e-02
  3.857246e-01    1.796287e+00   4.219418e-02
  3.879351e-01    1.767667e+00   4.172122e-02
  3.901455e-01    1.778014e+00   4.170991e-02
  3.923560e-01    1.721456e+00   4.091076e-02
  3.945665e-01    1.758164e+00   4.121351e-02
  3.967769e-01    1.723578e+00   4.067833e-02
  3.989874e-01    1.781102e+00   4.122246e-02
  4.011978e-01    1.762255e+00   4.087769e-02
  4.034083e-01    1.789647e+00   4.106770e-02
  4.056187e-01    1.779172e+00   4.082119e-02
  4.078292e-01    1.770250e+00   4.059548e-02
  4.100397e-01    1.796056e+00   4.076546e-02
  4.122501e-01    1.784076e+00   4.050772e-02
  4.144606e-01    1.793598e+00   4.049524e-02
  4.166710e-01    1.732143e+00   3.967711e-02
  4.188815e-01    1.722515e+00   3.944980e-02
  4.210919e-01    1.771909e+00   3.989416e-02
  4.233024e-01    1.774670e+00   3.980779e-02
  4.255128e-01    1.790743e+00   3.987208e-02
  4.277233e-01    1.796276e+00   3.981889e-02
  4.299338e-01    1.793941e+00   3.967849e-02
  4.321442e-01    1.792015e+00   3.954372e-02
  4.343547e-01    1.775381e+00   3.924847e-02
  4.365651e-01    1.744437e+00   3.879439e-02
  4.387756e-01    1.702816e+00   3.822146e-02
  4.409860e-01    1.692852e+00   3.800388e-02
  4.431965e-01    1.707373e+00   3.806101e-02
  4.454070e-01    1.729812e+00   3.820370e-02
  4.476174e-01    1.706007e+00   3.783577e-02
  4.498279e-01    1.719932e+00   3.788649e-02
  4.520383e-01    1.698646e+00   3.754799e-02
  4.542488e-01    1.721856e+00   3.770170e-02
  4.564592e-01    1.745826e+00   3.786138e-02
  4.586697e-01    1.725550e+00   3.754096e-02
  4.608801e-01    1.728534e+00   3.747279e-02
  4.630906e-01    1.693680e+00   3.699483e-02
  4.653011e-01    1.742802e+00   3.742879e-02
  4.675115e-01    1.692972e+00   3.679270e-02
  4.697220e-01    1.696101e+00   3.673024e-02
  4.719324e-01    1.761314e+00   3.733287e-02
  4.741429e-01    1.705724e+00   3.664437e-02
  4.763533e-01    1.663523e+00   3.609544e-02
  4.785638e-01    1.715110e+00   3.655614e-02
  4.807743e-01    1.686210e+00   3.615469e-02
  4.829847e-01    1.653679e+00   3.571378e-02
  4.851952e-01    1.641307e+00   3.548989e-02
  4.874056e-01    1.667897e+00   3.568600e-02
  4.896161e-01    1.703291e+00   3.597324e-02
  4.918265e-01    1.660663e+00   3.543201e-02
  4.940370e-01    1.715490e+00   3.592326e-02
  4.962475e-01    1.667193e+00   3.532653e-02
  4.984579e-01    1.618103e+00   3.471677e-02
  5.006684e-01    1.639252e+00   3.485769e-02
  5.028788e-01    1.684830e+00   3.525335e-02
  5.050893e-01    1.651197e+00   3.481483e-02
  5.072997e-01    1.654116e+00   3.476142e-02
  5.095102e-01    1.650724e+00   3.464260e-02
  5.117206e-01    1.638451e+00   3.443152e-02
  5.139311e-01    1.639804e+00   3.436418e-02
  5.161416e-01    1.666199e+00   3.455781e-02
  5.183520e-01    1.636048e+00   3.416234e-02
  5.205625e-01    1.561595e+00   3.329778e-02
  5.227729e-01    1.588022e+00   3.350000e-02
  5.249834e-01    1.665295e+00   3.422574e-02
  5.271938e-01    1.698203e+00   3.448163e-02
  5.294043e-01    1.679296e+00   3.421000e-02
  5.316148e-01    1.712343e+00   3.446583e-02
  5.338252e-01    1.760545e+00   3.486772e-02
  5.360357e-01    1.728156e+00   3.446685e-02
  5.382461e-01    1.724552e+00   3.435306e-02
  5.404566e-01    1.760260e+00   3.462791e-02
  5.426670e-01    1.698031e+00   3.393367e-02
  5.448775e-01    1.741234e+00   3.428589e-02
  5.470879e-01    1.740246e+00   3.419971e-02
  5.492984e-01    1.746892e+00   3.418878e-02
  5.515089e-01    1.758455e+00   3.422563e-02
  5.537193e-01    1.801409e+00   3.456484e-02
  5.559298e-01    1.776522e+00   3.424995e-02
  5.581402e-01    1.822673e+00   3.461616e-02
  5.603507e-01    1.809047e+00   3.441150e-02
  5.625611e-01    1.786399e+00   3.412119e-02
  5.647716e-01    1.793394e+00   3.411371e-02
  5.669821e-01    1.785471e+00   3.396488e-02
  5.691925e-01    1.754404e+00   3.359584e-02
  5.714030e-01    1.739257e+00   3.337916e-02
  5.736134e-01    1.713393e+00   3.305959e-02
  5.758239e-01    1.739022e+00   3.323484e-02
  5.780343e-01    1.699686e+00   3.278731e-02
  5.802448e-01    1.652801e+00   3.226424e-02
  5.824552e-01    1.659954e+00   3.226615e-02
  5.846657e-01    1.615654e+00   3.176633e-02
  5.868762e-01    1.606249e+00   3.160779e-02
  5.890866e-01    1.603088e+00   3.151116e-02
  5.912971e-01    1.594561e+00   3.136218e-02
  5.935075e-01    1.627267e+00   3.161668e-02
  5.957180e-01    1.651670e+00   3.178755e-02
  5.979284e-01    1.593592e+00   3.115991e-02
  6.001389e-01    1.597426e+00   3.113385e-02
  6.023494e-01    1.626101e+00   3.134825e-02
  6.045598e-01    1.679207e+00   3.179118e-02
  6.067703e-01    1.648268e+00   3.143363e-02
  6.089807e-01    1.582979e+00   3.074284e-02
  6.111912e-01    1.603501e+00   3.087968e-02
  6.134016e-01    1.608778e+00   3.086876e-02
  6.156121e-01    1.665195e+00   3.134293e-02
  6.178226e-01    1.628468e+00   3.093399e-02
  6.200330e-01    1.678654e+00   3.134508e-02
  6.222435e-01    1.703614e+00   3.151472e-02
  6.244539e-01    1.684059e+00   3.127197e-02
  6.266644e-01    1.693995e+00   3.130289e-02
  6.288748e-01    1.692151e+00   3.122498e-02
  6.310853e-01    1.662632e+00   3.089132e-02
  6.332957e-01    1.659112e+00   3.079902e-02
  6.355062e-01    1.690505e+00   3.102864e-02
  6.377167e-01    1.660915e+00   3.069689e-02
  6.399271e-01    1.684795e+00   3.085752e-02
  6.421376e-01    1.685604e+00   3.080601e-02
  6.443480e-01    1.691612e+00   3.080217e-02
  6.465585e-01    1.680932e+00   3.064660e-02
  6.487689e-01    1.657056e+00   3.037072e-02
  6.509794e-01    1.676236e+00   3.048837e-02
  6.531899e-01    1.657022e+00   3.025613e-02
  6.554003e-01    1.593178e+00   2.961174e-02
  6.576108e-01    1.607036e+00   2.968488e-02
  6.598212e-01    1.627206e+00   2.981508e-02
  6.620317e-01    1.586254e+00   2.938297e-02
  6.642421e-01    1.563335e+00   2.911592e-02
  6.664526e-01    1.589558e+00   2.930503e-02
  6.686630e-01    1.568815e+00   2.905937e-02
  6.708735e-01    1.556189e+00   2.888909e-02
  6.730840e-01    1.583662e+00   2.908986e-02
  6.752944e-01    1.556931e+00   2.879085e-02
  6.775049e-01    1.576834e+00   2.892167e-02
  6.797153e-01    1.583596e+00   2.893115e-02
  6.819258e-01    1.619355e+00   2.920321e-02
  6.841362e-01    1.559180e+00   2.860395e-02
  6.863467e-01    1.577850e+00   2.872314e-02
  6.885572e-01    1.601575e+00   2.888643e-02
  6.907676e-01    1.629163e+00   2.908196e-02
  6.929781e-01    1.589605e+00   2.867566e-02
  6.951885e-01    1.589236e+00   2.862153e-02
  6.973990e-01    1.580447e+00   2.849185e-02
  6.996094e-01    1.563953e+00   2.829289e-02
  7.018199e-01    1.580783e+00   2.839481e-02
  7.040303e-01    1.590174e+00   2.842899e-02
  7.062408e-01    1.605125e+00   2.851230e-02
  7.084513e-01    1.580386e+00   2.824251e-02
  7.106617e-01    1.611159e+00   2.846660e-02
  7.128722e-01    1.608573e+00   2.839454e-02
  7.150826e-01    1.605074e+00   2.831474e-02
  7.172931e-01    1.664046e+00   2.878051e-02
  7.195035e-01    1.583390e+00   2.802611e-02
  7.217140e-01    1.577481e+00   2.802324e-02
  7.239245e-01    1.559157e+00   2.808563e-02
  7.261349e-01    1.559408e+00   2.819597e-02
  7.283454e-01    1.558878e+00   2.826322e-02
  7.305558e-01    1.580257e+00   2.851045e-02
  7.327663e-01    1.529632e+00   2.809197e-02
  7.349767e-01    1.519603e+00   2.801579e-02
  7.371872e-01    1.541368e+00   2.820463e-02
  7.393976e-01    1.557986e+00   2.834210e-02
  7.416081e-01    1.531780e+00   2.808678e-02
  7.438186e-01    1.552602e+00   2.813370e-02
  7.460290e-01    1.599288e+00   2.825705e-02
  7.482395e-01    1.554049e+00   2.768447e-02
  7.504499e-01    1.550417e+00   2.751688e-02
  7.526604e-01    1.552751e+00   2.742184e-02
  7.548708e-01    1.530596e+00   2.713735e-02
  7.570813e-01    1.532983e+00   2.710821e-02
  7.592918e-01    1.546650e+00   2.719392e-02
  7.615022e-01    1.544230e+00   2.713916e-02
  7.637127e-01    1.560887e+00   2.725250e-02
  7.659231e-01    1.582260e+00   2.740637e-02
  7.681336e-01    1.566941e+00   2.724187e-02
  7.703440e-01    1.516068e+00   2.676536e-02
  7.725545e-01    1.539041e+00   2.693682e-02
  7.747650e-01    1.636189e+00   2.773505e-02
  7.769754e-01    1.589686e+00   2.728516e-02
  7.791859e-01    1.554749e+00   2.693051e-02
  7.813963e-01    1.593132e+00   2.720807e-02
  7.836068e-01    1.596087e+00   2.718112e-02
  7.858172e-01    1.583224e+00   2.702075e-02
  7.880277e-01    1.606899e+00   2.717025e-02
  7.902381e-01    1.612066e+00   2.716444e-02
  7.924486e-01    1.590294e+00   2.693043e-02
  7.946591e-01    1.594121e+00   2.691457e-02
  7.968695e-01    1.605243e+00   2.696001e-02
  7.990800e-01    1.608851e+00   2.694204e-02
  8.012904e-01    1.558222e+00   2.646888e-02
  8.035009e-01    1.608539e+00   2.684496e-02
  8.057113e-01    1.626026e+00   2.694385e-02
  8.079218e-01    1.609504e+00   2.676033e-02
  8.101323e-01    1.626015e+00   2.685158e-02
  8.123427e-01    1.610743e+00   2.667962e-02
  8.145532e-01    1.631217e+00   2.680270e-02
  8.167636e-01    1.630588e+00   2.675248e-02
  8.189741e-01    1.648037e+00   2.685040e-02
  8.211845e-01    1.634652e+00   2.669634e-02
  8.233950e-01    1.634592e+00   2.665241e-02
  8.256054e-01    1.650188e+00   2.673489e-02
  8.278159e-01    1.627542e+00   2.650698e-02
  8.300264e-01    1.610333e+00   2.632376e-02
  8.322368e-01    1.629442e+00   2.643646e-02
  8.344473e-01    1.630131e+00   2.639882e-02
  8.366577e-01    1.615497e+00   2.623776e-02
  8.388682e-01    1.611112e+00   2.616026e-02
  8.410786e-01    1.596118e+00   2.599672e-02
  8.432891e-01    1.646335e+00   2.636058e-02
  8.454996e-01    1.619225e+00   2.610128e-02
  8.477100e-01    1.623484e+00   2.609408e-02
  8.499205e-01    1.620228e+00   2.602699e-02
  8.521309e-01    1.601127e+00   2.583277e-02
  8.543414e-01    1.603873e+00   2.581455e-02
  8.565518e-01    1.637187e+00   2.604069e-02
  8.587623e-01    1.572398e+00   2.548049e-02
  8.609727e-01    1.586869e+00   2.555777e-02
  8.631832e-01    1.586885e+00   2.551851e-02
  8.653937e-01    1.584518e+00   2.546026e-02
  8.676041e-01    1.575761e+00   2.535153e-02
  8.698146e-01    1.580289e+00   2.534910e-02
  8.720250e-01    1.595607e+00   2.543285e-02
  8.742355e-01    1.558439e+00   2.509663e-02
  8.764459e-01    1.555261e+00   2.503278e-02
  8.786564e-01    1.586296e+00   2.524360e-02
  8.808669e-01    1.622803e+00   2.549373e-02
  8.830773e-01    1.605750e+00   2.532125e-02
  8.852878e-01    1.615415e+00   2.535926e-02
  8.874982e-01    1.595199e+00   2.516352e-02
  8.897087e-01    1.624233e+00   2.535353e-02
  8.919191e-01    1.596971e+00   2.510214e-02
  8.941296e-01    1.597637e+00   2.507012e-02
  8.963401e-01    1.565368e+00   2.477962e-02
  8.985505e-01    1.578963e+00   2.485026e-02
  9.007610e-01    1.609324e+00   2.505119e-02
  9.029714e-01    1.618784e+00   2.508867e-02
  9.051819e-01    1.635393e+00   2.517942e-02
  9.073923e-01    1.594677e+00   2.482749e-02
  9.096028e-01    1.587342e+00   2.473556e-02
  9.118132e-01    1.570962e+00   2.457169e-02
  9.140237e-01    1.599049e+00   2.475377e-02
  9.162342e-01    1.562129e+00   2.443220e-02
  9.184446e-01    1.568198e+00   2.444419e-02
  9.206551e-01    1.586011e+00   2.454721e-02
  9.228655e-01    1.610621e+00   2.470156e-02
  9.250760e-01    1.597650e+00   2.456658e-02
  9.272864e-01    1.579057e+00   2.438923e-02
  9.294969e-01    1.574819e+00   2.432096e-02
  9.317074e-01    1.564795e+00   2.420918e-02
  9.339178e-01    1.585931e+00   2.433884e-02
  9.361283e-01    1.596788e+00   2.438601e-02
  9.383387e-01    1.600027e+00   2.437752e-02
  9.405492e-01    1.636855e+00   2.462205e-02
  9.427596e-01    1.623867e+00   2.448886e-02
  9.449701e-01    1.648413e+00   2.463972e-02
  9.471805e-01    1.666601e+00   2.474020e-02
  9.493910e-01    1.680903e+00   2.481201e-02
  9.516015e-01    1.702457e+00   2.493574e-02
  9.538119e-01    1.706007e+00   2.492752e-02
  9.560224e-01    1.679654e+00   2.469943e-02
  9.582328e-01    1.683556e+00   2.469491e-02
  9.604433e-01    1.744036e+00   2.509899e-02
  9.626537e-01    1.743655e+00   2.506249e-02
  9.648642e-01    1.811297e+00   2.550901e-02
  9.670747e-01    1.814737e+00   2.549802e-02
  9.692851e-01    1.840453e+00   2.564391e-02
  9.714956e-01    1.848832e+00   2.566598e-02
  9.737060e-01    1.827723e+00   2.548552e-02
  9.759165e-01    1.890996e+00   2.588632e-02
  9.781269e-01    1.935061e+00   2.615197e-02
  9.803374e-01    1.894251e+00   2.583893e-02
  9.825478e-01    1.878310e+00   2.569604e-02
  9.847583e-01    1.864873e+00   2.556919e-02
  9.869688e-01    1.864239e+00   2.553064e-02
  9.891792e-01    1.846018e+00   2.537178e-02
  9.913897e-01    1.864957e+00   2.546719e-02
  9.936001e-01    1.833131e+00   2.521593e-02
  9.958106e-01    1.718155e+00   2.437915e-02
  9.980210e-01    1.673897e+00   2.403188e-02
  1.000231e+00    1.623580e+00   2.379757e-02
  1.002442e+00    1.603805e+00   2.377787e-02
  1.004652e+00    1.596162e+00   2.378732e-02
  1.006863e+00    1.597354e+00   2.384557e-02
  1.009073e+00    1.595787e+00   2.387036e-02
  1.011284e+00    1.582020e+00   2.379895e-02
  1.013494e+00    1.544605e+00   2.353916e-02
  1.015705e+00    1.532908e+00   2.347203e-02
  1.017915e+00    1.517635e+00   2.337088e-02
  1.020126e+00    1.509399e+00   2.332316e-02
  1.022336e+00    1.497493e+00   2.324240e-02
  1.024547e+00    1.540327e+00   2.358367e-02
  1.026757e+00    1.512158e+00   2.337530e-02
  1.028967e+00    1.536654e+00   2.357152e-02
  1.031178e+00    1.515392e+00   2.341403e-02
  1.033388e+00    1.470475e+00   2.306936e-02
  1.035599e+00    1.476723e+00   2.312168e-02
  1.037809e+00    1.500365e+00   2.330926e-02
  1.040020e+00    1.525602e+00   2.350575e-02
  1.042230e+00    1.550770e+00   2.370081e-02
  1.044441e+00    1.513254e+00   2.341217e-02
  1.046651e+00    1.475626e+00   2.311942e-02
  1.048862e+00    1.464493e+00   2.303125e-02
  1.051072e+00    1.463897e+00   2.302424e-02
  1.053282e+00    1.438489e+00   2.282264e-02
  1.055493e+00    1.449838e+00   2.290823e-02
  1.057703e+00    1.474047e+00   2.309720e-02
  1.059914e+00    1.441685e+00   2.283806e-02
  1.062124e+00    1.474578e+00   2.309306e-02
  1.064335e+00    1.519464e+00   2.343845e-02
  1.066545e+00    1.505423e+00   2.332386e-02
  1.068756e+00    1.452172e+00   2.290396e-02
  1.070966e+00    1.416771e+00   2.261662e-02
  1.073177e+00    1.445329e+00   2.283744e-02
  1.075387e+00    1.423797e+00   2.266154e-02
  1.077597e+00    1.421908e+00   2.263936e-02
  1.079808e+00    1.432417e+00   2.259158e-02
  1.082018e+00    1.436049e+00   2.243287e-02
  1.084229e+00    1.413340e+00   2.214654e-02
  1.086439e+00    1.419080e+00   2.210512e-02
  1.088650e+00    1.446741e+00   2.224405e-02
  1.090860e+00    1.428810e+00   2.203876e-02
  1.093071e+00    1.398908e+00   2.174586e-02
  1.095281e+00    1.420881e+00   2.185920e-02
  1.097492e+00    1.410092e+00   2.172184e-02
  1.099702e+00    1.383182e+00   2.146319e-02
  1.101912e+00    1.403569e+00   2.157257e-02
  1.104123e+00    1.369094e+00   2.125889e-02
  1.106333e+00    1.368920e+00   2.121411e-02
  1.108544e+00    1.427487e+00   2.161894e-02
  1.110754e+00    1.402142e+00   2.138352e-02
  1.112965e+00    1.430739e+00   2.155981e-02
  1.115175e+00    1.427709e+00   2.149569e-02
  1.117386e+00    1.440094e+00   2.154910e-02
  1.119596e+00    1.418764e+00   2.135098e-02
  1.121807e+00    1.421488e+00   2.133248e-02
  1.124017e+00    1.399713e+00   2.113190e-02
  1.126228e+00    1.423628e+00   2.127566e-02
  1.128438e+00    1.404182e+00   2.109307e-02
  1.130648e+00    1.366830e+00   2.077671e-02
  1.132859e+00    1.380740e+00   2.084798e-02
  1.135069e+00    1.391087e+00   2.089125e-02
  1.137280e+00    1.383791e+00   2.080349e-02
  1.139490e+00    1.351698e+00   2.052818e-02
  1.141701e+00    1.347559e+00   2.046405e-02
  1.143911e+00    1.376327e+00   2.064955e-02
  1.146122e+00    1.365048e+00   2.053296e-02
  1.148332e+00    1.338823e+00   2.030334e-02
  1.150543e+00    1.358659e+00   2.042256e-02
  1.152753e+00    1.371137e+00   2.048536e-02
  1.154963e+00    1.369437e+00   2.044166e-02
  1.157174e+00    1.349707e+00   2.026397e-02
  1.159384e+00    1.367988e+00   2.037092e-02
  1.161595e+00    1.353909e+00   2.023618e-02
  1.163805e+00    1.351486e+00   2.018897e-02
  1.166016e+00    1.385726e+00   2.041349e-02
  1.168226e+00    1.377761e+00   2.032569e-02
  1.170437e+00    1.349588e+00   2.008833e-02
  1.172647e+00    1.366754e+00   2.018676e-02
  1.174858e+00    1.383476e+00   2.028161e-02
  1.177068e+00    1.356268e+00   2.005299e-02
  1.179278e+00    1.366155e+00   2.009731e-02
  1.181489e+00    1.400187e+00   2.031869e-02
  1.183699e+00    1.386675e+00   2.019255e-02
  1.185910e+00    1.392900e+00   2.020972e-02
  1.188120e+00    1.336437e+00   1.976938e-02
  1.190331e+00    1.336629e+00   1.974422e-02
  1.192541e+00    1.346787e+00   1.979179e-02
  1.194752e+00    1.365933e+00   1.990480e-02
  1.196962e+00    1.350239e+00   1.976440e-02
  1.199173e+00    1.363925e+00   1.983766e-02
  1.201383e+00    1.365122e+00   1.981908e-02
  1.203593e+00    1.374625e+00   1.986287e-02
  1.205804e+00    1.373529e+00   1.982882e-02
  1.208014e+00    1.352555e+00   1.964997e-02
  1.210225e+00    1.332378e+00   1.947769e-02
  1.212435e+00    1.330472e+00   1.943914e-02
  1.214646e+00    1.329857e+00   1.940874e-02
  1.216856e+00    1.314413e+00   1.927058e-02
  1.219067e+00    1.308636e+00   1.920408e-02
  1.221277e+00    1.329253e+00   1.932994e-02
  1.223488e+00    1.301555e+00   1.910222e-02
  1.225698e+00    1.308430e+00   1.912610e-02
  1.227909e+00    1.339527e+00   1.932200e-02
  1.230119e+00    1.300726e+00   1.900885e-02
  1.232329e+00    1.314893e+00   1.908174e-02
  1.234540e+00    1.345322e+00   1.927105e-02
  1.236750e+00    1.333025e+00   1.915271e-02
  1.238961e+00    1.342692e+00   1.919512e-02
  1.241171e+00    1.321329e+00   1.901788e-02
  1.243382e+00    1.327180e+00   1.903663e-02
  1.245592e+00    1.312808e+00   1.890952e-02
  1.247803e+00    1.334603e+00   1.904230e-02
  1.250013e+00    1.352357e+00   1.914499e-02
  1.252224e+00    1.362892e+00   1.919605e-02
  1.254434e+00    1.383128e+00   1.931401e-02
  1.256644e+00    1.333876e+00   1.894397e-02
  1.258855e+00    1.322931e+00   1.884302e-02
  1.261065e+00    1.322419e+00   1.881626e-02
  1.263276e+00    1.342186e+00   1.893348e-02
  1.265486e+00    1.360290e+00   1.903779e-02
  1.267697e+00    1.359100e+00   1.900638e-02
  1.269907e+00    1.356706e+00   1.896686e-02
  1.272118e+00    1.349863e+00   1.889640e-02
  1.274328e+00    1.347574e+00   1.885766e-02
  1.276539e+00    1.336843e+00   1.875974e-02
  1.278749e+00    1.348510e+00   1.881916e-02
  1.280959e+00    1.354430e+00   1.883784e-02
  1.283170e+00    1.396034e+00   1.910217e-02
  1.285380e+00    1.375367e+00   1.893759e-02
  1.287591e+00    1.375525e+00   1.891643e-02
  1.289801e+00    1.358346e+00   1.877667e-02
  1.292012e+00    1.345261e+00   1.866892e-02
  1.294222e+00    1.330884e+00   1.855280e-02
  1.296433e+00    1.331109e+00   1.853884e-02
  1.298643e+00    1.331868e+00   1.852779e-02
  1.300854e+00    1.342571e+00   1.858570e-02
  1.303064e+00    1.349364e+00   1.861345e-02
  1.305274e+00    1.363288e+00   1.868769e-02
  1.307485e+00    1.355055e+00   1.860961e-02
  1.309695e+00    1.353115e+00   1.857400e-02
  1.311906e+00    1.328383e+00   1.838196e-02
  1.314116e+00    1.337419e+00   1.842365e-02
  1.316327e+00    1.341581e+00   1.843069e-02
  1.318537e+00    1.338184e+00   1.838554e-02
  1.320748e+00    1.358705e+00   1.850435e-02
  1.322958e+00    1.352735e+00   1.844313e-02
  1.325169e+00    1.355998e+00   1.844426e-02
  1.327379e+00    1.377633e+00   1.856882e-02
  1.329589e+00    1.385686e+00   1.860165e-02
  1.331800e+00    1.360015e+00   1.840779e-02
  1.334010e+00    1.380582e+00   1.852552e-02
  1.336221e+00    1.405245e+00   1.866812e-02
  1.338431e+00    1.347764e+00   1.826147e-02
  1.340642e+00    1.356521e+00   1.838501e-02
  1.342852e+00    1.329326e+00   1.829969e-02
  1.345063e+00    1.341857e+00   1.843506e-02
  1.347273e+00    1.355090e+00   1.856105e-02
  1.349484e+00    1.372388e+00   1.870706e-02
  1.351694e+00    1.338568e+00   1.849774e-02
  1.353905e+00    1.325701e+00   1.842646e-02
  1.356115e+00    1.318283e+00   1.838967e-02
  1.358325e+00    1.337244e+00   1.853472e-02
  1.360536e+00    1.338370e+00   1.855409e-02
  1.362746e+00    1.322560e+00   1.845366e-02
  1.364957e+00    1.352470e+00   1.866879e-02
  1.367167e+00    1.366660e+00   1.877372e-02
  1.369378e+00    1.345867e+00   1.863635e-02
  1.371588e+00    1.337130e+00   1.858091e-02
  1.373799e+00    1.355411e+00   1.871116e-02
  1.376009e+00    1.331930e+00   1.855178e-02
  1.378220e+00    1.327883e+00   1.852609e-02
  1.380430e+00    1.298447e+00   1.832229e-02
  1.382640e+00    1.295687e+00   1.830368e-02
  1.384851e+00    1.321440e+00   1.848557e-02
  1.387061e+00    1.314023e+00   1.843391e-02
  1.389272e+00    1.289081e+00   1.825834e-02
  1.391482e+00    1.304095e+00   1.836366e-02
  1.393693e+00    1.302138e+00   1.834901e-02
  1.395903e+00    1.303005e+00   1.835361e-02
  1.398114e+00    1.278021e+00   1.817544e-02
  1.400324e+00    1.268396e+00   1.810472e-02
  1.402535e+00    1.280457e+00   1.818830e-02
  1.404745e+00    1.275024e+00   1.814729e-02
  1.406955e+00    1.288104e+00   1.823744e-02
  1.409166e+00    1.258418e+00   1.802278e-02
  1.411376e+00    1.282934e+00   1.819434e-02
  1.413587e+00    1.302253e+00   1.832696e-02
  1.415797e+00    1.261210e+00   1.803235e-02
  1.418008e+00    1.239832e+00   1.783746e-02
  1.420218e+00    1.248151e+00   1.774879e-02
  1.422429e+00    1.229743e+00   1.753345e-02
  1.424639e+00    1.263637e+00   1.770891e-02
  1.426850e+00    1.288977e+00   1.783049e-02
  1.429060e+00    1.277086e+00   1.769894e-02
  1.431270e+00    1.259118e+00   1.752987e-02
  1.433481e+00    1.278372e+00   1.762229e-02
  1.435691e+00    1.275725e+00   1.756552e-02
  1.437902e+00    1.286416e+00   1.760228e-02
  1.440112e+00    1.278712e+00   1.751403e-02
  1.442323e+00    1.263888e+00   1.737926e-02
  1.444533e+00    1.255945e+00   1.729217e-02
  1.446744e+00    1.281377e+00   1.743510e-02
  1.448954e+00    1.260571e+00   1.726291e-02
  1.451165e+00    1.250151e+00   1.716188e-02
  1.453375e+00    1.272525e+00   1.728670e-02
  1.455586e+00    1.254087e+00   1.713302e-02
  1.457796e+00    1.277784e+00   1.726654e-02
  1.460006e+00    1.258710e+00   1.711005e-02
  1.462217e+00    1.262018e+00   1.710639e-02
  1.464427e+00    1.239599e+00   1.692845e-02
  1.466638e+00    1.250367e+00   1.697669e-02
  1.468848e+00    1.260663e+00   1.702118e-02
  1.471059e+00    1.241349e+00   1.686550e-02
  1.473269e+00    1.276767e+00   1.707993e-02
  1.475480e+00    1.266188e+00   1.698532e-02
  1.477690e+00    1.242936e+00   1.680502e-02
  1.479901e+00    1.246884e+00   1.680805e-02
  1.482111e+00    1.255328e+00   1.684165e-02
  1.484321e+00    1.283162e+00   1.700407e-02
  1.486532e+00    1.287124e+00   1.700781e-02
  1.488742e+00    1.238812e+00   1.666314e-02
  1.490953e+00    1.251834e+00   1.672799e-02
  1.493163e+00    1.261693e+00   1.677147e-02
  1.495374e+00    1.266719e+00   1.678332e-02
  1.497584e+00    1.254730e+00   1.668213e-02
  1.499795e+00    1.257204e+00   1.667693e-02
  1.502005e+00    1.243533e+00   1.656448e-02
  1.504216e+00    1.233318e+00   1.647547e-02
  1.506426e+00    1.243727e+00   1.652415e-02
  1.508636e+00    1.254921e+00   1.657793e-02
  1.510847e+00    1.247647e+00   1.650807e-02
  1.513057e+00    1.242305e+00   1.644774e-02
  1.515268e+00    1.243457e+00   1.642977e-02
  1.517478e+00    1.237947e+00   1.636833e-02
  1.519689e+00    1.276338e+00   1.659501e-02
  1.521899e+00    1.274316e+00   1.655859e-02
  1.524110e+00    1.240479e+00   1.631703e-02
  1.526320e+00    1.246198e+00   1.633504e-02
  1.528531e+00    1.278124e+00   1.652299e-02
  1.530741e+00    1.257848e+00   1.637221e-02
  1.532951e+00    1.242065e+00   1.624964e-02
  1.535162e+00    1.237634e+00   1.630680e-02
  1.537372e+00    1.236421e+00   1.636539e-02
  1.539583e+00    1.237534e+00   1.640683e-02
  1.541793e+00    1.234877e+00   1.639611e-02
  1.544004e+00    1.259946e+00   1.656196e-02
  1.546214e+00    1.253711e+00   1.651945e-02
  1.548425e+00    1.254924e+00   1.652767e-02
  1.550635e+00    1.273975e+00   1.666245e-02
  1.552846e+00    1.247622e+00   1.649891e-02
  1.555056e+00    1.245450e+00   1.644301e-02
  1.557266e+00    1.265034e+00   1.646045e-02
  1.559477e+00    1.248411e+00   1.629272e-02
  1.561687e+00    1.247449e+00   1.625574e-02
  1.563898e+00    1.244503e+00   1.621938e-02
  1.566108e+00    1.238090e+00   1.616162e-02
  1.568319e+00    1.232293e+00   1.610818e-02
  1.570529e+00    1.233025e+00   1.608795e-02
  1.572740e+00    1.241374e+00   1.611476e-02
  1.574950e+00    1.223737e+00   1.597376e-02
  1.577161e+00    1.247196e+00   1.610064e-02
  1.579371e+00    1.239548e+00   1.602759e-02
  1.581582e+00    1.248863e+00   1.606789e-02
  1.583792e+00    1.236101e+00   1.596764e-02
  1.586002e+00    1.201333e+00   1.572416e-02
  1.588213e+00    1.208330e+00   1.575287e-02
  1.590423e+00    1.249171e+00   1.599678e-02
  1.592634e+00    1.234804e+00   1.588298e-02
  1.594844e+00    1.226417e+00   1.580770e-02
  1.597055e+00    1.219095e+00   1.574013e-02
  1.599265e+00    1.218102e+00   1.571320e-02
  1.601476e+00    1.211098e+00   1.564789e-02
  1.603686e+00    1.212484e+00   1.563730e-02
  1.605897e+00    1.233090e+00   1.574951e-02
  1.608107e+00    1.239195e+00   1.576887e-02
  1.610317e+00    1.232934e+00   1.570972e-02
  1.612528e+00    1.252979e+00   1.581758e-02
  1.614738e+00    1.254043e+00   1.580520e-02
  1.616949e+00    1.221762e+00   1.558150e-02
  1.619159e+00    1.200094e+00   1.542416e-02
  1.621370e+00    1.192687e+00   1.535823e-02
  1.623580e+00    1.189634e+00   1.532040e-02
  1.625791e+00    1.184297e+00   1.526793e-02
  1.628001e+00    1.184857e+00   1.525343e-02
  1.630212e+00    1.160701e+00   1.507961e-02
  1.632422e+00    1.170432e+00   1.512493e-02
  1.634632e+00    1.168118e+00   1.509276e-02
  1.636843e+00    1.150046e+00   1.495821e-02
  1.639053e+00    1.158481e+00   1.499579e-02
  1.641264e+00    1.168469e+00   1.504322e-02
  1.643474e+00    1.168310e+00   1.502474e-02
  1.645685e+00    1.169953e+00   1.501858e-02
  1.647895e+00    1.178612e+00   1.505727e-02
  1.650106e+00    1.182594e+00   1.506548e-02
  1.652316e+00    1.150375e+00   1.484233e-02
  1.654527e+00    1.146121e+00   1.479814e-02
  1.656737e+00    1.152805e+00   1.482457e-02
  1.658947e+00    1.145775e+00   1.476292e-02
  1.661158e+00    1.128174e+00   1.463281e-02
  1.663368e+00    1.129620e+00   1.462611e-02
  1.665579e+00    1.122348e+00   1.456279e-02
  1.667789e+00    1.092438e+00   1.435139e-02
  1.670000e+00    1.079980e+00   1.425403e-02
  1.672210e+00    1.097193e+00   1.435141e-02
  1.674421e+00    1.066533e+00   1.413441e-02
  1.676631e+00    1.057925e+00   1.406168e-02
  1.678842e+00    1.086886e+00   1.423718e-02
  1.681052e+00    1.079722e+00   1.417488e-02
  1.683263e+00    1.091836e+00   1.423904e-02
  1.685473e+00    1.084587e+00   1.417655e-02
  1.687683e+00    1.091773e+00   1.420794e-02
  1.689894e+00    1.093498e+00   1.420331e-02
  1.692104e+00    1.078445e+00   1.409029e-02
  1.694315e+00    1.067874e+00   1.400658e-02
  1.696525e+00    1.065481e+00   1.397575e-02
  1.698736e+00    1.043474e+00   1.381600e-02
  1.700946e+00    1.021796e+00   1.365687e-02
  1.703157e+00    1.056477e+00   1.387205e-02
  1.705367e+00    1.037956e+00   1.373555e-02
  1.707578e+00    1.028737e+00   1.365997e-02
  1.709788e+00    1.040110e+00   1.372119e-02
  1.711998e+00    9.926231e-01   1.338968e-02
  1.714209e+00    9.893686e-01   1.335360e-02
  1.716419e+00    1.005730e+00   1.344950e-02
  1.718630e+00    1.005593e+00   1.343449e-02
  1.720840e+00    1.007103e+00   1.343055e-02
  1.723051e+00    1.002525e+00   1.338626e-02
  1.725261e+00    1.009604e+00   1.341886e-02
  1.727472e+00    9.938743e-01   1.329991e-02
  1.729682e+00    9.906539e-01   1.326505e-02
  1.731893e+00    9.820089e-01   1.319334e-02
  1.734103e+00    9.771141e-01   1.314684e-02
  1.736313e+00    9.963184e-01   1.326146e-02
  1.738524e+00    9.775693e-01   1.312244e-02
  1.740734e+00    9.845859e-01   1.315584e-02
  1.742945e+00    9.742661e-01   1.307343e-02
  1.745155e+00    9.486465e-01   1.288723e-02
  1.747366e+00    9.557772e-01   1.292200e-02
  1.749576e+00    9.597927e-01   1.293561e-02
  1.751787e+00    9.566478e-01   1.290126e-02
  1.753997e+00    9.330421e-01   1.272803e-02
  1.756208e+00    9.485112e-01   1.282007e-02
  1.758418e+00    9.488436e-01   1.280938e-02
  1.760628e+00    9.375114e-01   1.271952e-02
  1.762839e+00    9.209182e-01   1.259354e-02
  1.765049e+00    9.255088e-01   1.261202e-02
  1.767260e+00    9.313208e-01   1.263894e-02
  1.769470e+00    9.310628e-01   1.262437e-02
  1.771681e+00    9.393204e-01   1.266719e-02
  1.773891e+00    9.102727e-01   1.245701e-02
  1.776102e+00    9.138686e-01   1.246895e-02
  1.778312e+00    9.090863e-01   1.242378e-02
  1.780523e+00    9.082673e-01   1.240568e-02
  1.782733e+00    9.033268e-01   1.235946e-02
  1.784944e+00    8.999030e-01   1.232337e-02
  1.787154e+00    9.017082e-01   1.232340e-02
  1.789364e+00    9.142907e-01   1.239671e-02
  1.791575e+00    8.907783e-01   1.222400e-02
  1.793785e+00    8.906190e-01   1.221071e-02
  1.795996e+00    8.909621e-01   1.220075e-02
  1.798206e+00    8.593917e-01   1.197055e-02
  1.800417e+00    8.693215e-01   1.202713e-02
  1.802627e+00    8.796885e-01   1.208693e-02
  1.804838e+00    8.927654e-01   1.216445e-02
  1.807048e+00    8.912664e-01   1.214153e-02
  1.809259e+00    8.923812e-01   1.213563e-02
  1.811469e+00    8.797036e-01   1.203437e-02
  1.813679e+00    8.714929e-01   1.196335e-02
  1.815890e+00    8.802319e-01   1.200857e-02
  1.818100e+00    8.891199e-01   1.205402e-02
  1.820311e+00    8.594058e-01   1.183641e-02
  1.822521e+00    8.741547e-01   1.192281e-02
  1.824732e+00    8.710755e-01   1.188715e-02
  1.826942e+00    8.676500e-01   1.185156e-02
  1.829153e+00    8.551774e-01   1.175457e-02
  1.831363e+00    8.738276e-01   1.187009e-02
  1.833574e+00    8.624220e-01   1.178082e-02
  1.835784e+00    8.672748e-01   1.180257e-02
  1.837994e+00    8.700805e-01   1.180999e-02
  1.840205e+00    8.621755e-01   1.174511e-02
  1.842415e+00    8.732591e-01   1.180858e-02
  1.844626e+00    8.937489e-01   1.193461e-02
  1.846836e+00    9.163617e-01   1.207291e-02
  1.849047e+00    8.930458e-01   1.190656e-02
  1.851257e+00    8.882081e-01   1.186454e-02
  1.853468e+00    8.704199e-01   1.173630e-02
  1.855678e+00    8.708389e-01   1.173017e-02
  1.857889e+00    8.832512e-01   1.180487e-02
  1.860099e+00    8.519906e-01   1.158549e-02
  1.862309e+00    8.337408e-01   1.145233e-02
  1.864520e+00    8.517414e-01   1.156673e-02
  1.866730e+00    8.534727e-01   1.156912e-02
  1.868941e+00    8.581678e-01   1.158990e-02
  1.871151e+00    8.457047e-01   1.149410e-02
  1.873362e+00    8.291925e-01   1.137013e-02
  1.875572e+00    8.210978e-01   1.130372e-02
  1.877783e+00    8.377630e-01   1.140652e-02
  1.879993e+00    8.312573e-01   1.135108e-02
  1.882204e+00    8.264785e-01   1.130764e-02
  1.884414e+00    8.400180e-01   1.138882e-02
  1.886624e+00    8.376068e-01   1.136144e-02
  1.888835e+00    8.359109e-01   1.133901e-02
  1.891045e+00    8.131121e-01   1.117259e-02
  1.893256e+00    8.243071e-01   1.123825e-02
  1.895466e+00    8.257020e-01   1.123665e-02
  1.897677e+00    8.391777e-01   1.131704e-02
  1.899887e+00    8.191652e-01   1.117040e-02
  1.902098e+00    8.355074e-01   1.127039e-02
  1.904308e+00    8.344737e-01   1.125283e-02
  1.906519e+00    8.257000e-01   1.118270e-02
  1.908729e+00    8.394743e-01   1.126491e-02
  1.910940e+00    8.312051e-01   1.119815e-02
  1.913150e+00    8.169931e-01   1.109146e-02
  1.915360e+00    8.125443e-01   1.105068e-02
  1.917571e+00    8.064033e-01   1.099809e-02
  1.919781e+00    8.156550e-01   1.105033e-02
  1.921992e+00    8.181381e-01   1.105655e-02
  1.924202e+00    8.069620e-01   1.097007e-02
  1.926413e+00    8.102852e-01   1.098237e-02
  1.928623e+00    7.965615e-01   1.087856e-02
  1.930834e+00    7.910395e-01   1.083047e-02
  1.933044e+00    8.102888e-01   1.095080e-02
  1.935255e+00    8.102975e-01   1.094055e-02
  1.937465e+00    8.094057e-01   1.092410e-02
  1.939675e+00    7.995198e-01   1.084642e-02
  1.941886e+00    7.935768e-01   1.079579e-02
  1.944096e+00    7.989025e-01   1.082182e-02
  1.946307e+00    7.736952e-01   1.063957e-02
  1.948517e+00    7.791678e-01   1.066681e-02
  1.950728e+00    7.922625e-01   1.074587e-02
  1.952938e+00    7.925063e-01   1.073747e-02
  1.955149e+00    7.707887e-01   1.057926e-02
  1.957359e+00    7.898757e-01   1.069943e-02
  1.959570e+00    7.944216e-01   1.071931e-02
  1.961780e+00    7.935802e-01   1.070372e-02
  1.963990e+00    8.004052e-01   1.073947e-02
  1.966201e+00    7.901660e-01   1.066050e-02
  1.968411e+00    8.047148e-01   1.074793e-02
  1.970622e+00    7.927493e-01   1.065764e-02
  1.972832e+00    7.601234e-01   1.042621e-02
  1.975043e+00    7.705353e-01   1.048742e-02
  1.977253e+00    7.728419e-01   1.049324e-02
  1.979464e+00    7.640074e-01   1.042318e-02
  1.981674e+00    7.763559e-01   1.049686e-02
  1.983885e+00    7.699015e-01   1.044320e-02
  1.986095e+00    7.765445e-01   1.047846e-02
  1.988305e+00    7.698738e-01   1.042354e-02
  1.990516e+00    7.645640e-01   1.037770e-02
  1.992726e+00    7.686902e-01   1.039604e-02
  1.994937e+00    7.934970e-01   1.055223e-02
  1.997147e+00    7.820259e-01   1.046592e-02
  1.999358e+00    7.735965e-01   1.039952e-02
  2.001568e+00    7.588558e-01   1.028923e-02
  2.003779e+00    7.496645e-01   1.021501e-02
  2.005989e+00    7.577602e-01   1.025808e-02
  2.008200e+00    7.695546e-01   1.032611e-02
  2.010410e+00    7.541605e-01   1.021067e-02
  2.012621e+00    7.608992e-01   1.024454e-02
  2.014831e+00    7.639586e-01   1.025365e-02
  2.017041e+00    7.632303e-01   1.023843e-02
  2.019252e+00    7.538889e-01   1.016569e-02
  2.021462e+00    7.302361e-01   9.995664e-03
  2.023673e+00    7.331392e-01   1.000631e-02
  2.025883e+00    7.347053e-01   1.000764e-02
  2.028094e+00    7.426664e-01   1.005221e-02
  2.030304e+00    7.482814e-01   1.008069e-02
  2.032515e+00    7.548372e-01   1.011548e-02
  2.034725e+00    7.692034e-01   1.020179e-02
  2.036936e+00    7.452740e-01   1.003261e-02
  2.039146e+00    7.385036e-01   9.977460e-03
  2.041356e+00    7.417576e-01   9.989883e-03
  2.043567e+00    7.316266e-01   9.912260e-03
  2.045777e+00    7.421218e-01   9.973932e-03
  2.047988e+00    7.513506e-01   1.002642e-02
  2.050198e+00    7.446631e-01   9.973312e-03
  2.052409e+00    7.593838e-01   1.006371e-02
  2.054619e+00    7.656441e-01   1.009768e-02
  2.056830e+00    7.649946e-01   1.008615e-02
  2.059040e+00    7.496808e-01   9.977187e-03
  2.061251e+00    7.552437e-01   1.000685e-02
  2.063461e+00    7.440049e-01   9.924565e-03
  2.065671e+00    7.397826e-01   9.887673e-03
  2.067882e+00    7.476256e-01   9.930955e-03
  2.070092e+00    7.615806e-01   1.001393e-02
  2.072303e+00    7.583907e-01   9.983734e-03
  2.074513e+00    7.451373e-01   9.886790e-03
  2.076724e+00    7.437851e-01   9.868355e-03
  2.078934e+00    7.431338e-01   9.855037e-03
  2.081145e+00    7.341909e-01   9.786529e-03
  2.083355e+00    7.317213e-01   9.760941e-03
  2.085566e+00    7.361286e-01   9.781415e-03
  2.087776e+00    7.238222e-01   9.689909e-03
  2.089986e+00    7.287784e-01   9.714279e-03
  2.092197e+00    7.351134e-01   9.747489e-03
  2.094407e+00    7.235868e-01   9.661611e-03
  2.096618e+00    7.340903e-01   9.722590e-03
  2.098828e+00    7.085413e-01   9.542771e-03
  2.101039e+00    7.085485e-01   9.533969e-03
  2.103249e+00    7.168951e-01   9.581385e-03
  2.105460e+00    7.039202e-01   9.485435e-03
  2.107670e+00    7.017040e-01   9.461914e-03
  2.109881e+00    7.015426e-01   9.451827e-03
  2.112091e+00    7.012526e-01   9.441035e-03
  2.114301e+00    7.060340e-01   9.464499e-03
  2.116512e+00    7.019525e-01   9.428442e-03
  2.118722e+00    6.923949e-01   9.355387e-03
  2.120933e+00    7.004198e-01   9.400716e-03
  2.123143e+00    7.112659e-01   9.464343e-03
  2.125354e+00    7.225375e-01   9.530505e-03
  2.127564e+00    6.963913e-01   9.347867e-03
  2.129775e+00    6.927446e-01   9.314775e-03
  2.131985e+00    7.042288e-01   9.382648e-03
  2.134196e+00    7.204637e-01   9.481579e-03
  2.136406e+00    6.905923e-01   9.274326e-03
  2.138617e+00    6.929340e-01   9.281678e-03
  2.140827e+00    6.931103e-01   9.298748e-03
  2.143037e+00    6.788886e-01   9.247406e-03
  2.145248e+00    6.869662e-01   9.323962e-03
  2.147458e+00    6.880009e-01   9.345951e-03
  2.149669e+00    6.890564e-01   9.364840e-03
  2.151879e+00    6.899168e-01   9.379831e-03
  2.154090e+00    6.987520e-01   9.447008e-03
  2.156300e+00    6.995763e-01   9.459167e-03
  2.158511e+00    6.939555e-01   9.426387e-03
  2.160721e+00    6.910598e-01   9.411481e-03
  2.162932e+00    6.940379e-01   9.435478e-03
  2.165142e+00    6.889277e-01   9.403666e-03
  2.167352e+00    6.982415e-01   9.469936e-03
  2.169563e+00    6.976692e-01   9.468039e-03
  2.171773e+00    6.661017e-01   9.253737e-03
  2.173984e+00    6.686214e-01   9.272613e-03
  2.176194e+00    6.758753e-01   9.323956e-03
  2.178405e+00    6.730235e-01   9.304960e-03
  2.180615e+00    6.547307e-01   9.178294e-03
  2.182826e+00    6.808093e-01   9.359957e-03
  2.185036e+00    6.834531e-01   9.378180e-03
  2.187247e+00    6.835381e-01   9.378715e-03
  2.189457e+00    6.559117e-01   9.186838e-03
  2.191667e+00    6.763349e-01   9.328573e-03
  2.193878e+00    6.844929e-01   9.384114e-03
  2.196088e+00    6.982291e-01   9.477105e-03
  2.198299e+00    6.853094e-01   9.387939e-03
  2.200509e+00    6.813982e-01   9.360061e-03
  2.202720e+00    6.673505e-01   9.261923e-03
  2.204930e+00    6.713387e-01   9.288330e-03
  2.207141e+00    6.747494e-01   9.310782e-03
  2.209351e+00    6.613788e-01   9.216231e-03
  2.211562e+00    6.776352e-01   9.327155e-03
  2.213772e+00    6.768554e-01   9.266338e-03
  2.215982e+00    6.550674e-01   9.072436e-03
  2.218193e+00    6.602486e-01   9.078954e-03
  2.220403e+00    6.726935e-01   9.139573e-03
  2.222614e+00    6.680351e-01   9.087012e-03
  2.224824e+00    6.759776e-01   9.121452e-03
  2.227035e+00    6.660275e-01   9.036722e-03
  2.229245e+00    6.649008e-01   9.012179e-03
  2.231456e+00    6.774687e-01   9.081283e-03
  2.233666e+00    6.682629e-01   9.004304e-03
  2.235877e+00    6.674989e-01   8.984903e-03
  2.238087e+00    6.813024e-01   9.063766e-03
  2.240298e+00    6.597913e-01   8.905844e-03
  2.242508e+00    6.613503e-01   8.901313e-03
  2.244718e+00    6.747455e-01   8.975132e-03
  2.246929e+00    6.628381e-01   8.881230e-03
  2.249139e+00    6.628383e-01   8.868881e-03
  2.251350e+00    6.603149e-01   8.840340e-03
  2.253560e+00    6.721587e-01   8.907648e-03
  2.255771e+00    6.624015e-01   8.831411e-03
  2.257981e+00    6.414775e-01   8.679798e-03
  2.260192e+00    6.702370e-01   8.861080e-03
  2.262402e+00    6.776621e-01   8.899079e-03
  2.264613e+00    6.503447e-01   8.707143e-03
  2.266823e+00    6.581839e-01   8.749085e-03
  2.269033e+00    6.919702e-01   8.960232e-03
  2.271244e+00    6.795315e-01   8.868823e-03
  2.273454e+00    6.855088e-01   8.897285e-03
  2.275665e+00    6.848159e-01   8.882337e-03
  2.277875e+00    6.676452e-01   8.760287e-03
  2.280086e+00    6.638756e-01   8.725440e-03
  2.282296e+00    6.535887e-01   8.648225e-03
  2.284507e+00    6.441776e-01   8.575705e-03
  2.286717e+00    6.593847e-01   8.666847e-03
  2.288928e+00    6.784401e-01   8.781175e-03
  2.291138e+00    6.658545e-01   8.689870e-03
  2.293348e+00    6.481672e-01   8.564188e-03
  2.295559e+00    6.443720e-01   8.529831e-03
  2.297769e+00    6.487187e-01   8.549350e-03
  2.299980e+00    6.522774e-01   8.563449e-03
  2.302190e+00    6.424977e-01   8.489951e-03
  2.304401e+00    6.374012e-01   8.446996e-03
  2.306611e+00    6.584852e-01   8.576328e-03
  2.308822e+00    6.418428e-01   8.458933e-03
  2.311032e+00    6.384750e-01   8.430309e-03
  2.313243e+00    6.410613e-01   8.441147e-03
  2.315453e+00    6.403109e-01   8.428680e-03
  2.317663e+00    6.443330e-01   8.446011e-03
  2.319874e+00    6.361970e-01   8.383849e-03
  2.322084e+00    6.261314e-01   8.308443e-03
  2.324295e+00    6.529787e-01   8.476411e-03
  2.326505e+00    6.460031e-01   8.421973e-03
  2.328716e+00    6.524302e-01   8.455142e-03
  2.330926e+00    6.422689e-01   8.380258e-03
  2.333137e+00    6.323899e-01   8.307246e-03
  2.335347e+00    6.393633e-01   8.344056e-03
  2.337558e+00    6.438532e-01   8.365053e-03
  2.339768e+00    6.398467e-01   8.330424e-03
  2.341979e+00    6.288564e-01   8.250263e-03
  2.344189e+00    6.184003e-01   8.173128e-03
  2.346399e+00    6.145710e-01   8.139421e-03
  2.348610e+00    6.212973e-01   8.175471e-03
  2.350820e+00    6.282904e-01   8.213231e-03
  2.353031e+00    6.244173e-01   8.179654e-03
  2.355241e+00    6.084927e-01   8.066787e-03
  2.357452e+00    6.097191e-01   8.066626e-03
  2.359662e+00    6.333566e-01   8.213265e-03
  2.361873e+00    6.333895e-01   8.205254e-03
  2.364083e+00    6.296111e-01   8.172731e-03
  2.366294e+00    6.261142e-01   8.141920e-03
  2.368504e+00    6.222338e-01   8.108595e-03
  2.370714e+00    6.074038e-01   8.003458e-03
  2.372925e+00    6.037496e-01   7.971416e-03
  2.375135e+00    6.101056e-01   8.005308e-03
  2.377346e+00    6.188532e-01   8.054573e-03
  2.379556e+00    6.277108e-01   8.104082e-03
  2.381767e+00    6.167315e-01   8.025084e-03
  2.383977e+00    6.036808e-01   7.931879e-03
  2.386188e+00    6.038679e-01   7.925294e-03
  2.388398e+00    6.104172e-01   7.960242e-03
  2.390609e+00    6.268452e-01   8.058867e-03
  2.392819e+00    6.111141e-01   7.949381e-03
  2.395029e+00    5.930973e-01   7.823787e-03
  2.397240e+00    5.966591e-01   7.839490e-03
  2.399450e+00    6.074863e-01   7.902532e-03
  2.401661e+00    6.139744e-01   7.936928e-03
  2.403871e+00    6.070654e-01   7.884416e-03
  2.406082e+00    6.029381e-01   7.850179e-03
  2.408292e+00    5.947680e-01   7.789109e-03
  2.410503e+00    5.944821e-01   7.779839e-03
  2.412713e+00    5.929821e-01   7.762300e-03
  2.414924e+00    6.058497e-01   7.838590e-03
  2.417134e+00    5.963204e-01   7.769131e-03
  2.419344e+00    5.955651e-01   7.756829e-03
  2.421555e+00    5.887191e-01   7.704713e-03
  2.423765e+00    5.907657e-01   7.710725e-03
  2.425976e+00    5.974080e-01   7.746175e-03
  2.428186e+00    6.001354e-01   7.756601e-03
  2.430397e+00    5.964720e-01   7.725420e-03
  2.432607e+00    5.998009e-01   7.739650e-03
  2.434818e+00    5.953106e-01   7.703078e-03
  2.437028e+00    6.123135e-01   7.805049e-03
  2.439239e+00    5.991490e-01   7.713000e-03
  2.441449e+00    5.910449e-01   7.653497e-03
  2.443659e+00    5.692192e-01   7.503611e-03
  2.445870e+00    5.706702e-01   7.525237e-03
  2.448080e+00    5.721020e-01   7.569128e-03
  2.450291e+00    5.755475e-01   7.608484e-03
  2.452501e+00    5.620460e-01   7.529741e-03
  2.454712e+00    5.629401e-01   7.544065e-03
  2.456922e+00    5.591998e-01   7.525528e-03
  2.459133e+00    5.606225e-01   7.540486e-03
  2.461343e+00    5.512326e-01   7.481377e-03
  2.463554e+00    5.418312e-01   7.420694e-03
  2.465764e+00    5.530555e-01   7.500253e-03
  2.467975e+00    5.633298e-01   7.571922e-03
  2.470185e+00    5.438853e-01   7.442307e-03
  2.472395e+00    5.400672e-01   7.417344e-03
  2.474606e+00    5.325119e-01   7.366803e-03
  2.476816e+00    5.386496e-01   7.409875e-03
  2.479027e+00    5.281845e-01   7.338361e-03
  2.481237e+00    5.350695e-01   7.386303e-03
  2.483448e+00    5.536518e-01   7.513779e-03
  2.485658e+00    5.530085e-01   7.509266e-03
  2.487869e+00    5.332139e-01   7.373706e-03
  2.490079e+00    5.409316e-01   7.426332e-03
  2.492290e+00    5.354087e-01   7.387911e-03
  2.494500e+00    5.350490e-01   7.384675e-03
  2.496710e+00    5.321515e-01   7.363989e-03
  2.498921e+00    5.332711e-01   7.370718e-03
  2.501131e+00    5.177297e-01   7.261599e-03
  2.503342e+00    5.186117e-01   7.266532e-03
  2.505552e+00    5.166231e-01   7.251467e-03
  2.507763e+00    5.121758e-01   7.218796e-03
  2.509973e+00    5.004511e-01   7.134346e-03
  2.512184e+00    5.081112e-01   7.187132e-03
  2.514394e+00    5.075950e-01   7.174309e-03
  2.516605e+00    5.194199e-01   7.210639e-03
  2.518815e+00    5.100924e-01   7.117724e-03
  2.521025e+00    5.153294e-01   7.133393e-03
  2.523236e+00    5.198147e-01   7.146487e-03
  2.525446e+00    5.268716e-01   7.179222e-03
  2.527657e+00    5.161765e-01   7.091495e-03
  2.529867e+00    5.203992e-01   7.106333e-03
  2.532078e+00    5.200590e-01   7.089039e-03
  2.534288e+00    5.179365e-01   7.060773e-03
  2.536499e+00    5.038231e-01   6.952189e-03
  2.538709e+00    5.180579e-01   7.038798e-03
  2.540920e+00    5.169808e-01   7.020906e-03
  2.543130e+00    4.966405e-01   6.871324e-03
  2.545340e+00    5.111996e-01   6.961347e-03
  2.547551e+00    5.176725e-01   6.995402e-03
  2.549761e+00    5.073895e-01   6.916142e-03
  2.551972e+00    5.095647e-01   6.921687e-03
  2.554182e+00    5.192067e-01   6.977720e-03
  2.556393e+00    5.011153e-01   6.846163e-03
  2.558603e+00    5.066022e-01   6.874572e-03
  2.560814e+00    5.012072e-01   6.829335e-03
  2.563024e+00    5.064014e-01   6.856157e-03
  2.565235e+00    5.046477e-01   6.834886e-03
  2.567445e+00    5.097557e-01   6.859954e-03
  2.569656e+00    5.017248e-01   6.796083e-03
  2.571866e+00    5.046378e-01   6.806567e-03
  2.574076e+00    5.107684e-01   6.838546e-03
  2.576287e+00    5.186985e-01   6.883109e-03
  2.578497e+00    5.246398e-01   6.914481e-03
  2.580708e+00    5.272921e-01   6.923793e-03
  2.582918e+00    5.125885e-01   6.818812e-03
  2.585129e+00    5.172114e-01   6.841724e-03
  2.587339e+00    4.987486e-01   6.710947e-03
  2.589550e+00    4.895845e-01   6.641609e-03
  2.591760e+00    5.068309e-01   6.749883e-03
  2.593971e+00    5.158535e-01   6.802144e-03
  2.596181e+00    5.089601e-01   6.750342e-03
  2.598391e+00    4.984123e-01   6.674901e-03
  2.600602e+00    5.037796e-01   6.704864e-03
  2.602812e+00    5.042291e-01   6.700343e-03
  2.605023e+00    5.117068e-01   6.742673e-03
  2.607233e+00    4.964636e-01   6.634424e-03
  2.609444e+00    5.034255e-01   6.673570e-03
  2.611654e+00    4.911703e-01   6.584631e-03
  2.613865e+00    5.066730e-01   6.680710e-03
  2.616075e+00    4.941857e-01   6.590819e-03
  2.618286e+00    4.846058e-01   6.519767e-03
  2.620496e+00    4.862811e-01   6.524453e-03
  2.622706e+00    4.956679e-01   6.581433e-03
  2.624917e+00    4.996644e-01   6.602090e-03
  2.627127e+00    4.911040e-01   6.539640e-03
  2.629338e+00    4.934658e-01   6.549418e-03
  2.631548e+00    5.000217e-01   6.586634e-03
  2.633759e+00    5.044953e-01   6.608870e-03
  2.635969e+00    4.873449e-01   6.488982e-03
  2.638180e+00    4.869256e-01   6.479294e-03
  2.640390e+00    4.991292e-01   6.553402e-03
  2.642601e+00    4.939124e-01   6.512457e-03
  2.644811e+00    4.873976e-01   6.462373e-03
  2.647021e+00    4.869659e-01   6.453025e-03
  2.649232e+00    4.897003e-01   6.464473e-03
  2.651442e+00    4.921045e-01   6.473862e-03
  2.653653e+00    4.920774e-01   6.466934e-03
  2.655863e+00    4.949964e-01   6.479437e-03
  2.658074e+00    4.957931e-01   6.478037e-03
  2.660284e+00    4.930130e-01   6.453537e-03
  2.662495e+00    4.857898e-01   6.399401e-03
  2.664705e+00    4.978258e-01   6.471629e-03
  2.666916e+00    4.865962e-01   6.391807e-03
  2.669126e+00    4.853345e-01   6.377144e-03
  2.671337e+00    4.795959e-01   6.332849e-03
  2.673547e+00    4.887989e-01   6.386970e-03
  2.675757e+00    4.944440e-01   6.417322e-03
  2.677968e+00    4.719781e-01   6.263458e-03
  2.680178e+00    4.804392e-01   6.313011e-03
  2.682389e+00    4.913375e-01   6.377855e-03
  2.684599e+00    4.781806e-01   6.285776e-03
  2.686810e+00    4.956800e-01   6.393134e-03
  2.689020e+00    4.835184e-01   6.307992e-03
  2.691231e+00    4.802386e-01   6.280324e-03
  2.693441e+00    4.852495e-01   6.306895e-03
  2.695652e+00    4.766007e-01   6.244016e-03
  2.697862e+00    4.970446e-01   6.370134e-03
  2.700072e+00    4.759584e-01   6.227570e-03
  2.702283e+00    4.754170e-01   6.217886e-03
  2.704493e+00    4.881063e-01   6.294033e-03
  2.706704e+00    4.764826e-01   6.212322e-03
  2.708914e+00    4.827550e-01   6.247148e-03
  2.711125e+00    4.688415e-01   6.150339e-03
  2.713335e+00    4.814798e-01   6.226622e-03
  2.715546e+00    4.782711e-01   6.199441e-03
  2.717756e+00    4.822908e-01   6.219587e-03
  2.719967e+00    4.714949e-01   6.143447e-03
  2.722177e+00    4.788122e-01   6.184865e-03
  2.724387e+00    4.785160e-01   6.176878e-03
  2.726598e+00    4.850484e-01   6.212852e-03
  2.728808e+00    4.721681e-01   6.123740e-03
  2.731019e+00    4.809318e-01   6.174198e-03
  2.733229e+00    4.864158e-01   6.203498e-03
  2.735440e+00    4.563859e-01   6.002867e-03
  2.737650e+00    4.702722e-01   6.087556e-03
  2.739861e+00    4.864322e-01   6.185185e-03
  2.742071e+00    4.758507e-01   6.111850e-03
  2.744282e+00    4.685802e-01   6.058814e-03
  2.746492e+00    4.782517e-01   6.115008e-03
  2.748702e+00    4.830133e-01   6.139473e-03
  2.750913e+00    4.768518e-01   6.094425e-03
  2.753123e+00    4.725775e-01   6.060984e-03
  2.755334e+00    4.664432e-01   6.015541e-03
  2.757544e+00    4.739651e-01   6.058143e-03
  2.759755e+00    4.777045e-01   6.076125e-03
  2.761965e+00    4.841748e-01   6.111141e-03
  2.764176e+00    4.820825e-01   6.091924e-03
  2.766386e+00    4.732483e-01   6.030085e-03
  2.768597e+00    4.757968e-01   6.040477e-03
  2.770807e+00    4.611800e-01   5.941200e-03
  2.773017e+00    4.600002e-01   5.927740e-03
  2.775228e+00    4.601930e-01   5.923296e-03
  2.777438e+00    4.781041e-01   6.031678e-03
  2.779649e+00    4.727555e-01   5.991993e-03
  2.781859e+00    4.704069e-01   5.971352e-03
  2.784070e+00    4.720023e-01   5.975656e-03
  2.786280e+00    4.569250e-01   5.873803e-03
  2.788491e+00    4.649744e-01   5.919530e-03
  2.790701e+00    4.690256e-01   5.939663e-03
  2.792912e+00    4.776241e-01   5.987896e-03
  2.795122e+00    4.785253e-01   5.987799e-03
  2.797333e+00    4.687966e-01   5.921098e-03
  2.799543e+00    4.630789e-01   5.879092e-03
  2.801753e+00    4.591857e-01   5.848574e-03
  2.803964e+00    4.656977e-01   5.884282e-03
  2.806174e+00    4.689775e-01   5.898869e-03
  2.808385e+00    4.661892e-01   5.874573e-03
  2.810595e+00    4.676303e-01   5.876834e-03
  2.812806e+00    4.540144e-01   5.784181e-03
  2.815016e+00    4.684274e-01   5.870542e-03
  2.817227e+00    4.634708e-01   5.865050e-03
  2.819437e+00    4.694870e-01   5.914026e-03
  2.821648e+00    4.721676e-01   5.933165e-03
  2.823858e+00    4.699332e-01   5.924436e-03
  2.826068e+00    4.702540e-01   5.931421e-03
  2.828279e+00    4.729674e-01   5.952549e-03
  2.830489e+00    4.708096e-01   5.942288e-03
  2.832700e+00    4.648198e-01   5.906906e-03
  2.834910e+00    4.688238e-01   5.934342e-03
  2.837121e+00    4.697751e-01   5.942083e-03
  2.839331e+00    4.589435e-01   5.874388e-03
  2.841542e+00    4.598567e-01   5.881233e-03
  2.843752e+00    4.673767e-01   5.929903e-03
  2.845963e+00    4.551338e-01   5.852116e-03
  2.848173e+00    4.662180e-01   5.923035e-03
  2.850383e+00    4.509853e-01   5.825758e-03
  2.852594e+00    4.706643e-01   5.951414e-03
  2.854804e+00    4.683842e-01   5.936486e-03
  2.857015e+00    4.707244e-01   5.950871e-03
  2.859225e+00    4.528975e-01   5.836857e-03
  2.861436e+00    4.538707e-01   5.842461e-03
  2.863646e+00    4.548809e-01   5.849001e-03
  2.865857e+00    4.622238e-01   5.896365e-03
  2.868067e+00    4.637175e-01   5.906097e-03
  2.870278e+00    4.655460e-01   5.917387e-03
  2.872488e+00    4.661379e-01   5.919985e-03
  2.874698e+00    4.470092e-01   5.796221e-03
  2.876909e+00    4.547673e-01   5.844982e-03
  2.879119e+00    4.624649e-01   5.892613e-03
  2.881330e+00    4.605054e-01   5.878664e-03
  2.883540e+00    4.541124e-01   5.836325e-03
  2.885751e+00    4.508938e-01   5.813995e-03
  2.887961e+00    4.507416e-01   5.811134e-03
  2.890172e+00    4.598451e-01   5.867938e-03
  2.892382e+00    4.576726e-01   5.852254e-03
  2.894593e+00    4.599329e-01   5.864885e-03
  2.896803e+00    4.546492e-01   5.829118e-03
  2.899014e+00    4.510146e-01   5.803894e-03
  2.901224e+00    4.603345e-01   5.861545e-03
  2.903434e+00    4.462721e-01   5.769433e-03
  2.905645e+00    4.474168e-01   5.774603e-03
  2.907855e+00    4.486076e-01   5.780218e-03
  2.910066e+00    4.579037e-01   5.837717e-03
  2.912276e+00    4.443101e-01   5.748349e-03
  2.914487e+00    4.505070e-01   5.785840e-03
  2.916697e+00    4.657723e-01   5.880812e-03
  2.918908e+00    4.487500e-01   5.770382e-03
  2.921118e+00    4.544646e-01   5.804305e-03
  2.923329e+00    4.523554e-01   5.788526e-03
  2.925539e+00    4.585088e-01   5.825481e-03
  2.927749e+00    4.515200e-01   5.778627e-03
  2.929960e+00    4.509304e-01   5.772076e-03
  2.932170e+00    4.531265e-01   5.783805e-03
  2.934381e+00    4.679821e-01   5.875374e-03
  2.936591e+00    4.645593e-01   5.851243e-03
  2.938802e+00    4.598606e-01   5.818874e-03
  2.941012e+00    4.601681e-01   5.818466e-03
  2.943223e+00    4.551134e-01   5.783713e-03
  2.945433e+00    4.656284e-01   5.846390e-03
  2.947644e+00    4.625081e-01   5.822585e-03
  2.949854e+00    4.609324e-01   5.808381e-03
  2.952064e+00    4.521391e-01   5.748490e-03
  2.954275e+00    4.496419e-01   5.728210e-03
  2.956485e+00    4.506281e-01   5.730321e-03
  2.958696e+00    4.539522e-01   5.747053e-03
  2.960906e+00    4.395404e-01   5.650965e-03
  2.963117e+00    4.522528e-01   5.727638e-03
  2.965327e+00    4.612553e-01   5.780435e-03
  2.967538e+00    4.472706e-01   5.689243e-03
  2.969748e+00    4.486862e-01   5.695437e-03
  2.971959e+00    4.577267e-01   5.749376e-03
  2.974169e+00    4.481933e-01   5.686640e-03
  2.976379e+00    4.390140e-01   5.625225e-03
  2.978590e+00    4.489658e-01   5.685505e-03
  2.980800e+00    4.352258e-01   5.595113e-03
  2.983011e+00    4.372902e-01   5.605584e-03
  2.985221e+00    4.481145e-01   5.671425e-03
  2.987432e+00    4.326931e-01   5.569951e-03
  2.989642e+00    4.490630e-01   5.671709e-03
  2.991853e+00    4.454476e-01   5.645600e-03
  2.994063e+00    4.422224e-01   5.622240e-03
  2.996274e+00    4.563910e-01   5.708409e-03
  2.998484e+00    4.659737e-01   5.765291e-03
  3.000694e+00    4.476821e-01   5.647582e-03
  3.002905e+00    4.424149e-01   5.611361e-03
  3.005115e+00    4.388022e-01   5.585457e-03
  3.007326e+00    4.460534e-01   5.628287e-03
  3.009536e+00    4.629606e-01   5.730675e-03
  3.011747e+00    4.576056e-01   5.694516e-03
  3.013957e+00    4.513327e-01   5.652183e-03
  3.016168e+00    4.472885e-01   5.623557e-03
  3.018378e+00    4.448701e-01   5.605316e-03
  3.020589e+00    4.530091e-01   5.653134e-03
  3.022799e+00    4.474214e-01   5.615041e-03
  3.025010e+00    4.342529e-01   5.528604e-03
  3.027220e+00    4.497898e-01   5.623536e-03
  3.029430e+00    4.414245e-01   5.567801e-03
  3.031641e+00    4.332438e-01   5.512890e-03
  3.033851e+00    4.410149e-01   5.558629e-03
  3.036062e+00    4.370841e-01   5.531072e-03
  3.038272e+00    4.422100e-01   5.559880e-03
  3.040483e+00    4.411086e-01   5.549750e-03
  3.042693e+00    4.378594e-01   5.526071e-03
  3.044904e+00    4.467557e-01   5.577910e-03
  3.047114e+00    4.487728e-01   5.585699e-03
  3.049325e+00    4.551314e-01   5.620724e-03
  3.051535e+00    4.519110e-01   5.596386e-03
  3.053745e+00    4.409298e-01   5.523306e-03
  3.055956e+00    4.464223e-01   5.553026e-03
  3.058166e+00    4.456095e-01   5.543736e-03
  3.060377e+00    4.418896e-01   5.515818e-03
  3.062587e+00    4.452459e-01   5.532121e-03
  3.064798e+00    4.505906e-01   5.560979e-03
  3.067008e+00    4.367597e-01   5.470301e-03
  3.069219e+00    4.448812e-01   5.516430e-03
  3.071429e+00    4.385257e-01   5.473424e-03
  3.073640e+00    4.312768e-01   5.424739e-03
  3.075850e+00    4.423465e-01   5.490345e-03
  3.078060e+00    4.394356e-01   5.469183e-03
  3.080271e+00    4.485352e-01   5.522063e-03
  3.082481e+00    4.368199e-01   5.446062e-03
  3.084692e+00    4.335833e-01   5.422516e-03
  3.086902e+00    4.449593e-01   5.489962e-03
  3.089113e+00    4.320409e-01   5.406196e-03
  3.091323e+00    4.229393e-01   5.345638e-03
  3.093534e+00    4.303883e-01   5.389217e-03
  3.095744e+00    4.426244e-01   5.461921e-03
  3.097955e+00    4.340644e-01   5.405381e-03
  3.100165e+00    4.298497e-01   5.375778e-03
  3.102375e+00    4.469332e-01   5.478154e-03
  3.104586e+00    4.360310e-01   5.407475e-03
  3.106796e+00    4.371401e-01   5.410879e-03
  3.109007e+00    4.406219e-01   5.429164e-03
  3.111217e+00    4.418900e-01   5.433315e-03
  3.113428e+00    4.309481e-01   5.362253e-03
  3.115638e+00    4.358042e-01   5.389206e-03
  3.117849e+00    4.184701e-01   5.277305e-03
  3.120059e+00    4.253566e-01   5.317173e-03
  3.122270e+00    4.376040e-01   5.389947e-03
  3.124480e+00    4.380837e-01   5.389244e-03
  3.126691e+00    4.359767e-01   5.372738e-03
  3.128901e+00    4.453405e-01   5.426996e-03
  3.131111e+00    4.499460e-01   5.451144e-03
  3.133322e+00    4.316531e-01   5.335778e-03
  3.135532e+00    4.419195e-01   5.395459e-03
  3.137743e+00    4.461901e-01   5.417981e-03
  3.139953e+00    4.382094e-01   5.365648e-03
  3.142164e+00    4.436413e-01   5.410824e-03
  3.144374e+00    4.417413e-01   5.427603e-03
  3.146585e+00    4.564827e-01   5.532230e-03
  3.148795e+00    4.389020e-01   5.435392e-03
  3.151006e+00    4.237366e-01   5.349021e-03
  3.153216e+00    4.297078e-01   5.393619e-03
  3.155426e+00    4.312570e-01   5.409566e-03
  3.157637e+00    4.275453e-01   5.391678e-03
  3.159847e+00    4.227876e-01   5.366377e-03
  3.162058e+00    4.140423e-01   5.314882e-03
  3.164268e+00    4.277056e-01   5.405854e-03
  3.166479e+00    4.344650e-01   5.452055e-03
  3.168689e+00    4.280908e-01   5.415229e-03
  3.170900e+00    4.154758e-01   5.337929e-03
  3.173110e+00    4.218539e-01   5.381557e-03
  3.175321e+00    4.233387e-01   5.393466e-03
  3.177531e+00    4.403556e-01   5.503545e-03
  3.179741e+00    4.363661e-01   5.480636e-03
  3.181952e+00    4.209677e-01   5.385147e-03
  3.184162e+00    4.310836e-01   5.451621e-03
  3.186373e+00    4.330521e-01   5.465642e-03
  3.188583e+00    4.429607e-01   5.529643e-03
  3.190794e+00    4.270414e-01   5.431096e-03
  3.193004e+00    4.186951e-01   5.378969e-03
  3.195215e+00    4.313830e-01   5.461362e-03
  3.197425e+00    4.306491e-01   5.457916e-03
  3.199636e+00    4.270346e-01   5.434206e-03
  3.201846e+00    4.257149e-01   5.425207e-03
  3.204056e+00    4.244342e-01   5.417909e-03
  3.206267e+00    4.188258e-01   5.382829e-03
  3.208477e+00    4.258294e-01   5.428570e-03
  3.210688e+00    4.172030e-01   5.374136e-03
  3.212898e+00    4.164076e-01   5.369555e-03
  3.215109e+00    4.289800e-01   5.450766e-03
  3.217319e+00    4.406356e-01   5.524974e-03
  3.219530e+00    4.350930e-01   5.490507e-03
  3.221740e+00    4.347912e-01   5.489175e-03
  3.223951e+00    4.310374e-01   5.465884e-03
  3.226161e+00    4.228678e-01   5.414033e-03
  3.228372e+00    4.227606e-01   5.413875e-03
  3.230582e+00    4.201610e-01   5.397339e-03
  3.232792e+00    4.077573e-01   5.317293e-03
  3.235003e+00    4.193411e-01   5.392524e-03
  3.237213e+00    4.235610e-01   5.419695e-03
  3.239424e+00    4.177817e-01   5.382605e-03
  3.241634e+00    4.205258e-01   5.400353e-03
  3.243845e+00    4.256339e-01   5.433152e-03
  3.246055e+00    4.109153e-01   5.338104e-03
  3.248266e+00    4.083862e-01   5.321847e-03
  3.250476e+00    4.173183e-01   5.379430e-03
  3.252687e+00    4.038081e-01   5.291573e-03
  3.254897e+00    3.992867e-01   5.261732e-03
  3.257107e+00    4.174914e-01   5.380041e-03
  3.259318e+00    4.195947e-01   5.393339e-03
  3.261528e+00    4.123080e-01   5.346181e-03
  3.263739e+00    4.161257e-01   5.370303e-03
  3.265949e+00    4.205262e-01   5.398518e-03
  3.268160e+00    4.152989e-01   5.364443e-03
  3.270370e+00    4.106954e-01   5.334135e-03
  3.272581e+00    4.138603e-01   5.354360e-03
  3.274791e+00    4.094768e-01   5.325429e-03
  3.277002e+00    4.162672e-01   5.368832e-03
  3.279212e+00    4.137381e-01   5.352123e-03
  3.281422e+00    4.105039e-01   5.330604e-03
  3.283633e+00    4.137844e-01   5.351175e-03
  3.285843e+00    4.189766e-01   5.384329e-03
  3.288054e+00    4.212961e-01   5.398256e-03
  3.290264e+00    4.229506e-01   5.408554e-03
  3.292475e+00    4.172197e-01   5.370944e-03
  3.294685e+00    4.156528e-01   5.360229e-03
  3.296896e+00    4.297380e-01   5.449522e-03
  3.299106e+00    4.049487e-01   5.289486e-03
  3.301317e+00    4.178373e-01   5.371951e-03
  3.303527e+00    4.285291e-01   5.439803e-03
  3.305737e+00    4.134694e-01   5.342335e-03
  3.307948e+00    4.097924e-01   5.317855e-03
  3.310158e+00    4.169267e-01   5.363093e-03
  3.312369e+00    4.141402e-01   5.344288e-03
  3.314579e+00    4.115570e-01   5.326685e-03
  3.316790e+00    4.135396e-01   5.338791e-03
  3.319000e+00    4.249425e-01   5.410717e-03
  3.321211e+00    4.179912e-01   5.365679e-03
  3.323421e+00    4.210353e-01   5.383973e-03
  3.325632e+00    4.256230e-01   5.412334e-03
  3.327842e+00    4.204423e-01   5.378390e-03
  3.330052e+00    4.121741e-01   5.324179e-03
  3.332263e+00    4.185662e-01   5.364305e-03
  3.334473e+00    4.233084e-01   5.393678e-03
  3.336684e+00    4.120461e-01   5.320200e-03
  3.338894e+00    4.048965e-01   5.273017e-03
  3.341105e+00    4.258395e-01   5.406429e-03
  3.343315e+00    4.236146e-01   5.391185e-03
  3.345526e+00    4.131090e-01   5.322998e-03
  3.347736e+00    4.092713e-01   5.296828e-03
  3.349947e+00    4.135843e-01   5.323756e-03
  3.352157e+00    4.038577e-01   5.259612e-03
  3.354368e+00    4.209634e-01   5.368556e-03
  3.356578e+00    4.036913e-01   5.256267e-03
  3.358788e+00    4.082107e-01   5.284285e-03
  3.360999e+00    4.163064e-01   5.335193e-03
  3.363209e+00    4.090303e-01   5.287355e-03
  3.365420e+00    4.128183e-01   5.310283e-03
  3.367630e+00    4.116521e-01   5.301761e-03
  3.369841e+00    4.079814e-01   5.276649e-03
  3.372051e+00    4.235236e-01   5.374236e-03
  3.374262e+00    4.178496e-01   5.335675e-03
  3.376472e+00    4.045253e-01   5.247522e-03
  3.378683e+00    3.898206e-01   5.148811e-03
  3.380893e+00    4.090813e-01   5.272159e-03
  3.383103e+00    4.145005e-01   5.304266e-03
  3.385314e+00    4.166483e-01   5.315770e-03
  3.387524e+00    4.099932e-01   5.270420e-03
  3.389735e+00    4.082996e-01   5.256915e-03
  3.391945e+00    3.996435e-01   5.197280e-03
  3.394156e+00    4.089996e-01   5.253565e-03
  3.396366e+00    3.985170e-01   5.182450e-03
  3.398577e+00    3.967157e-01   5.167725e-03
  3.400787e+00    3.961486e-01   5.175750e-03
  3.402998e+00    4.056340e-01   5.275169e-03
  3.405208e+00    4.002301e-01   5.260481e-03
  3.407418e+00    3.898569e-01   5.207400e-03
  3.409629e+00    3.801026e-01   5.155449e-03
  3.411839e+00    3.776698e-01   5.150365e-03
  3.414050e+00    3.929331e-01   5.264325e-03
  3.416260e+00    3.909174e-01   5.260441e-03
  3.418471e+00    3.920153e-01   5.277209e-03
  3.420681e+00    3.799628e-01   5.203800e-03
  3.422892e+00    3.868602e-01   5.258783e-03
  3.425102e+00    3.789518e-01   5.212469e-03
  3.427313e+00    3.847355e-01   5.259235e-03
  3.429523e+00    3.757435e-01   5.204391e-03
  3.431733e+00    3.899941e-01   5.308854e-03
  3.433944e+00    3.650571e-01   5.142651e-03
  3.436154e+00    3.701705e-01   5.184652e-03
  3.438365e+00    3.786603e-01   5.249692e-03
  3.440575e+00    3.730439e-01   5.216481e-03
  3.442786e+00    3.842511e-01   5.299895e-03
  3.444996e+00    3.706022e-01   5.210379e-03
  3.447207e+00    3.700436e-01   5.211715e-03
  3.449417e+00    3.691032e-01   5.245754e-03
  3.451628e+00    3.686234e-01   5.271787e-03
  3.453838e+00    3.586061e-01   5.220562e-03
  3.456049e+00    3.565822e-01   5.229374e-03
  3.458259e+00    3.516021e-01   5.214193e-03
  3.460469e+00    3.724332e-01   5.386388e-03
  3.462680e+00    3.691236e-01   5.381542e-03
  3.464890e+00    3.680498e-01   5.391551e-03
  3.467101e+00    3.572085e-01   5.328761e-03
  3.469311e+00    3.825277e-01   5.531193e-03
  3.471522e+00    3.708527e-01   5.462474e-03
  3.473732e+00    3.867018e-01   5.594047e-03
  3.475943e+00    3.897822e-01   5.632152e-03
  3.478153e+00    4.010783e-01   5.728879e-03
  3.480364e+00    4.129027e-01   5.828238e-03
  3.482574e+00    4.218163e-01   5.906476e-03
  3.484784e+00    3.977061e-01   5.749867e-03
  3.486995e+00    4.124935e-01   5.870791e-03
  3.489205e+00    4.283128e-01   5.997044e-03
  3.491416e+00    4.262827e-01   5.997741e-03
  3.493626e+00    4.456083e-01   6.146946e-03
  3.495837e+00    4.435676e-01   6.147678e-03
  3.498047e+00    4.451011e-01   6.172779e-03
  3.500258e+00    4.432446e-01   6.174344e-03
  3.502468e+00    4.632928e-01   6.326970e-03
  3.504679e+00    4.772981e-01   6.436661e-03
  3.506889e+00    4.636642e-01   6.358496e-03
  3.509099e+00    4.642917e-01   6.376989e-03
  3.511310e+00    4.884450e-01   6.555433e-03
  3.513520e+00    5.002444e-01   6.648852e-03
  3.515731e+00    4.802587e-01   6.528960e-03
  3.517941e+00    4.919047e-01   6.622019e-03
  3.520152e+00    5.047835e-01   6.722621e-03
  3.522362e+00    5.031050e-01   6.725964e-03
  3.524573e+00    4.959468e-01   6.692073e-03
  3.526783e+00    4.995362e-01   6.729436e-03
  3.528994e+00    5.095720e-01   6.808868e-03
  3.531204e+00    5.107960e-01   6.829361e-03
  3.533414e+00    5.133284e-01   6.858223e-03
  3.535625e+00    5.231690e-01   6.935940e-03
  3.537835e+00    5.327514e-01   7.011289e-03
  3.540046e+00    5.422559e-01   7.082549e-03
  3.542256e+00    5.283195e-01   6.998439e-03
  3.544467e+00    5.221555e-01   6.965008e-03
  3.546677e+00    5.354936e-01   7.060969e-03
  3.548888e+00    5.392036e-01   7.092899e-03
  3.551098e+00    5.413562e-01   7.114390e-03
  3.553309e+00    5.457090e-01   7.151150e-03
  3.555519e+00    5.458378e-01   7.163425e-03
  3.557729e+00    5.287173e-01   7.061814e-03
  3.559940e+00    5.363272e-01   7.123994e-03
  3.562150e+00    5.401641e-01   7.161212e-03
  3.564361e+00    5.182515e-01   7.027555e-03
  3.566571e+00    5.098124e-01   6.983568e-03
  3.568782e+00    5.220206e-01   7.080603e-03
  3.570992e+00    5.272540e-01   7.129693e-03
  3.573203e+00    5.228705e-01   7.113927e-03
  3.575413e+00    5.296907e-01   7.173886e-03
  3.577624e+00    5.329372e-01   7.209933e-03
  3.579834e+00    5.252779e-01   7.171643e-03
  3.582045e+00    5.370954e-01   7.265919e-03
  3.584255e+00    5.339854e-01   7.258920e-03
  3.586465e+00    5.188515e-01   7.168999e-03
  3.588676e+00    5.316234e-01   7.270833e-03
  3.590886e+00    5.421916e-01   7.356512e-03
  3.593097e+00    5.401746e-01   7.357405e-03
  3.595307e+00    5.380818e-01   7.357082e-03
  3.597518e+00    5.492468e-01   7.447426e-03
  3.599728e+00    5.395252e-01   7.395365e-03
  3.601939e+00    5.257057e-01   7.313997e-03
  3.604149e+00    5.199603e-01   7.288073e-03
  3.606360e+00    5.305269e-01   7.375878e-03
  3.608570e+00    5.343682e-01   7.416626e-03
  3.610780e+00    5.334594e-01   7.421424e-03
  3.612991e+00    5.335283e-01   7.431855e-03
  3.615201e+00    5.215598e-01   7.357717e-03
  3.617412e+00    5.352689e-01   7.461064e-03
  3.619622e+00    5.185955e-01   7.349822e-03
  3.621833e+00    5.239779e-01   7.394457e-03
  3.624043e+00    5.320597e-01   7.460804e-03
  3.626254e+00    5.194744e-01   7.381587e-03
  3.628464e+00    5.296733e-01   7.464616e-03
  3.630675e+00    5.406087e-01   7.555484e-03
  3.632885e+00    5.263296e-01   7.469405e-03
  3.635095e+00    5.119854e-01   7.381018e-03
  3.637306e+00    5.140092e-01   7.409686e-03
  3.639516e+00    5.197948e-01   7.465592e-03
  3.641727e+00    5.288742e-01   7.545036e-03
  3.643937e+00    5.255886e-01   7.536014e-03
  3.646148e+00    5.442102e-01   7.683095e-03
  3.648358e+00    5.393488e-01   7.663661e-03
  3.650569e+00    5.335100e-01   7.636824e-03
  3.652779e+00    5.385545e-01   7.687655e-03
  3.654990e+00    5.361161e-01   7.685216e-03
  3.657200e+00    5.417652e-01   7.740594e-03
  3.659410e+00    5.262824e-01   7.644092e-03
  3.661621e+00    5.201343e-01   7.614224e-03
  3.663831e+00    5.078733e-01   7.538768e-03
  3.666042e+00    5.144196e-01   7.602054e-03
  3.668252e+00    5.114214e-01   7.594843e-03
  3.670463e+00    5.181201e-01   7.659473e-03
  3.672673e+00    5.264347e-01   7.736025e-03
  3.674884e+00    5.188987e-01   7.695671e-03
  3.677094e+00    5.449408e-01   7.902187e-03
  3.679305e+00    5.113954e-01   7.670350e-03
  3.681515e+00    5.225022e-01   7.768723e-03
  3.683726e+00    5.394302e-01   7.909484e-03
  3.685936e+00    5.322092e-01   7.872132e-03
  3.688146e+00    5.315720e-01   7.883255e-03
  3.690357e+00    5.417216e-01   7.974289e-03
  3.692567e+00    5.397252e-01   7.975924e-03
  3.694778e+00    5.304134e-01   7.922927e-03
  3.696988e+00    5.489759e-01   8.076674e-03
  3.699199e+00    5.132848e-01   7.825834e-03
  3.701409e+00    4.930871e-01   7.686120e-03
  3.703620e+00    5.117154e-01   7.846066e-03
  3.705830e+00    5.294331e-01   7.997232e-03
  3.708041e+00    5.042897e-01   7.821323e-03
  3.710251e+00    5.132364e-01   7.906908e-03
  3.712461e+00    5.272747e-01   8.031146e-03
  3.714672e+00    5.063118e-01   7.886359e-03
  3.716882e+00    5.281193e-01   8.071262e-03
  3.719093e+00    5.035120e-01   7.897814e-03
  3.721303e+00    5.086487e-01   7.954776e-03
  3.723514e+00    5.094375e-01   7.978046e-03
  3.725724e+00    5.075945e-01   7.980559e-03
  3.727935e+00    5.208987e-01   8.102000e-03
  3.730145e+00    5.081893e-01   8.019713e-03
  3.732356e+00    5.183185e-01   8.116850e-03
  3.734566e+00    5.104496e-01   8.072448e-03
  3.736776e+00    5.052490e-01   8.048763e-03
  3.738987e+00    5.062796e-01   8.074638e-03
  3.741197e+00    4.970774e-01   8.018622e-03
  3.743408e+00    5.026727e-01   8.081456e-03
  3.745618e+00    5.088269e-01   8.149018e-03
  3.747829e+00    5.257095e-01   8.301475e-03
  3.750039e+00    5.040935e-01   8.147237e-03
  3.752250e+00    5.017795e-01   8.146843e-03
  3.754460e+00    4.862535e-01   8.037911e-03
  3.756671e+00    5.058911e-01   8.217317e-03
  3.758881e+00    5.019435e-01   8.203729e-03
  3.761091e+00    4.971229e-01   8.183145e-03
  3.763302e+00    5.056138e-01   8.271833e-03
  3.765512e+00    5.007750e-01   8.251209e-03
  3.767723e+00    5.026241e-01   8.285706e-03
  3.769933e+00    5.225830e-01   8.468254e-03
  3.772144e+00    5.084793e-01   8.372850e-03
  3.774354e+00    4.941215e-01   8.273439e-03
  3.776565e+00    4.871751e-01   8.234497e-03
  3.778775e+00    5.160101e-01   8.494921e-03
  3.780986e+00    4.902577e-01   8.300217e-03
  3.783196e+00    5.063424e-01   8.455643e-03
  3.785407e+00    4.807763e-01   8.259309e-03
  3.787617e+00    5.064389e-01   8.497711e-03
  3.789827e+00    4.970682e-01   8.439176e-03
  3.792038e+00    4.976607e-01   8.464978e-03
  3.794248e+00    4.933504e-01   8.449142e-03
  3.796459e+00    5.045673e-01   8.566163e-03
  3.798669e+00    5.062764e-01   8.602137e-03
  3.800880e+00    5.028771e-01   8.594706e-03
  3.803090e+00    5.054263e-01   8.638364e-03
  3.805301e+00    5.027916e-01   8.638011e-03
  3.807511e+00    4.901475e-01   8.550467e-03
  3.809722e+00    4.911252e-01   8.581049e-03
  3.811932e+00    4.880400e-01   8.575996e-03
  3.814142e+00    4.920720e-01   8.634053e-03
  3.816353e+00    5.067381e-01   8.784800e-03
  3.818563e+00    4.858391e-01   8.624599e-03
  3.820774e+00    4.926895e-01   8.708122e-03
  3.822984e+00    5.016128e-01   8.810169e-03
  3.825195e+00    4.916296e-01   8.745580e-03
  3.827405e+00    4.947262e-01   8.796969e-03
  3.829616e+00    4.842266e-01   8.726751e-03
  3.831826e+00    4.968882e-01   8.864312e-03
  3.834037e+00    4.872451e-01   8.802186e-03
  3.836247e+00    4.539442e-01   8.519680e-03
  3.838457e+00    4.536247e-01   8.540515e-03
  3.840668e+00    4.916749e-01   8.916577e-03
  3.842878e+00    5.096574e-01   9.104049e-03
  3.845089e+00    4.911047e-01   8.962321e-03
  3.847299e+00    5.053137e-01   9.117029e-03
  3.849510e+00    4.999574e-01   9.094558e-03
  3.851720e+00    5.205567e-01   9.302006e-03
  3.853931e+00    5.023997e-01   9.157565e-03
  3.856141e+00    4.847016e-01   9.013526e-03
  3.858352e+00    4.822641e-01   9.009894e-03
  3.860562e+00    5.027150e-01   9.218423e-03
  3.862772e+00    4.820070e-01   9.045873e-03
  3.864983e+00    4.860838e-01   9.103592e-03
  3.867193e+00    4.812231e-01   9.077518e-03
  3.869404e+00    4.613049e-01   8.906795e-03
  3.871614e+00    4.870302e-01   9.171590e-03
  3.873825e+00    4.978072e-01   9.292979e-03
  3.876035e+00    4.699543e-01   9.049317e-03
  3.878246e+00    5.136236e-01   9.486717e-03
  3.880456e+00    5.019045e-01   9.407202e-03
  3.882667e+00    4.995645e-01   9.414777e-03
  3.884877e+00    4.933744e-01   9.386061e-03
  3.887087e+00    4.958887e-01   9.439969e-03
  3.889298e+00    4.785799e-01   9.303819e-03
  3.891508e+00    5.048618e-01   9.586701e-03
  3.893719e+00    5.085082e-01   9.652924e-03
  3.895929e+00    4.754267e-01   9.364570e-03
  3.898140e+00    4.898137e-01   9.536840e-03
  3.900350e+00    4.792207e-01   9.464923e-03
  3.902561e+00    5.025710e-01   9.725580e-03
  3.904771e+00    5.074236e-01   9.805781e-03
  3.906982e+00    4.894548e-01   9.663787e-03
  3.909192e+00    4.995514e-01   9.796735e-03
  3.911403e+00    5.049264e-01   9.883928e-03
  3.913613e+00    4.894844e-01   9.765859e-03
  3.915823e+00    5.000265e-01   9.905702e-03
  3.918034e+00    4.688923e-01   9.626929e-03
  3.920244e+00    4.821157e-01   9.797177e-03
  3.922455e+00    4.756368e-01   9.766800e-03
  3.924665e+00    4.534737e-01   9.571623e-03
  3.926876e+00    4.595494e-01   9.671519e-03
  3.929086e+00    4.887837e-01   1.001181e-02
  3.931297e+00    4.969879e-01   1.013068e-02
  3.933507e+00    4.663156e-01   9.841310e-03
  3.935718e+00    5.032402e-01   1.025280e-02
  3.937928e+00    4.792531e-01   1.003464e-02
  3.940138e+00    4.670375e-01   9.934654e-03
  3.942349e+00    4.713171e-01   1.000946e-02
  3.944559e+00    4.694397e-01   1.001894e-02
  3.946770e+00    4.646645e-01   9.997324e-03
  3.948980e+00    4.922584e-01   1.032076e-02
  3.951191e+00    4.799604e-01   1.022173e-02
  3.953401e+00    4.599344e-01   1.003670e-02
  3.955612e+00    4.577063e-01   1.004300e-02
  3.957822e+00    4.488970e-01   9.976332e-03
  3.960033e+00    4.741867e-01   1.028579e-02
  3.962243e+00    4.685619e-01   1.025683e-02
  3.964453e+00    4.759912e-01   1.037059e-02
  3.966664e+00    4.687056e-01   1.032378e-02
  3.968874e+00    4.693416e-01   1.035862e-02
  3.971085e+00    4.514747e-01   1.018072e-02
  3.973295e+00    4.925592e-01   1.065552e-02
  3.975506e+00    4.750618e-01   1.048586e-02
  3.977716e+00    4.811190e-01   1.057440e-02
  3.979927e+00    4.681303e-01   1.045246e-02
  3.982137e+00    4.592124e-01   1.037410e-02
  3.984348e+00    4.856351e-01   1.069086e-02
  3.986558e+00    5.139332e-01   1.102098e-02
  3.988768e+00    5.040573e-01   1.093812e-02
  3.990979e+00    4.619055e-01   1.049289e-02
  3.993189e+00    4.753810e-01   1.066769e-02
  3.995400e+00    4.825032e-01   1.077070e-02
  3.997610e+00    5.276783e-01   1.129480e-02
  3.999821e+00    4.953296e-01   1.098112e-02
  4.002031e+00    5.228831e-01   1.132217e-02
  4.004242e+00    4.810193e-01   1.089798e-02
  4.006452e+00    4.953616e-01   1.109891e-02
  4.008663e+00    4.660645e-01   1.080498e-02
  4.010873e+00    4.973823e-01   1.120253e-02
  4.013084e+00    5.021666e-01   1.129804e-02
  4.015294e+00    4.564744e-01   1.081153e-02
  4.017504e+00    4.718571e-01   1.103349e-02
  4.019715e+00    4.767490e-01   1.113273e-02
  4.021925e+00    4.859608e-01   1.128280e-02
  4.024136e+00    4.815235e-01   1.127481e-02
  4.026346e+00    4.524826e-01   1.097210e-02
  4.028557e+00    4.830834e-01   1.138133e-02
  4.030767e+00    4.768234e-01   1.135284e-02
  4.032978e+00    4.585453e-01   1.117807e-02
  4.035188e+00    4.755267e-01   1.142896e-02
  4.037399e+00    4.886748e-01   1.163367e-02
  4.039609e+00    4.860727e-01   1.165064e-02
  4.041819e+00    4.802921e-01   1.162969e-02
  4.044030e+00    4.527147e-01   1.133918e-02
  4.046240e+00    4.751900e-01   1.166671e-02
  4.048451e+00    4.842882e-01   1.182881e-02
  4.050661e+00    4.770358e-01   1.179112e-02
  4.052872e+00    4.964055e-01   1.208156e-02
  4.055082e+00    4.844003e-01   1.198824e-02
  4.057293e+00    4.506797e-01   1.161529e-02
  4.059503e+00    4.773779e-01   1.200876e-02
  4.061714e+00    5.129909e-01   1.250696e-02
  4.063924e+00    4.731270e-01   1.206743e-02
  4.066134e+00    4.689684e-01   1.207087e-02
  4.068345e+00    4.426068e-01   1.178305e-02
  4.070555e+00    4.977546e-01   1.255602e-02
  4.072766e+00    4.578302e-01   1.210127e-02
  4.074976e+00    4.403545e-01   1.192710e-02
  4.077187e+00    4.543674e-01   1.217570e-02
  4.079397e+00    4.757108e-01   1.252194e-02
  4.081608e+00    4.788595e-01   1.262880e-02
  4.083818e+00    4.797313e-01   1.270572e-02
  4.086029e+00    5.056874e-01   1.311402e-02
  4.088239e+00    4.796154e-01   1.284010e-02
  4.090449e+00    5.085505e-01   1.329354e-02
  4.092660e+00    4.749874e-01   1.291794e-02
  4.094870e+00    4.612573e-01   1.280085e-02
  4.097081e+00    5.095402e-01   1.352770e-02
  4.099291e+00    4.557991e-01   1.284757e-02
  4.101502e+00    4.503881e-01   1.281854e-02
  4.103712e+00    4.859462e-01   1.336456e-02
  4.105923e+00    4.789679e-01   1.331974e-02
  4.108133e+00    4.708339e-01   1.325692e-02
  4.110344e+00    4.831753e-01   1.348099e-02
  4.112554e+00    4.720052e-01   1.337686e-02
  4.114764e+00    4.851226e-01   1.361602e-02
  4.116975e+00    4.892313e-01   1.372740e-02
  4.119185e+00    4.673396e-01   1.347128e-02
  4.121396e+00    4.633336e-01   1.346870e-02
  4.123606e+00    4.746128e-01   1.368778e-02
  4.125817e+00    4.516571e-01   1.340838e-02
  4.128027e+00    4.372006e-01   1.324797e-02
  4.130238e+00    4.671911e-01   1.375296e-02
  4.132448e+00    5.040823e-01   1.434806e-02
  4.134659e+00    5.182205e-01   1.461037e-02
  4.136869e+00    4.913766e-01   1.429060e-02
  4.139080e+00    4.407148e-01   1.359469e-02
  4.141290e+00    4.568628e-01   1.390285e-02
  4.143500e+00    4.688671e-01   1.414907e-02
  4.145711e+00    4.846163e-01   1.445219e-02
  4.147921e+00    4.948951e-01   1.467152e-02
  4.150132e+00    4.983403e-01   1.479273e-02
  4.152342e+00    4.946556e-01   1.480939e-02
  4.154553e+00    4.644128e-01   1.441793e-02
  4.156763e+00    4.724523e-01   1.461399e-02
  4.158974e+00    4.526920e-01   1.437698e-02
  4.161184e+00    4.901699e-01   1.503457e-02
  4.163395e+00    4.448891e-01   1.439659e-02
  4.165605e+00    4.448285e-01   1.447019e-02
  4.167815e+00    5.050806e-01   1.549956e-02
  4.170026e+00    4.662415e-01   1.497039e-02
  4.172236e+00    4.305007e-01   1.446278e-02
  4.174447e+00    5.023361e-01   1.570780e-02
  4.176657e+00    4.626949e-01   1.515801e-02
  4.178868e+00    4.791205e-01   1.551168e-02
  4.181078e+00    4.749267e-01   1.553090e-02
  4.183289e+00    4.397694e-01   1.503045e-02
  4.185499e+00    4.349017e-01   1.503527e-02
  4.187710e+00    4.646688e-01   1.563222e-02
  4.189920e+00    4.907207e-01   1.616112e-02
  4.192130e+00    5.437812e-01   1.711674e-02
  4.194341e+00    4.989251e-01   1.649587e-02
  4.196551e+00    4.615143e-01   1.596584e-02
  4.198762e+00    4.589983e-01   1.602349e-02
  4.200972e+00    4.771362e-01   1.644265e-02
  4.203183e+00    4.161255e-01   1.545688e-02
  4.205393e+00    4.306440e-01   1.582851e-02
  4.207604e+00    4.992167e-01   1.715850e-02
  4.209814e+00    4.733799e-01   1.682349e-02
  4.212025e+00    4.723678e-01   1.692434e-02
  4.214235e+00    4.426347e-01   1.649918e-02
  4.216445e+00    4.394508e-01   1.655884e-02
  4.218656e+00    4.657939e-01   1.717518e-02
  4.220866e+00    5.122383e-01   1.814500e-02
  4.223077e+00    4.639206e-01   1.740069e-02
  4.225287e+00    4.782757e-01   1.780684e-02
  4.227498e+00    4.426345e-01   1.726487e-02
  4.229708e+00    4.290640e-01   1.713629e-02
  4.231919e+00    4.838397e-01   1.834785e-02
  4.234129e+00    4.938199e-01   1.869156e-02
  4.236340e+00    4.534163e-01   1.806422e-02
  4.238550e+00    4.720398e-01   1.859356e-02
  4.240761e+00    4.720252e-01   1.875785e-02
  4.242971e+00    5.019557e-01   1.952070e-02
  4.245181e+00    4.937958e-01   1.954300e-02
  4.247392e+00    4.360588e-01   1.853705e-02
  4.249602e+00    4.359587e-01   1.871878e-02
  4.251813e+00    4.284149e-01   1.873857e-02
  4.254023e+00    4.917650e-01   2.027884e-02
  4.256234e+00    5.259610e-01   2.119657e-02
  4.258444e+00    4.217703e-01   1.917963e-02
  4.260655e+00    4.673209e-01   2.041111e-02
  4.262865e+00    4.145956e-01   1.944282e-02
  4.265076e+00    4.108960e-01   1.957619e-02
  4.267286e+00    4.287537e-01   2.023380e-02
  4.269496e+00    4.575750e-01   2.115859e-02
  4.271707e+00    4.320736e-01   2.081440e-02
  4.273917e+00    4.654169e-01   2.188137e-02
  4.276128e+00    4.830873e-01   2.258977e-02
  4.278338e+00    4.763267e-01   2.273032e-02
  4.280549e+00    4.841218e-01   2.324380e-02
  4.282759e+00    4.870112e-01   2.364866e-02
  4.284970e+00    4.404892e-01   2.282378e-02
  4.287180e+00    5.290697e-01   2.531242e-02
  4.289391e+00    6.038163e-01   2.724554e-02
  4.291601e+00    4.717057e-01   2.427336e-02
  4.293811e+00    4.811901e-01   2.470763e-02
  4.296022e+00    4.901854e-01   2.513800e-02
  4.298232e+00    4.675688e-01   2.475676e-02
  4.300443e+00    4.781275e-01   2.524096e-02
  4.302653e+00    5.578740e-01   2.750077e-02
  4.304864e+00    4.612601e-01   2.522443e-02
  4.307074e+00    4.150594e-01   2.414170e-02
  4.309285e+00    5.214075e-01   2.730399e-02
  4.311495e+00    4.268056e-01   2.493442e-02
  4.313706e+00    4.367452e-01   2.546040e-02
  4.315916e+00    4.560489e-01   2.627255e-02
  4.318126e+00    4.336345e-01   2.587231e-02
  4.320337e+00    4.395648e-01   2.631202e-02
  4.322547e+00    4.496362e-01   2.689488e-02
  4.324758e+00    4.422413e-01   2.694951e-02
  4.326968e+00    4.878762e-01   2.862452e-02
  4.329179e+00    4.318212e-01   2.722687e-02
  4.331389e+00    4.360249e-01   2.767402e-02
  4.333600e+00    4.651420e-01   2.892471e-02
  4.335810e+00    4.500141e-01   2.878828e-02
  4.338021e+00    4.568210e-01   2.937778e-02
  4.340231e+00    4.473864e-01   2.943679e-02
  4.342442e+00    4.775844e-01   3.082250e-02
  4.344652e+00    3.277750e-01   2.588125e-02
  4.346862e+00    3.765568e-01   2.812880e-02
  4.349073e+00    5.018902e-01   3.294674e-02
  4.351283e+00    4.552351e-01   3.184736e-02
  4.353494e+00    5.255417e-01   3.474638e-02
  4.355704e+00    3.613138e-01   2.927552e-02
  4.357915e+00    4.664862e-01   3.381687e-02
  4.360125e+00    4.810730e-01   3.492818e-02
  4.362336e+00    4.926231e-01   3.598769e-02
  4.364546e+00    6.087325e-01   4.073438e-02
  4.366757e+00    4.233340e-01   3.464655e-02
  4.368967e+00    4.423117e-01   3.612022e-02
  4.371177e+00    4.012534e-01   3.513429e-02
  4.373388e+00    4.121968e-01   3.640437e-02
  4.375598e+00    4.113607e-01   3.719829e-02
  4.377809e+00    4.650456e-01   4.055247e-02
  4.380019e+00    3.694524e-01   3.705462e-02
  4.382230e+00    4.154396e-01   4.038819e-02
  4.384440e+00    2.975420e-01   3.516399e-02
  4.386651e+00    4.062912e-01   4.235719e-02
  4.388861e+00    4.657096e-01   4.687136e-02
  4.391072e+00    4.979226e-01   5.016913e-02
  4.393282e+00    5.715501e-01   5.582871e-02
  4.395492e+00    3.482933e-01   4.539125e-02
  4.397703e+00    3.118333e-01   4.491273e-02
  4.399913e+00    5.176226e-01   6.079692e-02
  4.402124e+00    6.073793e-01   6.958795e-02
  4.404334e+00    3.845640e-01   5.886291e-02
  4.406545e+00    3.372889e-01   5.922394e-02
  4.408755e+00    4.312917e-01   7.263146e-02
  4.410966e+00    1.441524e-01   4.647901e-02
  4.413176e+00    1.736582e-01   5.774396e-02
  4.415387e+00   -5.537553e-01            nan
  4.417597e+00   -1.866300e+00            nan
  4.419807e+00    1.372970e-01   1.330704e-01
