# == pyFAI calibration ==
# Distance Sample to Detector: 0.216 m
# PONI: 1.166e-01, 1.308e-01 m
# Rotations: 0.000000 0.000000 0.000000 rad
# 
# == Fit2d calibration ==
# Distance Sample-beamCenter: 216.000 mm
# Center: x=1744.293, y=1555.000 pix
# Tilt: 0.000 deg  TiltPlanRot: 0.000 deg
# 
# Detector Eiger 9M	 PixelSize= 7.500e-05, 7.500e-05 m
#    Detector has a mask: True 
#    Detector has a dark current: False 
#    detector has a flat field: False 
# 
# Wavelength: 9.8e-11 m
# Mask applied: from detector
# Dark current applied: False
# Flat field applied: False
# Polarization factor: None
# Normalization factor: 1.0
# 
# Headers of the input frame:
# {
# "_array_data.header_convention": "SLS_1.0",
# "_array_data.header_contents": "# Detector: Dectris Eiger 9M, S/N E-18-0102\r\n# Pixel_size 75e-6 m x 75e-6 m\r\n# Silicon sensor, thickness 0.000450 m\r\n# Exposure_time 0.024997 s\r\n# Exposure_period 0.025000 s\r\n# Count_cutoff 62318 counts\r\n# Wavelength 0.980106 A\r\n# Detector_distance 0.215992 m\r\n# Beam_xy (1555, 1744) pixels\r\n# Start_angle 0.000000 deg.\r\n# Angle_increment 0.000000 deg.",
# "Content-Type": "application/octet-stream;",
# "conversions": "x-CBF_BYTE_OFFSET",
# "Content-Transfer-Encoding": "BINARY",
# "X-Binary-Size": "10166632",
# "X-Binary-ID": "1",
# "X-Binary-Element-Type": "signed 32-bit integer",
# "X-Binary-Element-Byte-Order": "LITTLE_ENDIAN",
# "Content-MD5": "4xYgTAEhcgm6Oba1OH17lg==",
# "X-Binary-Number-of-Elements": "10166590",
# "X-Binary-Size-Fastest-Dimension": "3110",
# "X-Binary-Size-Second-Dimension": "3269",
# "X-Binary-Size-Padding": "4095"
# }
# --> H:/Proxima2a_2019-04-05/RAW_DATA/C5_gel17_position5/C5_mesh_1_data.cbf/C5_mesh_1_data.cbf000049.dat
#        q_A^-1              I           sigma 
  1.105228e-03    7.200559e-01   4.591663e-01
  3.315685e-03    1.213738e+00   3.624164e-01
  5.526141e-03    1.312141e+00   2.913817e-01
  7.736597e-03    1.267553e+00   2.419375e-01
  9.947054e-03    1.190464e+00   2.066972e-01
  1.215751e-02    1.301724e+00   1.954466e-01
  1.436797e-02    1.296413e+00   1.794103e-01
  1.657842e-02    1.051601e+00   1.504076e-01
  1.878888e-02    1.316261e+00   1.580646e-01
  2.099934e-02    1.347183e+00   1.512917e-01
  2.320979e-02    1.450408e+00   1.493062e-01
  2.542025e-02    1.332333e+00   1.367464e-01
  2.763070e-02    1.356370e+00   1.323364e-01
  2.984116e-02    1.519840e+00   1.347955e-01
  3.205162e-02    1.545655e+00   1.311724e-01
  3.426207e-02    1.405020e+00   1.209529e-01
  3.647253e-02    1.275472e+00   1.116928e-01
  3.868299e-02    1.424124e+00   1.146092e-01
  4.089344e-02    1.364806e+00   1.091230e-01
  4.310390e-02    1.374984e+00   1.066775e-01
  4.531436e-02    1.381188e+00   1.042779e-01
  4.752481e-02    1.506290e+00   1.063343e-01
  4.973527e-02    1.300710e+00   9.659220e-02
  5.194572e-02    1.310600e+00   9.487198e-02
  5.415618e-02    1.428531e+00   9.700265e-02
  5.636664e-02    1.458145e+00   9.606509e-02
  5.857709e-02    1.545476e+00   9.701654e-02
  6.078755e-02    1.451367e+00   9.228817e-02
  6.299801e-02    1.352476e+00   8.751070e-02
  6.520846e-02    1.377816e+00   8.681729e-02
  6.741892e-02    1.440839e+00   8.730870e-02
  6.962938e-02    1.484351e+00   8.720366e-02
  7.183983e-02    1.350170e+00   8.187784e-02
  7.405029e-02    1.329486e+00   8.002453e-02
  7.626074e-02    1.390783e+00   8.065292e-02
  7.847120e-02    1.411335e+00   8.009196e-02
  8.068166e-02    1.447263e+00   7.998563e-02
  8.289211e-02    1.371852e+00   7.682814e-02
  8.510257e-02    1.400475e+00   7.661028e-02
  8.731303e-02    1.488300e+00   7.796684e-02
  8.952348e-02    1.510312e+00   7.756770e-02
  9.173394e-02    1.518550e+00   7.683311e-02
  9.394439e-02    1.519881e+00   7.595459e-02
  9.615485e-02    1.475014e+00   7.395845e-02
  9.836531e-02    1.423683e+00   7.183714e-02
  1.005758e-01    1.450012e+00   7.169770e-02
  1.027862e-01    1.422021e+00   7.023297e-02
  1.049967e-01    1.441432e+00   6.996117e-02
  1.072071e-01    1.457853e+00   6.962860e-02
  1.094176e-01    1.549531e+00   7.105463e-02
  1.116280e-01    1.497594e+00   6.915709e-02
  1.138385e-01    1.433081e+00   6.698979e-02
  1.160490e-01    1.446238e+00   6.665180e-02
  1.182594e-01    1.525527e+00   6.781024e-02
  1.204699e-01    1.566035e+00   6.807087e-02
  1.226803e-01    1.566458e+00   6.746116e-02
  1.248908e-01    1.574399e+00   6.702997e-02
  1.271012e-01    1.494546e+00   6.473631e-02
  1.293117e-01    1.502393e+00   6.434806e-02
  1.315222e-01    1.585065e+00   6.553552e-02
  1.337326e-01    1.595813e+00   6.521037e-02
  1.359431e-01    1.563480e+00   6.458415e-02
  1.381535e-01    1.660917e+00   6.745970e-02
  1.403640e-01    1.651765e+00   6.756409e-02
  1.425744e-01    1.529067e+00   6.511006e-02
  1.447849e-01    1.686592e+00   6.839746e-02
  1.469953e-01    1.617529e+00   6.694050e-02
  1.492058e-01    1.556278e+00   6.558454e-02
  1.514163e-01    1.630425e+00   6.701723e-02
  1.536267e-01    1.582573e+00   6.589756e-02
  1.558372e-01    1.595561e+00   6.602131e-02
  1.580476e-01    1.693022e+00   6.784278e-02
  1.602581e-01    1.653744e+00   6.688090e-02
  1.624685e-01    1.640634e+00   6.643290e-02
  1.646790e-01    1.587359e+00   6.515775e-02
  1.668895e-01    1.641400e+00   6.606624e-02
  1.690999e-01    1.655764e+00   6.615542e-02
  1.713104e-01    1.727206e+00   6.735788e-02
  1.735208e-01    1.746001e+00   6.751278e-02
  1.757313e-01    1.769348e+00   6.774968e-02
  1.779417e-01    1.867542e+00   6.937721e-02
  1.801522e-01    1.945803e+00   7.059045e-02
  1.823626e-01    1.913147e+00   6.976257e-02
  1.845731e-01    1.941272e+00   7.004585e-02
  1.867836e-01    1.889406e+00   6.887058e-02
  1.889940e-01    2.044074e+00   7.139993e-02
  1.912045e-01    1.969482e+00   6.985106e-02
  1.934149e-01    1.864588e+00   6.773799e-02
  1.956254e-01    1.879295e+00   6.778032e-02
  1.978358e-01    1.834519e+00   6.673849e-02
  2.000463e-01    1.959698e+00   6.874929e-02
  2.022568e-01    2.018435e+00   6.954298e-02
  2.044672e-01    1.988384e+00   6.878690e-02
  2.066777e-01    2.007215e+00   6.888246e-02
  2.088881e-01    1.944767e+00   6.758066e-02
  2.110986e-01    1.908629e+00   6.672022e-02
  2.133090e-01    1.945209e+00   6.713757e-02
  2.155195e-01    1.969452e+00   6.733056e-02
  2.177300e-01    1.907934e+00   6.575003e-02
  2.199404e-01    1.973596e+00   6.510980e-02
  2.221509e-01    1.951023e+00   6.367337e-02
  2.243613e-01    1.911432e+00   6.222505e-02
  2.265718e-01    1.988847e+00   6.277303e-02
  2.287822e-01    2.065518e+00   6.333835e-02
  2.309927e-01    2.071181e+00   6.284735e-02
  2.332031e-01    2.083185e+00   6.248974e-02
  2.354136e-01    2.182482e+00   6.344331e-02
  2.376241e-01    2.080871e+00   6.146805e-02
  2.398345e-01    2.006731e+00   5.991629e-02
  2.420450e-01    2.051867e+00   6.015341e-02
  2.442554e-01    2.073121e+00   6.004759e-02
  2.464659e-01    2.100669e+00   6.003941e-02
  2.486763e-01    2.154056e+00   6.039792e-02
  2.508868e-01    2.041348e+00   5.842567e-02
  2.530973e-01    2.175311e+00   5.993836e-02
  2.553077e-01    2.070026e+00   5.811522e-02
  2.575182e-01    2.109219e+00   5.831570e-02
  2.597286e-01    2.141546e+00   5.841932e-02
  2.619391e-01    2.039719e+00   5.668532e-02
  2.641495e-01    1.963496e+00   5.530826e-02
  2.663600e-01    1.994281e+00   5.543359e-02
  2.685704e-01    2.017426e+00   5.545213e-02
  2.707809e-01    2.041583e+00   5.548704e-02
  2.729914e-01    2.095978e+00   5.592838e-02
  2.752018e-01    2.022271e+00   5.465027e-02
  2.774123e-01    1.978306e+00   5.377682e-02
  2.796227e-01    1.951138e+00   5.314213e-02
  2.818332e-01    1.936806e+00   5.268245e-02
  2.840436e-01    1.990812e+00   5.315299e-02
  2.862541e-01    1.967416e+00   5.258576e-02
  2.884646e-01    1.928182e+00   5.181171e-02
  2.906750e-01    1.951318e+00   5.187449e-02
  2.928855e-01    1.965629e+00   5.182313e-02
  2.950959e-01    1.984924e+00   5.183765e-02
  2.973064e-01    1.937169e+00   5.098011e-02
  2.995168e-01    1.866091e+00   4.980949e-02
  3.017273e-01    1.870452e+00   4.964778e-02
  3.039377e-01    1.929693e+00   5.020706e-02
  3.061482e-01    1.912233e+00   4.976323e-02
  3.083587e-01    1.894225e+00   4.931394e-02
  3.105691e-01    1.880622e+00   4.892670e-02
  3.127796e-01    1.856144e+00   4.840288e-02
  3.149900e-01    1.865558e+00   4.832327e-02
  3.172005e-01    1.945270e+00   4.914309e-02
  3.194109e-01    1.898188e+00   4.834435e-02
  3.216214e-01    1.887684e+00   4.801369e-02
  3.238319e-01    1.822779e+00   4.699411e-02
  3.260423e-01    1.769396e+00   4.611640e-02
  3.282528e-01    1.809807e+00   4.645438e-02
  3.304632e-01    1.879477e+00   4.715671e-02
  3.326737e-01    1.830965e+00   4.636253e-02
  3.348841e-01    1.809073e+00   4.590581e-02
  3.370946e-01    1.857180e+00   4.633719e-02
  3.393050e-01    1.800850e+00   4.545621e-02
  3.415155e-01    1.834221e+00   4.570294e-02
  3.437260e-01    1.804935e+00   4.516858e-02
  3.459364e-01    1.818177e+00   4.516627e-02
  3.481469e-01    1.720698e+00   4.377848e-02
  3.503573e-01    1.732905e+00   4.377341e-02
  3.525678e-01    1.787952e+00   4.430477e-02
  3.547782e-01    1.814975e+00   4.447699e-02
  3.569887e-01    1.796667e+00   4.409530e-02
  3.591992e-01    1.788815e+00   4.384317e-02
  3.614096e-01    1.788494e+00   4.368722e-02
  3.636201e-01    1.774805e+00   4.336678e-02
  3.658305e-01    1.806048e+00   4.359760e-02
  3.680410e-01    1.799873e+00   4.337331e-02
  3.702514e-01    1.785317e+00   4.305229e-02
  3.724619e-01    1.812592e+00   4.323219e-02
  3.746724e-01    1.815725e+00   4.312517e-02
  3.768828e-01    1.770353e+00   4.243965e-02
  3.790933e-01    1.754794e+00   4.211507e-02
  3.813037e-01    1.817257e+00   4.271784e-02
  3.835142e-01    1.769572e+00   4.201522e-02
  3.857246e-01    1.764433e+00   4.181838e-02
  3.879351e-01    1.815096e+00   4.227722e-02
  3.901455e-01    1.788209e+00   4.182934e-02
  3.923560e-01    1.792761e+00   4.174944e-02
  3.945665e-01    1.778799e+00   4.145466e-02
  3.967769e-01    1.820108e+00   4.180191e-02
  3.989874e-01    1.857905e+00   4.210187e-02
  4.011978e-01    1.799614e+00   4.130871e-02
  4.034083e-01    1.777159e+00   4.092416e-02
  4.056187e-01    1.823371e+00   4.132513e-02
  4.078292e-01    1.772119e+00   4.061691e-02
  4.100397e-01    1.814843e+00   4.097810e-02
  4.122501e-01    1.814397e+00   4.085050e-02
  4.144606e-01    1.793074e+00   4.048932e-02
  4.166710e-01    1.781940e+00   4.024339e-02
  4.188815e-01    1.775793e+00   4.005525e-02
  4.210919e-01    1.813024e+00   4.035435e-02
  4.233024e-01    1.792073e+00   4.000251e-02
  4.255128e-01    1.814953e+00   4.014069e-02
  4.277233e-01    1.821761e+00   4.010035e-02
  4.299338e-01    1.824495e+00   4.001497e-02
  4.321442e-01    1.819072e+00   3.984111e-02
  4.343547e-01    1.766859e+00   3.915416e-02
  4.365651e-01    1.749973e+00   3.885589e-02
  4.387756e-01    1.726871e+00   3.849048e-02
  4.409860e-01    1.703560e+00   3.812389e-02
  4.431965e-01    1.762869e+00   3.867462e-02
  4.454070e-01    1.744620e+00   3.836688e-02
  4.476174e-01    1.738318e+00   3.819237e-02
  4.498279e-01    1.742658e+00   3.813598e-02
  4.520383e-01    1.734190e+00   3.793879e-02
  4.542488e-01    1.726565e+00   3.775323e-02
  4.564592e-01    1.709255e+00   3.746272e-02
  4.586697e-01    1.728242e+00   3.757024e-02
  4.608801e-01    1.682259e+00   3.696778e-02
  4.630906e-01    1.729343e+00   3.738229e-02
  4.653011e-01    1.736482e+00   3.736087e-02
  4.675115e-01    1.742473e+00   3.732669e-02
  4.697220e-01    1.737257e+00   3.717323e-02
  4.719324e-01    1.706362e+00   3.674589e-02
  4.741429e-01    1.701602e+00   3.660005e-02
  4.763533e-01    1.716647e+00   3.666725e-02
  4.785638e-01    1.645489e+00   3.580652e-02
  4.807743e-01    1.661341e+00   3.588707e-02
  4.829847e-01    1.657674e+00   3.575689e-02
  4.851952e-01    1.697160e+00   3.608869e-02
  4.874056e-01    1.702129e+00   3.605036e-02
  4.896161e-01    1.711755e+00   3.606249e-02
  4.918265e-01    1.678120e+00   3.561777e-02
  4.940370e-01    1.730436e+00   3.607940e-02
  4.962475e-01    1.717567e+00   3.585624e-02
  4.984579e-01    1.654225e+00   3.510214e-02
  5.006684e-01    1.643036e+00   3.489792e-02
  5.028788e-01    1.677035e+00   3.517169e-02
  5.050893e-01    1.678922e+00   3.510591e-02
  5.072997e-01    1.653798e+00   3.475809e-02
  5.095102e-01    1.653108e+00   3.466761e-02
  5.117206e-01    1.648924e+00   3.454137e-02
  5.139311e-01    1.647134e+00   3.444092e-02
  5.161416e-01    1.672181e+00   3.461978e-02
  5.183520e-01    1.645515e+00   3.426104e-02
  5.205625e-01    1.616418e+00   3.387721e-02
  5.227729e-01    1.612228e+00   3.375437e-02
  5.249834e-01    1.665315e+00   3.422594e-02
  5.271938e-01    1.694786e+00   3.444692e-02
  5.294043e-01    1.683270e+00   3.425046e-02
  5.316148e-01    1.697709e+00   3.431826e-02
  5.338252e-01    1.752531e+00   3.478825e-02
  5.360357e-01    1.771057e+00   3.489205e-02
  5.382461e-01    1.741420e+00   3.452066e-02
  5.404566e-01    1.758732e+00   3.461286e-02
  5.426670e-01    1.763542e+00   3.458208e-02
  5.448775e-01    1.759372e+00   3.446401e-02
  5.470879e-01    1.701938e+00   3.382122e-02
  5.492984e-01    1.707351e+00   3.379961e-02
  5.515089e-01    1.766939e+00   3.430812e-02
  5.537193e-01    1.777592e+00   3.433556e-02
  5.559298e-01    1.799073e+00   3.446665e-02
  5.581402e-01    1.818593e+00   3.457740e-02
  5.603507e-01    1.795013e+00   3.427776e-02
  5.625611e-01    1.799468e+00   3.424578e-02
  5.647716e-01    1.762889e+00   3.382234e-02
  5.669821e-01    1.783306e+00   3.394428e-02
  5.691925e-01    1.742131e+00   3.347813e-02
  5.714030e-01    1.674978e+00   3.275654e-02
  5.736134e-01    1.733909e+00   3.325693e-02
  5.758239e-01    1.677692e+00   3.264353e-02
  5.780343e-01    1.708512e+00   3.287231e-02
  5.802448e-01    1.680998e+00   3.253830e-02
  5.824552e-01    1.678856e+00   3.244933e-02
  5.846657e-01    1.655861e+00   3.215916e-02
  5.868762e-01    1.658556e+00   3.211831e-02
  5.890866e-01    1.632508e+00   3.179901e-02
  5.912971e-01    1.610396e+00   3.151750e-02
  5.935075e-01    1.642785e+00   3.176710e-02
  5.957180e-01    1.589148e+00   3.118009e-02
  5.979284e-01    1.596461e+00   3.118794e-02
  6.001389e-01    1.605611e+00   3.121351e-02
  6.023494e-01    1.642819e+00   3.150899e-02
  6.045598e-01    1.682318e+00   3.182061e-02
  6.067703e-01    1.626070e+00   3.122124e-02
  6.089807e-01    1.626431e+00   3.116191e-02
  6.111912e-01    1.676553e+00   3.157526e-02
  6.134016e-01    1.706649e+00   3.179387e-02
  6.156121e-01    1.650224e+00   3.120174e-02
  6.178226e-01    1.672429e+00   3.134874e-02
  6.200330e-01    1.697469e+00   3.152026e-02
  6.222435e-01    1.684608e+00   3.133842e-02
  6.244539e-01    1.689388e+00   3.132139e-02
  6.266644e-01    1.701688e+00   3.137391e-02
  6.288748e-01    1.670575e+00   3.102526e-02
  6.310853e-01    1.713778e+00   3.136285e-02
  6.332957e-01    1.704725e+00   3.121952e-02
  6.355062e-01    1.713368e+00   3.123777e-02
  6.377167e-01    1.689203e+00   3.095717e-02
  6.399271e-01    1.702568e+00   3.101986e-02
  6.421376e-01    1.672548e+00   3.068647e-02
  6.443480e-01    1.634569e+00   3.027837e-02
  6.465585e-01    1.685497e+00   3.068818e-02
  6.487689e-01    1.691065e+00   3.068081e-02
  6.509794e-01    1.683272e+00   3.055228e-02
  6.531899e-01    1.635786e+00   3.006164e-02
  6.554003e-01    1.592397e+00   2.960449e-02
  6.576108e-01    1.593527e+00   2.955985e-02
  6.598212e-01    1.581173e+00   2.939032e-02
  6.620317e-01    1.614934e+00   2.964738e-02
  6.642421e-01    1.625192e+00   2.968637e-02
  6.664526e-01    1.622363e+00   2.960588e-02
  6.686630e-01    1.631019e+00   2.962986e-02
  6.708735e-01    1.590921e+00   2.920971e-02
  6.730840e-01    1.567368e+00   2.893982e-02
  6.752944e-01    1.573135e+00   2.894029e-02
  6.775049e-01    1.614265e+00   2.926293e-02
  6.797153e-01    1.582569e+00   2.892178e-02
  6.819258e-01    1.570593e+00   2.876015e-02
  6.841362e-01    1.576483e+00   2.876221e-02
  6.863467e-01    1.600256e+00   2.892638e-02
  6.885572e-01    1.607624e+00   2.894092e-02
  6.907676e-01    1.631974e+00   2.910704e-02
  6.929781e-01    1.638860e+00   2.911654e-02
  6.951885e-01    1.591273e+00   2.863989e-02
  6.973990e-01    1.600353e+00   2.867069e-02
  6.996094e-01    1.600319e+00   2.861996e-02
  7.018199e-01    1.574875e+00   2.834169e-02
  7.040303e-01    1.562520e+00   2.818072e-02
  7.062408e-01    1.565246e+00   2.815587e-02
  7.084513e-01    1.598217e+00   2.840139e-02
  7.106617e-01    1.598734e+00   2.835661e-02
  7.128722e-01    1.630721e+00   2.858935e-02
  7.150826e-01    1.600307e+00   2.827268e-02
  7.172931e-01    1.562844e+00   2.789162e-02
  7.195035e-01    1.563816e+00   2.785231e-02
  7.217140e-01    1.549313e+00   2.777193e-02
  7.239245e-01    1.545906e+00   2.796602e-02
  7.261349e-01    1.586413e+00   2.843907e-02
  7.283454e-01    1.579617e+00   2.845060e-02
  7.305558e-01    1.579404e+00   2.850276e-02
  7.327663e-01    1.584470e+00   2.859108e-02
  7.349767e-01    1.553019e+00   2.832215e-02
  7.371872e-01    1.546525e+00   2.825178e-02
  7.393976e-01    1.572708e+00   2.847568e-02
  7.416081e-01    1.569738e+00   2.843264e-02
  7.438186e-01    1.602302e+00   2.858045e-02
  7.460290e-01    1.602701e+00   2.828718e-02
  7.482395e-01    1.543925e+00   2.759415e-02
  7.504499e-01    1.571151e+00   2.770025e-02
  7.526604e-01    1.575009e+00   2.761769e-02
  7.548708e-01    1.550283e+00   2.731133e-02
  7.570813e-01    1.542113e+00   2.718880e-02
  7.592918e-01    1.551857e+00   2.723966e-02
  7.615022e-01    1.543645e+00   2.713401e-02
  7.637127e-01    1.572223e+00   2.735128e-02
  7.659231e-01    1.563278e+00   2.724148e-02
  7.681336e-01    1.568587e+00   2.725616e-02
  7.703440e-01    1.543187e+00   2.700368e-02
  7.725545e-01    1.558174e+00   2.710374e-02
  7.747650e-01    1.587935e+00   2.732302e-02
  7.769754e-01    1.612370e+00   2.747912e-02
  7.791859e-01    1.525425e+00   2.667535e-02
  7.813963e-01    1.535054e+00   2.670752e-02
  7.836068e-01    1.571779e+00   2.697335e-02
  7.858172e-01    1.590909e+00   2.708624e-02
  7.880277e-01    1.593159e+00   2.705384e-02
  7.902381e-01    1.608852e+00   2.713735e-02
  7.924486e-01    1.652954e+00   2.745583e-02
  7.946591e-01    1.647735e+00   2.736346e-02
  7.968695e-01    1.622258e+00   2.710252e-02
  7.990800e-01    1.621838e+00   2.705056e-02
  8.012904e-01    1.732838e+00   2.791251e-02
  8.035009e-01    1.919477e+00   2.932504e-02
  8.057113e-01    1.817748e+00   2.848809e-02
  8.079218e-01    1.668965e+00   2.725017e-02
  8.101323e-01    1.703015e+00   2.747999e-02
  8.123427e-01    1.810400e+00   2.828482e-02
  8.145532e-01    1.814811e+00   2.827085e-02
  8.167636e-01    1.744906e+00   2.767439e-02
  8.189741e-01    1.668661e+00   2.701790e-02
  8.211845e-01    1.652719e+00   2.684345e-02
  8.233950e-01    1.637438e+00   2.667559e-02
  8.256054e-01    1.671839e+00   2.690971e-02
  8.278159e-01    1.677360e+00   2.690960e-02
  8.300264e-01    1.667441e+00   2.678645e-02
  8.322368e-01    1.640727e+00   2.652787e-02
  8.344473e-01    1.640394e+00   2.648178e-02
  8.366577e-01    1.611395e+00   2.620444e-02
  8.388682e-01    1.649871e+00   2.647305e-02
  8.410786e-01    1.644481e+00   2.638764e-02
  8.432891e-01    1.670916e+00   2.655664e-02
  8.454996e-01    1.661543e+00   2.644015e-02
  8.477100e-01    1.634467e+00   2.618221e-02
  8.499205e-01    1.635328e+00   2.614797e-02
  8.521309e-01    1.646387e+00   2.619534e-02
  8.543414e-01    1.622088e+00   2.596074e-02
  8.565518e-01    1.609756e+00   2.582160e-02
  8.587623e-01    1.663206e+00   2.620590e-02
  8.609727e-01    1.717382e+00   2.658802e-02
  8.631832e-01    1.692709e+00   2.635564e-02
  8.653937e-01    1.606910e+00   2.563956e-02
  8.676041e-01    1.621796e+00   2.571915e-02
  8.698146e-01    1.612948e+00   2.560971e-02
  8.720250e-01    1.630129e+00   2.570650e-02
  8.742355e-01    1.602741e+00   2.545085e-02
  8.764459e-01    1.585494e+00   2.527491e-02
  8.786564e-01    1.641866e+00   2.568195e-02
  8.808669e-01    1.673289e+00   2.588725e-02
  8.830773e-01    1.652997e+00   2.569108e-02
  8.852878e-01    1.624614e+00   2.543137e-02
  8.874982e-01    1.576227e+00   2.501344e-02
  8.897087e-01    1.570012e+00   2.492675e-02
  8.919191e-01    1.578545e+00   2.495689e-02
  8.941296e-01    1.609418e+00   2.516238e-02
  8.963401e-01    1.581784e+00   2.490922e-02
  8.985505e-01    1.562742e+00   2.472229e-02
  9.007610e-01    1.577856e+00   2.480506e-02
  9.029714e-01    1.591054e+00   2.487286e-02
  9.051819e-01    1.554816e+00   2.455129e-02
  9.073923e-01    1.570899e+00   2.464169e-02
  9.096028e-01    1.591205e+00   2.476562e-02
  9.118132e-01    1.604182e+00   2.483014e-02
  9.140237e-01    1.592593e+00   2.470376e-02
  9.162342e-01    1.592108e+00   2.466552e-02
  9.184446e-01    1.575632e+00   2.450208e-02
  9.206551e-01    1.601813e+00   2.466917e-02
  9.228655e-01    1.605373e+00   2.466129e-02
  9.250760e-01    1.610697e+00   2.466669e-02
  9.272864e-01    1.593639e+00   2.450158e-02
  9.294969e-01    1.585115e+00   2.440033e-02
  9.317074e-01    1.615238e+00   2.459629e-02
  9.339178e-01    1.581716e+00   2.430649e-02
  9.361283e-01    1.573904e+00   2.421063e-02
  9.383387e-01    1.618259e+00   2.451601e-02
  9.405492e-01    1.612319e+00   2.443682e-02
  9.427596e-01    1.603756e+00   2.433675e-02
  9.449701e-01    1.651367e+00   2.466178e-02
  9.471805e-01    1.682922e+00   2.486103e-02
  9.493910e-01    1.687111e+00   2.485781e-02
  9.516015e-01    1.658864e+00   2.461442e-02
  9.538119e-01    1.679888e+00   2.473595e-02
  9.560224e-01    1.697209e+00   2.482816e-02
  9.582328e-01    1.670101e+00   2.459605e-02
  9.604433e-01    1.705038e+00   2.481677e-02
  9.626537e-01    1.727202e+00   2.494397e-02
  9.648642e-01    1.764281e+00   2.517576e-02
  9.670747e-01    1.752646e+00   2.505802e-02
  9.692851e-01    1.782777e+00   2.523890e-02
  9.714956e-01    1.812843e+00   2.541494e-02
  9.737060e-01    1.829045e+00   2.549472e-02
  9.759165e-01    1.919918e+00   2.608353e-02
  9.781269e-01    1.942471e+00   2.620199e-02
  9.803374e-01    1.879899e+00   2.574088e-02
  9.825478e-01    1.830494e+00   2.536687e-02
  9.847583e-01    1.792357e+00   2.506715e-02
  9.869688e-01    1.761320e+00   2.481590e-02
  9.891792e-01    1.753122e+00   2.472516e-02
  9.913897e-01    1.759301e+00   2.473528e-02
  9.936001e-01    1.715215e+00   2.439141e-02
  9.958106e-01    1.757037e+00   2.465344e-02
  9.980210e-01    1.704956e+00   2.425380e-02
  1.000231e+00    1.662743e+00   2.408289e-02
  1.002442e+00    1.607315e+00   2.380387e-02
  1.004652e+00    1.613404e+00   2.391545e-02
  1.006863e+00    1.626511e+00   2.406222e-02
  1.009073e+00    1.593895e+00   2.385622e-02
  1.011284e+00    1.569967e+00   2.370811e-02
  1.013494e+00    1.579132e+00   2.380079e-02
  1.015705e+00    1.537675e+00   2.350850e-02
  1.017915e+00    1.541702e+00   2.355546e-02
  1.020126e+00    1.534822e+00   2.351875e-02
  1.022336e+00    1.498472e+00   2.325002e-02
  1.024547e+00    1.492240e+00   2.321261e-02
  1.026757e+00    1.505295e+00   2.332219e-02
  1.028967e+00    1.504278e+00   2.332189e-02
  1.031178e+00    1.473983e+00   2.309191e-02
  1.033388e+00    1.479801e+00   2.314239e-02
  1.035599e+00    1.494722e+00   2.326216e-02
  1.037809e+00    1.525509e+00   2.350376e-02
  1.040020e+00    1.530815e+00   2.354589e-02
  1.042230e+00    1.492428e+00   2.325073e-02
  1.044441e+00    1.499058e+00   2.330207e-02
  1.046651e+00    1.542813e+00   2.363987e-02
  1.048862e+00    1.605849e+00   2.411717e-02
  1.051072e+00    1.515082e+00   2.342333e-02
  1.053282e+00    1.540966e+00   2.362154e-02
  1.055493e+00    1.642356e+00   2.438177e-02
  1.057703e+00    1.665838e+00   2.455386e-02
  1.059914e+00    1.844473e+00   2.583205e-02
  1.062124e+00    1.999109e+00   2.688847e-02
  1.064335e+00    1.853561e+00   2.588739e-02
  1.066545e+00    1.595281e+00   2.400992e-02
  1.068756e+00    1.484845e+00   2.316018e-02
  1.070966e+00    1.457587e+00   2.294011e-02
  1.073177e+00    1.431202e+00   2.272556e-02
  1.075387e+00    1.472771e+00   2.304797e-02
  1.077597e+00    1.446358e+00   2.283320e-02
  1.079808e+00    1.415086e+00   2.245449e-02
  1.082018e+00    1.438737e+00   2.245386e-02
  1.084229e+00    1.447915e+00   2.241579e-02
  1.086439e+00    1.441113e+00   2.227607e-02
  1.088650e+00    1.481068e+00   2.250638e-02
  1.090860e+00    1.578729e+00   2.316609e-02
  1.093071e+00    1.619783e+00   2.339972e-02
  1.095281e+00    1.506587e+00   2.250886e-02
  1.097492e+00    1.465403e+00   2.214375e-02
  1.099702e+00    1.458430e+00   2.203929e-02
  1.101912e+00    1.435066e+00   2.181328e-02
  1.104123e+00    1.436994e+00   2.177967e-02
  1.106333e+00    1.417773e+00   2.158936e-02
  1.108544e+00    1.422046e+00   2.157770e-02
  1.110754e+00    1.380355e+00   2.121676e-02
  1.112965e+00    1.357635e+00   2.100179e-02
  1.115175e+00    1.358917e+00   2.097142e-02
  1.117386e+00    1.377011e+00   2.107185e-02
  1.119596e+00    1.398021e+00   2.119430e-02
  1.121807e+00    1.408127e+00   2.123197e-02
  1.124017e+00    1.394445e+00   2.109211e-02
  1.126228e+00    1.335434e+00   2.060612e-02
  1.128438e+00    1.400484e+00   2.106525e-02
  1.130648e+00    1.386798e+00   2.092792e-02
  1.132859e+00    1.444542e+00   2.132418e-02
  1.135069e+00    1.513888e+00   2.179385e-02
  1.137280e+00    1.494240e+00   2.161778e-02
  1.139490e+00    1.378506e+00   2.073077e-02
  1.141701e+00    1.353975e+00   2.051271e-02
  1.143911e+00    1.387136e+00   2.073047e-02
  1.146122e+00    1.383800e+00   2.067350e-02
  1.148332e+00    1.391816e+00   2.070126e-02
  1.150543e+00    1.345508e+00   2.032351e-02
  1.152753e+00    1.343695e+00   2.027931e-02
  1.154963e+00    1.384522e+00   2.055392e-02
  1.157174e+00    1.396042e+00   2.060886e-02
  1.159384e+00    1.407709e+00   2.066456e-02
  1.161595e+00    1.386696e+00   2.047973e-02
  1.163805e+00    1.413217e+00   2.064489e-02
  1.166016e+00    1.423827e+00   2.069224e-02
  1.168226e+00    1.406326e+00   2.053529e-02
  1.170437e+00    1.413991e+00   2.056205e-02
  1.172647e+00    1.416415e+00   2.055026e-02
  1.174858e+00    1.361643e+00   2.012094e-02
  1.177068e+00    1.404940e+00   2.040960e-02
  1.179278e+00    1.532670e+00   2.128686e-02
  1.181489e+00    1.684300e+00   2.228496e-02
  1.183699e+00    1.639685e+00   2.195762e-02
  1.185910e+00    1.523383e+00   2.113514e-02
  1.188120e+00    1.471568e+00   2.074479e-02
  1.190331e+00    1.426923e+00   2.040023e-02
  1.192541e+00    1.368282e+00   1.994913e-02
  1.194752e+00    1.340632e+00   1.971960e-02
  1.196962e+00    1.331989e+00   1.963037e-02
  1.199173e+00    1.363431e+00   1.983407e-02
  1.201383e+00    1.371792e+00   1.986742e-02
  1.203593e+00    1.358287e+00   1.974449e-02
  1.205804e+00    1.342207e+00   1.960143e-02
  1.208014e+00    1.333402e+00   1.951034e-02
  1.210225e+00    1.337947e+00   1.951835e-02
  1.212435e+00    1.345829e+00   1.955102e-02
  1.214646e+00    1.330156e+00   1.941091e-02
  1.216856e+00    1.386124e+00   1.978925e-02
  1.219067e+00    1.383434e+00   1.974531e-02
  1.221277e+00    1.336194e+00   1.938034e-02
  1.223488e+00    1.365327e+00   1.956458e-02
  1.225698e+00    1.373524e+00   1.959609e-02
  1.227909e+00    1.376387e+00   1.958603e-02
  1.230119e+00    1.370700e+00   1.951346e-02
  1.232329e+00    1.357365e+00   1.938747e-02
  1.234540e+00    1.365894e+00   1.941784e-02
  1.236750e+00    1.360908e+00   1.935197e-02
  1.238961e+00    1.366167e+00   1.936219e-02
  1.241171e+00    1.416502e+00   1.969087e-02
  1.243382e+00    1.462963e+00   1.998673e-02
  1.245592e+00    1.443025e+00   1.982518e-02
  1.247803e+00    1.388107e+00   1.942028e-02
  1.250013e+00    1.345850e+00   1.909889e-02
  1.252224e+00    1.354445e+00   1.913647e-02
  1.254434e+00    1.334672e+00   1.897269e-02
  1.256644e+00    1.319263e+00   1.883990e-02
  1.258855e+00    1.318694e+00   1.881283e-02
  1.261065e+00    1.325565e+00   1.883863e-02
  1.263276e+00    1.324842e+00   1.881075e-02
  1.265486e+00    1.344272e+00   1.892536e-02
  1.267697e+00    1.314878e+00   1.869462e-02
  1.269907e+00    1.320330e+00   1.871086e-02
  1.272118e+00    1.325467e+00   1.872486e-02
  1.274328e+00    1.351943e+00   1.888820e-02
  1.276539e+00    1.350271e+00   1.885373e-02
  1.278749e+00    1.379626e+00   1.903502e-02
  1.280959e+00    1.363511e+00   1.890091e-02
  1.283170e+00    1.367970e+00   1.890918e-02
  1.285380e+00    1.391209e+00   1.904633e-02
  1.287591e+00    1.400687e+00   1.908866e-02
  1.289801e+00    1.399235e+00   1.905717e-02
  1.292012e+00    1.391348e+00   1.898603e-02
  1.294222e+00    1.383911e+00   1.891877e-02
  1.296433e+00    1.364601e+00   1.877064e-02
  1.298643e+00    1.340910e+00   1.859058e-02
  1.300854e+00    1.326577e+00   1.847466e-02
  1.303064e+00    1.361220e+00   1.869504e-02
  1.305274e+00    1.345760e+00   1.856718e-02
  1.307485e+00    1.331589e+00   1.844775e-02
  1.309695e+00    1.363961e+00   1.864828e-02
  1.311906e+00    1.384543e+00   1.876649e-02
  1.314116e+00    1.408848e+00   1.890924e-02
  1.316327e+00    1.397763e+00   1.881265e-02
  1.318537e+00    1.369785e+00   1.860135e-02
  1.320748e+00    1.383995e+00   1.867579e-02
  1.322958e+00    1.381178e+00   1.863600e-02
  1.325169e+00    1.373452e+00   1.856262e-02
  1.327379e+00    1.360672e+00   1.845414e-02
  1.329589e+00    1.376214e+00   1.853798e-02
  1.331800e+00    1.360827e+00   1.841326e-02
  1.334010e+00    1.408563e+00   1.871233e-02
  1.336221e+00    1.435675e+00   1.886913e-02
  1.338431e+00    1.428823e+00   1.880261e-02
  1.340642e+00    1.432097e+00   1.889020e-02
  1.342852e+00    1.412228e+00   1.886169e-02
  1.345063e+00    1.413015e+00   1.891756e-02
  1.347273e+00    1.421629e+00   1.901129e-02
  1.349484e+00    1.443095e+00   1.918291e-02
  1.351694e+00    1.428194e+00   1.910697e-02
  1.353905e+00    1.398762e+00   1.892740e-02
  1.356115e+00    1.364967e+00   1.871246e-02
  1.358325e+00    1.383238e+00   1.885077e-02
  1.360536e+00    1.348988e+00   1.862756e-02
  1.362746e+00    1.349571e+00   1.864113e-02
  1.364957e+00    1.340013e+00   1.858264e-02
  1.367167e+00    1.357667e+00   1.871184e-02
  1.369378e+00    1.310045e+00   1.838668e-02
  1.371588e+00    1.323169e+00   1.848364e-02
  1.373799e+00    1.326797e+00   1.851261e-02
  1.376009e+00    1.313003e+00   1.841950e-02
  1.378220e+00    1.296859e+00   1.830838e-02
  1.380430e+00    1.298739e+00   1.832434e-02
  1.382640e+00    1.282948e+00   1.821348e-02
  1.384851e+00    1.314388e+00   1.843618e-02
  1.387061e+00    1.288734e+00   1.825567e-02
  1.389272e+00    1.275548e+00   1.816224e-02
  1.391482e+00    1.296185e+00   1.830789e-02
  1.393693e+00    1.290126e+00   1.826418e-02
  1.395903e+00    1.286665e+00   1.823818e-02
  1.398114e+00    1.283599e+00   1.821504e-02
  1.400324e+00    1.276636e+00   1.816346e-02
  1.402535e+00    1.268991e+00   1.810667e-02
  1.404745e+00    1.285220e+00   1.821972e-02
  1.406955e+00    1.268406e+00   1.809745e-02
  1.409166e+00    1.270400e+00   1.810837e-02
  1.411376e+00    1.274725e+00   1.813604e-02
  1.413587e+00    1.293105e+00   1.826248e-02
  1.415797e+00    1.297803e+00   1.829204e-02
  1.418008e+00    1.322090e+00   1.841969e-02
  1.420218e+00    1.308575e+00   1.817332e-02
  1.422429e+00    1.321957e+00   1.817895e-02
  1.424639e+00    1.313201e+00   1.805289e-02
  1.426850e+00    1.318359e+00   1.803256e-02
  1.429060e+00    1.324458e+00   1.802420e-02
  1.431270e+00    1.327700e+00   1.800095e-02
  1.433481e+00    1.310662e+00   1.784346e-02
  1.435691e+00    1.298382e+00   1.772084e-02
  1.437902e+00    1.278491e+00   1.754797e-02
  1.440112e+00    1.296751e+00   1.763713e-02
  1.442323e+00    1.290338e+00   1.756015e-02
  1.444533e+00    1.291039e+00   1.753210e-02
  1.446744e+00    1.303409e+00   1.758435e-02
  1.448954e+00    1.296866e+00   1.750966e-02
  1.451165e+00    1.273806e+00   1.732349e-02
  1.453375e+00    1.270521e+00   1.727307e-02
  1.455586e+00    1.270573e+00   1.724527e-02
  1.457796e+00    1.254890e+00   1.711116e-02
  1.460006e+00    1.274807e+00   1.721911e-02
  1.462217e+00    1.248119e+00   1.701193e-02
  1.464427e+00    1.260808e+00   1.707265e-02
  1.466638e+00    1.279676e+00   1.717449e-02
  1.468848e+00    1.275414e+00   1.712049e-02
  1.471059e+00    1.252637e+00   1.694200e-02
  1.473269e+00    1.267955e+00   1.702090e-02
  1.475480e+00    1.278947e+00   1.707066e-02
  1.477690e+00    1.272150e+00   1.700137e-02
  1.479901e+00    1.235400e+00   1.673049e-02
  1.482111e+00    1.225265e+00   1.663875e-02
  1.484321e+00    1.239385e+00   1.671150e-02
  1.486532e+00    1.268298e+00   1.688294e-02
  1.488742e+00    1.270026e+00   1.687176e-02
  1.490953e+00    1.269058e+00   1.684268e-02
  1.493163e+00    1.280162e+00   1.689376e-02
  1.495374e+00    1.291916e+00   1.694942e-02
  1.497584e+00    1.269897e+00   1.678265e-02
  1.499795e+00    1.267815e+00   1.674716e-02
  1.502005e+00    1.259427e+00   1.667000e-02
  1.504216e+00    1.270733e+00   1.672350e-02
  1.506426e+00    1.276968e+00   1.674353e-02
  1.508636e+00    1.266429e+00   1.665376e-02
  1.510847e+00    1.268056e+00   1.664255e-02
  1.513057e+00    1.240620e+00   1.643659e-02
  1.515268e+00    1.236923e+00   1.638654e-02
  1.517478e+00    1.231077e+00   1.632285e-02
  1.519689e+00    1.259081e+00   1.648246e-02
  1.521899e+00    1.219406e+00   1.619789e-02
  1.524110e+00    1.238964e+00   1.630705e-02
  1.526320e+00    1.248956e+00   1.635312e-02
  1.528531e+00    1.259844e+00   1.640441e-02
  1.530741e+00    1.233583e+00   1.621353e-02
  1.532951e+00    1.225553e+00   1.614125e-02
  1.535162e+00    1.236882e+00   1.630187e-02
  1.537372e+00    1.223239e+00   1.627790e-02
  1.539583e+00    1.245365e+00   1.645866e-02
  1.541793e+00    1.228871e+00   1.635621e-02
  1.544004e+00    1.235189e+00   1.639844e-02
  1.546214e+00    1.229798e+00   1.636115e-02
  1.548425e+00    1.197661e+00   1.614620e-02
  1.550635e+00    1.197971e+00   1.615777e-02
  1.552846e+00    1.217944e+00   1.630147e-02
  1.555056e+00    1.230713e+00   1.634545e-02
  1.557266e+00    1.257888e+00   1.641387e-02
  1.559477e+00    1.254341e+00   1.633138e-02
  1.561687e+00    1.260044e+00   1.633758e-02
  1.563898e+00    1.262128e+00   1.633384e-02
  1.566108e+00    1.240795e+00   1.617926e-02
  1.568319e+00    1.239226e+00   1.615343e-02
  1.570529e+00    1.252865e+00   1.621687e-02
  1.572740e+00    1.237076e+00   1.608683e-02
  1.574950e+00    1.245994e+00   1.611836e-02
  1.577161e+00    1.276674e+00   1.628982e-02
  1.579371e+00    1.271378e+00   1.623206e-02
  1.581582e+00    1.253823e+00   1.609979e-02
  1.583792e+00    1.242238e+00   1.600721e-02
  1.586002e+00    1.236477e+00   1.595248e-02
  1.588213e+00    1.236736e+00   1.593698e-02
  1.590423e+00    1.245582e+00   1.597378e-02
  1.592634e+00    1.213003e+00   1.574215e-02
  1.594844e+00    1.240196e+00   1.589623e-02
  1.597055e+00    1.244982e+00   1.590637e-02
  1.599265e+00    1.247305e+00   1.590043e-02
  1.601476e+00    1.240065e+00   1.583392e-02
  1.603686e+00    1.240170e+00   1.581483e-02
  1.605897e+00    1.228445e+00   1.571983e-02
  1.608107e+00    1.201330e+00   1.552610e-02
  1.610317e+00    1.214181e+00   1.558977e-02
  1.612528e+00    1.216561e+00   1.558605e-02
  1.614738e+00    1.184337e+00   1.535963e-02
  1.616949e+00    1.205854e+00   1.547972e-02
  1.619159e+00    1.189736e+00   1.535746e-02
  1.621370e+00    1.196564e+00   1.538317e-02
  1.623580e+00    1.186405e+00   1.529961e-02
  1.625791e+00    1.181433e+00   1.524947e-02
  1.628001e+00    1.169733e+00   1.515575e-02
  1.630212e+00    1.161435e+00   1.508439e-02
  1.632422e+00    1.162535e+00   1.507381e-02
  1.634632e+00    1.151301e+00   1.498372e-02
  1.636843e+00    1.142233e+00   1.490732e-02
  1.639053e+00    1.126689e+00   1.478860e-02
  1.641264e+00    1.134451e+00   1.482261e-02
  1.643474e+00    1.140259e+00   1.484329e-02
  1.645685e+00    1.134511e+00   1.478934e-02
  1.647895e+00    1.147292e+00   1.485588e-02
  1.650106e+00    1.116992e+00   1.464164e-02
  1.652316e+00    1.130759e+00   1.471524e-02
  1.654527e+00    1.129395e+00   1.468978e-02
  1.656737e+00    1.123842e+00   1.463716e-02
  1.658947e+00    1.121629e+00   1.460653e-02
  1.661158e+00    1.096803e+00   1.442793e-02
  1.663368e+00    1.097618e+00   1.441744e-02
  1.665579e+00    1.102275e+00   1.443196e-02
  1.667789e+00    1.102221e+00   1.441550e-02
  1.670000e+00    1.079812e+00   1.425294e-02
  1.672210e+00    1.068968e+00   1.416560e-02
  1.674421e+00    1.095383e+00   1.432429e-02
  1.676631e+00    1.112801e+00   1.442178e-02
  1.678842e+00    1.094066e+00   1.428414e-02
  1.681052e+00    1.122049e+00   1.445003e-02
  1.683263e+00    1.357404e+00   1.587644e-02
  1.685473e+00    1.429649e+00   1.627623e-02
  1.687683e+00    1.198431e+00   1.488588e-02
  1.689894e+00    1.072521e+00   1.406643e-02
  1.692104e+00    1.061791e+00   1.398105e-02
  1.694315e+00    1.069375e+00   1.401641e-02
  1.696525e+00    1.061539e+00   1.394987e-02
  1.698736e+00    1.062616e+00   1.394214e-02
  1.700946e+00    1.037755e+00   1.376311e-02
  1.703157e+00    1.039747e+00   1.376179e-02
  1.705367e+00    1.020999e+00   1.362288e-02
  1.707578e+00    1.040950e+00   1.374081e-02
  1.709788e+00    1.024372e+00   1.361701e-02
  1.711998e+00    9.993907e-01   1.343522e-02
  1.714209e+00    1.028037e+00   1.361206e-02
  1.716419e+00    1.007159e+00   1.345907e-02
  1.718630e+00    9.942175e-01   1.335828e-02
  1.720840e+00    1.034685e+00   1.361320e-02
  1.723051e+00    1.057920e+00   1.375114e-02
  1.725261e+00    1.079568e+00   1.387600e-02
  1.727472e+00    1.189094e+00   1.454758e-02
  1.729682e+00    1.065068e+00   1.375426e-02
  1.731893e+00    1.004568e+00   1.334402e-02
  1.734103e+00    1.008165e+00   1.335409e-02
  1.736313e+00    1.003521e+00   1.330933e-02
  1.738524e+00    1.011450e+00   1.334789e-02
  1.740734e+00    1.018432e+00   1.338006e-02
  1.742945e+00    9.973966e-01   1.322771e-02
  1.745155e+00    9.553753e-01   1.293287e-02
  1.747366e+00    9.740397e-01   1.304485e-02
  1.749576e+00    9.937270e-01   1.316231e-02
  1.751787e+00    9.997133e-01   1.318844e-02
  1.753997e+00    9.936005e-01   1.313459e-02
  1.756208e+00    1.011408e+00   1.323831e-02
  1.758418e+00    1.016994e+00   1.326140e-02
  1.760628e+00    9.842984e-01   1.303305e-02
  1.762839e+00    9.881434e-01   1.304509e-02
  1.765049e+00    9.719806e-01   1.292480e-02
  1.767260e+00    9.594301e-01   1.282825e-02
  1.769470e+00    9.804245e-01   1.295471e-02
  1.771681e+00    9.485469e-01   1.272924e-02
  1.773891e+00    9.308023e-01   1.259669e-02
  1.776102e+00    9.451984e-01   1.268088e-02
  1.778312e+00    9.351552e-01   1.260065e-02
  1.780523e+00    1.008722e+00   1.307368e-02
  1.782733e+00    1.090360e+00   1.357880e-02
  1.784944e+00    1.062788e+00   1.339234e-02
  1.787154e+00    9.620322e-01   1.272896e-02
  1.789364e+00    9.332126e-01   1.252435e-02
  1.791575e+00    8.988609e-01   1.227933e-02
  1.793785e+00    8.847073e-01   1.217011e-02
  1.795996e+00    8.950853e-01   1.222895e-02
  1.798206e+00    8.881745e-01   1.216934e-02
  1.800417e+00    8.829890e-01   1.212132e-02
  1.802627e+00    8.714076e-01   1.202992e-02
  1.804838e+00    8.830144e-01   1.209784e-02
  1.807048e+00    8.985799e-01   1.219123e-02
  1.809259e+00    9.121145e-01   1.226907e-02
  1.811469e+00    9.204994e-01   1.231026e-02
  1.813679e+00    9.017333e-01   1.216913e-02
  1.815890e+00    9.009358e-01   1.214900e-02
  1.818100e+00    8.778046e-01   1.197707e-02
  1.820311e+00    8.740749e-01   1.193699e-02
  1.822521e+00    8.608378e-01   1.183166e-02
  1.824732e+00    8.699996e-01   1.187980e-02
  1.826942e+00    8.670855e-01   1.184770e-02
  1.829153e+00    8.795664e-01   1.192100e-02
  1.831363e+00    8.956682e-01   1.201752e-02
  1.833574e+00    8.770635e-01   1.188041e-02
  1.835784e+00    8.389921e-01   1.160853e-02
  1.837994e+00    8.497225e-01   1.167100e-02
  1.840205e+00    8.648251e-01   1.176314e-02
  1.842415e+00    8.631281e-01   1.173990e-02
  1.844626e+00    8.634264e-01   1.173041e-02
  1.846836e+00    8.483704e-01   1.161640e-02
  1.849047e+00    8.652627e-01   1.171986e-02
  1.851257e+00    8.759359e-01   1.178230e-02
  1.853468e+00    8.439061e-01   1.155617e-02
  1.855678e+00    8.620823e-01   1.167105e-02
  1.857889e+00    8.534957e-01   1.160431e-02
  1.860099e+00    8.671358e-01   1.168800e-02
  1.862309e+00    8.654705e-01   1.166821e-02
  1.864520e+00    8.517813e-01   1.156702e-02
  1.866730e+00    8.557959e-01   1.158484e-02
  1.868941e+00    8.640749e-01   1.162974e-02
  1.871151e+00    8.631398e-01   1.161196e-02
  1.873362e+00    8.583718e-01   1.156846e-02
  1.875572e+00    8.499720e-01   1.150076e-02
  1.877783e+00    8.724611e-01   1.164033e-02
  1.879993e+00    8.755943e-01   1.164987e-02
  1.882204e+00    8.605582e-01   1.153842e-02
  1.884414e+00    8.489579e-01   1.144927e-02
  1.886624e+00    8.478430e-01   1.143066e-02
  1.888835e+00    8.542349e-01   1.146260e-02
  1.891045e+00    8.493957e-01   1.141915e-02
  1.893256e+00    8.437245e-01   1.136984e-02
  1.895466e+00    8.421009e-01   1.134769e-02
  1.897677e+00    8.371539e-01   1.130338e-02
  1.899887e+00    8.379649e-01   1.129784e-02
  1.902098e+00    8.569221e-01   1.141393e-02
  1.904308e+00    8.602506e-01   1.142529e-02
  1.906519e+00    8.946820e-01   1.164042e-02
  1.908729e+00    1.034827e+00   1.250708e-02
  1.910940e+00    1.072710e+00   1.272138e-02
  1.913150e+00    9.984841e-01   1.226167e-02
  1.915360e+00    1.145489e+00   1.312074e-02
  1.917571e+00    1.235096e+00   1.361107e-02
  1.919781e+00    1.049703e+00   1.253601e-02
  1.921992e+00    8.863907e-01   1.150853e-02
  1.924202e+00    8.199028e-01   1.105770e-02
  1.926413e+00    7.943859e-01   1.087409e-02
  1.928623e+00    8.125368e-01   1.098709e-02
  1.930834e+00    8.062996e-01   1.093446e-02
  1.933044e+00    7.873269e-01   1.079454e-02
  1.935255e+00    7.951992e-01   1.083811e-02
  1.937465e+00    8.124639e-01   1.094473e-02
  1.939675e+00    7.948846e-01   1.081492e-02
  1.941886e+00    7.784723e-01   1.069258e-02
  1.944096e+00    7.986722e-01   1.082023e-02
  1.946307e+00    8.058182e-01   1.085820e-02
  1.948517e+00    7.995145e-01   1.080519e-02
  1.950728e+00    7.885858e-01   1.072092e-02
  1.952938e+00    7.906192e-01   1.072466e-02
  1.955149e+00    8.132116e-01   1.086648e-02
  1.957359e+00    8.014600e-01   1.077762e-02
  1.959570e+00    7.799722e-01   1.062139e-02
  1.961780e+00    7.722906e-01   1.055916e-02
  1.963990e+00    7.826848e-01   1.061992e-02
  1.966201e+00    7.830473e-01   1.061238e-02
  1.968411e+00    7.783726e-01   1.057057e-02
  1.970622e+00    8.037896e-01   1.073155e-02
  1.972832e+00    8.403656e-01   1.096271e-02
  1.975043e+00    8.323376e-01   1.089992e-02
  1.977253e+00    7.942907e-01   1.063787e-02
  1.979464e+00    7.780415e-01   1.051848e-02
  1.981674e+00    7.838811e-01   1.054761e-02
  1.983885e+00    7.847227e-01   1.054322e-02
  1.986095e+00    7.968022e-01   1.061428e-02
  1.988305e+00    7.813743e-01   1.050110e-02
  1.990516e+00    8.064141e-01   1.065793e-02
  1.992726e+00    7.887167e-01   1.053061e-02
  1.994937e+00    7.863532e-01   1.050463e-02
  1.997147e+00    7.748768e-01   1.041796e-02
  1.999358e+00    7.730480e-01   1.039582e-02
  2.001568e+00    7.707902e-01   1.036984e-02
  2.003779e+00    7.615640e-01   1.029575e-02
  2.005989e+00    7.556242e-01   1.024363e-02
  2.008200e+00    7.602319e-01   1.026337e-02
  2.010410e+00    7.480623e-01   1.016930e-02
  2.012621e+00    7.493238e-01   1.016631e-02
  2.014831e+00    7.770898e-01   1.034140e-02
  2.017041e+00    7.682416e-01   1.027198e-02
  2.019252e+00    7.526146e-01   1.015709e-02
  2.021462e+00    7.658257e-01   1.023634e-02
  2.023673e+00    7.517156e-01   1.013230e-02
  2.025883e+00    7.460794e-01   1.008481e-02
  2.028094e+00    7.508805e-01   1.010766e-02
  2.030304e+00    7.443573e-01   1.005422e-02
  2.032515e+00    7.487104e-01   1.007435e-02
  2.034725e+00    7.628161e-01   1.015935e-02
  2.036936e+00    7.625142e-01   1.014796e-02
  2.039146e+00    7.598839e-01   1.012087e-02
  2.041356e+00    7.495791e-01   1.004241e-02
  2.043567e+00    7.377390e-01   9.953585e-03
  2.045777e+00    7.360083e-01   9.932778e-03
  2.047988e+00    7.516947e-01   1.002870e-02
  2.050198e+00    7.527732e-01   1.002749e-02
  2.052409e+00    7.481770e-01   9.989178e-03
  2.054619e+00    7.594675e-01   1.005686e-02
  2.056830e+00    7.625091e-01   1.006975e-02
  2.059040e+00    7.576382e-01   1.002999e-02
  2.061251e+00    7.377717e-01   9.890433e-03
  2.063461e+00    7.335387e-01   9.854499e-03
  2.065671e+00    7.327644e-01   9.840664e-03
  2.067882e+00    7.333409e-01   9.835633e-03
  2.070092e+00    7.435828e-01   9.894894e-03
  2.072303e+00    7.472745e-01   9.910295e-03
  2.074513e+00    7.447738e-01   9.884374e-03
  2.076724e+00    7.494944e-01   9.906156e-03
  2.078934e+00    7.323672e-01   9.783391e-03
  2.081145e+00    7.367951e-01   9.803871e-03
  2.083355e+00    7.304957e-01   9.752759e-03
  2.085566e+00    7.443364e-01   9.835785e-03
  2.087776e+00    7.318890e-01   9.743758e-03
  2.089986e+00    7.202536e-01   9.657320e-03
  2.092197e+00    7.082483e-01   9.567703e-03
  2.094407e+00    7.217484e-01   9.649329e-03
  2.096618e+00    7.319357e-01   9.708308e-03
  2.098828e+00    7.068485e-01   9.531372e-03
  2.101039e+00    6.895622e-01   9.405373e-03
  2.103249e+00    6.935931e-01   9.424378e-03
  2.105460e+00    7.005962e-01   9.462997e-03
  2.107670e+00    7.203422e-01   9.586743e-03
  2.109881e+00    7.060992e-01   9.482487e-03
  2.112091e+00    7.261711e-01   9.607301e-03
  2.114301e+00    7.231337e-01   9.578438e-03
  2.116512e+00    7.043474e-01   9.444507e-03
  2.118722e+00    7.196975e-01   9.538052e-03
  2.120933e+00    7.417454e-01   9.674058e-03
  2.123143e+00    7.342942e-01   9.616355e-03
  2.125354e+00    7.182186e-01   9.501981e-03
  2.127564e+00    7.147951e-01   9.470566e-03
  2.129775e+00    7.134244e-01   9.452791e-03
  2.131985e+00    7.163358e-01   9.462957e-03
  2.134196e+00    7.191739e-01   9.473098e-03
  2.136406e+00    6.921927e-01   9.285067e-03
  2.138617e+00    7.102930e-01   9.397208e-03
  2.140827e+00    6.980359e-01   9.331744e-03
  2.143037e+00    6.999837e-01   9.389957e-03
  2.145248e+00    7.220788e-01   9.559289e-03
  2.147458e+00    6.987095e-01   9.418411e-03
  2.149669e+00    6.917020e-01   9.382809e-03
  2.151879e+00    6.779180e-01   9.297916e-03
  2.154090e+00    6.790208e-01   9.312659e-03
  2.156300e+00    7.008673e-01   9.467902e-03
  2.158511e+00    6.940981e-01   9.427341e-03
  2.160721e+00    6.934524e-01   9.427769e-03
  2.162932e+00    6.799610e-01   9.339302e-03
  2.165142e+00    6.803797e-01   9.345135e-03
  2.167352e+00    6.844292e-01   9.375824e-03
  2.169563e+00    6.802493e-01   9.349061e-03
  2.171773e+00    6.857414e-01   9.389166e-03
  2.173984e+00    6.892711e-01   9.414705e-03
  2.176194e+00    6.791139e-01   9.346294e-03
  2.178405e+00    6.565942e-01   9.190665e-03
  2.180615e+00    6.673272e-01   9.266161e-03
  2.182826e+00    6.905737e-01   9.426841e-03
  2.185036e+00    6.804827e-01   9.357798e-03
  2.187247e+00    6.746827e-01   9.317755e-03
  2.189457e+00    6.726273e-01   9.303151e-03
  2.191667e+00    6.780232e-01   9.340227e-03
  2.193878e+00    6.848952e-01   9.386863e-03
  2.196088e+00    6.791946e-01   9.347049e-03
  2.198299e+00    6.808627e-01   9.357421e-03
  2.200509e+00    6.840547e-01   9.378280e-03
  2.202720e+00    6.794882e-01   9.345784e-03
  2.204930e+00    6.785153e-01   9.337830e-03
  2.207141e+00    6.896495e-01   9.413034e-03
  2.209351e+00    6.756430e-01   9.315060e-03
  2.211562e+00    6.765137e-01   9.319462e-03
  2.213772e+00    6.557852e-01   9.120961e-03
  2.215982e+00    6.659173e-01   9.147256e-03
  2.218193e+00    6.600253e-01   9.077431e-03
  2.220403e+00    6.657528e-01   9.092292e-03
  2.222614e+00    6.799322e-01   9.167572e-03
  2.224824e+00    6.745456e-01   9.111789e-03
  2.227035e+00    6.526634e-01   8.945599e-03
  2.229245e+00    6.602785e-01   8.980808e-03
  2.231456e+00    6.648254e-01   8.996131e-03
  2.233666e+00    6.738837e-01   9.042086e-03
  2.235877e+00    6.944661e-01   9.164599e-03
  2.238087e+00    7.125977e-01   9.269582e-03
  2.240298e+00    7.141667e-01   9.265555e-03
  2.242508e+00    7.098212e-01   9.221759e-03
  2.244718e+00    6.807086e-01   9.014713e-03
  2.246929e+00    6.762736e-01   8.970778e-03
  2.249139e+00    6.821509e-01   8.997159e-03
  2.251350e+00    6.923494e-01   9.052227e-03
  2.253560e+00    7.052673e-01   9.124398e-03
  2.255771e+00    7.234703e-01   9.229512e-03
  2.257981e+00    7.101548e-01   9.132634e-03
  2.260192e+00    7.177798e-01   9.169970e-03
  2.262402e+00    7.131384e-01   9.129051e-03
  2.264613e+00    6.888406e-01   8.961154e-03
  2.266823e+00    6.636500e-01   8.785347e-03
  2.269033e+00    6.968408e-01   8.991703e-03
  2.271244e+00    7.134732e-01   9.087600e-03
  2.273454e+00    7.461473e-01   9.282456e-03
  2.275665e+00    7.787229e-01   9.471767e-03
  2.277875e+00    7.490599e-01   9.279076e-03
  2.280086e+00    6.811892e-01   8.838519e-03
  2.282296e+00    6.531710e-01   8.645448e-03
  2.284507e+00    6.613716e-01   8.689410e-03
  2.286717e+00    6.377150e-01   8.523263e-03
  2.288928e+00    6.613274e-01   8.669710e-03
  2.291138e+00    6.690127e-01   8.710451e-03
  2.293348e+00    6.603600e-01   8.644352e-03
  2.295559e+00    6.653957e-01   8.667875e-03
  2.297769e+00    6.426495e-01   8.509272e-03
  2.299980e+00    6.552824e-01   8.583137e-03
  2.302190e+00    6.555802e-01   8.575956e-03
  2.304401e+00    6.465271e-01   8.507255e-03
  2.306611e+00    6.524607e-01   8.537005e-03
  2.308822e+00    6.381494e-01   8.434561e-03
  2.311032e+00    6.405138e-01   8.443761e-03
  2.313243e+00    6.406052e-01   8.438143e-03
  2.315453e+00    6.456901e-01   8.464004e-03
  2.317663e+00    6.550785e-01   8.516142e-03
  2.319874e+00    6.564627e-01   8.516333e-03
  2.322084e+00    6.571654e-01   8.511857e-03
  2.324295e+00    6.555463e-01   8.493081e-03
  2.326505e+00    6.342601e-01   8.345068e-03
  2.328716e+00    6.447622e-01   8.405296e-03
  2.330926e+00    6.463405e-01   8.406790e-03
  2.333137e+00    6.340253e-01   8.317959e-03
  2.335347e+00    6.552617e-01   8.447169e-03
  2.337558e+00    6.400868e-01   8.340565e-03
  2.339768e+00    6.400628e-01   8.331808e-03
  2.341979e+00    6.482500e-01   8.376521e-03
  2.344189e+00    6.511539e-01   8.386757e-03
  2.346399e+00    6.495445e-01   8.367829e-03
  2.348610e+00    6.389875e-01   8.291054e-03
  2.350820e+00    6.372763e-01   8.271753e-03
  2.353031e+00    6.414307e-01   8.290329e-03
  2.355241e+00    6.309534e-01   8.214326e-03
  2.357452e+00    6.299795e-01   8.199555e-03
  2.359662e+00    6.181104e-01   8.113828e-03
  2.361873e+00    6.010903e-01   7.993303e-03
  2.364083e+00    6.214762e-01   8.119745e-03
  2.366294e+00    6.252508e-01   8.136306e-03
  2.368504e+00    6.249349e-01   8.126176e-03
  2.370714e+00    6.230322e-01   8.105751e-03
  2.372925e+00    6.153327e-01   8.047538e-03
  2.375135e+00    6.201065e-01   8.070642e-03
  2.377346e+00    6.220956e-01   8.075656e-03
  2.379556e+00    6.188077e-01   8.046410e-03
  2.381767e+00    6.165239e-01   8.023718e-03
  2.383977e+00    6.097062e-01   7.971372e-03
  2.386188e+00    6.049421e-01   7.932340e-03
  2.388398e+00    6.074462e-01   7.940852e-03
  2.390609e+00    6.101432e-01   7.950787e-03
  2.392819e+00    6.043692e-01   7.905380e-03
  2.395029e+00    5.980363e-01   7.856299e-03
  2.397240e+00    5.897326e-01   7.793853e-03
  2.399450e+00    6.228208e-01   8.001641e-03
  2.401661e+00    6.125830e-01   7.927931e-03
  2.403871e+00    6.101056e-01   7.904150e-03
  2.406082e+00    5.992287e-01   7.825975e-03
  2.408292e+00    6.113684e-01   7.897055e-03
  2.410503e+00    6.070161e-01   7.861434e-03
  2.412713e+00    6.178618e-01   7.923462e-03
  2.414924e+00    6.098239e-01   7.864271e-03
  2.417134e+00    5.936498e-01   7.751712e-03
  2.419344e+00    5.981393e-01   7.773577e-03
  2.421555e+00    6.060343e-01   7.817182e-03
  2.423765e+00    5.948504e-01   7.737353e-03
  2.425976e+00    5.967214e-01   7.741713e-03
  2.428186e+00    5.884109e-01   7.680472e-03
  2.430397e+00    5.816267e-01   7.628680e-03
  2.432607e+00    5.913137e-01   7.684686e-03
  2.434818e+00    5.833095e-01   7.625050e-03
  2.437028e+00    5.762692e-01   7.571845e-03
  2.439239e+00    5.917157e-01   7.664987e-03
  2.441449e+00    5.944569e-01   7.675541e-03
  2.443659e+00    5.945284e-01   7.668626e-03
  2.445870e+00    5.855356e-01   7.622604e-03
  2.448080e+00    5.750058e-01   7.588335e-03
  2.450291e+00    5.742978e-01   7.600213e-03
  2.452501e+00    5.692735e-01   7.577997e-03
  2.454712e+00    5.586026e-01   7.514957e-03
  2.456922e+00    5.614082e-01   7.540361e-03
  2.459133e+00    5.616530e-01   7.547422e-03
  2.461343e+00    5.640528e-01   7.567856e-03
  2.463554e+00    5.657058e-01   7.582423e-03
  2.465764e+00    5.681034e-01   7.601614e-03
  2.467975e+00    5.654748e-01   7.586322e-03
  2.470185e+00    5.539156e-01   7.510614e-03
  2.472395e+00    5.422349e-01   7.432219e-03
  2.474606e+00    5.475295e-01   7.469955e-03
  2.476816e+00    5.446125e-01   7.450773e-03
  2.479027e+00    5.366682e-01   7.397063e-03
  2.481237e+00    5.532324e-01   7.510623e-03
  2.483448e+00    5.432363e-01   7.442780e-03
  2.485658e+00    5.513412e-01   7.497928e-03
  2.487869e+00    5.515720e-01   7.499563e-03
  2.490079e+00    5.412109e-01   7.428249e-03
  2.492290e+00    5.473170e-01   7.469608e-03
  2.494500e+00    5.420064e-01   7.432554e-03
  2.496710e+00    5.337886e-01   7.375291e-03
  2.498921e+00    5.412503e-01   7.425657e-03
  2.501131e+00    5.450425e-01   7.450679e-03
  2.503342e+00    5.362628e-01   7.389149e-03
  2.505552e+00    5.421062e-01   7.428157e-03
  2.507763e+00    5.422022e-01   7.427388e-03
  2.509973e+00    5.339476e-01   7.369233e-03
  2.512184e+00    5.279511e-01   7.326119e-03
  2.514394e+00    5.269924e-01   7.310103e-03
  2.516605e+00    5.267014e-01   7.261008e-03
  2.518815e+00    5.380079e-01   7.309876e-03
  2.521025e+00    5.410493e-01   7.309254e-03
  2.523236e+00    5.323505e-01   7.232158e-03
  2.525446e+00    5.237144e-01   7.157673e-03
  2.527657e+00    5.279183e-01   7.171697e-03
  2.529867e+00    5.349137e-01   7.204754e-03
  2.532078e+00    5.191229e-01   7.082658e-03
  2.534288e+00    5.111728e-01   7.014511e-03
  2.536499e+00    5.181702e-01   7.050483e-03
  2.538709e+00    5.295838e-01   7.116661e-03
  2.540920e+00    5.362292e-01   7.150409e-03
  2.543130e+00    5.324742e-01   7.114896e-03
  2.545340e+00    5.261220e-01   7.062230e-03
  2.547551e+00    5.157926e-01   6.982704e-03
  2.549761e+00    5.109701e-01   6.940484e-03
  2.551972e+00    5.300301e-01   7.059324e-03
  2.554182e+00    5.306874e-01   7.054437e-03
  2.556393e+00    5.270485e-01   7.021064e-03
  2.558603e+00    5.267643e-01   7.010051e-03
  2.560814e+00    5.210525e-01   6.963225e-03
  2.563024e+00    5.133261e-01   6.902879e-03
  2.565235e+00    5.184761e-01   6.927911e-03
  2.567445e+00    5.246312e-01   6.959306e-03
  2.569656e+00    5.125960e-01   6.869325e-03
  2.571866e+00    5.274976e-01   6.959013e-03
  2.574076e+00    5.259972e-01   6.939761e-03
  2.576287e+00    5.411674e-01   7.030591e-03
  2.578497e+00    5.448905e-01   7.046681e-03
  2.580708e+00    5.247377e-01   6.907004e-03
  2.582918e+00    5.061263e-01   6.775698e-03
  2.585129e+00    4.953563e-01   6.695613e-03
  2.587339e+00    5.088990e-01   6.778866e-03
  2.589550e+00    5.148584e-01   6.810900e-03
  2.591760e+00    5.157990e-01   6.809334e-03
  2.593971e+00    5.101085e-01   6.764171e-03
  2.596181e+00    5.109434e-01   6.763476e-03
  2.598391e+00    5.058520e-01   6.724529e-03
  2.600602e+00    5.065219e-01   6.723089e-03
  2.602812e+00    5.216706e-01   6.815240e-03
  2.605023e+00    5.197524e-01   6.795472e-03
  2.607233e+00    5.208170e-01   6.795192e-03
  2.609444e+00    5.296414e-01   6.845131e-03
  2.611654e+00    5.302586e-01   6.841631e-03
  2.613865e+00    5.150511e-01   6.735726e-03
  2.616075e+00    5.064062e-01   6.671803e-03
  2.618286e+00    5.093932e-01   6.684427e-03
  2.620496e+00    5.068769e-01   6.661200e-03
  2.622706e+00    4.976665e-01   6.594682e-03
  2.624917e+00    5.038096e-01   6.629441e-03
  2.627127e+00    4.999561e-01   6.598291e-03
  2.629338e+00    5.056713e-01   6.629932e-03
  2.631548e+00    5.067294e-01   6.630657e-03
  2.633759e+00    4.954663e-01   6.549474e-03
  2.635969e+00    5.084489e-01   6.627973e-03
  2.638180e+00    5.028930e-01   6.584697e-03
  2.640390e+00    5.019807e-01   6.572072e-03
  2.642601e+00    5.148329e-01   6.648950e-03
  2.644811e+00    5.113907e-01   6.619517e-03
  2.647021e+00    5.107688e-01   6.608867e-03
  2.649232e+00    5.091843e-01   6.591813e-03
  2.651442e+00    5.042343e-01   6.553174e-03
  2.653653e+00    4.967404e-01   6.497509e-03
  2.655863e+00    5.011466e-01   6.519551e-03
  2.658074e+00    4.942978e-01   6.468290e-03
  2.660284e+00    4.888536e-01   6.426233e-03
  2.662495e+00    5.044661e-01   6.521247e-03
  2.664705e+00    5.176160e-01   6.599007e-03
  2.666916e+00    5.090072e-01   6.537360e-03
  2.669126e+00    5.060970e-01   6.512103e-03
  2.671337e+00    4.936299e-01   6.424855e-03
  2.673547e+00    4.920163e-01   6.407965e-03
  2.675757e+00    4.903833e-01   6.390905e-03
  2.677968e+00    4.980997e-01   6.434425e-03
  2.680178e+00    4.922290e-01   6.390041e-03
  2.682389e+00    4.785473e-01   6.294282e-03
  2.684599e+00    4.984273e-01   6.417461e-03
  2.686810e+00    4.996228e-01   6.418523e-03
  2.689020e+00    4.857978e-01   6.322824e-03
  2.691231e+00    4.969274e-01   6.388516e-03
  2.693441e+00    4.962537e-01   6.378018e-03
  2.695652e+00    4.875365e-01   6.315249e-03
  2.697862e+00    4.919350e-01   6.337301e-03
  2.700072e+00    4.943304e-01   6.346625e-03
  2.702283e+00    4.890358e-01   6.306315e-03
  2.704493e+00    4.907271e-01   6.310914e-03
  2.706704e+00    4.888060e-01   6.292147e-03
  2.708914e+00    4.786090e-01   6.220269e-03
  2.711125e+00    4.800121e-01   6.223163e-03
  2.713335e+00    4.885245e-01   6.272015e-03
  2.715546e+00    4.829073e-01   6.229426e-03
  2.717756e+00    4.721172e-01   6.153622e-03
  2.719967e+00    4.957973e-01   6.299788e-03
  2.722177e+00    4.964696e-01   6.297873e-03
  2.724387e+00    5.038710e-01   6.338416e-03
  2.726598e+00    4.837326e-01   6.204425e-03
  2.728808e+00    4.749494e-01   6.141756e-03
  2.731019e+00    4.860234e-01   6.206791e-03
  2.733229e+00    4.904265e-01   6.229010e-03
  2.735440e+00    4.802341e-01   6.157715e-03
  2.737650e+00    4.740451e-01   6.111925e-03
  2.739861e+00    4.914286e-01   6.216876e-03
  2.742071e+00    4.878874e-01   6.188659e-03
  2.744282e+00    4.878257e-01   6.181983e-03
  2.746492e+00    4.908120e-01   6.194803e-03
  2.748702e+00    4.728304e-01   6.074410e-03
  2.750913e+00    4.765964e-01   6.092786e-03
  2.753123e+00    4.849434e-01   6.139770e-03
  2.755334e+00    4.791446e-01   6.096907e-03
  2.757544e+00    4.739554e-01   6.058075e-03
  2.759755e+00    4.689162e-01   6.019986e-03
  2.761965e+00    4.768636e-01   6.064814e-03
  2.764176e+00    4.903740e-01   6.144077e-03
  2.766386e+00    4.828158e-01   6.090753e-03
  2.768597e+00    4.828155e-01   6.084851e-03
  2.770807e+00    4.808505e-01   6.066576e-03
  2.773017e+00    4.805839e-01   6.058914e-03
  2.775228e+00    4.730167e-01   6.005275e-03
  2.777438e+00    4.733959e-01   6.001903e-03
  2.779649e+00    4.704911e-01   5.977628e-03
  2.781859e+00    4.638682e-01   5.929706e-03
  2.784070e+00    4.801046e-01   6.026716e-03
  2.786280e+00    4.790772e-01   6.014499e-03
  2.788491e+00    4.748265e-01   5.981916e-03
  2.790701e+00    4.845443e-01   6.037137e-03
  2.792912e+00    4.718316e-01   5.951486e-03
  2.795122e+00    4.778289e-01   5.983420e-03
  2.797333e+00    4.803481e-01   5.993606e-03
  2.799543e+00    4.703839e-01   5.925281e-03
  2.801753e+00    4.775756e-01   5.964531e-03
  2.803964e+00    4.862323e-01   6.012618e-03
  2.806174e+00    4.766601e-01   5.946998e-03
  2.808385e+00    4.739473e-01   5.923248e-03
  2.810595e+00    4.747767e-01   5.921563e-03
  2.812806e+00    4.747994e-01   5.915092e-03
  2.815016e+00    4.740065e-01   5.905421e-03
  2.817227e+00    4.628288e-01   5.860978e-03
  2.819437e+00    4.643700e-01   5.881709e-03
  2.821648e+00    4.737958e-01   5.943389e-03
  2.823858e+00    4.779321e-01   5.974635e-03
  2.826068e+00    4.694510e-01   5.926366e-03
  2.828279e+00    4.666352e-01   5.912560e-03
  2.830489e+00    4.756466e-01   5.972734e-03
  2.832700e+00    4.740726e-01   5.965414e-03
  2.834910e+00    4.703444e-01   5.943966e-03
  2.837121e+00    4.622396e-01   5.894219e-03
  2.839331e+00    4.687130e-01   5.936584e-03
  2.841542e+00    4.505468e-01   5.821403e-03
  2.843752e+00    4.623135e-01   5.897691e-03
  2.845963e+00    4.636097e-01   5.906352e-03
  2.848173e+00    4.611631e-01   5.890841e-03
  2.850383e+00    4.613682e-01   5.892441e-03
  2.852594e+00    4.625744e-01   5.900050e-03
  2.854804e+00    4.739781e-01   5.971821e-03
  2.857015e+00    4.755477e-01   5.981284e-03
  2.859225e+00    4.748964e-01   5.976914e-03
  2.861436e+00    4.740443e-01   5.970903e-03
  2.863646e+00    4.722869e-01   5.959865e-03
  2.865857e+00    4.608278e-01   5.887464e-03
  2.868067e+00    4.479240e-01   5.804657e-03
  2.870278e+00    4.552774e-01   5.851753e-03
  2.872488e+00    4.574093e-01   5.864296e-03
  2.874698e+00    4.535678e-01   5.838590e-03
  2.876909e+00    4.495612e-01   5.811426e-03
  2.879119e+00    4.557355e-01   5.849585e-03
  2.881330e+00    4.559477e-01   5.849498e-03
  2.883540e+00    4.418756e-01   5.757157e-03
  2.885751e+00    4.641979e-01   5.899127e-03
  2.887961e+00    4.591521e-01   5.865111e-03
  2.890172e+00    4.618851e-01   5.880929e-03
  2.892382e+00    4.642665e-01   5.894267e-03
  2.894593e+00    4.587696e-01   5.857471e-03
  2.896803e+00    4.511612e-01   5.806712e-03
  2.899014e+00    4.517390e-01   5.808546e-03
  2.901224e+00    4.574160e-01   5.842939e-03
  2.903434e+00    4.487470e-01   5.785396e-03
  2.905645e+00    4.457764e-01   5.764017e-03
  2.907855e+00    4.650882e-01   5.885430e-03
  2.910066e+00    4.492038e-01   5.782017e-03
  2.912276e+00    4.436869e-01   5.744305e-03
  2.914487e+00    4.379159e-01   5.704418e-03
  2.916697e+00    4.406963e-01   5.720321e-03
  2.918908e+00    4.414286e-01   5.723107e-03
  2.921118e+00    4.425134e-01   5.727488e-03
  2.923329e+00    4.551672e-01   5.806471e-03
  2.925539e+00    4.589167e-01   5.828083e-03
  2.927749e+00    4.545584e-01   5.798026e-03
  2.929960e+00    4.521269e-01   5.779726e-03
  2.932170e+00    4.606229e-01   5.831460e-03
  2.934381e+00    4.476765e-01   5.746507e-03
  2.936591e+00    4.641957e-01   5.848941e-03
  2.938802e+00    4.597137e-01   5.817955e-03
  2.941012e+00    4.484373e-01   5.743809e-03
  2.943223e+00    4.591169e-01   5.809110e-03
  2.945433e+00    4.438864e-01   5.708254e-03
  2.947644e+00    4.535711e-01   5.766068e-03
  2.949854e+00    4.583108e-01   5.791819e-03
  2.952064e+00    4.538236e-01   5.759200e-03
  2.954275e+00    4.379297e-01   5.653116e-03
  2.956485e+00    4.424880e-01   5.678322e-03
  2.958696e+00    4.606867e-01   5.789511e-03
  2.960906e+00    4.611959e-01   5.788520e-03
  2.963117e+00    4.467387e-01   5.692605e-03
  2.965327e+00    4.680356e-01   5.822756e-03
  2.967538e+00    4.684007e-01   5.822086e-03
  2.969748e+00    4.559635e-01   5.741442e-03
  2.971959e+00    4.484926e-01   5.691104e-03
  2.974169e+00    4.512756e-01   5.706134e-03
  2.976379e+00    4.550742e-01   5.727203e-03
  2.978590e+00    4.510490e-01   5.698678e-03
  2.980800e+00    4.573626e-01   5.735619e-03
  2.983011e+00    4.605683e-01   5.752868e-03
  2.985221e+00    4.555532e-01   5.718306e-03
  2.987432e+00    4.622281e-01   5.756901e-03
  2.989642e+00    4.678498e-01   5.789147e-03
  2.991853e+00    4.649959e-01   5.768141e-03
  2.994063e+00    4.537911e-01   5.695321e-03
  2.996274e+00    4.522196e-01   5.682262e-03
  2.998484e+00    4.582042e-01   5.717021e-03
  3.000694e+00    4.715097e-01   5.795921e-03
  3.002905e+00    4.685811e-01   5.774905e-03
  3.005115e+00    4.678332e-01   5.767273e-03
  3.007326e+00    4.460811e-01   5.628474e-03
  3.009536e+00    4.557040e-01   5.685581e-03
  3.011747e+00    4.671550e-01   5.753618e-03
  3.013957e+00    4.619522e-01   5.718289e-03
  3.016168e+00    4.569362e-01   5.683879e-03
  3.018378e+00    4.569113e-01   5.680670e-03
  3.020589e+00    4.570751e-01   5.678458e-03
  3.022799e+00    4.439959e-01   5.593497e-03
  3.025010e+00    4.593039e-01   5.685837e-03
  3.027220e+00    4.621564e-01   5.700315e-03
  3.029430e+00    4.621621e-01   5.697079e-03
  3.031641e+00    4.541543e-01   5.644365e-03
  3.033851e+00    4.476290e-01   5.600165e-03
  3.036062e+00    4.408526e-01   5.554867e-03
  3.038272e+00    4.653216e-01   5.703293e-03
  3.040483e+00    4.750504e-01   5.759324e-03
  3.042693e+00    4.674857e-01   5.709963e-03
  3.044904e+00    4.590477e-01   5.654146e-03
  3.047114e+00    4.537139e-01   5.616364e-03
  3.049325e+00    4.524916e-01   5.604393e-03
  3.051535e+00    4.485215e-01   5.575377e-03
  3.053745e+00    4.394851e-01   5.514234e-03
  3.055956e+00    4.494849e-01   5.572044e-03
  3.058166e+00    4.456921e-01   5.544248e-03
  3.060377e+00    4.423122e-01   5.518458e-03
  3.062587e+00    4.582322e-01   5.612211e-03
  3.064798e+00    4.549902e-01   5.588063e-03
  3.067008e+00    4.535628e-01   5.574529e-03
  3.069219e+00    4.513382e-01   5.556332e-03
  3.071429e+00    4.457221e-01   5.518145e-03
  3.073640e+00    4.496713e-01   5.539216e-03
  3.075850e+00    4.390947e-01   5.470138e-03
  3.078060e+00    4.461740e-01   5.510960e-03
  3.080271e+00    4.433389e-01   5.489977e-03
  3.082481e+00    4.475054e-01   5.512261e-03
  3.084692e+00    4.436126e-01   5.484884e-03
  3.086902e+00    4.496934e-01   5.519080e-03
  3.089113e+00    4.595228e-01   5.575473e-03
  3.091323e+00    4.545836e-01   5.542027e-03
  3.093534e+00    4.511828e-01   5.517876e-03
  3.095744e+00    4.432244e-01   5.465632e-03
  3.097955e+00    4.373558e-01   5.425825e-03
  3.100165e+00    4.415649e-01   5.448555e-03
  3.102375e+00    4.415350e-01   5.444959e-03
  3.104586e+00    4.427357e-01   5.448896e-03
  3.106796e+00    4.418103e-01   5.439700e-03
  3.109007e+00    4.425668e-01   5.441137e-03
  3.111217e+00    4.438099e-01   5.445099e-03
  3.113428e+00    4.485399e-01   5.470605e-03
  3.115638e+00    4.365062e-01   5.393543e-03
  3.117849e+00    4.403413e-01   5.413453e-03
  3.120059e+00    4.575110e-01   5.514478e-03
  3.122270e+00    4.458770e-01   5.440668e-03
  3.124480e+00    4.441275e-01   5.426288e-03
  3.126691e+00    4.469547e-01   5.439965e-03
  3.128901e+00    4.526297e-01   5.471241e-03
  3.131111e+00    4.482956e-01   5.441110e-03
  3.133322e+00    4.509566e-01   5.453799e-03
  3.135532e+00    4.445912e-01   5.411743e-03
  3.137743e+00    4.533754e-01   5.461431e-03
  3.139953e+00    4.499328e-01   5.436943e-03
  3.142164e+00    4.465322e-01   5.428434e-03
  3.144374e+00    4.469871e-01   5.459745e-03
  3.146585e+00    4.449320e-01   5.461775e-03
  3.148795e+00    4.421677e-01   5.455582e-03
  3.151006e+00    4.388990e-01   5.443867e-03
  3.153216e+00    4.473846e-01   5.503438e-03
  3.155426e+00    4.435885e-01   5.486370e-03
  3.157637e+00    4.415565e-01   5.479310e-03
  3.159847e+00    4.464314e-01   5.514381e-03
  3.162058e+00    4.338965e-01   5.440829e-03
  3.164268e+00    4.325810e-01   5.436577e-03
  3.166479e+00    4.408588e-01   5.492030e-03
  3.168689e+00    4.314483e-01   5.436410e-03
  3.170900e+00    4.330177e-01   5.449455e-03
  3.173110e+00    4.526503e-01   5.574522e-03
  3.175321e+00    4.370619e-01   5.480210e-03
  3.177531e+00    4.414638e-01   5.510460e-03
  3.179741e+00    4.461582e-01   5.541785e-03
  3.181952e+00    4.469483e-01   5.548819e-03
  3.184162e+00    4.389086e-01   5.500901e-03
  3.186373e+00    4.435410e-01   5.531437e-03
  3.188583e+00    4.445001e-01   5.539224e-03
  3.190794e+00    4.412245e-01   5.520562e-03
  3.193004e+00    4.333403e-01   5.472229e-03
  3.195215e+00    4.331156e-01   5.472329e-03
  3.197425e+00    4.336925e-01   5.477161e-03
  3.199636e+00    4.365078e-01   5.494140e-03
  3.201846e+00    4.308089e-01   5.457572e-03
  3.204056e+00    4.373062e-01   5.499457e-03
  3.206267e+00    4.352253e-01   5.487200e-03
  3.208477e+00    4.340701e-01   5.480852e-03
  3.210688e+00    4.350683e-01   5.487968e-03
  3.212898e+00    4.394520e-01   5.516153e-03
  3.215109e+00    4.290264e-01   5.451079e-03
  3.217319e+00    4.249355e-01   5.425641e-03
  3.219530e+00    4.340497e-01   5.483924e-03
  3.221740e+00    4.200365e-01   5.395227e-03
  3.223951e+00    4.392455e-01   5.517670e-03
  3.226161e+00    4.386567e-01   5.514191e-03
  3.228372e+00    4.369311e-01   5.503864e-03
  3.230582e+00    4.180783e-01   5.383939e-03
  3.232792e+00    4.278601e-01   5.446793e-03
  3.235003e+00    4.160379e-01   5.371244e-03
  3.237213e+00    4.344562e-01   5.488959e-03
  3.239424e+00    4.310510e-01   5.467400e-03
  3.241634e+00    4.386564e-01   5.515558e-03
  3.243845e+00    4.302455e-01   5.462504e-03
  3.246055e+00    4.194905e-01   5.393503e-03
  3.248266e+00    4.247112e-01   5.427184e-03
  3.250476e+00    4.237351e-01   5.420628e-03
  3.252687e+00    4.266514e-01   5.439174e-03
  3.254897e+00    4.232316e-01   5.417221e-03
  3.257107e+00    4.130804e-01   5.351551e-03
  3.259318e+00    4.222731e-01   5.410525e-03
  3.261528e+00    4.223991e-01   5.411198e-03
  3.263739e+00    4.280000e-01   5.446382e-03
  3.265949e+00    4.318005e-01   5.470412e-03
  3.268160e+00    4.321542e-01   5.472212e-03
  3.270370e+00    4.300767e-01   5.458551e-03
  3.272581e+00    4.317726e-01   5.469006e-03
  3.274791e+00    4.379264e-01   5.507310e-03
  3.277002e+00    4.236615e-01   5.416327e-03
  3.279212e+00    4.281874e-01   5.444779e-03
  3.281422e+00    4.258665e-01   5.429425e-03
  3.283633e+00    4.306541e-01   5.459172e-03
  3.285843e+00    4.378897e-01   5.504523e-03
  3.288054e+00    4.115434e-01   5.335412e-03
  3.290264e+00    4.194173e-01   5.385906e-03
  3.292475e+00    4.220010e-01   5.401627e-03
  3.294685e+00    4.202342e-01   5.389683e-03
  3.296896e+00    4.236681e-01   5.410904e-03
  3.299106e+00    4.101715e-01   5.323486e-03
  3.301317e+00    4.252424e-01   5.419349e-03
  3.303527e+00    4.460232e-01   5.549715e-03
  3.305737e+00    4.419212e-01   5.523085e-03
  3.307948e+00    4.213799e-01   5.392532e-03
  3.310158e+00    4.166416e-01   5.361259e-03
  3.312369e+00    4.184405e-01   5.371963e-03
  3.314579e+00    4.087256e-01   5.308320e-03
  3.316790e+00    4.224145e-01   5.395772e-03
  3.319000e+00    4.188710e-01   5.371947e-03
  3.321211e+00    4.151770e-01   5.347569e-03
  3.323421e+00    4.137363e-01   5.337122e-03
  3.325632e+00    4.174258e-01   5.359960e-03
  3.327842e+00    4.200641e-01   5.375960e-03
  3.330052e+00    4.197344e-01   5.372793e-03
  3.332263e+00    4.193516e-01   5.369309e-03
  3.334473e+00    4.280265e-01   5.423669e-03
  3.336684e+00    4.229907e-01   5.390391e-03
  3.338894e+00    4.171408e-01   5.352156e-03
  3.341105e+00    4.194760e-01   5.365895e-03
  3.343315e+00    4.157739e-01   5.341056e-03
  3.345526e+00    4.206643e-01   5.371447e-03
  3.347736e+00    4.225628e-01   5.382169e-03
  3.349947e+00    4.148469e-01   5.331852e-03
  3.352157e+00    4.219965e-01   5.376432e-03
  3.354368e+00    4.318364e-01   5.437428e-03
  3.356578e+00    4.287148e-01   5.416749e-03
  3.358788e+00    4.215771e-01   5.370090e-03
  3.360999e+00    4.343907e-01   5.449848e-03
  3.363209e+00    4.225425e-01   5.373981e-03
  3.365420e+00    4.280536e-01   5.407371e-03
  3.367630e+00    4.289304e-01   5.411888e-03
  3.369841e+00    4.174162e-01   5.337330e-03
  3.372051e+00    4.224243e-01   5.367253e-03
  3.374262e+00    4.227897e-01   5.367116e-03
  3.376472e+00    4.206553e-01   5.351102e-03
  3.378683e+00    4.166491e-01   5.323065e-03
  3.380893e+00    4.146803e-01   5.308116e-03
  3.383103e+00    4.033085e-01   5.232169e-03
  3.385314e+00    4.255626e-01   5.372333e-03
  3.387524e+00    4.196101e-01   5.331868e-03
  3.389735e+00    4.252273e-01   5.364773e-03
  3.391945e+00    4.252221e-01   5.361030e-03
  3.394156e+00    4.164251e-01   5.301031e-03
  3.396366e+00    4.299785e-01   5.383135e-03
  3.398577e+00    4.079064e-01   5.240118e-03
  3.400787e+00    4.098163e-01   5.264240e-03
  3.402998e+00    4.077736e-01   5.289106e-03
  3.405208e+00    3.914844e-01   5.202662e-03
  3.407418e+00    3.980856e-01   5.262080e-03
  3.409629e+00    3.939199e-01   5.248306e-03
  3.411839e+00    3.925734e-01   5.251000e-03
  3.414050e+00    3.911369e-01   5.252304e-03
  3.416260e+00    3.886766e-01   5.245329e-03
  3.418471e+00    3.910146e-01   5.270461e-03
  3.420681e+00    3.996999e-01   5.337249e-03
  3.422892e+00    3.792990e-01   5.207154e-03
  3.425102e+00    3.751604e-01   5.186321e-03
  3.427313e+00    3.878630e-01   5.280565e-03
  3.429523e+00    3.948984e-01   5.335391e-03
  3.431733e+00    3.753171e-01   5.208000e-03
  3.433944e+00    3.835560e-01   5.271331e-03
  3.436154e+00    3.688441e-01   5.175371e-03
  3.438365e+00    3.790624e-01   5.252476e-03
  3.440575e+00    3.845741e-01   5.296470e-03
  3.442786e+00    3.793452e-01   5.265967e-03
  3.444996e+00    3.795743e-01   5.273087e-03
  3.447207e+00    3.638030e-01   5.167567e-03
  3.449417e+00    3.673312e-01   5.233147e-03
  3.451628e+00    3.824997e-01   5.370083e-03
  3.453838e+00    3.654999e-01   5.270507e-03
  3.456049e+00    3.693295e-01   5.322023e-03
  3.458259e+00    3.738101e-01   5.376339e-03
  3.460469e+00    3.649716e-01   5.332180e-03
  3.462680e+00    3.565721e-01   5.289241e-03
  3.464890e+00    3.603971e-01   5.335216e-03
  3.467101e+00    3.643019e-01   5.381397e-03
  3.469311e+00    3.800946e-01   5.513570e-03
  3.471522e+00    3.900395e-01   5.601984e-03
  3.473732e+00    3.886397e-01   5.608055e-03
  3.475943e+00    4.026293e-01   5.724229e-03
  3.478153e+00    3.996858e-01   5.718909e-03
  3.480364e+00    4.139572e-01   5.835681e-03
  3.482574e+00    4.215034e-01   5.904292e-03
  3.484784e+00    4.178320e-01   5.893529e-03
  3.486995e+00    4.362299e-01   6.037338e-03
  3.489205e+00    4.352601e-01   6.045514e-03
  3.491416e+00    4.404827e-01   6.096812e-03
  3.493626e+00    4.417447e-01   6.120259e-03
  3.495837e+00    4.414925e-01   6.133259e-03
  3.498047e+00    4.443010e-01   6.167247e-03
  3.500258e+00    4.426006e-01   6.169847e-03
  3.502468e+00    4.558825e-01   6.276179e-03
  3.504679e+00    4.716858e-01   6.398699e-03
  3.506889e+00    4.682769e-01   6.390018e-03
  3.509099e+00    4.818556e-01   6.496514e-03
  3.511310e+00    4.767666e-01   6.476615e-03
  3.513520e+00    4.951910e-01   6.615144e-03
  3.515731e+00    4.931908e-01   6.616299e-03
  3.517941e+00    4.884612e-01   6.598807e-03
  3.520152e+00    4.981707e-01   6.678437e-03
  3.522362e+00    5.078545e-01   6.757632e-03
  3.524573e+00    4.978244e-01   6.704737e-03
  3.526783e+00    5.192813e-01   6.861117e-03
  3.528994e+00    5.138998e-01   6.837749e-03
  3.531204e+00    5.110954e-01   6.831348e-03
  3.533414e+00    5.488403e-01   7.091449e-03
  3.535625e+00    5.469939e-01   7.092154e-03
  3.537835e+00    5.414752e-01   7.068451e-03
  3.540046e+00    5.456858e-01   7.104928e-03
  3.542256e+00    5.516679e-01   7.151400e-03
  3.544467e+00    5.548347e-01   7.179631e-03
  3.546677e+00    5.420312e-01   7.103965e-03
  3.548888e+00    5.609904e-01   7.234777e-03
  3.551098e+00    5.610589e-01   7.242703e-03
  3.553309e+00    5.468560e-01   7.158675e-03
  3.555519e+00    5.455859e-01   7.161756e-03
  3.557729e+00    5.299727e-01   7.070187e-03
  3.559940e+00    5.457610e-01   7.186392e-03
  3.562150e+00    5.254821e-01   7.063229e-03
  3.564361e+00    5.341504e-01   7.134482e-03
  3.566571e+00    5.498416e-01   7.252557e-03
  3.568782e+00    5.548460e-01   7.299860e-03
  3.570992e+00    5.455949e-01   7.252624e-03
  3.573203e+00    5.428901e-01   7.248859e-03
  3.575413e+00    5.214711e-01   7.118023e-03
  3.577624e+00    5.304791e-01   7.193259e-03
  3.579834e+00    5.267429e-01   7.181661e-03
  3.582045e+00    5.275798e-01   7.201282e-03
  3.584255e+00    5.182968e-01   7.151470e-03
  3.586465e+00    5.446391e-01   7.344988e-03
  3.588676e+00    5.311964e-01   7.267896e-03
  3.590886e+00    5.347125e-01   7.305633e-03
  3.593097e+00    5.237937e-01   7.244980e-03
  3.595307e+00    5.342668e-01   7.330969e-03
  3.597518e+00    5.114907e-01   7.186901e-03
  3.599728e+00    5.193962e-01   7.256086e-03
  3.601939e+00    5.322766e-01   7.359549e-03
  3.604149e+00    5.305503e-01   7.361910e-03
  3.606360e+00    5.254053e-01   7.340205e-03
  3.608570e+00    5.231155e-01   7.338130e-03
  3.610780e+00    5.282207e-01   7.384859e-03
  3.612991e+00    5.398341e-01   7.475670e-03
  3.615201e+00    5.207453e-01   7.351964e-03
  3.617412e+00    5.237080e-01   7.380054e-03
  3.619622e+00    5.225615e-01   7.377855e-03
  3.621833e+00    5.492805e-01   7.570889e-03
  3.624043e+00    5.243354e-01   7.406472e-03
  3.626254e+00    5.197371e-01   7.383437e-03
  3.628464e+00    5.275755e-01   7.449818e-03
  3.630675e+00    5.215640e-01   7.421238e-03
  3.632885e+00    5.196757e-01   7.422013e-03
  3.635095e+00    5.266337e-01   7.485850e-03
  3.637306e+00    5.443690e-01   7.625341e-03
  3.639516e+00    5.536300e-01   7.704777e-03
  3.641727e+00    5.212429e-01   7.490417e-03
  3.643937e+00    5.394213e-01   7.634498e-03
  3.646148e+00    5.466138e-01   7.700084e-03
  3.648358e+00    5.303802e-01   7.599694e-03
  3.650569e+00    5.080734e-01   7.452522e-03
  3.652779e+00    5.268078e-01   7.603373e-03
  3.654990e+00    5.291222e-01   7.634898e-03
  3.657200e+00    5.262887e-01   7.629253e-03
  3.659410e+00    5.240936e-01   7.628160e-03
  3.661621e+00    5.339634e-01   7.714794e-03
  3.663831e+00    5.284368e-01   7.689834e-03
  3.666042e+00    5.463526e-01   7.834454e-03
  3.668252e+00    5.292631e-01   7.726225e-03
  3.670463e+00    5.162743e-01   7.645817e-03
  3.672673e+00    5.162903e-01   7.661131e-03
  3.674884e+00    5.161841e-01   7.675538e-03
  3.677094e+00    5.330410e-01   7.815409e-03
  3.679305e+00    5.337293e-01   7.836055e-03
  3.681515e+00    5.469640e-01   7.948468e-03
  3.683726e+00    5.487796e-01   7.977756e-03
  3.685936e+00    5.527850e-01   8.022849e-03
  3.688146e+00    5.213684e-01   7.807270e-03
  3.690357e+00    4.932337e-01   7.609061e-03
  3.692567e+00    5.218617e-01   7.842758e-03
  3.694778e+00    5.437941e-01   8.022273e-03
  3.696988e+00    5.344513e-01   7.969123e-03
  3.699199e+00    5.419601e-01   8.041410e-03
  3.701409e+00    5.043283e-01   7.773259e-03
  3.703620e+00    5.291098e-01   7.978315e-03
  3.705830e+00    5.123006e-01   7.866792e-03
  3.708041e+00    5.102080e-01   7.867066e-03
  3.710251e+00    5.079301e-01   7.865922e-03
  3.712461e+00    5.359203e-01   8.096721e-03
  3.714672e+00    5.187640e-01   7.982783e-03
  3.716882e+00    5.219859e-01   8.024209e-03
  3.719093e+00    5.089607e-01   7.940452e-03
  3.721303e+00    5.155835e-01   8.008813e-03
  3.723514e+00    5.164635e-01   8.032881e-03
  3.725724e+00    5.041584e-01   7.953520e-03
  3.727935e+00    5.195206e-01   8.091268e-03
  3.730145e+00    5.020849e-01   7.971426e-03
  3.732356e+00    5.071022e-01   8.028510e-03
  3.734566e+00    5.261708e-01   8.195810e-03
  3.736776e+00    5.243976e-01   8.199887e-03
  3.738987e+00    5.101795e-01   8.105665e-03
  3.741197e+00    5.014889e-01   8.054117e-03
  3.743408e+00    4.850760e-01   7.938779e-03
  3.745618e+00    4.898644e-01   7.995761e-03
  3.747829e+00    4.964559e-01   8.067146e-03
  3.750039e+00    5.106109e-01   8.199718e-03
  3.752250e+00    5.063758e-01   8.184089e-03
  3.754460e+00    5.032432e-01   8.177122e-03
  3.756671e+00    5.007274e-01   8.175296e-03
  3.758881e+00    5.068250e-01   8.243528e-03
  3.761091e+00    5.013571e-01   8.217921e-03
  3.763302e+00    5.089324e-01   8.298882e-03
  3.765512e+00    5.221047e-01   8.425113e-03
  3.767723e+00    4.928306e-01   8.204622e-03
  3.769933e+00    4.982968e-01   8.269158e-03
  3.772144e+00    4.844673e-01   8.172744e-03
  3.774354e+00    4.982229e-01   8.307652e-03
  3.776565e+00    5.173706e-01   8.485891e-03
  3.778775e+00    4.985901e-01   8.350288e-03
  3.780986e+00    4.823040e-01   8.232646e-03
  3.783196e+00    4.899642e-01   8.317732e-03
  3.785407e+00    4.961508e-01   8.390314e-03
  3.787617e+00    5.149754e-01   8.569075e-03
  3.789827e+00    5.057063e-01   8.512166e-03
  3.792038e+00    5.050197e-01   8.527323e-03
  3.794248e+00    4.945913e-01   8.459844e-03
  3.796459e+00    4.999608e-01   8.526902e-03
  3.798669e+00    5.142412e-01   8.669538e-03
  3.800880e+00    5.158200e-01   8.704577e-03
  3.803090e+00    5.138203e-01   8.709865e-03
  3.805301e+00    4.906795e-01   8.533302e-03
  3.807511e+00    4.996479e-01   8.632933e-03
  3.809722e+00    5.026584e-01   8.681219e-03
  3.811932e+00    4.917936e-01   8.608896e-03
  3.814142e+00    5.142909e-01   8.826869e-03
  3.816353e+00    5.025865e-01   8.748761e-03
  3.818563e+00    4.713378e-01   8.494875e-03
  3.820774e+00    4.659449e-01   8.468507e-03
  3.822984e+00    5.202883e-01   8.972574e-03
  3.825195e+00    5.176889e-01   8.974452e-03
  3.827405e+00    5.008050e-01   8.850801e-03
  3.829616e+00    4.819199e-01   8.705980e-03
  3.831826e+00    5.063064e-01   8.947937e-03
  3.834037e+00    4.946007e-01   8.868345e-03
  3.836247e+00    4.954234e-01   8.900399e-03
  3.838457e+00    4.762789e-01   8.751174e-03
  3.840668e+00    5.123555e-01   9.102223e-03
  3.842878e+00    4.872182e-01   8.901416e-03
  3.845089e+00    4.693588e-01   8.761587e-03
  3.847299e+00    5.125552e-01   9.182116e-03
  3.849510e+00    5.018449e-01   9.111773e-03
  3.851720e+00    5.122430e-01   9.227410e-03
  3.853931e+00    4.992997e-01   9.129226e-03
  3.856141e+00    4.879780e-01   9.043951e-03
  3.858352e+00    4.935302e-01   9.114529e-03
  3.860562e+00    4.767926e-01   8.977608e-03
  3.862772e+00    4.875881e-01   9.098065e-03
  3.864983e+00    5.119853e-01   9.343015e-03
  3.867193e+00    5.048768e-01   9.297880e-03
  3.869404e+00    5.043902e-01   9.313458e-03
  3.871614e+00    5.031904e-01   9.322563e-03
  3.873825e+00    4.952934e-01   9.269477e-03
  3.876035e+00    4.844733e-01   9.188036e-03
  3.878246e+00    4.993763e-01   9.354254e-03
  3.880456e+00    5.102963e-01   9.485460e-03
  3.882667e+00    5.062184e-01   9.477268e-03
  3.884877e+00    5.007725e-01   9.456155e-03
  3.887087e+00    4.955721e-01   9.436988e-03
  3.889298e+00    4.787900e-01   9.305847e-03
  3.891508e+00    4.891003e-01   9.435925e-03
  3.893719e+00    4.919752e-01   9.494660e-03
  3.895929e+00    5.064563e-01   9.665290e-03
  3.898140e+00    5.108715e-01   9.739722e-03
  3.900350e+00    5.138386e-01   9.800811e-03
  3.902561e+00    5.422016e-01   1.010178e-02
  3.904771e+00    4.947502e-01   9.682571e-03
  3.906982e+00    4.952202e-01   9.720497e-03
  3.909192e+00    5.079759e-01   9.879018e-03
  3.911403e+00    5.080165e-01   9.914113e-03
  3.913613e+00    5.018626e-01   9.888594e-03
  3.915823e+00    5.034488e-01   9.939541e-03
  3.918034e+00    4.856505e-01   9.797420e-03
  3.920244e+00    4.874873e-01   9.851630e-03
  3.922455e+00    4.842502e-01   9.854821e-03
  3.924665e+00    4.930715e-01   9.980748e-03
  3.926876e+00    5.025544e-01   1.011397e-02
  3.929086e+00    4.904796e-01   1.002914e-02
  3.931297e+00    5.120912e-01   1.028346e-02
  3.933507e+00    5.049646e-01   1.024107e-02
  3.935718e+00    4.978493e-01   1.019768e-02
  3.937928e+00    5.029315e-01   1.027959e-02
  3.940138e+00    4.795862e-01   1.006722e-02
  3.942349e+00    5.165956e-01   1.047918e-02
  3.944559e+00    5.221685e-01   1.056673e-02
  3.946770e+00    4.367782e-01   9.692715e-03
  3.948980e+00    4.604977e-01   9.982242e-03
  3.951191e+00    5.009590e-01   1.044288e-02
  3.953401e+00    4.847288e-01   1.030370e-02
  3.955612e+00    4.651238e-01   1.012403e-02
  3.957822e+00    4.952932e-01   1.047925e-02
  3.960033e+00    4.976764e-01   1.053746e-02
  3.962243e+00    4.993573e-01   1.058852e-02
  3.964453e+00    4.609875e-01   1.020590e-02
  3.966664e+00    4.874204e-01   1.052774e-02
  3.968874e+00    5.234491e-01   1.093946e-02
  3.971085e+00    5.179901e-01   1.090498e-02
  3.973295e+00    4.820788e-01   1.054156e-02
  3.975506e+00    4.908122e-01   1.065826e-02
  3.977716e+00    4.747632e-01   1.050441e-02
  3.979927e+00    4.791904e-01   1.057513e-02
  3.982137e+00    4.557725e-01   1.033518e-02
  3.984348e+00    4.578194e-01   1.038030e-02
  3.986558e+00    4.819391e-01   1.067234e-02
  3.988768e+00    4.968752e-01   1.085987e-02
  3.990979e+00    4.701138e-01   1.058578e-02
  3.993189e+00    4.791222e-01   1.070947e-02
  3.995400e+00    5.352085e-01   1.134384e-02
  3.997610e+00    4.764701e-01   1.073284e-02
  3.999821e+00    4.797440e-01   1.080693e-02
  4.002031e+00    4.824655e-01   1.087587e-02
  4.004242e+00    4.626882e-01   1.068817e-02
  4.006452e+00    4.948509e-01   1.109320e-02
  4.008663e+00    5.118585e-01   1.132336e-02
  4.010873e+00    4.840705e-01   1.105169e-02
  4.013084e+00    4.758079e-01   1.099741e-02
  4.015294e+00    5.012022e-01   1.132884e-02
  4.017504e+00    4.992250e-01   1.134902e-02
  4.019715e+00    4.308732e-01   1.058355e-02
  4.021925e+00    4.851730e-01   1.127356e-02
  4.024136e+00    4.998014e-01   1.148681e-02
  4.026346e+00    4.998020e-01   1.153164e-02
  4.028557e+00    4.811200e-01   1.135821e-02
  4.030767e+00    4.768342e-01   1.135287e-02
  4.032978e+00    5.035596e-01   1.171392e-02
  4.035188e+00    4.501249e-01   1.111958e-02
  4.037399e+00    4.591802e-01   1.127703e-02
  4.039609e+00    5.431486e-01   1.231560e-02
  4.041819e+00    5.194278e-01   1.209428e-02
  4.044030e+00    4.886244e-01   1.178030e-02
  4.046240e+00    4.778266e-01   1.169910e-02
  4.048451e+00    4.918115e-01   1.192030e-02
  4.050661e+00    4.975587e-01   1.204214e-02
  4.052872e+00    4.678996e-01   1.172948e-02
  4.055082e+00    4.600707e-01   1.168328e-02
  4.057293e+00    4.862574e-01   1.206516e-02
  4.059503e+00    4.832726e-01   1.208259e-02
  4.061714e+00    4.962995e-01   1.230185e-02
  4.063924e+00    4.599549e-01   1.189818e-02
  4.066134e+00    4.856533e-01   1.228369e-02
  4.068345e+00    4.674987e-01   1.210993e-02
  4.070555e+00    5.223200e-01   1.286206e-02
  4.072766e+00    4.952701e-01   1.258620e-02
  4.074976e+00    5.004219e-01   1.271471e-02
  4.077187e+00    4.540744e-01   1.217177e-02
  4.079397e+00    4.896986e-01   1.270478e-02
  4.081608e+00    4.950112e-01   1.283987e-02
  4.083818e+00    4.637125e-01   1.249202e-02
  4.086029e+00    4.375913e-01   1.219904e-02
  4.088239e+00    4.798918e-01   1.284378e-02
  4.090449e+00    5.144434e-01   1.337036e-02
  4.092660e+00    5.035043e-01   1.330002e-02
  4.094870e+00    5.076699e-01   1.342949e-02
  4.097081e+00    4.586230e-01   1.283408e-02
  4.099291e+00    4.821475e-01   1.321343e-02
  4.101502e+00    5.000422e-01   1.350687e-02
  4.103712e+00    4.613068e-01   1.302137e-02
  4.105923e+00    4.855180e-01   1.341045e-02
  4.108133e+00    4.737512e-01   1.329796e-02
  4.110344e+00    5.073334e-01   1.381388e-02
  4.112554e+00    4.448729e-01   1.298677e-02
  4.114764e+00    4.746166e-01   1.346791e-02
  4.116975e+00    4.597072e-01   1.330653e-02
  4.119185e+00    5.048124e-01   1.400102e-02
  4.121396e+00    4.502026e-01   1.327658e-02
  4.123606e+00    4.524636e-01   1.336452e-02
  4.125817e+00    4.601319e-01   1.353364e-02
  4.128027e+00    4.935503e-01   1.407568e-02
  4.130238e+00    4.887688e-01   1.406721e-02
  4.132448e+00    4.596834e-01   1.370161e-02
  4.134659e+00    4.778889e-01   1.403029e-02
  4.136869e+00    4.668362e-01   1.392899e-02
  4.139080e+00    4.744059e-01   1.410478e-02
  4.141290e+00    4.913813e-01   1.441845e-02
  4.143500e+00    4.424784e-01   1.374535e-02
  4.145711e+00    4.916258e-01   1.455614e-02
  4.147921e+00    5.258423e-01   1.512345e-02
  4.150132e+00    4.858559e-01   1.460639e-02
  4.152342e+00    4.577010e-01   1.424541e-02
  4.154553e+00    5.092005e-01   1.509701e-02
  4.156763e+00    4.794981e-01   1.472266e-02
  4.158974e+00    4.991961e-01   1.509742e-02
  4.161184e+00    5.068353e-01   1.528795e-02
  4.163395e+00    5.339010e-01   1.577104e-02
  4.165605e+00    4.765468e-01   1.497759e-02
  4.167815e+00    5.220742e-01   1.575803e-02
  4.170026e+00    5.033859e-01   1.555515e-02
  4.172236e+00    5.197282e-01   1.589121e-02
  4.174447e+00    4.266732e-01   1.447686e-02
  4.176657e+00    4.606223e-01   1.512363e-02
  4.178868e+00    4.636055e-01   1.525865e-02
  4.181078e+00    4.627773e-01   1.533104e-02
  4.183289e+00    4.388850e-01   1.501513e-02
  4.185499e+00    4.814680e-01   1.581960e-02
  4.187710e+00    4.789402e-01   1.587071e-02
  4.189920e+00    4.490486e-01   1.545981e-02
  4.192130e+00    4.693043e-01   1.590116e-02
  4.194341e+00    4.875001e-01   1.630603e-02
  4.196551e+00    5.003519e-01   1.662413e-02
  4.198762e+00    4.498130e-01   1.586219e-02
  4.200972e+00    5.338746e-01   1.739302e-02
  4.203183e+00    4.622814e-01   1.629137e-02
  4.205393e+00    4.892652e-01   1.687151e-02
  4.207604e+00    4.997456e-01   1.716805e-02
  4.209814e+00    4.140481e-01   1.573354e-02
  4.212025e+00    4.236915e-01   1.602875e-02
  4.214235e+00    5.205653e-01   1.789278e-02
  4.216445e+00    4.342043e-01   1.645945e-02
  4.218656e+00    4.357696e-01   1.661276e-02
  4.220866e+00    5.132739e-01   1.816305e-02
  4.223077e+00    5.108468e-01   1.825969e-02
  4.225287e+00    4.422263e-01   1.712263e-02
  4.227498e+00    4.781223e-01   1.794349e-02
  4.229708e+00    5.034709e-01   1.856294e-02
  4.231919e+00    4.438229e-01   1.757273e-02
  4.234129e+00    4.724511e-01   1.828287e-02
  4.236340e+00    5.562238e-01   2.000696e-02
  4.238550e+00    4.879339e-01   1.890454e-02
  4.240761e+00    4.726970e-01   1.877101e-02
  4.242971e+00    5.424874e-01   2.029342e-02
  4.245181e+00    5.239170e-01   2.013046e-02
  4.247392e+00    4.639201e-01   1.911993e-02
  4.249602e+00    4.190798e-01   1.835287e-02
  4.251813e+00    4.543966e-01   1.929861e-02
  4.254023e+00    4.165306e-01   1.866356e-02
  4.256234e+00    5.245908e-01   2.116856e-02
  4.258444e+00    4.875771e-01   2.062182e-02
  4.260655e+00    4.599084e-01   2.024829e-02
  4.262865e+00    4.734270e-01   2.077677e-02
  4.265076e+00    4.203714e-01   1.980066e-02
  4.267286e+00    4.242321e-01   2.012724e-02
  4.269496e+00    3.563845e-01   1.867303e-02
  4.271707e+00    4.368647e-01   2.092868e-02
  4.273917e+00    4.837883e-01   2.230929e-02
  4.276128e+00    5.215999e-01   2.347268e-02
  4.278338e+00    4.382709e-01   2.180366e-02
  4.280549e+00    4.416184e-01   2.220018e-02
  4.282759e+00    5.071847e-01   2.413284e-02
  4.284970e+00    4.761897e-01   2.373068e-02
  4.287180e+00    5.819272e-01   2.654709e-02
  4.289391e+00    5.549638e-01   2.611981e-02
  4.291601e+00    5.270380e-01   2.565786e-02
  4.293811e+00    4.605667e-01   2.417238e-02
  4.296022e+00    4.575516e-01   2.428677e-02
  4.298232e+00    4.595141e-01   2.454273e-02
  4.300443e+00    4.808140e-01   2.531181e-02
  4.302653e+00    4.544770e-01   2.482273e-02
  4.304864e+00    4.758259e-01   2.561796e-02
  4.307074e+00    4.729470e-01   2.577078e-02
  4.309285e+00    5.169053e-01   2.718602e-02
  4.311495e+00    3.973492e-01   2.405891e-02
  4.313706e+00    5.367474e-01   2.822457e-02
  4.315916e+00    3.863951e-01   2.418421e-02
  4.318126e+00    4.348868e-01   2.590946e-02
  4.320337e+00    4.289135e-01   2.599162e-02
  4.322547e+00    5.346295e-01   2.932552e-02
  4.324758e+00    4.058112e-01   2.581657e-02
  4.326968e+00    4.278274e-01   2.680520e-02
  4.329179e+00    4.563774e-01   2.799033e-02
  4.331389e+00    4.388685e-01   2.776419e-02
  4.333600e+00    4.838722e-01   2.950137e-02
  4.335810e+00    5.038803e-01   3.046264e-02
  4.338021e+00    5.437040e-01   3.204937e-02
  4.340231e+00    4.630105e-01   2.994674e-02
  4.342442e+00    4.500176e-01   2.992000e-02
  4.344652e+00    3.906616e-01   2.825505e-02
  4.346862e+00    3.620009e-01   2.758002e-02
  4.349073e+00    4.160331e-01   2.999644e-02
  4.351283e+00    4.409336e-01   3.134285e-02
  4.353494e+00    4.662902e-01   3.272917e-02
  4.355704e+00    4.940831e-01   3.423324e-02
  4.357915e+00    5.066617e-01   3.524296e-02
  4.360125e+00    5.155733e-01   3.615870e-02
  4.362336e+00    5.610200e-01   3.840646e-02
  4.364546e+00    4.522107e-01   3.510823e-02
  4.366757e+00    4.649515e-01   3.630874e-02
  4.368967e+00    4.787962e-01   3.757983e-02
  4.371177e+00    5.104688e-01   3.962769e-02
  4.373388e+00    3.954740e-01   3.566089e-02
  4.375598e+00    4.308696e-01   3.806977e-02
  4.377809e+00    3.437542e-01   3.486586e-02
  4.380019e+00    4.509478e-01   4.093611e-02
  4.382230e+00    3.327371e-01   3.614749e-02
  4.384440e+00    2.458827e-01   3.196629e-02
  4.386651e+00    3.305183e-01   3.820306e-02
  4.388861e+00    5.299977e-01   5.000129e-02
  4.391072e+00    5.779940e-01   5.405322e-02
  4.393282e+00    4.083568e-01   4.718996e-02
  4.395492e+00    4.442130e-01   5.126183e-02
  4.397703e+00    3.704976e-01   4.895905e-02
  4.399913e+00    3.924955e-01   5.293695e-02
  4.402124e+00    5.894210e-01   6.855492e-02
  4.404334e+00    3.440695e-01   5.567358e-02
  4.406545e+00    3.511491e-01   6.043195e-02
  4.408755e+00    2.789962e-01   5.841509e-02
  4.410966e+00    3.777351e-01   7.523175e-02
  4.413176e+00    2.719348e-01   7.226057e-02
  4.415387e+00   -5.131803e-01            nan
  4.417597e+00   -1.881020e+00            nan
  4.419807e+00   -3.766224e-01            nan
