# == pyFAI calibration ==
# Distance Sample to Detector: 0.216 m
# PONI: 1.166e-01, 1.308e-01 m
# Rotations: 0.000000 0.000000 0.000000 rad
# 
# == Fit2d calibration ==
# Distance Sample-beamCenter: 216.000 mm
# Center: x=1744.293, y=1555.000 pix
# Tilt: 0.000 deg  TiltPlanRot: 0.000 deg
# 
# Detector Eiger 9M	 PixelSize= 7.500e-05, 7.500e-05 m
#    Detector has a mask: True 
#    Detector has a dark current: False 
#    detector has a flat field: False 
# 
# Wavelength: 9.8e-11 m
# Mask applied: from detector
# Dark current applied: False
# Flat field applied: False
# Polarization factor: None
# Normalization factor: 1.0
# 
# Headers of the input frame:
# {
# "_array_data.header_convention": "SLS_1.0",
# "_array_data.header_contents": "# Detector: Dectris Eiger 9M, S/N E-18-0102\r\n# Pixel_size 75e-6 m x 75e-6 m\r\n# Silicon sensor, thickness 0.000450 m\r\n# Exposure_time 0.024997 s\r\n# Exposure_period 0.025000 s\r\n# Count_cutoff 62318 counts\r\n# Wavelength 0.980106 A\r\n# Detector_distance 0.215992 m\r\n# Beam_xy (1555, 1744) pixels\r\n# Start_angle 0.000000 deg.\r\n# Angle_increment 0.000000 deg.",
# "Content-Type": "application/octet-stream;",
# "conversions": "x-CBF_BYTE_OFFSET",
# "Content-Transfer-Encoding": "BINARY",
# "X-Binary-Size": "10166590",
# "X-Binary-ID": "1",
# "X-Binary-Element-Type": "signed 32-bit integer",
# "X-Binary-Element-Byte-Order": "LITTLE_ENDIAN",
# "Content-MD5": "8UP4bv0vGm/Eztqg5WtRnQ==",
# "X-Binary-Number-of-Elements": "10166590",
# "X-Binary-Size-Fastest-Dimension": "3110",
# "X-Binary-Size-Second-Dimension": "3269",
# "X-Binary-Size-Padding": "4095"
# }
# --> H:/Proxima2a_2019-04-05/RAW_DATA/C5_gel17_position5/C5_mesh_1_data.cbf/C5_mesh_1_data.cbf000126.dat
#        q_A^-1              I           sigma 
  1.105228e-03    8.402954e-01   4.960243e-01
  3.315685e-03    1.327993e+00   3.790908e-01
  5.526141e-03    1.409225e+00   3.019690e-01
  7.736597e-03    1.963624e+00   3.011268e-01
  9.947054e-03    1.319793e+00   2.176354e-01
  1.215751e-02    1.390539e+00   2.020041e-01
  1.436797e-02    1.553676e+00   1.964066e-01
  1.657842e-02    1.407966e+00   1.740365e-01
  1.878888e-02    1.530160e+00   1.704245e-01
  2.099934e-02    1.480934e+00   1.586244e-01
  2.320979e-02    1.445525e+00   1.490547e-01
  2.542025e-02    1.551696e+00   1.475750e-01
  2.763070e-02    1.325980e+00   1.308455e-01
  2.984116e-02    1.484027e+00   1.331979e-01
  3.205162e-02    1.434693e+00   1.263763e-01
  3.426207e-02    1.480971e+00   1.241790e-01
  3.647253e-02    1.316549e+00   1.134771e-01
  3.868299e-02    1.258953e+00   1.077582e-01
  4.089344e-02    1.303506e+00   1.066442e-01
  4.310390e-02    1.547878e+00   1.131859e-01
  4.531436e-02    1.430547e+00   1.061248e-01
  4.752481e-02    1.360537e+00   1.010588e-01
  4.973527e-02    1.420655e+00   1.009476e-01
  5.194572e-02    1.486730e+00   1.010460e-01
  5.415618e-02    1.377396e+00   9.525072e-02
  5.636664e-02    1.426592e+00   9.501997e-02
  5.857709e-02    1.544165e+00   9.697539e-02
  6.078755e-02    1.449241e+00   9.222054e-02
  6.299801e-02    1.461253e+00   9.096183e-02
  6.520846e-02    1.350111e+00   8.594003e-02
  6.741892e-02    1.392794e+00   8.584072e-02
  6.962938e-02    1.430865e+00   8.561810e-02
  7.183983e-02    1.488093e+00   8.595817e-02
  7.405029e-02    1.453254e+00   8.366658e-02
  7.626074e-02    1.442878e+00   8.214954e-02
  7.847120e-02    1.397132e+00   7.968796e-02
  8.068166e-02    1.408221e+00   7.889938e-02
  8.289211e-02    1.496108e+00   8.023209e-02
  8.510257e-02    1.547208e+00   8.052371e-02
  8.731303e-02    1.492449e+00   7.807543e-02
  8.952348e-02    1.486793e+00   7.696139e-02
  9.173394e-02    1.464922e+00   7.546421e-02
  9.394439e-02    1.544893e+00   7.657704e-02
  9.615485e-02    1.511323e+00   7.486318e-02
  9.836531e-02    1.608666e+00   7.636166e-02
  1.005758e-01    1.534440e+00   7.375550e-02
  1.027862e-01    1.456488e+00   7.107902e-02
  1.049967e-01    1.464164e+00   7.051065e-02
  1.072071e-01    1.550497e+00   7.180691e-02
  1.094176e-01    1.460329e+00   6.897914e-02
  1.116280e-01    1.563955e+00   7.067269e-02
  1.138385e-01    1.530877e+00   6.923786e-02
  1.160490e-01    1.477943e+00   6.737842e-02
  1.182594e-01    1.525799e+00   6.781628e-02
  1.204699e-01    1.521104e+00   6.708727e-02
  1.226803e-01    1.501116e+00   6.603915e-02
  1.248908e-01    1.417418e+00   6.360051e-02
  1.271012e-01    1.413777e+00   6.296276e-02
  1.293117e-01    1.536438e+00   6.507305e-02
  1.315222e-01    1.613590e+00   6.612258e-02
  1.337326e-01    1.585035e+00   6.498977e-02
  1.359431e-01    1.529491e+00   6.387831e-02
  1.381535e-01    1.496992e+00   6.404428e-02
  1.403640e-01    1.523420e+00   6.488608e-02
  1.425744e-01    1.463577e+00   6.370050e-02
  1.447849e-01    1.452798e+00   6.348006e-02
  1.469953e-01    1.570670e+00   6.596377e-02
  1.492058e-01    1.609539e+00   6.669734e-02
  1.514163e-01    1.599534e+00   6.637934e-02
  1.536267e-01    1.566403e+00   6.556001e-02
  1.558372e-01    1.622671e+00   6.657984e-02
  1.580476e-01    1.643659e+00   6.684645e-02
  1.602581e-01    1.613038e+00   6.605265e-02
  1.624685e-01    1.665856e+00   6.694157e-02
  1.646790e-01    1.750864e+00   6.843128e-02
  1.668895e-01    1.716879e+00   6.756817e-02
  1.690999e-01    1.747194e+00   6.795742e-02
  1.713104e-01    1.741792e+00   6.764170e-02
  1.735208e-01    1.717139e+00   6.695247e-02
  1.757313e-01    1.783523e+00   6.802049e-02
  1.779417e-01    1.861997e+00   6.927418e-02
  1.801522e-01    1.877938e+00   6.934849e-02
  1.823626e-01    1.986993e+00   7.109619e-02
  1.845731e-01    1.985484e+00   7.083901e-02
  1.867836e-01    1.998633e+00   7.083330e-02
  1.889940e-01    1.999150e+00   7.061099e-02
  1.912045e-01    2.013558e+00   7.062831e-02
  1.934149e-01    2.016714e+00   7.044710e-02
  1.956254e-01    1.937524e+00   6.882239e-02
  1.978358e-01    1.986648e+00   6.945056e-02
  2.000463e-01    2.001767e+00   6.948333e-02
  2.022568e-01    1.972761e+00   6.875165e-02
  2.044672e-01    2.029623e+00   6.949655e-02
  2.066777e-01    2.026977e+00   6.922074e-02
  2.088881e-01    1.914710e+00   6.705637e-02
  2.110986e-01    1.919425e+00   6.690864e-02
  2.133090e-01    1.936625e+00   6.698930e-02
  2.155195e-01    1.997423e+00   6.780700e-02
  2.177300e-01    2.041970e+00   6.802036e-02
  2.199404e-01    1.966621e+00   6.499467e-02
  2.221509e-01    1.928110e+00   6.329836e-02
  2.243613e-01    1.919422e+00   6.235497e-02
  2.265718e-01    2.052263e+00   6.376595e-02
  2.287822e-01    2.100544e+00   6.387314e-02
  2.309927e-01    2.031366e+00   6.224037e-02
  2.332031e-01    2.098492e+00   6.271889e-02
  2.354136e-01    2.228513e+00   6.410886e-02
  2.376241e-01    2.308895e+00   6.474833e-02
  2.398345e-01    2.234791e+00   6.322940e-02
  2.420450e-01    2.134403e+00   6.135131e-02
  2.442554e-01    2.088121e+00   6.026444e-02
  2.464659e-01    2.093277e+00   5.993370e-02
  2.486763e-01    2.098996e+00   5.962098e-02
  2.508868e-01    2.204571e+00   6.071656e-02
  2.530973e-01    2.183571e+00   6.005206e-02
  2.553077e-01    2.180358e+00   5.964388e-02
  2.575182e-01    2.039170e+00   5.733919e-02
  2.597286e-01    1.979782e+00   5.616961e-02
  2.619391e-01    2.079026e+00   5.722887e-02
  2.641495e-01    2.050611e+00   5.652189e-02
  2.663600e-01    2.036443e+00   5.601651e-02
  2.685704e-01    2.083328e+00   5.635058e-02
  2.707809e-01    2.009932e+00   5.505525e-02
  2.729914e-01    2.053887e+00   5.536396e-02
  2.752018e-01    1.993138e+00   5.425518e-02
  2.774123e-01    2.026643e+00   5.442983e-02
  2.796227e-01    2.043431e+00   5.438446e-02
  2.818332e-01    2.036263e+00   5.401817e-02
  2.840436e-01    2.026081e+00   5.362175e-02
  2.862541e-01    2.035505e+00   5.348797e-02
  2.884646e-01    1.978606e+00   5.248482e-02
  2.906750e-01    1.920760e+00   5.146671e-02
  2.928855e-01    1.910546e+00   5.109185e-02
  2.950959e-01    1.991014e+00   5.191710e-02
  2.973064e-01    1.996734e+00   5.175796e-02
  2.995168e-01    1.983908e+00   5.135779e-02
  3.017273e-01    1.925581e+00   5.037413e-02
  3.039377e-01    1.977047e+00   5.081937e-02
  3.061482e-01    1.971246e+00   5.052524e-02
  3.083587e-01    1.878894e+00   4.911401e-02
  3.105691e-01    1.857539e+00   4.862548e-02
  3.127796e-01    1.923996e+00   4.927963e-02
  3.149900e-01    1.931947e+00   4.917561e-02
  3.172005e-01    1.949890e+00   4.920141e-02
  3.194109e-01    1.936987e+00   4.883593e-02
  3.216214e-01    1.878762e+00   4.790008e-02
  3.238319e-01    1.898778e+00   4.796377e-02
  3.260423e-01    1.858621e+00   4.726488e-02
  3.282528e-01    1.833312e+00   4.675508e-02
  3.304632e-01    1.845895e+00   4.673351e-02
  3.326737e-01    1.839060e+00   4.646491e-02
  3.348841e-01    1.798618e+00   4.577298e-02
  3.370946e-01    1.791603e+00   4.551174e-02
  3.393050e-01    1.849960e+00   4.607184e-02
  3.415155e-01    1.800819e+00   4.528491e-02
  3.437260e-01    1.762679e+00   4.463673e-02
  3.459364e-01    1.802976e+00   4.497707e-02
  3.481469e-01    1.801223e+00   4.479111e-02
  3.503573e-01    1.792205e+00   4.451609e-02
  3.525678e-01    1.785773e+00   4.427777e-02
  3.547782e-01    1.810551e+00   4.442276e-02
  3.569887e-01    1.844944e+00   4.468380e-02
  3.591992e-01    1.856499e+00   4.466492e-02
  3.614096e-01    1.792454e+00   4.373558e-02
  3.636201e-01    1.788529e+00   4.353411e-02
  3.658305e-01    1.829117e+00   4.387516e-02
  3.680410e-01    1.802629e+00   4.340651e-02
  3.702514e-01    1.786055e+00   4.306120e-02
  3.724619e-01    1.749038e+00   4.246752e-02
  3.746724e-01    1.780713e+00   4.270735e-02
  3.768828e-01    1.786547e+00   4.263334e-02
  3.790933e-01    1.784787e+00   4.247346e-02
  3.813037e-01    1.791818e+00   4.241779e-02
  3.835142e-01    1.824552e+00   4.266293e-02
  3.857246e-01    1.836696e+00   4.266613e-02
  3.879351e-01    1.843006e+00   4.260103e-02
  3.901455e-01    1.787982e+00   4.182669e-02
  3.923560e-01    1.813115e+00   4.198575e-02
  3.945665e-01    1.839140e+00   4.215191e-02
  3.967769e-01    1.816451e+00   4.175992e-02
  3.989874e-01    1.852011e+00   4.203501e-02
  4.011978e-01    1.897394e+00   4.241610e-02
  4.034083e-01    1.777959e+00   4.093339e-02
  4.056187e-01    1.724422e+00   4.018818e-02
  4.078292e-01    1.796968e+00   4.090068e-02
  4.100397e-01    1.825224e+00   4.109515e-02
  4.122501e-01    1.771041e+00   4.035948e-02
  4.144606e-01    1.754441e+00   4.005076e-02
  4.166710e-01    1.777141e+00   4.018917e-02
  4.188815e-01    1.774712e+00   4.004306e-02
  4.210919e-01    1.782617e+00   4.001451e-02
  4.233024e-01    1.843866e+00   4.057644e-02
  4.255128e-01    1.842209e+00   4.044098e-02
  4.277233e-01    1.813038e+00   4.000424e-02
  4.299338e-01    1.826912e+00   4.004147e-02
  4.321442e-01    1.859840e+00   4.028510e-02
  4.343547e-01    1.793243e+00   3.944542e-02
  4.365651e-01    1.761771e+00   3.898666e-02
  4.387756e-01    1.730997e+00   3.853644e-02
  4.409860e-01    1.804171e+00   3.923352e-02
  4.431965e-01    1.753681e+00   3.857372e-02
  4.454070e-01    1.730509e+00   3.821139e-02
  4.476174e-01    1.749578e+00   3.831587e-02
  4.498279e-01    1.683539e+00   3.748352e-02
  4.520383e-01    1.710458e+00   3.767831e-02
  4.542488e-01    1.686919e+00   3.731725e-02
  4.564592e-01    1.735415e+00   3.774831e-02
  4.586697e-01    1.721320e+00   3.749493e-02
  4.608801e-01    1.741552e+00   3.761361e-02
  4.630906e-01    1.725253e+00   3.733807e-02
  4.653011e-01    1.683496e+00   3.678644e-02
  4.675115e-01    1.732170e+00   3.721617e-02
  4.697220e-01    1.757185e+00   3.738581e-02
  4.719324e-01    1.740788e+00   3.711472e-02
  4.741429e-01    1.721219e+00   3.681042e-02
  4.763533e-01    1.709137e+00   3.658696e-02
  4.785638e-01    1.703678e+00   3.643412e-02
  4.807743e-01    1.711987e+00   3.642996e-02
  4.829847e-01    1.773760e+00   3.698771e-02
  4.851952e-01    1.745348e+00   3.659746e-02
  4.874056e-01    1.683969e+00   3.585753e-02
  4.896161e-01    1.671046e+00   3.563110e-02
  4.918265e-01    1.707222e+00   3.592527e-02
  4.940370e-01    1.700081e+00   3.576156e-02
  4.962475e-01    1.711332e+00   3.579110e-02
  4.984579e-01    1.650866e+00   3.506647e-02
  5.006684e-01    1.643256e+00   3.490024e-02
  5.028788e-01    1.640885e+00   3.479058e-02
  5.050893e-01    1.628811e+00   3.457802e-02
  5.072997e-01    1.614853e+00   3.434639e-02
  5.095102e-01    1.657479e+00   3.471339e-02
  5.117206e-01    1.694291e+00   3.501332e-02
  5.139311e-01    1.675306e+00   3.473420e-02
  5.161416e-01    1.691881e+00   3.482312e-02
  5.183520e-01    1.669804e+00   3.451297e-02
  5.205625e-01    1.609298e+00   3.380252e-02
  5.227729e-01    1.643230e+00   3.407736e-02
  5.249834e-01    1.660647e+00   3.417794e-02
  5.271938e-01    1.727997e+00   3.478276e-02
  5.294043e-01    1.739782e+00   3.482066e-02
  5.316148e-01    1.759405e+00   3.493625e-02
  5.338252e-01    1.753803e+00   3.480091e-02
  5.360357e-01    1.714147e+00   3.432686e-02
  5.382461e-01    1.751319e+00   3.461864e-02
  5.404566e-01    1.768848e+00   3.471227e-02
  5.426670e-01    1.809875e+00   3.503342e-02
  5.448775e-01    1.771359e+00   3.458121e-02
  5.470879e-01    1.803302e+00   3.481380e-02
  5.492984e-01    1.781508e+00   3.452585e-02
  5.515089e-01    1.773717e+00   3.437386e-02
  5.537193e-01    1.784771e+00   3.440484e-02
  5.559298e-01    1.797899e+00   3.445540e-02
  5.581402e-01    1.789350e+00   3.429827e-02
  5.603507e-01    1.800279e+00   3.432799e-02
  5.625611e-01    1.823161e+00   3.447048e-02
  5.647716e-01    1.817365e+00   3.434095e-02
  5.669821e-01    1.746324e+00   3.359048e-02
  5.691925e-01    1.771855e+00   3.376250e-02
  5.714030e-01    1.790512e+00   3.386743e-02
  5.736134e-01    1.749114e+00   3.340243e-02
  5.758239e-01    1.743617e+00   3.327871e-02
  5.780343e-01    1.758847e+00   3.335303e-02
  5.802448e-01    1.660836e+00   3.234259e-02
  5.824552e-01    1.634870e+00   3.202143e-02
  5.846657e-01    1.635247e+00   3.195835e-02
  5.868762e-01    1.664844e+00   3.217914e-02
  5.890866e-01    1.667210e+00   3.213518e-02
  5.912971e-01    1.648236e+00   3.188565e-02
  5.935075e-01    1.605137e+00   3.140098e-02
  5.957180e-01    1.633088e+00   3.160821e-02
  5.979284e-01    1.644543e+00   3.165413e-02
  6.001389e-01    1.634701e+00   3.149499e-02
  6.023494e-01    1.632078e+00   3.140583e-02
  6.045598e-01    1.619645e+00   3.122227e-02
  6.067703e-01    1.648797e+00   3.143865e-02
  6.089807e-01    1.683642e+00   3.170525e-02
  6.111912e-01    1.678051e+00   3.158936e-02
  6.134016e-01    1.678955e+00   3.153485e-02
  6.156121e-01    1.663480e+00   3.132679e-02
  6.178226e-01    1.657332e+00   3.120694e-02
  6.200330e-01    1.665008e+00   3.121742e-02
  6.222435e-01    1.700636e+00   3.148714e-02
  6.244539e-01    1.700341e+00   3.142278e-02
  6.266644e-01    1.714377e+00   3.149064e-02
  6.288748e-01    1.723095e+00   3.150918e-02
  6.310853e-01    1.730430e+00   3.151485e-02
  6.332957e-01    1.738429e+00   3.152664e-02
  6.355062e-01    1.748360e+00   3.155513e-02
  6.377167e-01    1.754209e+00   3.154722e-02
  6.399271e-01    1.680986e+00   3.082263e-02
  6.421376e-01    1.694192e+00   3.088438e-02
  6.443480e-01    1.659844e+00   3.051158e-02
  6.465585e-01    1.667260e+00   3.052171e-02
  6.487689e-01    1.678653e+00   3.056800e-02
  6.509794e-01    1.708000e+00   3.077588e-02
  6.531899e-01    1.684707e+00   3.050784e-02
  6.554003e-01    1.644159e+00   3.008179e-02
  6.576108e-01    1.603701e+00   2.965407e-02
  6.598212e-01    1.615231e+00   2.970517e-02
  6.620317e-01    1.592276e+00   2.943868e-02
  6.642421e-01    1.591124e+00   2.937358e-02
  6.664526e-01    1.619487e+00   2.957962e-02
  6.686630e-01    1.627709e+00   2.959979e-02
  6.708735e-01    1.577695e+00   2.908803e-02
  6.730840e-01    1.621693e+00   2.943706e-02
  6.752944e-01    1.626783e+00   2.942961e-02
  6.775049e-01    1.642874e+00   2.952112e-02
  6.797153e-01    1.584744e+00   2.894164e-02
  6.819258e-01    1.592065e+00   2.895609e-02
  6.841362e-01    1.595359e+00   2.893389e-02
  6.863467e-01    1.621550e+00   2.911819e-02
  6.885572e-01    1.600415e+00   2.887597e-02
  6.907676e-01    1.620665e+00   2.900601e-02
  6.929781e-01    1.612264e+00   2.887933e-02
  6.951885e-01    1.610615e+00   2.881342e-02
  6.973990e-01    1.600583e+00   2.867276e-02
  6.996094e-01    1.600473e+00   2.862134e-02
  7.018199e-01    1.628991e+00   2.882451e-02
  7.040303e-01    1.604937e+00   2.856067e-02
  7.062408e-01    1.603603e+00   2.849878e-02
  7.084513e-01    1.600534e+00   2.842197e-02
  7.106617e-01    1.577370e+00   2.816654e-02
  7.128722e-01    1.560303e+00   2.796524e-02
  7.150826e-01    1.606583e+00   2.832807e-02
  7.172931e-01    1.574314e+00   2.799378e-02
  7.195035e-01    1.541255e+00   2.765069e-02
  7.217140e-01    1.530413e+00   2.760199e-02
  7.239245e-01    1.591447e+00   2.837495e-02
  7.261349e-01    1.598546e+00   2.854762e-02
  7.283454e-01    1.572816e+00   2.838930e-02
  7.305558e-01    1.563713e+00   2.836082e-02
  7.327663e-01    1.588972e+00   2.863165e-02
  7.349767e-01    1.582870e+00   2.859304e-02
  7.371872e-01    1.584026e+00   2.859227e-02
  7.393976e-01    1.560717e+00   2.836693e-02
  7.416081e-01    1.557305e+00   2.831982e-02
  7.438186e-01    1.579432e+00   2.837575e-02
  7.460290e-01    1.575702e+00   2.804790e-02
  7.482395e-01    1.587790e+00   2.798339e-02
  7.504499e-01    1.573059e+00   2.771710e-02
  7.526604e-01    1.523046e+00   2.715827e-02
  7.548708e-01    1.560984e+00   2.740541e-02
  7.570813e-01    1.573929e+00   2.746785e-02
  7.592918e-01    1.599050e+00   2.765075e-02
  7.615022e-01    1.569913e+00   2.736392e-02
  7.637127e-01    1.532647e+00   2.700484e-02
  7.659231e-01    1.606326e+00   2.761399e-02
  7.681336e-01    1.609651e+00   2.761064e-02
  7.703440e-01    1.595469e+00   2.745729e-02
  7.725545e-01    1.574925e+00   2.724907e-02
  7.747650e-01    1.615768e+00   2.756142e-02
  7.769754e-01    1.573181e+00   2.714315e-02
  7.791859e-01    1.577250e+00   2.712467e-02
  7.813963e-01    1.586587e+00   2.715213e-02
  7.836068e-01    1.583093e+00   2.707025e-02
  7.858172e-01    1.576209e+00   2.696081e-02
  7.880277e-01    1.649109e+00   2.752478e-02
  7.902381e-01    1.647903e+00   2.746473e-02
  7.924486e-01    1.628579e+00   2.725266e-02
  7.946591e-01    1.604701e+00   2.700376e-02
  7.968695e-01    1.625410e+00   2.712884e-02
  7.990800e-01    1.603801e+00   2.689972e-02
  8.012904e-01    1.615859e+00   2.695397e-02
  8.035009e-01    1.630543e+00   2.702796e-02
  8.057113e-01    1.678553e+00   2.737557e-02
  8.079218e-01    1.636010e+00   2.697979e-02
  8.101323e-01    1.626204e+00   2.685314e-02
  8.123427e-01    1.636658e+00   2.689338e-02
  8.145532e-01    1.701038e+00   2.737030e-02
  8.167636e-01    1.664091e+00   2.702592e-02
  8.189741e-01    1.652102e+00   2.688350e-02
  8.211845e-01    1.647643e+00   2.680219e-02
  8.233950e-01    1.644421e+00   2.673244e-02
  8.256054e-01    1.628086e+00   2.655524e-02
  8.278159e-01    1.679689e+00   2.692827e-02
  8.300264e-01    1.663331e+00   2.675343e-02
  8.322368e-01    1.666083e+00   2.673204e-02
  8.344473e-01    1.687590e+00   2.686003e-02
  8.366577e-01    1.657255e+00   2.657470e-02
  8.388682e-01    1.638476e+00   2.638149e-02
  8.410786e-01    1.615945e+00   2.615770e-02
  8.432891e-01    1.626570e+00   2.620188e-02
  8.454996e-01    1.625807e+00   2.615427e-02
  8.477100e-01    1.644610e+00   2.626331e-02
  8.499205e-01    1.660645e+00   2.634961e-02
  8.521309e-01    1.636078e+00   2.611320e-02
  8.543414e-01    1.632542e+00   2.604426e-02
  8.565518e-01    1.611839e+00   2.583831e-02
  8.587623e-01    1.628408e+00   2.593033e-02
  8.609727e-01    1.613060e+00   2.576783e-02
  8.631832e-01    1.601255e+00   2.563379e-02
  8.653937e-01    1.607593e+00   2.564499e-02
  8.676041e-01    1.594974e+00   2.550561e-02
  8.698146e-01    1.598040e+00   2.549106e-02
  8.720250e-01    1.623129e+00   2.565124e-02
  8.742355e-01    1.614232e+00   2.554191e-02
  8.764459e-01    1.586973e+00   2.528670e-02
  8.786564e-01    1.579188e+00   2.518700e-02
  8.808669e-01    1.585605e+00   2.519986e-02
  8.830773e-01    1.564339e+00   2.499261e-02
  8.852878e-01    1.579785e+00   2.507803e-02
  8.874982e-01    1.610997e+00   2.528781e-02
  8.897087e-01    1.597983e+00   2.514783e-02
  8.919191e-01    1.570219e+00   2.489100e-02
  8.941296e-01    1.561742e+00   2.478688e-02
  8.963401e-01    1.583721e+00   2.492445e-02
  8.985505e-01    1.572615e+00   2.480028e-02
  9.007610e-01    1.585722e+00   2.486680e-02
  9.029714e-01    1.574775e+00   2.474529e-02
  9.051819e-01    1.587637e+00   2.480905e-02
  9.073923e-01    1.605361e+00   2.491051e-02
  9.096028e-01    1.614509e+00   2.494631e-02
  9.118132e-01    1.612061e+00   2.489105e-02
  9.140237e-01    1.603091e+00   2.478502e-02
  9.162342e-01    1.623611e+00   2.490835e-02
  9.184446e-01    1.624809e+00   2.488151e-02
  9.206551e-01    1.577369e+00   2.448024e-02
  9.228655e-01    1.590771e+00   2.454886e-02
  9.250760e-01    1.626413e+00   2.478673e-02
  9.272864e-01    1.619549e+00   2.469994e-02
  9.294969e-01    1.633512e+00   2.477003e-02
  9.317074e-01    1.634800e+00   2.474479e-02
  9.339178e-01    1.612363e+00   2.454082e-02
  9.361283e-01    1.655423e+00   2.482970e-02
  9.383387e-01    1.662663e+00   2.485009e-02
  9.405492e-01    1.650234e+00   2.472248e-02
  9.427596e-01    1.640241e+00   2.461202e-02
  9.449701e-01    1.643601e+00   2.460375e-02
  9.471805e-01    1.652992e+00   2.463897e-02
  9.493910e-01    1.699631e+00   2.494986e-02
  9.516015e-01    1.718192e+00   2.505070e-02
  9.538119e-01    1.721247e+00   2.503862e-02
  9.560224e-01    1.719904e+00   2.499359e-02
  9.582328e-01    1.739684e+00   2.510320e-02
  9.604433e-01    1.757260e+00   2.519396e-02
  9.626537e-01    1.764527e+00   2.521204e-02
  9.648642e-01    1.815478e+00   2.553843e-02
  9.670747e-01    1.827361e+00   2.558656e-02
  9.692851e-01    1.862996e+00   2.580046e-02
  9.714956e-01    1.889904e+00   2.594951e-02
  9.737060e-01    1.882655e+00   2.586566e-02
  9.759165e-01    1.856722e+00   2.565069e-02
  9.781269e-01    1.861355e+00   2.564905e-02
  9.803374e-01    1.874886e+00   2.570652e-02
  9.825478e-01    1.901748e+00   2.585586e-02
  9.847583e-01    1.962882e+00   2.623247e-02
  9.869688e-01    1.935455e+00   2.601373e-02
  9.891792e-01    1.854837e+00   2.543234e-02
  9.913897e-01    1.810523e+00   2.509279e-02
  9.936001e-01    1.752913e+00   2.465801e-02
  9.958106e-01    1.752665e+00   2.462275e-02
  9.980210e-01    1.753945e+00   2.459977e-02
  1.000231e+00    1.708045e+00   2.440876e-02
  1.002442e+00    1.691522e+00   2.441946e-02
  1.004652e+00    1.657003e+00   2.423645e-02
  1.006863e+00    1.604002e+00   2.389516e-02
  1.009073e+00    1.591507e+00   2.383832e-02
  1.011284e+00    1.597714e+00   2.391669e-02
  1.013494e+00    1.579931e+00   2.380683e-02
  1.015705e+00    1.530757e+00   2.345556e-02
  1.017915e+00    1.524544e+00   2.342402e-02
  1.020126e+00    1.547979e+00   2.361932e-02
  1.022336e+00    1.535668e+00   2.353682e-02
  1.024547e+00    1.516940e+00   2.340394e-02
  1.026757e+00    1.561365e+00   2.375257e-02
  1.028967e+00    1.561719e+00   2.376300e-02
  1.031178e+00    1.538678e+00   2.359324e-02
  1.033388e+00    1.502491e+00   2.331914e-02
  1.035599e+00    1.506438e+00   2.335316e-02
  1.037809e+00    1.504454e+00   2.334100e-02
  1.040020e+00    1.498121e+00   2.329310e-02
  1.042230e+00    1.493222e+00   2.325689e-02
  1.044441e+00    1.511368e+00   2.339756e-02
  1.046651e+00    1.473935e+00   2.310618e-02
  1.048862e+00    1.489217e+00   2.322483e-02
  1.051072e+00    1.522914e+00   2.348375e-02
  1.053282e+00    1.558108e+00   2.375261e-02
  1.055493e+00    1.507805e+00   2.336172e-02
  1.057703e+00    1.455271e+00   2.294963e-02
  1.059914e+00    1.463415e+00   2.300953e-02
  1.062124e+00    1.461691e+00   2.299196e-02
  1.064335e+00    1.468770e+00   2.304412e-02
  1.066545e+00    1.477442e+00   2.310610e-02
  1.068756e+00    1.463473e+00   2.299287e-02
  1.070966e+00    1.462937e+00   2.298216e-02
  1.073177e+00    1.455900e+00   2.292081e-02
  1.075387e+00    1.439954e+00   2.278975e-02
  1.077597e+00    1.428236e+00   2.268969e-02
  1.079808e+00    1.448834e+00   2.272067e-02
  1.082018e+00    1.417352e+00   2.228637e-02
  1.084229e+00    1.402999e+00   2.206538e-02
  1.086439e+00    1.433837e+00   2.221975e-02
  1.088650e+00    1.430295e+00   2.211726e-02
  1.090860e+00    1.408947e+00   2.188502e-02
  1.093071e+00    1.425372e+00   2.195057e-02
  1.095281e+00    1.432318e+00   2.194700e-02
  1.097492e+00    1.443338e+00   2.197642e-02
  1.099702e+00    1.424069e+00   2.177810e-02
  1.101912e+00    1.413680e+00   2.165014e-02
  1.104123e+00    1.418025e+00   2.163543e-02
  1.106333e+00    1.422204e+00   2.162304e-02
  1.108544e+00    1.440907e+00   2.172032e-02
  1.110754e+00    1.414009e+00   2.147382e-02
  1.112965e+00    1.410874e+00   2.140962e-02
  1.115175e+00    1.410839e+00   2.136832e-02
  1.117386e+00    1.414617e+00   2.135765e-02
  1.119596e+00    1.410507e+00   2.128874e-02
  1.121807e+00    1.429958e+00   2.139594e-02
  1.124017e+00    1.396836e+00   2.111019e-02
  1.126228e+00    1.354687e+00   2.075412e-02
  1.128438e+00    1.399697e+00   2.105933e-02
  1.130648e+00    1.398271e+00   2.101431e-02
  1.132859e+00    1.388426e+00   2.090595e-02
  1.135069e+00    1.371268e+00   2.074190e-02
  1.137280e+00    1.360348e+00   2.062650e-02
  1.139490e+00    1.381400e+00   2.075248e-02
  1.141701e+00    1.383220e+00   2.073307e-02
  1.143911e+00    1.367934e+00   2.058649e-02
  1.146122e+00    1.391019e+00   2.072735e-02
  1.148332e+00    1.364349e+00   2.049599e-02
  1.150543e+00    1.333978e+00   2.023623e-02
  1.152753e+00    1.347422e+00   2.030742e-02
  1.154963e+00    1.350151e+00   2.029721e-02
  1.157174e+00    1.350875e+00   2.027273e-02
  1.159384e+00    1.379560e+00   2.045690e-02
  1.161595e+00    1.380338e+00   2.043273e-02
  1.163805e+00    1.366203e+00   2.029861e-02
  1.166016e+00    1.383912e+00   2.040012e-02
  1.168226e+00    1.365453e+00   2.023469e-02
  1.170437e+00    1.351866e+00   2.010527e-02
  1.172647e+00    1.371379e+00   2.022090e-02
  1.174858e+00    1.372262e+00   2.019923e-02
  1.177068e+00    1.371144e+00   2.016267e-02
  1.179278e+00    1.362175e+00   2.006803e-02
  1.181489e+00    1.363416e+00   2.005012e-02
  1.183699e+00    1.382051e+00   2.015887e-02
  1.185910e+00    1.348480e+00   1.988486e-02
  1.188120e+00    1.332148e+00   1.973762e-02
  1.190331e+00    1.364974e+00   1.995246e-02
  1.192541e+00    1.347353e+00   1.979595e-02
  1.194752e+00    1.356739e+00   1.983770e-02
  1.196962e+00    1.389504e+00   2.004970e-02
  1.199173e+00    1.367597e+00   1.986437e-02
  1.201383e+00    1.384344e+00   1.995810e-02
  1.203593e+00    1.396512e+00   2.002038e-02
  1.205804e+00    1.398913e+00   2.001121e-02
  1.208014e+00    1.367124e+00   1.975552e-02
  1.210225e+00    1.350127e+00   1.960699e-02
  1.212435e+00    1.335664e+00   1.947704e-02
  1.214646e+00    1.328972e+00   1.940228e-02
  1.216856e+00    1.332354e+00   1.940164e-02
  1.219067e+00    1.330227e+00   1.936186e-02
  1.221277e+00    1.349409e+00   1.947592e-02
  1.223488e+00    1.371277e+00   1.960719e-02
  1.225698e+00    1.342912e+00   1.937648e-02
  1.227909e+00    1.324904e+00   1.921627e-02
  1.230119e+00    1.324613e+00   1.918257e-02
  1.232329e+00    1.357920e+00   1.939145e-02
  1.234540e+00    1.351172e+00   1.931290e-02
  1.236750e+00    1.340127e+00   1.920366e-02
  1.238961e+00    1.334532e+00   1.913671e-02
  1.241171e+00    1.315574e+00   1.897643e-02
  1.243382e+00    1.319199e+00   1.897931e-02
  1.245592e+00    1.331690e+00   1.904501e-02
  1.247803e+00    1.341503e+00   1.909148e-02
  1.250013e+00    1.332388e+00   1.900311e-02
  1.252224e+00    1.339831e+00   1.903296e-02
  1.254434e+00    1.338594e+00   1.900053e-02
  1.256644e+00    1.349624e+00   1.905544e-02
  1.258855e+00    1.352392e+00   1.905169e-02
  1.261065e+00    1.363148e+00   1.910382e-02
  1.263276e+00    1.356488e+00   1.903411e-02
  1.265486e+00    1.333866e+00   1.885197e-02
  1.267697e+00    1.357309e+00   1.899384e-02
  1.269907e+00    1.331443e+00   1.878944e-02
  1.272118e+00    1.327921e+00   1.874219e-02
  1.274328e+00    1.339738e+00   1.880274e-02
  1.276539e+00    1.361190e+00   1.892980e-02
  1.278749e+00    1.363329e+00   1.892228e-02
  1.280959e+00    1.362980e+00   1.889721e-02
  1.283170e+00    1.348760e+00   1.877597e-02
  1.285380e+00    1.338081e+00   1.867912e-02
  1.287591e+00    1.353095e+00   1.876155e-02
  1.289801e+00    1.365015e+00   1.882269e-02
  1.292012e+00    1.358904e+00   1.876336e-02
  1.294222e+00    1.371650e+00   1.883478e-02
  1.296433e+00    1.355868e+00   1.871048e-02
  1.298643e+00    1.349690e+00   1.865134e-02
  1.300854e+00    1.356297e+00   1.868046e-02
  1.303064e+00    1.373688e+00   1.878048e-02
  1.305274e+00    1.342973e+00   1.854793e-02
  1.307485e+00    1.333780e+00   1.846294e-02
  1.309695e+00    1.347054e+00   1.853234e-02
  1.311906e+00    1.365247e+00   1.863527e-02
  1.314116e+00    1.339520e+00   1.843812e-02
  1.316327e+00    1.383407e+00   1.871578e-02
  1.318537e+00    1.379015e+00   1.866392e-02
  1.320748e+00    1.401953e+00   1.879655e-02
  1.322958e+00    1.391011e+00   1.870223e-02
  1.325169e+00    1.389726e+00   1.867226e-02
  1.327379e+00    1.381742e+00   1.859647e-02
  1.329589e+00    1.365962e+00   1.846882e-02
  1.331800e+00    1.358115e+00   1.839490e-02
  1.334010e+00    1.377581e+00   1.850540e-02
  1.336221e+00    1.361653e+00   1.837628e-02
  1.338431e+00    1.351609e+00   1.828748e-02
  1.340642e+00    1.369382e+00   1.847195e-02
  1.342852e+00    1.355382e+00   1.847816e-02
  1.345063e+00    1.373206e+00   1.864917e-02
  1.347273e+00    1.368588e+00   1.865328e-02
  1.349484e+00    1.357023e+00   1.860203e-02
  1.351694e+00    1.359011e+00   1.863845e-02
  1.353905e+00    1.335896e+00   1.849717e-02
  1.356115e+00    1.379776e+00   1.881367e-02
  1.358325e+00    1.397394e+00   1.894699e-02
  1.360536e+00    1.392066e+00   1.892264e-02
  1.362746e+00    1.369156e+00   1.877591e-02
  1.364957e+00    1.355798e+00   1.869179e-02
  1.367167e+00    1.354595e+00   1.869065e-02
  1.369378e+00    1.324231e+00   1.848596e-02
  1.371588e+00    1.314561e+00   1.842342e-02
  1.373799e+00    1.330579e+00   1.853898e-02
  1.376009e+00    1.320664e+00   1.847314e-02
  1.378220e+00    1.337197e+00   1.859094e-02
  1.380430e+00    1.314112e+00   1.843249e-02
  1.382640e+00    1.307071e+00   1.838391e-02
  1.384851e+00    1.288755e+00   1.825553e-02
  1.387061e+00    1.278854e+00   1.818556e-02
  1.389272e+00    1.280562e+00   1.819790e-02
  1.391482e+00    1.299270e+00   1.832965e-02
  1.393693e+00    1.321941e+00   1.848801e-02
  1.395903e+00    1.309926e+00   1.840229e-02
  1.398114e+00    1.340605e+00   1.861512e-02
  1.400324e+00    1.353791e+00   1.870427e-02
  1.402535e+00    1.343310e+00   1.862934e-02
  1.404745e+00    1.322752e+00   1.848385e-02
  1.406955e+00    1.283293e+00   1.820336e-02
  1.409166e+00    1.286988e+00   1.822620e-02
  1.411376e+00    1.293550e+00   1.826947e-02
  1.413587e+00    1.291711e+00   1.825265e-02
  1.415797e+00    1.280349e+00   1.816863e-02
  1.418008e+00    1.271970e+00   1.806717e-02
  1.420218e+00    1.277929e+00   1.795925e-02
  1.422429e+00    1.285319e+00   1.792528e-02
  1.424639e+00    1.279747e+00   1.782144e-02
  1.426850e+00    1.292125e+00   1.785225e-02
  1.429060e+00    1.283706e+00   1.774475e-02
  1.431270e+00    1.287698e+00   1.772770e-02
  1.433481e+00    1.282550e+00   1.765107e-02
  1.435691e+00    1.264692e+00   1.748941e-02
  1.437902e+00    1.267706e+00   1.747379e-02
  1.440112e+00    1.275127e+00   1.748946e-02
  1.442323e+00    1.258888e+00   1.734483e-02
  1.444533e+00    1.249752e+00   1.724949e-02
  1.446744e+00    1.271782e+00   1.736970e-02
  1.448954e+00    1.267014e+00   1.730697e-02
  1.451165e+00    1.267816e+00   1.728270e-02
  1.453375e+00    1.269263e+00   1.726452e-02
  1.455586e+00    1.271762e+00   1.725334e-02
  1.457796e+00    1.280862e+00   1.728732e-02
  1.460006e+00    1.290896e+00   1.732743e-02
  1.462217e+00    1.259736e+00   1.709091e-02
  1.464427e+00    1.262910e+00   1.708687e-02
  1.466638e+00    1.273675e+00   1.713419e-02
  1.468848e+00    1.271629e+00   1.709506e-02
  1.471059e+00    1.276267e+00   1.710105e-02
  1.473269e+00    1.284137e+00   1.712915e-02
  1.475480e+00    1.287967e+00   1.713078e-02
  1.477690e+00    1.244215e+00   1.681367e-02
  1.479901e+00    1.222641e+00   1.664385e-02
  1.482111e+00    1.222646e+00   1.662098e-02
  1.484321e+00    1.239060e+00   1.670930e-02
  1.486532e+00    1.250468e+00   1.676387e-02
  1.488742e+00    1.252046e+00   1.675190e-02
  1.490953e+00    1.261704e+00   1.679381e-02
  1.493163e+00    1.258332e+00   1.674912e-02
  1.495374e+00    1.258871e+00   1.673124e-02
  1.497584e+00    1.255604e+00   1.668793e-02
  1.499795e+00    1.254960e+00   1.666205e-02
  1.502005e+00    1.260736e+00   1.667865e-02
  1.504216e+00    1.251787e+00   1.659838e-02
  1.506426e+00    1.240678e+00   1.650390e-02
  1.508636e+00    1.224024e+00   1.637258e-02
  1.510847e+00    1.248298e+00   1.651237e-02
  1.513057e+00    1.244417e+00   1.646171e-02
  1.515268e+00    1.277366e+00   1.665227e-02
  1.517478e+00    1.256178e+00   1.648842e-02
  1.519689e+00    1.262189e+00   1.650278e-02
  1.521899e+00    1.264632e+00   1.649553e-02
  1.524110e+00    1.279656e+00   1.657268e-02
  1.526320e+00    1.281551e+00   1.656514e-02
  1.528531e+00    1.265338e+00   1.644014e-02
  1.530741e+00    1.247675e+00   1.630588e-02
  1.532951e+00    1.220194e+00   1.610594e-02
  1.535162e+00    1.214525e+00   1.615386e-02
  1.537372e+00    1.200640e+00   1.612685e-02
  1.539583e+00    1.233042e+00   1.637700e-02
  1.541793e+00    1.228141e+00   1.635137e-02
  1.544004e+00    1.220277e+00   1.629915e-02
  1.546214e+00    1.247740e+00   1.648005e-02
  1.548425e+00    1.221044e+00   1.630305e-02
  1.550635e+00    1.243439e+00   1.646155e-02
  1.552846e+00    1.213766e+00   1.627349e-02
  1.555056e+00    1.227120e+00   1.632158e-02
  1.557266e+00    1.219913e+00   1.616422e-02
  1.559477e+00    1.256337e+00   1.634433e-02
  1.561687e+00    1.275386e+00   1.643677e-02
  1.563898e+00    1.273199e+00   1.640529e-02
  1.566108e+00    1.267119e+00   1.635001e-02
  1.568319e+00    1.249245e+00   1.621859e-02
  1.570529e+00    1.284946e+00   1.642318e-02
  1.572740e+00    1.250308e+00   1.617265e-02
  1.574950e+00    1.240141e+00   1.608047e-02
  1.577161e+00    1.255035e+00   1.615117e-02
  1.579371e+00    1.248350e+00   1.608439e-02
  1.581582e+00    1.244451e+00   1.603949e-02
  1.583792e+00    1.259553e+00   1.611838e-02
  1.586002e+00    1.243385e+00   1.599700e-02
  1.588213e+00    1.225199e+00   1.586247e-02
  1.590423e+00    1.229970e+00   1.587334e-02
  1.592634e+00    1.272693e+00   1.612480e-02
  1.594844e+00    1.283484e+00   1.617130e-02
  1.597055e+00    1.264712e+00   1.603192e-02
  1.599265e+00    1.259058e+00   1.597518e-02
  1.601476e+00    1.264048e+00   1.598630e-02
  1.603686e+00    1.270100e+00   1.600452e-02
  1.605897e+00    1.242325e+00   1.580840e-02
  1.608107e+00    1.213256e+00   1.560297e-02
  1.610317e+00    1.216838e+00   1.560683e-02
  1.612528e+00    1.234666e+00   1.570157e-02
  1.614738e+00    1.229565e+00   1.565019e-02
  1.616949e+00    1.212280e+00   1.552091e-02
  1.619159e+00    1.219553e+00   1.554870e-02
  1.621370e+00    1.219821e+00   1.553195e-02
  1.623580e+00    1.187366e+00   1.530582e-02
  1.625791e+00    1.179697e+00   1.523824e-02
  1.628001e+00    1.185916e+00   1.526024e-02
  1.630212e+00    1.172709e+00   1.515741e-02
  1.632422e+00    1.170275e+00   1.512391e-02
  1.634632e+00    1.171967e+00   1.511759e-02
  1.636843e+00    1.169229e+00   1.508246e-02
  1.639053e+00    1.184598e+00   1.516388e-02
  1.641264e+00    1.181415e+00   1.512632e-02
  1.643474e+00    1.158266e+00   1.496004e-02
  1.645685e+00    1.169155e+00   1.501344e-02
  1.647895e+00    1.151176e+00   1.488100e-02
  1.650106e+00    1.157584e+00   1.490531e-02
  1.652316e+00    1.132688e+00   1.472779e-02
  1.654527e+00    1.139415e+00   1.475480e-02
  1.656737e+00    1.120504e+00   1.461540e-02
  1.658947e+00    1.129744e+00   1.465927e-02
  1.661158e+00    1.146451e+00   1.475086e-02
  1.663368e+00    1.118115e+00   1.455145e-02
  1.665579e+00    1.109207e+00   1.447728e-02
  1.667789e+00    1.106848e+00   1.444572e-02
  1.670000e+00    1.084126e+00   1.428140e-02
  1.672210e+00    1.089575e+00   1.430148e-02
  1.674421e+00    1.094063e+00   1.431566e-02
  1.676631e+00    1.094077e+00   1.429994e-02
  1.678842e+00    1.077522e+00   1.417571e-02
  1.681052e+00    1.091069e+00   1.424918e-02
  1.683263e+00    1.092769e+00   1.424512e-02
  1.685473e+00    1.073777e+00   1.410574e-02
  1.687683e+00    1.048602e+00   1.392421e-02
  1.689894e+00    1.075677e+00   1.408708e-02
  1.692104e+00    1.064266e+00   1.399734e-02
  1.694315e+00    1.061164e+00   1.396250e-02
  1.696525e+00    1.069650e+00   1.400306e-02
  1.698736e+00    1.070657e+00   1.399480e-02
  1.700946e+00    1.051926e+00   1.385677e-02
  1.703157e+00    1.026141e+00   1.367146e-02
  1.705367e+00    1.038299e+00   1.373780e-02
  1.707578e+00    1.012171e+00   1.354955e-02
  1.709788e+00    1.004442e+00   1.348387e-02
  1.711998e+00    1.012963e+00   1.352615e-02
  1.714209e+00    1.016956e+00   1.353849e-02
  1.716419e+00    1.009275e+00   1.347318e-02
  1.718630e+00    1.020775e+00   1.353552e-02
  1.720840e+00    1.011009e+00   1.345657e-02
  1.723051e+00    9.944509e-01   1.333225e-02
  1.725261e+00    1.000070e+00   1.335534e-02
  1.727472e+00    1.009791e+00   1.340597e-02
  1.729682e+00    1.018408e+00   1.344959e-02
  1.731893e+00    1.014495e+00   1.340978e-02
  1.734103e+00    9.951230e-01   1.326746e-02
  1.736313e+00    9.451476e-01   1.291643e-02
  1.738524e+00    9.571768e-01   1.298483e-02
  1.740734e+00    9.733582e-01   1.308062e-02
  1.742945e+00    9.849315e-01   1.314478e-02
  1.745155e+00    9.690120e-01   1.302483e-02
  1.747366e+00    9.731450e-01   1.303887e-02
  1.749576e+00    9.644725e-01   1.296713e-02
  1.751787e+00    9.522752e-01   1.287173e-02
  1.753997e+00    9.414850e-01   1.278549e-02
  1.756208e+00    9.520171e-01   1.284374e-02
  1.758418e+00    9.515471e-01   1.282763e-02
  1.760628e+00    9.295350e-01   1.266528e-02
  1.762839e+00    9.369792e-01   1.270289e-02
  1.765049e+00    9.446587e-01   1.274182e-02
  1.767260e+00    9.640340e-01   1.285900e-02
  1.769470e+00    9.481645e-01   1.273979e-02
  1.771681e+00    9.545187e-01   1.276925e-02
  1.773891e+00    9.386842e-01   1.264991e-02
  1.776102e+00    9.388177e-01   1.263801e-02
  1.778312e+00    9.197065e-01   1.249615e-02
  1.780523e+00    9.370781e-01   1.260090e-02
  1.782733e+00    9.297282e-01   1.253879e-02
  1.784944e+00    8.997406e-01   1.232227e-02
  1.787154e+00    8.876536e-01   1.222699e-02
  1.789364e+00    8.942527e-01   1.226011e-02
  1.791575e+00    9.169326e-01   1.240214e-02
  1.793785e+00    9.294399e-01   1.247399e-02
  1.795996e+00    9.298068e-01   1.246387e-02
  1.798206e+00    9.162856e-01   1.236043e-02
  1.800417e+00    9.124557e-01   1.232191e-02
  1.802627e+00    9.030306e-01   1.224624e-02
  1.804838e+00    9.209411e-01   1.235494e-02
  1.807048e+00    8.775499e-01   1.204774e-02
  1.809259e+00    9.005890e-01   1.219130e-02
  1.811469e+00    9.041022e-01   1.220011e-02
  1.813679e+00    9.166375e-01   1.226929e-02
  1.815890e+00    9.037027e-01   1.216763e-02
  1.818100e+00    8.922648e-01   1.207532e-02
  1.820311e+00    8.880655e-01   1.203214e-02
  1.822521e+00    8.785657e-01   1.195287e-02
  1.824732e+00    8.922260e-01   1.203059e-02
  1.826942e+00    8.852415e-01   1.197111e-02
  1.829153e+00    8.737476e-01   1.188151e-02
  1.831363e+00    9.009347e-01   1.205277e-02
  1.833574e+00    9.480298e-01   1.235168e-02
  1.835784e+00    9.448817e-01   1.231933e-02
  1.837994e+00    9.111778e-01   1.208570e-02
  1.840205e+00    8.787265e-01   1.185732e-02
  1.842415e+00    8.709637e-01   1.179307e-02
  1.844626e+00    8.736181e-01   1.179944e-02
  1.846836e+00    8.933125e-01   1.192011e-02
  1.849047e+00    8.635955e-01   1.170858e-02
  1.851257e+00    8.662581e-01   1.171703e-02
  1.853468e+00    8.653294e-01   1.170193e-02
  1.855678e+00    8.538440e-01   1.161515e-02
  1.857889e+00    8.659608e-01   1.168875e-02
  1.860099e+00    8.653223e-01   1.167577e-02
  1.862309e+00    8.588312e-01   1.162337e-02
  1.864520e+00    8.591833e-01   1.161716e-02
  1.866730e+00    8.603213e-01   1.161543e-02
  1.868941e+00    8.459595e-01   1.150719e-02
  1.871151e+00    8.256422e-01   1.135694e-02
  1.873362e+00    8.365397e-01   1.142039e-02
  1.875572e+00    8.421891e-01   1.144799e-02
  1.877783e+00    8.456722e-01   1.146023e-02
  1.879993e+00    8.621943e-01   1.156038e-02
  1.882204e+00    8.639050e-01   1.156084e-02
  1.884414e+00    8.291738e-01   1.131508e-02
  1.886624e+00    8.349063e-01   1.134312e-02
  1.888835e+00    8.304072e-01   1.130161e-02
  1.891045e+00    8.377333e-01   1.134048e-02
  1.893256e+00    8.388139e-01   1.133670e-02
  1.895466e+00    8.326674e-01   1.128396e-02
  1.897677e+00    8.213605e-01   1.119625e-02
  1.899887e+00    8.316846e-01   1.125542e-02
  1.902098e+00    8.419840e-01   1.131400e-02
  1.904308e+00    8.302575e-01   1.122436e-02
  1.906519e+00    8.275883e-01   1.119549e-02
  1.908729e+00    8.228030e-01   1.115250e-02
  1.910940e+00    8.184915e-01   1.111217e-02
  1.913150e+00    8.307784e-01   1.118464e-02
  1.915360e+00    8.491300e-01   1.129673e-02
  1.917571e+00    8.367620e-01   1.120320e-02
  1.919781e+00    8.188236e-01   1.107178e-02
  1.921992e+00    8.282917e-01   1.112494e-02
  1.924202e+00    8.179334e-01   1.104440e-02
  1.926413e+00    8.040861e-01   1.094028e-02
  1.928623e+00    8.061764e-01   1.094400e-02
  1.930834e+00    7.986956e-01   1.088277e-02
  1.933044e+00    7.976009e-01   1.086473e-02
  1.935255e+00    7.934517e-01   1.082622e-02
  1.937465e+00    7.988061e-01   1.085234e-02
  1.939675e+00    8.050856e-01   1.088408e-02
  1.941886e+00    8.057695e-01   1.087842e-02
  1.944096e+00    8.094386e-01   1.089293e-02
  1.946307e+00    8.006034e-01   1.082300e-02
  1.948517e+00    8.024169e-01   1.082478e-02
  1.950728e+00    7.991111e-01   1.079222e-02
  1.952938e+00    8.139090e-01   1.088148e-02
  1.955149e+00    8.043225e-01   1.080694e-02
  1.957359e+00    8.046223e-01   1.079886e-02
  1.959570e+00    7.900729e-01   1.068993e-02
  1.961780e+00    8.056969e-01   1.078511e-02
  1.963990e+00    8.070868e-01   1.078421e-02
  1.966201e+00    7.907587e-01   1.066451e-02
  1.968411e+00    7.857609e-01   1.062062e-02
  1.970622e+00    7.891834e-01   1.063363e-02
  1.972832e+00    7.797618e-01   1.056003e-02
  1.975043e+00    7.935734e-01   1.064305e-02
  1.977253e+00    7.874735e-01   1.059212e-02
  1.979464e+00    7.743550e-01   1.049353e-02
  1.981674e+00    7.856425e-01   1.055945e-02
  1.983885e+00    7.913979e-01   1.058799e-02
  1.986095e+00    7.722165e-01   1.044923e-02
  1.988305e+00    7.720628e-01   1.043835e-02
  1.990516e+00    7.737696e-01   1.043997e-02
  1.992726e+00    8.028348e-01   1.062443e-02
  1.994937e+00    7.825461e-01   1.047917e-02
  1.997147e+00    7.911452e-01   1.052675e-02
  1.999358e+00    7.906076e-01   1.051324e-02
  2.001568e+00    7.751586e-01   1.039917e-02
  2.003779e+00    7.841857e-01   1.044755e-02
  2.005989e+00    7.681484e-01   1.032818e-02
  2.008200e+00    7.648711e-01   1.029463e-02
  2.010410e+00    7.666148e-01   1.029464e-02
  2.012621e+00    7.708694e-01   1.031143e-02
  2.014831e+00    7.757237e-01   1.033232e-02
  2.017041e+00    7.659444e-01   1.025661e-02
  2.019252e+00    7.611288e-01   1.021438e-02
  2.021462e+00    7.653739e-01   1.023332e-02
  2.023673e+00    7.711872e-01   1.026267e-02
  2.025883e+00    7.703715e-01   1.024769e-02
  2.028094e+00    7.590980e-01   1.016281e-02
  2.030304e+00    7.693385e-01   1.022154e-02
  2.032515e+00    7.646090e-01   1.018076e-02
  2.034725e+00    7.386255e-01   9.996968e-03
  2.036936e+00    7.325279e-01   9.946436e-03
  2.039146e+00    7.428243e-01   1.000660e-02
  2.041356e+00    7.703483e-01   1.018058e-02
  2.043567e+00    7.559582e-01   1.007575e-02
  2.045777e+00    7.587536e-01   1.008507e-02
  2.047988e+00    7.648838e-01   1.011633e-02
  2.050198e+00    7.307225e-01   9.879523e-03
  2.052409e+00    7.418942e-01   9.947148e-03
  2.054619e+00    7.470860e-01   9.974550e-03
  2.056830e+00    7.599257e-01   1.005267e-02
  2.059040e+00    7.699979e-01   1.011148e-02
  2.061251e+00    7.615597e-01   1.004862e-02
  2.063461e+00    7.461668e-01   9.938969e-03
  2.065671e+00    7.449892e-01   9.922412e-03
  2.067882e+00    7.486279e-01   9.937616e-03
  2.070092e+00    7.412713e-01   9.879509e-03
  2.072303e+00    7.393198e-01   9.857413e-03
  2.074513e+00    7.346298e-01   9.816818e-03
  2.076724e+00    7.376177e-01   9.827369e-03
  2.078934e+00    7.319547e-01   9.780617e-03
  2.081145e+00    7.277628e-01   9.743598e-03
  2.083355e+00    7.238063e-01   9.707999e-03
  2.085566e+00    7.324909e-01   9.757217e-03
  2.087776e+00    7.347809e-01   9.762977e-03
  2.089986e+00    7.447348e-01   9.820063e-03
  2.092197e+00    7.345665e-01   9.743859e-03
  2.094407e+00    7.199600e-01   9.637372e-03
  2.096618e+00    7.407904e-01   9.766847e-03
  2.098828e+00    7.264137e-01   9.662379e-03
  2.101039e+00    7.150172e-01   9.577401e-03
  2.103249e+00    7.131454e-01   9.556293e-03
  2.105460e+00    7.268611e-01   9.638752e-03
  2.107670e+00    7.247635e-01   9.616128e-03
  2.109881e+00    7.237411e-01   9.600203e-03
  2.112091e+00    7.053248e-01   9.468424e-03
  2.114301e+00    7.051103e-01   9.458299e-03
  2.116512e+00    7.127966e-01   9.500990e-03
  2.118722e+00    7.077871e-01   9.458806e-03
  2.120933e+00    6.890540e-01   9.324144e-03
  2.123143e+00    6.896936e-01   9.319707e-03
  2.125354e+00    7.048737e-01   9.413295e-03
  2.127564e+00    6.906565e-01   9.309285e-03
  2.129775e+00    7.015886e-01   9.374039e-03
  2.131985e+00    7.056423e-01   9.392081e-03
  2.134196e+00    7.050552e-01   9.379629e-03
  2.136406e+00    7.147791e-01   9.435333e-03
  2.138617e+00    7.023631e-01   9.344612e-03
  2.140827e+00    7.273096e-01   9.525386e-03
  2.143037e+00    7.109658e-01   9.463361e-03
  2.145248e+00    7.032692e-01   9.433957e-03
  2.147458e+00    6.967047e-01   9.404879e-03
  2.149669e+00    7.096074e-01   9.503457e-03
  2.151879e+00    7.273129e-01   9.630700e-03
  2.154090e+00    7.033960e-01   9.478343e-03
  2.156300e+00    7.100140e-01   9.529488e-03
  2.158511e+00    6.879961e-01   9.385816e-03
  2.160721e+00    7.020774e-01   9.486221e-03
  2.162932e+00    6.949457e-01   9.441636e-03
  2.165142e+00    6.868023e-01   9.389156e-03
  2.167352e+00    6.850092e-01   9.379787e-03
  2.169563e+00    6.846030e-01   9.378931e-03
  2.171773e+00    7.001370e-01   9.487211e-03
  2.173984e+00    6.750516e-01   9.317097e-03
  2.176194e+00    6.759719e-01   9.324623e-03
  2.178405e+00    6.772183e-01   9.333906e-03
  2.180615e+00    6.668200e-01   9.262640e-03
  2.182826e+00    6.845898e-01   9.385911e-03
  2.185036e+00    6.890658e-01   9.416617e-03
  2.187247e+00    6.893647e-01   9.418590e-03
  2.189457e+00    6.837022e-01   9.379442e-03
  2.191667e+00    6.889549e-01   9.415209e-03
  2.193878e+00    6.877718e-01   9.406568e-03
  2.196088e+00    6.926714e-01   9.439317e-03
  2.198299e+00    6.992294e-01   9.482795e-03
  2.200509e+00    6.920459e-01   9.432914e-03
  2.202720e+00    6.879044e-01   9.403475e-03
  2.204930e+00    6.679043e-01   9.264542e-03
  2.207141e+00    6.698508e-01   9.276927e-03
  2.209351e+00    6.732143e-01   9.298310e-03
  2.211562e+00    6.814488e-01   9.353382e-03
  2.213772e+00    6.803585e-01   9.290265e-03
  2.215982e+00    6.963713e-01   9.354090e-03
  2.218193e+00    6.801863e-01   9.215026e-03
  2.220403e+00    6.802199e-01   9.190552e-03
  2.222614e+00    6.769395e-01   9.147382e-03
  2.224824e+00    6.701847e-01   9.082278e-03
  2.227035e+00    6.807103e-01   9.135785e-03
  2.229245e+00    6.713580e-01   9.055847e-03
  2.231456e+00    6.731301e-01   9.052144e-03
  2.233666e+00    6.776827e-01   9.067547e-03
  2.235877e+00    6.694055e-01   8.997751e-03
  2.238087e+00    6.597668e-01   8.919341e-03
  2.240298e+00    6.674676e-01   8.957495e-03
  2.242508e+00    6.751525e-01   8.993729e-03
  2.244718e+00    6.611003e-01   8.883920e-03
  2.246929e+00    6.682054e-01   8.917100e-03
  2.249139e+00    6.716802e-01   8.927855e-03
  2.251350e+00    6.643291e-01   8.867159e-03
  2.253560e+00    6.788635e-01   8.951981e-03
  2.255771e+00    6.629866e-01   8.835285e-03
  2.257981e+00    6.622811e-01   8.819434e-03
  2.260192e+00    6.684652e-01   8.849363e-03
  2.262402e+00    6.755347e-01   8.885085e-03
  2.264613e+00    6.795375e-01   8.900428e-03
  2.266823e+00    6.609035e-01   8.767150e-03
  2.269033e+00    6.654283e-01   8.786711e-03
  2.271244e+00    6.915939e-01   8.947173e-03
  2.273454e+00    7.099845e-01   9.054738e-03
  2.275665e+00    6.921085e-01   8.929504e-03
  2.277875e+00    6.738236e-01   8.800722e-03
  2.280086e+00    6.587819e-01   8.691914e-03
  2.282296e+00    6.599236e-01   8.690023e-03
  2.284507e+00    6.548787e-01   8.646642e-03
  2.286717e+00    6.525545e-01   8.621860e-03
  2.288928e+00    6.649945e-01   8.693716e-03
  2.291138e+00    6.737239e-01   8.741058e-03
  2.293348e+00    6.573825e-01   8.624859e-03
  2.295559e+00    6.352389e-01   8.469166e-03
  2.297769e+00    6.555794e-01   8.594447e-03
  2.299980e+00    6.413747e-01   8.491565e-03
  2.302190e+00    6.508234e-01   8.544792e-03
  2.304401e+00    6.488882e-01   8.522762e-03
  2.306611e+00    6.445112e-01   8.484847e-03
  2.308822e+00    6.469229e-01   8.492330e-03
  2.311032e+00    6.485664e-01   8.496676e-03
  2.313243e+00    6.517920e-01   8.511503e-03
  2.315453e+00    6.549402e-01   8.524421e-03
  2.317663e+00    6.536680e-01   8.506969e-03
  2.319874e+00    6.473460e-01   8.456998e-03
  2.322084e+00    6.389378e-01   8.392992e-03
  2.324295e+00    6.384510e-01   8.381599e-03
  2.326505e+00    6.359334e-01   8.356052e-03
  2.328716e+00    6.533375e-01   8.461028e-03
  2.330926e+00    6.399763e-01   8.365282e-03
  2.333137e+00    6.396350e-01   8.354699e-03
  2.335347e+00    6.308596e-01   8.288383e-03
  2.337558e+00    6.383788e-01   8.329418e-03
  2.339768e+00    6.554894e-01   8.431619e-03
  2.341979e+00    6.446494e-01   8.353226e-03
  2.344189e+00    6.395838e-01   8.311931e-03
  2.346399e+00    6.415645e-01   8.316253e-03
  2.348610e+00    6.232695e-01   8.188462e-03
  2.350820e+00    6.276926e-01   8.209304e-03
  2.353031e+00    6.403068e-01   8.283076e-03
  2.355241e+00    6.395018e-01   8.269762e-03
  2.357452e+00    6.516687e-01   8.339517e-03
  2.359662e+00    6.335210e-01   8.214344e-03
  2.361873e+00    6.452690e-01   8.281833e-03
  2.364083e+00    6.304308e-01   8.178064e-03
  2.366294e+00    6.178932e-01   8.088281e-03
  2.368504e+00    6.299109e-01   8.158465e-03
  2.370714e+00    6.281074e-01   8.138700e-03
  2.372925e+00    6.244044e-01   8.106643e-03
  2.375135e+00    6.265332e-01   8.112345e-03
  2.377346e+00    6.246524e-01   8.092253e-03
  2.379556e+00    6.166511e-01   8.032368e-03
  2.381767e+00    6.190953e-01   8.040437e-03
  2.383977e+00    6.094118e-01   7.969444e-03
  2.386188e+00    6.088551e-01   7.957955e-03
  2.388398e+00    6.124592e-01   7.973555e-03
  2.390609e+00    6.088227e-01   7.942165e-03
  2.392819e+00    6.312588e-01   8.079325e-03
  2.395029e+00    6.238819e-01   8.024266e-03
  2.397240e+00    6.110784e-01   7.933670e-03
  2.399450e+00    5.940678e-01   7.814769e-03
  2.401661e+00    5.985734e-01   7.836747e-03
  2.403871e+00    6.058773e-01   7.876694e-03
  2.406082e+00    6.037573e-01   7.855508e-03
  2.408292e+00    5.933429e-01   7.779770e-03
  2.410503e+00    5.998220e-01   7.814704e-03
  2.412713e+00    5.974600e-01   7.791561e-03
  2.414924e+00    5.919847e-01   7.748373e-03
  2.417134e+00    6.019808e-01   7.805910e-03
  2.419344e+00    5.871292e-01   7.701703e-03
  2.421555e+00    6.042579e-01   7.805717e-03
  2.423765e+00    5.883257e-01   7.694802e-03
  2.425976e+00    5.922424e-01   7.712604e-03
  2.428186e+00    5.946506e-01   7.721080e-03
  2.430397e+00    5.935683e-01   7.706594e-03
  2.432607e+00    6.055303e-01   7.776516e-03
  2.434818e+00    5.921574e-01   7.682669e-03
  2.437028e+00    5.873404e-01   7.644221e-03
  2.439239e+00    5.963340e-01   7.694871e-03
  2.441449e+00    5.774137e-01   7.564703e-03
  2.443659e+00    5.958513e-01   7.677140e-03
  2.445870e+00    5.893304e-01   7.647283e-03
  2.448080e+00    5.743036e-01   7.583687e-03
  2.450291e+00    5.741634e-01   7.599329e-03
  2.452501e+00    5.693867e-01   7.578743e-03
  2.454712e+00    5.779887e-01   7.644239e-03
  2.456922e+00    5.773312e-01   7.646559e-03
  2.459133e+00    5.748106e-01   7.635306e-03
  2.461343e+00    5.652056e-01   7.575600e-03
  2.463554e+00    5.584702e-01   7.533773e-03
  2.465764e+00    5.650158e-01   7.580937e-03
  2.467975e+00    5.498108e-01   7.480498e-03
  2.470185e+00    5.513709e-01   7.493354e-03
  2.472395e+00    5.466014e-01   7.462069e-03
  2.474606e+00    5.559469e-01   7.527160e-03
  2.476816e+00    5.437509e-01   7.444883e-03
  2.479027e+00    5.406192e-01   7.424238e-03
  2.481237e+00    5.549645e-01   7.522375e-03
  2.483448e+00    5.424252e-01   7.437222e-03
  2.485658e+00    5.367860e-01   7.398302e-03
  2.487869e+00    5.444039e-01   7.450666e-03
  2.490079e+00    5.463302e-01   7.463303e-03
  2.492290e+00    5.308185e-01   7.356175e-03
  2.494500e+00    5.333252e-01   7.372769e-03
  2.496710e+00    5.405661e-01   7.421978e-03
  2.498921e+00    5.216899e-01   7.290249e-03
  2.501131e+00    5.275996e-01   7.330485e-03
  2.503342e+00    5.291479e-01   7.339968e-03
  2.505552e+00    5.254835e-01   7.313392e-03
  2.507763e+00    5.173717e-01   7.255316e-03
  2.509973e+00    5.294571e-01   7.338180e-03
  2.512184e+00    5.239474e-01   7.298277e-03
  2.514394e+00    5.305734e-01   7.334894e-03
  2.516605e+00    5.332226e-01   7.305826e-03
  2.518815e+00    5.123438e-01   7.133419e-03
  2.521025e+00    5.234117e-01   7.189107e-03
  2.523236e+00    5.316262e-01   7.227235e-03
  2.525446e+00    5.141872e-01   7.092273e-03
  2.527657e+00    5.056580e-01   7.018881e-03
  2.529867e+00    5.111814e-01   7.043098e-03
  2.532078e+00    5.168823e-01   7.067350e-03
  2.534288e+00    5.171551e-01   7.055440e-03
  2.536499e+00    5.276752e-01   7.114855e-03
  2.538709e+00    5.280818e-01   7.106575e-03
  2.540920e+00    5.192633e-01   7.036382e-03
  2.543130e+00    5.124676e-01   6.979959e-03
  2.545340e+00    5.162103e-01   6.995382e-03
  2.547551e+00    5.232104e-01   7.032715e-03
  2.549761e+00    5.142155e-01   6.962512e-03
  2.551972e+00    5.103494e-01   6.927014e-03
  2.554182e+00    5.173737e-01   6.965390e-03
  2.556393e+00    5.075383e-01   6.889896e-03
  2.558603e+00    5.076039e-01   6.881372e-03
  2.560814e+00    5.104715e-01   6.892161e-03
  2.563024e+00    5.128350e-01   6.899572e-03
  2.565235e+00    5.149379e-01   6.904224e-03
  2.567445e+00    5.233195e-01   6.950601e-03
  2.569656e+00    5.242704e-01   6.947115e-03
  2.571866e+00    5.099341e-01   6.842192e-03
  2.574076e+00    5.020738e-01   6.780101e-03
  2.576287e+00    5.045005e-01   6.788247e-03
  2.578497e+00    5.163867e-01   6.859895e-03
  2.580708e+00    5.097114e-01   6.807376e-03
  2.582918e+00    5.131474e-01   6.822520e-03
  2.585129e+00    5.035272e-01   6.750628e-03
  2.587339e+00    4.974675e-01   6.702297e-03
  2.589550e+00    5.054170e-01   6.748158e-03
  2.591760e+00    5.123515e-01   6.786526e-03
  2.593971e+00    5.238248e-01   6.854508e-03
  2.596181e+00    5.228332e-01   6.841721e-03
  2.598391e+00    5.148193e-01   6.783877e-03
  2.600602e+00    5.165641e-01   6.789395e-03
  2.602812e+00    5.275468e-01   6.853534e-03
  2.605023e+00    5.070977e-01   6.712231e-03
  2.607233e+00    5.065770e-01   6.701657e-03
  2.609444e+00    5.024714e-01   6.667260e-03
  2.611654e+00    4.969324e-01   6.623137e-03
  2.613865e+00    5.137289e-01   6.727057e-03
  2.616075e+00    5.095802e-01   6.692692e-03
  2.618286e+00    4.966775e-01   6.600472e-03
  2.620496e+00    5.014194e-01   6.625236e-03
  2.622706e+00    5.070592e-01   6.656618e-03
  2.624917e+00    5.069305e-01   6.649944e-03
  2.627127e+00    5.068239e-01   6.643462e-03
  2.629338e+00    5.024902e-01   6.609047e-03
  2.631548e+00    5.002675e-01   6.588245e-03
  2.633759e+00    4.895972e-01   6.510566e-03
  2.635969e+00    4.891612e-01   6.501058e-03
  2.638180e+00    5.038958e-01   6.591227e-03
  2.640390e+00    4.891947e-01   6.487869e-03
  2.642601e+00    4.902152e-01   6.488016e-03
  2.644811e+00    5.069747e-01   6.590883e-03
  2.647021e+00    4.999321e-01   6.538362e-03
  2.649232e+00    5.078992e-01   6.583502e-03
  2.651442e+00    4.993010e-01   6.521025e-03
  2.653653e+00    5.017325e-01   6.530081e-03
  2.655863e+00    4.891891e-01   6.441306e-03
  2.658074e+00    4.899186e-01   6.439553e-03
  2.660284e+00    5.111886e-01   6.571399e-03
  2.662495e+00    5.068049e-01   6.536362e-03
  2.664705e+00    5.082750e-01   6.539192e-03
  2.666916e+00    4.954279e-01   6.449570e-03
  2.669126e+00    4.901718e-01   6.408833e-03
  2.671337e+00    5.005051e-01   6.469417e-03
  2.673547e+00    4.991839e-01   6.454477e-03
  2.675757e+00    4.897444e-01   6.386753e-03
  2.677968e+00    4.877254e-01   6.367072e-03
  2.680178e+00    4.940739e-01   6.401981e-03
  2.682389e+00    4.932531e-01   6.390255e-03
  2.684599e+00    5.014725e-01   6.437064e-03
  2.686810e+00    4.923236e-01   6.371442e-03
  2.689020e+00    5.019714e-01   6.427221e-03
  2.691231e+00    4.994872e-01   6.404960e-03
  2.693441e+00    4.888310e-01   6.330140e-03
  2.695652e+00    4.830954e-01   6.286413e-03
  2.697862e+00    4.934370e-01   6.346970e-03
  2.700072e+00    4.940134e-01   6.344580e-03
  2.702283e+00    4.985262e-01   6.367215e-03
  2.704493e+00    5.094500e-01   6.430171e-03
  2.706704e+00    4.992088e-01   6.358767e-03
  2.708914e+00    4.849716e-01   6.261469e-03
  2.711125e+00    4.821512e-01   6.237014e-03
  2.713335e+00    4.947208e-01   6.311668e-03
  2.715546e+00    4.910223e-01   6.281543e-03
  2.717756e+00    4.901671e-01   6.270153e-03
  2.719967e+00    4.964315e-01   6.303828e-03
  2.722177e+00    4.951544e-01   6.289525e-03
  2.724387e+00    4.835076e-01   6.209009e-03
  2.726598e+00    4.904378e-01   6.247276e-03
  2.728808e+00    4.915396e-01   6.248089e-03
  2.731019e+00    4.957811e-01   6.268797e-03
  2.733229e+00    4.924044e-01   6.241571e-03
  2.735440e+00    4.780892e-01   6.143935e-03
  2.737650e+00    4.691873e-01   6.080539e-03
  2.739861e+00    4.703317e-01   6.081961e-03
  2.742071e+00    4.783783e-01   6.128051e-03
  2.744282e+00    4.918526e-01   6.207445e-03
  2.746492e+00    4.759154e-01   6.100069e-03
  2.748702e+00    4.755434e-01   6.091813e-03
  2.750913e+00    4.777789e-01   6.100339e-03
  2.753123e+00    4.710590e-01   6.051251e-03
  2.755334e+00    4.861056e-01   6.141001e-03
  2.757544e+00    4.896879e-01   6.157810e-03
  2.759755e+00    4.865848e-01   6.132353e-03
  2.761965e+00    4.828803e-01   6.102961e-03
  2.764176e+00    4.781771e-01   6.067199e-03
  2.766386e+00    4.794585e-01   6.069520e-03
  2.768597e+00    4.860667e-01   6.105320e-03
  2.770807e+00    4.725216e-01   6.013798e-03
  2.773017e+00    4.886563e-01   6.109584e-03
  2.775228e+00    4.815478e-01   6.059184e-03
  2.777438e+00    4.913212e-01   6.114481e-03
  2.779649e+00    4.744825e-01   6.002928e-03
  2.781859e+00    4.797214e-01   6.030188e-03
  2.784070e+00    4.813894e-01   6.034778e-03
  2.786280e+00    4.785916e-01   6.011444e-03
  2.788491e+00    4.873950e-01   6.060575e-03
  2.790701e+00    4.784361e-01   5.998961e-03
  2.792912e+00    4.774134e-01   5.986581e-03
  2.795122e+00    4.761565e-01   5.972951e-03
  2.797333e+00    4.799004e-01   5.990811e-03
  2.799543e+00    4.741782e-01   5.949124e-03
  2.801753e+00    4.777090e-01   5.965377e-03
  2.803964e+00    4.614068e-01   5.857114e-03
  2.806174e+00    4.752930e-01   5.938451e-03
  2.808385e+00    4.729314e-01   5.916907e-03
  2.810595e+00    4.618361e-01   5.840307e-03
  2.812806e+00    4.713255e-01   5.893410e-03
  2.815016e+00    4.869399e-01   5.985430e-03
  2.817227e+00    4.638597e-01   5.867524e-03
  2.819437e+00    4.770926e-01   5.961722e-03
  2.821648e+00    4.782629e-01   5.971344e-03
  2.823858e+00    4.789181e-01   5.980803e-03
  2.826068e+00    4.763166e-01   5.969530e-03
  2.828279e+00    4.776667e-01   5.982048e-03
  2.830489e+00    4.725265e-01   5.953123e-03
  2.832700e+00    4.593839e-01   5.872266e-03
  2.834910e+00    4.706692e-01   5.946002e-03
  2.837121e+00    4.699705e-01   5.943319e-03
  2.839331e+00    4.579459e-01   5.868001e-03
  2.841542e+00    4.566258e-01   5.860537e-03
  2.843752e+00    4.668462e-01   5.926528e-03
  2.845963e+00    4.699160e-01   5.946393e-03
  2.848173e+00    4.685753e-01   5.937984e-03
  2.850383e+00    4.763898e-01   5.987593e-03
  2.852594e+00    4.838978e-01   6.034508e-03
  2.854804e+00    4.686102e-01   5.937926e-03
  2.857015e+00    4.730307e-01   5.965427e-03
  2.859225e+00    4.674578e-01   5.929922e-03
  2.861436e+00    4.687575e-01   5.937512e-03
  2.863646e+00    4.616688e-01   5.892486e-03
  2.865857e+00    4.650665e-01   5.914471e-03
  2.868067e+00    4.523636e-01   5.833356e-03
  2.870278e+00    4.600036e-01   5.882053e-03
  2.872488e+00    4.635426e-01   5.903469e-03
  2.874698e+00    4.623570e-01   5.894882e-03
  2.876909e+00    4.652036e-01   5.911674e-03
  2.879119e+00    4.596256e-01   5.874497e-03
  2.881330e+00    4.772384e-01   5.984499e-03
  2.883540e+00    4.613008e-01   5.882363e-03
  2.885751e+00    4.554319e-01   5.843154e-03
  2.887961e+00    4.759644e-01   5.971528e-03
  2.890172e+00    4.568605e-01   5.848862e-03
  2.892382e+00    4.596392e-01   5.864815e-03
  2.894593e+00    4.553685e-01   5.835706e-03
  2.896803e+00    4.669363e-01   5.907368e-03
  2.899014e+00    4.661318e-01   5.900337e-03
  2.901224e+00    4.665590e-01   5.901070e-03
  2.903434e+00    4.542451e-01   5.820716e-03
  2.905645e+00    4.578433e-01   5.841509e-03
  2.907855e+00    4.621395e-01   5.866740e-03
  2.910066e+00    4.643398e-01   5.878621e-03
  2.912276e+00    4.542297e-01   5.812149e-03
  2.914487e+00    4.489819e-01   5.776049e-03
  2.916697e+00    4.465325e-01   5.758076e-03
  2.918908e+00    4.580155e-01   5.829631e-03
  2.921118e+00    4.603814e-01   5.841976e-03
  2.923329e+00    4.522770e-01   5.788027e-03
  2.925539e+00    4.616073e-01   5.845134e-03
  2.927749e+00    4.504605e-01   5.771832e-03
  2.929960e+00    4.667456e-01   5.872426e-03
  2.932170e+00    4.631259e-01   5.847278e-03
  2.934381e+00    4.578834e-01   5.811649e-03
  2.936591e+00    4.520280e-01   5.771781e-03
  2.938802e+00    4.540331e-01   5.781886e-03
  2.941012e+00    4.527709e-01   5.771499e-03
  2.943223e+00    4.638830e-01   5.839183e-03
  2.945433e+00    4.671450e-01   5.855886e-03
  2.947644e+00    4.690794e-01   5.863820e-03
  2.949854e+00    4.538092e-01   5.763327e-03
  2.952064e+00    4.401457e-01   5.671730e-03
  2.954275e+00    4.480259e-01   5.717907e-03
  2.956485e+00    4.663290e-01   5.829286e-03
  2.958696e+00    4.610974e-01   5.792099e-03
  2.960906e+00    4.616826e-01   5.791565e-03
  2.963117e+00    4.641192e-01   5.802293e-03
  2.965327e+00    4.461147e-01   5.684781e-03
  2.967538e+00    4.503094e-01   5.708536e-03
  2.969748e+00    4.443473e-01   5.667837e-03
  2.971959e+00    4.468326e-01   5.680553e-03
  2.974169e+00    4.476224e-01   5.682999e-03
  2.976379e+00    4.554408e-01   5.729501e-03
  2.978590e+00    4.462604e-01   5.668360e-03
  2.980800e+00    4.518201e-01   5.700763e-03
  2.983011e+00    4.395535e-01   5.620081e-03
  2.985221e+00    4.610611e-01   5.752768e-03
  2.987432e+00    4.603463e-01   5.745168e-03
  2.989642e+00    4.598026e-01   5.739147e-03
  2.991853e+00    4.627441e-01   5.754151e-03
  2.994063e+00    4.520801e-01   5.684572e-03
  2.996274e+00    4.549821e-01   5.699593e-03
  2.998484e+00    4.484839e-01   5.656067e-03
  3.000694e+00    4.491845e-01   5.657034e-03
  3.002905e+00    4.582494e-01   5.710895e-03
  3.005115e+00    4.440085e-01   5.618498e-03
  3.007326e+00    4.493069e-01   5.648778e-03
  3.009536e+00    4.409258e-01   5.592640e-03
  3.011747e+00    4.499036e-01   5.646386e-03
  3.013957e+00    4.706827e-01   5.772044e-03
  3.016168e+00    4.604915e-01   5.705969e-03
  3.018378e+00    4.491519e-01   5.632218e-03
  3.020589e+00    4.437531e-01   5.595101e-03
  3.022799e+00    4.507884e-01   5.636108e-03
  3.025010e+00    4.599096e-01   5.689587e-03
  3.027220e+00    4.537033e-01   5.647959e-03
  3.029430e+00    4.402788e-01   5.560571e-03
  3.031641e+00    4.353442e-01   5.526230e-03
  3.033851e+00    4.524922e-01   5.630487e-03
  3.036062e+00    4.553216e-01   5.645297e-03
  3.038272e+00    4.384822e-01   5.536392e-03
  3.040483e+00    4.403520e-01   5.544993e-03
  3.042693e+00    4.549764e-01   5.633040e-03
  3.044904e+00    4.655648e-01   5.694125e-03
  3.047114e+00    4.735709e-01   5.737949e-03
  3.049325e+00    4.459516e-01   5.563759e-03
  3.051535e+00    4.474624e-01   5.568791e-03
  3.053745e+00    4.461260e-01   5.555728e-03
  3.055956e+00    4.497042e-01   5.573409e-03
  3.058166e+00    4.502172e-01   5.572310e-03
  3.060377e+00    4.519500e-01   5.578268e-03
  3.062587e+00    4.558872e-01   5.597833e-03
  3.064798e+00    4.588777e-01   5.611876e-03
  3.067008e+00    4.592200e-01   5.609190e-03
  3.069219e+00    4.537115e-01   5.570922e-03
  3.071429e+00    4.504502e-01   5.547339e-03
  3.073640e+00    4.482869e-01   5.530672e-03
  3.075850e+00    4.670413e-01   5.641531e-03
  3.078060e+00    4.570308e-01   5.577608e-03
  3.080271e+00    4.558806e-01   5.567086e-03
  3.082481e+00    4.433433e-01   5.486579e-03
  3.084692e+00    4.475378e-01   5.509087e-03
  3.086902e+00    4.352159e-01   5.429537e-03
  3.089113e+00    4.425599e-01   5.471577e-03
  3.091323e+00    4.537446e-01   5.536918e-03
  3.093534e+00    4.442256e-01   5.475163e-03
  3.095744e+00    4.406239e-01   5.449573e-03
  3.097955e+00    4.447151e-01   5.471276e-03
  3.100165e+00    4.463215e-01   5.477822e-03
  3.102375e+00    4.430291e-01   5.454178e-03
  3.104586e+00    4.378820e-01   5.418947e-03
  3.106796e+00    4.275971e-01   5.351484e-03
  3.109007e+00    4.393661e-01   5.421428e-03
  3.111217e+00    4.437161e-01   5.444511e-03
  3.113428e+00    4.484183e-01   5.469875e-03
  3.115638e+00    4.580709e-01   5.525153e-03
  3.117849e+00    4.476031e-01   5.457920e-03
  3.120059e+00    4.392664e-01   5.403416e-03
  3.122270e+00    4.386863e-01   5.396604e-03
  3.124480e+00    4.493920e-01   5.458363e-03
  3.126691e+00    4.437974e-01   5.420705e-03
  3.128901e+00    4.548288e-01   5.484511e-03
  3.131111e+00    4.508002e-01   5.456307e-03
  3.133322e+00    4.453498e-01   5.419780e-03
  3.135532e+00    4.445198e-01   5.411295e-03
  3.137743e+00    4.505970e-01   5.444691e-03
  3.139953e+00    4.276543e-01   5.300637e-03
  3.142164e+00    4.352025e-01   5.359105e-03
  3.144374e+00    4.409242e-01   5.422595e-03
  3.146585e+00    4.384342e-01   5.421752e-03
  3.148795e+00    4.478581e-01   5.490556e-03
  3.151006e+00    4.451341e-01   5.482411e-03
  3.153216e+00    4.305676e-01   5.399013e-03
  3.155426e+00    4.492578e-01   5.521302e-03
  3.157637e+00    4.451750e-01   5.501723e-03
  3.159847e+00    4.378552e-01   5.461162e-03
  3.162058e+00    4.328056e-01   5.433977e-03
  3.164268e+00    4.326145e-01   5.436791e-03
  3.166479e+00    4.361717e-01   5.462748e-03
  3.168689e+00    4.485895e-01   5.543351e-03
  3.170900e+00    4.378515e-01   5.479794e-03
  3.173110e+00    4.345786e-01   5.462121e-03
  3.175321e+00    4.448488e-01   5.528791e-03
  3.177531e+00    4.454636e-01   5.535377e-03
  3.179741e+00    4.312969e-01   5.448712e-03
  3.181952e+00    4.277366e-01   5.428264e-03
  3.184162e+00    4.317407e-01   5.455771e-03
  3.186373e+00    4.400588e-01   5.509689e-03
  3.188583e+00    4.359004e-01   5.485381e-03
  3.190794e+00    4.517951e-01   5.586283e-03
  3.193004e+00    4.348210e-01   5.481588e-03
  3.195215e+00    4.348274e-01   5.483117e-03
  3.197425e+00    4.332858e-01   5.474611e-03
  3.199636e+00    4.154485e-01   5.359975e-03
  3.201846e+00    4.196606e-01   5.386491e-03
  3.204056e+00    4.356441e-01   5.488987e-03
  3.206267e+00    4.376561e-01   5.502506e-03
  3.208477e+00    4.335692e-01   5.477667e-03
  3.210688e+00    4.346730e-01   5.485510e-03
  3.212898e+00    4.250172e-01   5.424789e-03
  3.215109e+00    4.322950e-01   5.471790e-03
  3.217319e+00    4.393887e-01   5.517146e-03
  3.219530e+00    4.291829e-01   5.453092e-03
  3.221740e+00    4.347993e-01   5.489219e-03
  3.223951e+00    4.314024e-01   5.468206e-03
  3.226161e+00    4.209996e-01   5.402050e-03
  3.228372e+00    4.391200e-01   5.517635e-03
  3.230582e+00    4.362799e-01   5.499878e-03
  3.232792e+00    4.428685e-01   5.541510e-03
  3.235003e+00    4.354113e-01   5.494880e-03
  3.237213e+00    4.291921e-01   5.455615e-03
  3.239424e+00    4.271061e-01   5.442325e-03
  3.241634e+00    4.406042e-01   5.527789e-03
  3.243845e+00    4.267468e-01   5.440237e-03
  3.246055e+00    4.312514e-01   5.468605e-03
  3.248266e+00    4.261838e-01   5.436575e-03
  3.250476e+00    4.331118e-01   5.480270e-03
  3.252687e+00    4.264493e-01   5.437906e-03
  3.254897e+00    4.245478e-01   5.425620e-03
  3.257107e+00    4.211129e-01   5.403332e-03
  3.259318e+00    4.159366e-01   5.369781e-03
  3.261528e+00    4.183713e-01   5.385335e-03
  3.263739e+00    4.282852e-01   5.448211e-03
  3.265949e+00    4.138131e-01   5.355256e-03
  3.268160e+00    4.242092e-01   5.421678e-03
  3.270370e+00    4.184493e-01   5.384258e-03
  3.272581e+00    4.200531e-01   5.394280e-03
  3.274791e+00    4.208393e-01   5.398794e-03
  3.277002e+00    4.282000e-01   5.445241e-03
  3.279212e+00    4.363479e-01   5.496411e-03
  3.281422e+00    4.369510e-01   5.499650e-03
  3.283633e+00    4.196555e-01   5.389010e-03
  3.285843e+00    4.350928e-01   5.486903e-03
  3.288054e+00    4.275524e-01   5.438206e-03
  3.290264e+00    4.200343e-01   5.389869e-03
  3.292475e+00    4.233737e-01   5.410414e-03
  3.294685e+00    4.280678e-01   5.439682e-03
  3.296896e+00    4.224128e-01   5.402877e-03
  3.299106e+00    4.405354e-01   5.516992e-03
  3.301317e+00    4.284766e-01   5.439947e-03
  3.303527e+00    4.139479e-01   5.346452e-03
  3.305737e+00    4.217991e-01   5.395864e-03
  3.307948e+00    4.200240e-01   5.383834e-03
  3.310158e+00    4.257535e-01   5.419564e-03
  3.312369e+00    4.368778e-01   5.489040e-03
  3.314579e+00    4.176216e-01   5.365785e-03
  3.316790e+00    4.388266e-01   5.499602e-03
  3.319000e+00    4.428377e-01   5.523479e-03
  3.321211e+00    4.266362e-01   5.420878e-03
  3.323421e+00    4.320202e-01   5.453762e-03
  3.325632e+00    4.299915e-01   5.440042e-03
  3.327842e+00    4.220451e-01   5.388629e-03
  3.330052e+00    4.097356e-01   5.308412e-03
  3.332263e+00    4.058589e-01   5.282233e-03
  3.334473e+00    4.149155e-01   5.339950e-03
  3.336684e+00    4.222145e-01   5.385425e-03
  3.338894e+00    4.221943e-01   5.384491e-03
  3.341105e+00    4.236203e-01   5.392328e-03
  3.343315e+00    4.271050e-01   5.413343e-03
  3.345526e+00    4.184092e-01   5.357036e-03
  3.347736e+00    4.121121e-01   5.315186e-03
  3.349947e+00    4.216044e-01   5.375114e-03
  3.352157e+00    4.297130e-01   5.425367e-03
  3.354368e+00    4.239094e-01   5.387305e-03
  3.356578e+00    4.136222e-01   5.320527e-03
  3.358788e+00    4.110088e-01   5.302367e-03
  3.360999e+00    4.191349e-01   5.353277e-03
  3.363209e+00    4.124735e-01   5.309583e-03
  3.365420e+00    4.047425e-01   5.258068e-03
  3.367630e+00    4.155027e-01   5.326498e-03
  3.369841e+00    4.189566e-01   5.347158e-03
  3.372051e+00    4.297040e-01   5.413302e-03
  3.374262e+00    4.129324e-01   5.304191e-03
  3.376472e+00    4.250290e-01   5.378845e-03
  3.378683e+00    4.042436e-01   5.243211e-03
  3.380893e+00    4.179482e-01   5.328986e-03
  3.383103e+00    4.204106e-01   5.341952e-03
  3.385314e+00    4.221560e-01   5.350785e-03
  3.387524e+00    4.198545e-01   5.333432e-03
  3.389735e+00    4.267296e-01   5.374256e-03
  3.391945e+00    4.003401e-01   5.201813e-03
  3.394156e+00    3.930586e-01   5.150158e-03
  3.396366e+00    4.036140e-01   5.215477e-03
  3.398577e+00    4.058885e-01   5.227137e-03
  3.400787e+00    4.190151e-01   5.323014e-03
  3.402998e+00    3.973014e-01   5.220733e-03
  3.405208e+00    3.884871e-01   5.182722e-03
  3.407418e+00    3.880492e-01   5.195311e-03
  3.409629e+00    3.927596e-01   5.240571e-03
  3.411839e+00    3.985924e-01   5.291101e-03
  3.414050e+00    3.959806e-01   5.284728e-03
  3.416260e+00    3.791453e-01   5.180625e-03
  3.418471e+00    3.872066e-01   5.244735e-03
  3.420681e+00    3.812971e-01   5.212937e-03
  3.422892e+00    3.924037e-01   5.296323e-03
  3.425102e+00    3.907274e-01   5.292830e-03
  3.427313e+00    3.806048e-01   5.230939e-03
  3.429523e+00    3.918211e-01   5.314547e-03
  3.431733e+00    3.886552e-01   5.299740e-03
  3.433944e+00    3.784697e-01   5.236266e-03
  3.436154e+00    3.844081e-01   5.283427e-03
  3.438365e+00    3.765478e-01   5.235014e-03
  3.440575e+00    3.809184e-01   5.271268e-03
  3.442786e+00    3.696438e-01   5.198182e-03
  3.444996e+00    3.690083e-01   5.199174e-03
  3.447207e+00    3.678781e-01   5.196429e-03
  3.449417e+00    3.687469e-01   5.243216e-03
  3.451628e+00    3.722515e-01   5.297667e-03
  3.453838e+00    3.720479e-01   5.317493e-03
  3.456049e+00    3.805493e-01   5.402268e-03
  3.458259e+00    3.595361e-01   5.272709e-03
  3.460469e+00    3.593900e-01   5.291228e-03
  3.462680e+00    3.660687e-01   5.359211e-03
  3.464890e+00    3.803006e-01   5.480542e-03
  3.467101e+00    3.678689e-01   5.407705e-03
  3.469311e+00    3.744878e-01   5.472748e-03
  3.471522e+00    3.932171e-01   5.624761e-03
  3.473732e+00    3.937921e-01   5.645097e-03
  3.475943e+00    3.854785e-01   5.601006e-03
  3.478153e+00    3.852585e-01   5.614748e-03
  3.480364e+00    4.075266e-01   5.790166e-03
  3.482574e+00    4.182389e-01   5.881377e-03
  3.484784e+00    4.285381e-01   5.968548e-03
  3.486995e+00    4.233036e-01   5.947242e-03
  3.489205e+00    4.404387e-01   6.081343e-03
  3.491416e+00    4.375669e-01   6.076630e-03
  3.493626e+00    4.353659e-01   6.075889e-03
  3.495837e+00    4.502011e-01   6.193456e-03
  3.498047e+00    4.501179e-01   6.207481e-03
  3.500258e+00    4.620160e-01   6.303719e-03
  3.502468e+00    4.526095e-01   6.253626e-03
  3.504679e+00    4.663811e-01   6.362614e-03
  3.506889e+00    4.711989e-01   6.409922e-03
  3.509099e+00    4.600074e-01   6.347534e-03
  3.511310e+00    4.717991e-01   6.442767e-03
  3.513520e+00    4.779407e-01   6.498926e-03
  3.515731e+00    4.912977e-01   6.603548e-03
  3.517941e+00    4.954830e-01   6.646086e-03
  3.520152e+00    4.958606e-01   6.662925e-03
  3.522362e+00    5.123348e-01   6.787362e-03
  3.524573e+00    5.183814e-01   6.841768e-03
  3.526783e+00    5.103295e-01   6.801743e-03
  3.528994e+00    5.145742e-01   6.842220e-03
  3.531204e+00    5.240862e-01   6.917635e-03
  3.533414e+00    5.213804e-01   6.911778e-03
  3.535625e+00    5.367496e-01   7.025409e-03
  3.537835e+00    5.317814e-01   7.004897e-03
  3.540046e+00    5.595412e-01   7.194558e-03
  3.542256e+00    5.427462e-01   7.093337e-03
  3.544467e+00    5.396614e-01   7.080799e-03
  3.546677e+00    5.512241e-01   7.163937e-03
  3.548888e+00    5.349990e-01   7.065213e-03
  3.551098e+00    5.356435e-01   7.076745e-03
  3.553309e+00    5.371634e-01   7.094938e-03
  3.555519e+00    5.423189e-01   7.140289e-03
  3.557729e+00    5.433190e-01   7.158658e-03
  3.559940e+00    5.349703e-01   7.114997e-03
  3.562150e+00    5.362256e-01   7.135042e-03
  3.564361e+00    5.403541e-01   7.175814e-03
  3.566571e+00    5.575524e-01   7.303230e-03
  3.568782e+00    5.512189e-01   7.275980e-03
  3.570992e+00    5.405781e-01   7.219173e-03
  3.573203e+00    5.536463e-01   7.320333e-03
  3.575413e+00    5.355433e-01   7.213412e-03
  3.577624e+00    5.284390e-01   7.179409e-03
  3.579834e+00    5.315311e-01   7.214240e-03
  3.582045e+00    5.298157e-01   7.216517e-03
  3.584255e+00    5.280811e-01   7.218671e-03
  3.586465e+00    5.314694e-01   7.255623e-03
  3.588676e+00    5.412596e-01   7.336435e-03
  3.590886e+00    5.222967e-01   7.220324e-03
  3.593097e+00    5.280781e-01   7.274524e-03
  3.595307e+00    5.366538e-01   7.347326e-03
  3.597518e+00    5.289594e-01   7.308596e-03
  3.599728e+00    5.452226e-01   7.434285e-03
  3.601939e+00    5.565199e-01   7.525303e-03
  3.604149e+00    5.347300e-01   7.390880e-03
  3.606360e+00    5.370970e-01   7.421372e-03
  3.608570e+00    5.298672e-01   7.385362e-03
  3.610780e+00    5.382504e-01   7.454641e-03
  3.612991e+00    5.491823e-01   7.540105e-03
  3.615201e+00    5.472220e-01   7.536570e-03
  3.617412e+00    5.258505e-01   7.395125e-03
  3.619622e+00    5.333102e-01   7.453333e-03
  3.621833e+00    5.401098e-01   7.507475e-03
  3.624043e+00    5.284788e-01   7.435630e-03
  3.626254e+00    5.376368e-01   7.509538e-03
  3.628464e+00    5.124539e-01   7.342259e-03
  3.630675e+00    5.375818e-01   7.534302e-03
  3.632885e+00    5.469669e-01   7.614439e-03
  3.635095e+00    5.173066e-01   7.419264e-03
  3.637306e+00    5.323957e-01   7.541014e-03
  3.639516e+00    5.334903e-01   7.563345e-03
  3.641727e+00    5.202571e-01   7.483312e-03
  3.643937e+00    5.303612e-01   7.570135e-03
  3.646148e+00    5.180136e-01   7.495945e-03
  3.648358e+00    5.395269e-01   7.664897e-03
  3.650569e+00    5.323442e-01   7.628463e-03
  3.652779e+00    5.514457e-01   7.779121e-03
  3.654990e+00    5.361153e-01   7.685212e-03
  3.657200e+00    5.473633e-01   7.780486e-03
  3.659410e+00    5.464921e-01   7.789480e-03
  3.661621e+00    5.277410e-01   7.669724e-03
  3.663831e+00    5.103578e-01   7.557157e-03
  3.666042e+00    5.149724e-01   7.606135e-03
  3.668252e+00    5.420942e-01   7.819278e-03
  3.670463e+00    5.083980e-01   7.587278e-03
  3.672673e+00    5.223179e-01   7.705724e-03
  3.674884e+00    5.253114e-01   7.743088e-03
  3.677094e+00    5.335854e-01   7.819425e-03
  3.679305e+00    5.240219e-01   7.764457e-03
  3.681515e+00    5.217759e-01   7.763314e-03
  3.683726e+00    5.141183e-01   7.721707e-03
  3.685936e+00    5.205055e-01   7.785084e-03
  3.688146e+00    5.234445e-01   7.822753e-03
  3.690357e+00    5.337319e-01   7.915296e-03
  3.692567e+00    5.014016e-01   7.687565e-03
  3.694778e+00    4.959784e-01   7.661404e-03
  3.696988e+00    5.335944e-01   7.962714e-03
  3.699199e+00    5.273663e-01   7.932430e-03
  3.701409e+00    5.029330e-01   7.762504e-03
  3.703620e+00    5.033264e-01   7.781473e-03
  3.705830e+00    5.039664e-01   7.802535e-03
  3.708041e+00    5.285954e-01   8.007575e-03
  3.710251e+00    5.274340e-01   8.015539e-03
  3.712461e+00    5.274064e-01   8.032141e-03
  3.714672e+00    5.229291e-01   8.014756e-03
  3.716882e+00    5.180362e-01   7.993832e-03
  3.719093e+00    5.225382e-01   8.045609e-03
  3.721303e+00    5.313658e-01   8.130495e-03
  3.723514e+00    4.993491e-01   7.898675e-03
  3.725724e+00    5.089323e-01   7.991080e-03
  3.727935e+00    5.336998e-01   8.200929e-03
  3.730145e+00    5.311202e-01   8.198673e-03
  3.732356e+00    5.211325e-01   8.138847e-03
  3.734566e+00    5.312474e-01   8.235220e-03
  3.736776e+00    5.289372e-01   8.235333e-03
  3.738987e+00    5.007004e-01   8.029992e-03
  3.741197e+00    5.199128e-01   8.200717e-03
  3.743408e+00    5.220599e-01   8.235863e-03
  3.745618e+00    5.084109e-01   8.145699e-03
  3.747829e+00    5.253913e-01   8.298959e-03
  3.750039e+00    5.153093e-01   8.237353e-03
  3.752250e+00    5.075306e-01   8.193415e-03
  3.754460e+00    5.039357e-01   8.182713e-03
  3.756671e+00    5.309409e-01   8.418332e-03
  3.758881e+00    5.112058e-01   8.279081e-03
  3.761091e+00    5.110142e-01   8.296727e-03
  3.763302e+00    5.001028e-01   8.226573e-03
  3.765512e+00    4.944947e-01   8.199329e-03
  3.767723e+00    5.202799e-01   8.429984e-03
  3.769933e+00    5.085202e-01   8.353540e-03
  3.772144e+00    5.017938e-01   8.317641e-03
  3.774354e+00    4.945143e-01   8.276690e-03
  3.776565e+00    4.867708e-01   8.231089e-03
  3.778775e+00    5.200933e-01   8.528442e-03
  3.780986e+00    5.184311e-01   8.535420e-03
  3.783196e+00    4.834286e-01   8.262079e-03
  3.785407e+00    4.883514e-01   8.324159e-03
  3.787617e+00    4.956366e-01   8.406598e-03
  3.789827e+00    4.925245e-01   8.400490e-03
  3.792038e+00    5.057608e-01   8.533557e-03
  3.794248e+00    5.150464e-01   8.632991e-03
  3.796459e+00    5.082879e-01   8.597665e-03
  3.798669e+00    4.919553e-01   8.479598e-03
  3.800880e+00    4.925317e-01   8.505805e-03
  3.803090e+00    5.024265e-01   8.612732e-03
  3.805301e+00    5.129899e-01   8.725126e-03
  3.807511e+00    5.145508e-01   8.760721e-03
  3.809722e+00    5.162106e-01   8.797510e-03
  3.811932e+00    4.905942e-01   8.598417e-03
  3.814142e+00    4.981478e-01   8.687191e-03
  3.816353e+00    5.028741e-01   8.751241e-03
  3.818563e+00    4.941267e-01   8.697841e-03
  3.820774e+00    5.055685e-01   8.821223e-03
  3.822984e+00    5.089580e-01   8.874434e-03
  3.825195e+00    4.921530e-01   8.750271e-03
  3.827405e+00    4.828102e-01   8.690325e-03
  3.829616e+00    5.027036e-01   8.891732e-03
  3.831826e+00    4.937845e-01   8.836614e-03
  3.834037e+00    4.838302e-01   8.771252e-03
  3.836247e+00    4.986424e-01   8.929222e-03
  3.838457e+00    4.992935e-01   8.960133e-03
  3.840668e+00    5.068800e-01   9.053449e-03
  3.842878e+00    4.898706e-01   8.925587e-03
  3.845089e+00    4.780160e-01   8.842072e-03
  3.847299e+00    4.878532e-01   8.958151e-03
  3.849510e+00    4.951944e-01   9.051174e-03
  3.851720e+00    5.069708e-01   9.179794e-03
  3.853931e+00    5.083565e-01   9.211639e-03
  3.856141e+00    4.934202e-01   9.094247e-03
  3.858352e+00    4.825896e-01   9.012940e-03
  3.860562e+00    4.901101e-01   9.102093e-03
  3.862772e+00    5.102935e-01   9.307516e-03
  3.864983e+00    4.981697e-01   9.216109e-03
  3.867193e+00    4.565735e-01   8.841998e-03
  3.869404e+00    4.694992e-01   8.985501e-03
  3.871614e+00    5.013281e-01   9.305242e-03
  3.873825e+00    4.838346e-01   9.161644e-03
  3.876035e+00    4.797278e-01   9.142972e-03
  3.878246e+00    5.127110e-01   9.478218e-03
  3.880456e+00    5.127223e-01   9.508055e-03
  3.882667e+00    5.127444e-01   9.538162e-03
  3.884877e+00    5.000879e-01   9.449703e-03
  3.887087e+00    4.833214e-01   9.319635e-03
  3.889298e+00    5.062265e-01   9.568713e-03
  3.891508e+00    5.005482e-01   9.545738e-03
  3.893719e+00    4.856018e-01   9.432983e-03
  3.895929e+00    4.596826e-01   9.208219e-03
  3.898140e+00    4.779129e-01   9.420278e-03
  3.900350e+00    5.061969e-01   9.727674e-03
  3.902561e+00    4.980384e-01   9.681609e-03
  3.904771e+00    4.884247e-01   9.620500e-03
  3.906982e+00    4.676751e-01   9.446298e-03
  3.909192e+00    5.151774e-01   9.948749e-03
  3.911403e+00    5.216470e-01   1.004624e-02
  3.913613e+00    4.905078e-01   9.776134e-03
  3.915823e+00    4.761875e-01   9.666605e-03
  3.918034e+00    4.877000e-01   9.818125e-03
  3.920244e+00    4.730418e-01   9.704606e-03
  3.922455e+00    4.637345e-01   9.643772e-03
  3.924665e+00    4.753481e-01   9.799730e-03
  3.926876e+00    4.860271e-01   9.946253e-03
  3.929086e+00    5.068349e-01   1.019503e-02
  3.931297e+00    4.891692e-01   1.005066e-02
  3.933507e+00    5.109528e-01   1.030154e-02
  3.935718e+00    5.057141e-01   1.027803e-02
  3.937928e+00    5.058429e-01   1.030920e-02
  3.940138e+00    4.874419e-01   1.014941e-02
  3.942349e+00    5.030469e-01   1.034085e-02
  3.944559e+00    4.946433e-01   1.028439e-02
  3.946770e+00    5.089988e-01   1.046335e-02
  3.948980e+00    4.929076e-01   1.032765e-02
  3.951191e+00    4.899008e-01   1.032701e-02
  3.953401e+00    4.775049e-01   1.022658e-02
  3.955612e+00    4.956713e-01   1.045124e-02
  3.957822e+00    4.930381e-01   1.045539e-02
  3.960033e+00    4.703241e-01   1.024380e-02
  3.962243e+00    4.720036e-01   1.029439e-02
  3.964453e+00    4.920263e-01   1.054379e-02
  3.966664e+00    5.287526e-01   1.096512e-02
  3.968874e+00    5.191815e-01   1.089486e-02
  3.971085e+00    4.862678e-01   1.056569e-02
  3.973295e+00    4.872563e-01   1.059804e-02
  3.975506e+00    4.902514e-01   1.065220e-02
  3.977716e+00    4.942377e-01   1.071759e-02
  3.979927e+00    5.135157e-01   1.094741e-02
  3.982137e+00    4.733537e-01   1.053263e-02
  3.984348e+00    4.736382e-01   1.055810e-02
  3.986558e+00    5.014767e-01   1.088650e-02
  3.988768e+00    4.963814e-01   1.085449e-02
  3.990979e+00    4.890883e-01   1.079722e-02
  3.993189e+00    4.942488e-01   1.087730e-02
  3.995400e+00    5.019403e-01   1.098560e-02
  3.997610e+00    5.009583e-01   1.100516e-02
  3.999821e+00    4.881727e-01   1.090143e-02
  4.002031e+00    4.790574e-01   1.083738e-02
  4.004242e+00    5.003365e-01   1.111450e-02
  4.006452e+00    4.925050e-01   1.106689e-02
  4.008663e+00    4.837848e-01   1.100846e-02
  4.010873e+00    5.069773e-01   1.131013e-02
  4.013084e+00    4.436842e-01   1.061981e-02
  4.015294e+00    4.952454e-01   1.126123e-02
  4.017504e+00    4.897926e-01   1.124129e-02
  4.019715e+00    4.730574e-01   1.108953e-02
  4.021925e+00    4.692403e-01   1.108698e-02
  4.024136e+00    4.766505e-01   1.121759e-02
  4.026346e+00    4.694347e-01   1.117578e-02
  4.028557e+00    4.954632e-01   1.152635e-02
  4.030767e+00    4.826892e-01   1.142231e-02
  4.032978e+00    4.600404e-01   1.119641e-02
  4.035188e+00    4.682467e-01   1.134102e-02
  4.037399e+00    4.858222e-01   1.159970e-02
  4.039609e+00    4.848863e-01   1.163639e-02
  4.041819e+00    4.902485e-01   1.174958e-02
  4.044030e+00    4.851491e-01   1.173843e-02
  4.046240e+00    4.704992e-01   1.160892e-02
  4.048451e+00    4.535764e-01   1.144767e-02
  4.050661e+00    4.961520e-01   1.202496e-02
  4.052872e+00    4.956264e-01   1.207209e-02
  4.055082e+00    4.780093e-01   1.190890e-02
  4.057293e+00    4.756040e-01   1.193217e-02
  4.059503e+00    4.836670e-01   1.208758e-02
  4.061714e+00    4.849627e-01   1.216049e-02
  4.063924e+00    4.972423e-01   1.237106e-02
  4.066134e+00    4.764689e-01   1.216702e-02
  4.068345e+00    4.417084e-01   1.177121e-02
  4.070555e+00    4.906016e-01   1.246538e-02
  4.072766e+00    4.824895e-01   1.242283e-02
  4.074976e+00    4.926488e-01   1.261546e-02
  4.077187e+00    4.811063e-01   1.252886e-02
  4.079397e+00    4.797384e-01   1.257486e-02
  4.081608e+00    5.025793e-01   1.293774e-02
  4.083818e+00    4.831902e-01   1.275161e-02
  4.086029e+00    4.936447e-01   1.295680e-02
  4.088239e+00    4.496404e-01   1.243252e-02
  4.090449e+00    4.849744e-01   1.298163e-02
  4.092660e+00    4.624361e-01   1.274628e-02
  4.094870e+00    4.651912e-01   1.285514e-02
  4.097081e+00    4.954270e-01   1.333904e-02
  4.099291e+00    5.074090e-01   1.355536e-02
  4.101502e+00    4.981983e-01   1.348171e-02
  4.103712e+00    4.957947e-01   1.349945e-02
  4.105923e+00    5.187756e-01   1.386210e-02
  4.108133e+00    4.978500e-01   1.363202e-02
  4.110344e+00    4.800956e-01   1.343800e-02
  4.112554e+00    5.187854e-01   1.402402e-02
  4.114764e+00    5.330161e-01   1.427233e-02
  4.116975e+00    4.802908e-01   1.360144e-02
  4.119185e+00    4.720244e-01   1.353871e-02
  4.121396e+00    4.869628e-01   1.380792e-02
  4.123606e+00    5.061206e-01   1.413464e-02
  4.125817e+00    5.044717e-01   1.417081e-02
  4.128027e+00    4.753667e-01   1.381398e-02
  4.130238e+00    4.444241e-01   1.341402e-02
  4.132448e+00    5.162199e-01   1.451958e-02
  4.134659e+00    4.725658e-01   1.395213e-02
  4.136869e+00    4.326343e-01   1.340905e-02
  4.139080e+00    4.881941e-01   1.430807e-02
  4.141290e+00    5.359355e-01   1.505811e-02
  4.143500e+00    4.725589e-01   1.420479e-02
  4.145711e+00    5.104197e-01   1.483188e-02
  4.147921e+00    4.944547e-01   1.466497e-02
  4.150132e+00    4.927002e-01   1.470882e-02
  4.152342e+00    5.241759e-01   1.524487e-02
  4.154553e+00    4.814713e-01   1.468029e-02
  4.156763e+00    5.293117e-01   1.546848e-02
  4.158974e+00    5.225273e-01   1.544608e-02
  4.161184e+00    5.178872e-01   1.545380e-02
  4.163395e+00    5.275385e-01   1.567692e-02
  4.165605e+00    4.595167e-01   1.470731e-02
  4.167815e+00    4.894620e-01   1.525802e-02
  4.170026e+00    4.994482e-01   1.549422e-02
  4.172236e+00    4.675184e-01   1.507185e-02
  4.174447e+00    4.671899e-01   1.514840e-02
  4.176657e+00    4.680297e-01   1.524492e-02
  4.178868e+00    5.224178e-01   1.619758e-02
  4.181078e+00    4.704723e-01   1.545785e-02
  4.183289e+00    4.794302e-01   1.569357e-02
  4.185499e+00    4.743816e-01   1.570273e-02
  4.187710e+00    4.742318e-01   1.579238e-02
  4.189920e+00    4.573904e-01   1.560262e-02
  4.192130e+00    5.122564e-01   1.661311e-02
  4.194341e+00    4.515962e-01   1.569398e-02
  4.196551e+00    5.081977e-01   1.675391e-02
  4.198762e+00    4.903915e-01   1.656239e-02
  4.200972e+00    4.751888e-01   1.640915e-02
  4.203183e+00    4.373886e-01   1.584660e-02
  4.205393e+00    4.556381e-01   1.628144e-02
  4.207604e+00    4.701409e-01   1.665150e-02
  4.209814e+00    4.492955e-01   1.639004e-02
  4.212025e+00    4.732303e-01   1.693959e-02
  4.214235e+00    5.101650e-01   1.771315e-02
  4.216445e+00    4.736255e-01   1.719040e-02
  4.218656e+00    5.066365e-01   1.791268e-02
  4.220866e+00    5.100995e-01   1.810692e-02
  4.223077e+00    5.018031e-01   1.809719e-02
  4.225287e+00    5.105616e-01   1.839815e-02
  4.227498e+00    4.605756e-01   1.761113e-02
  4.229708e+00    4.683905e-01   1.790445e-02
  4.231919e+00    4.499338e-01   1.769338e-02
  4.234129e+00    4.504777e-01   1.785254e-02
  4.236340e+00    5.404968e-01   1.972207e-02
  4.238550e+00    4.879231e-01   1.890439e-02
  4.240761e+00    5.189115e-01   1.966720e-02
  4.242971e+00    4.563468e-01   1.861288e-02
  4.245181e+00    4.180326e-01   1.798142e-02
  4.247392e+00    4.811128e-01   1.947066e-02
  4.249602e+00    4.860397e-01   1.976462e-02
  4.251813e+00    5.163988e-01   2.057342e-02
  4.254023e+00    4.332100e-01   1.903343e-02
  4.256234e+00    4.866483e-01   2.038894e-02
  4.258444e+00    4.384775e-01   1.955581e-02
  4.260655e+00    4.518383e-01   2.006992e-02
  4.262865e+00    4.702307e-01   2.070643e-02
  4.265076e+00    4.383472e-01   2.021927e-02
  4.267286e+00    4.805627e-01   2.142192e-02
  4.269496e+00    5.023212e-01   2.216883e-02
  4.271707e+00    5.176829e-01   2.278296e-02
  4.273917e+00    5.153645e-01   2.302635e-02
  4.276128e+00    4.983040e-01   2.294220e-02
  4.278338e+00    5.261796e-01   2.388976e-02
  4.280549e+00    5.226986e-01   2.415315e-02
  4.282759e+00    4.138280e-01   2.179939e-02
  4.284970e+00    4.389901e-01   2.278447e-02
  4.287180e+00    4.742732e-01   2.396607e-02
  4.289391e+00    4.750668e-01   2.416703e-02
  4.291601e+00    4.253071e-01   2.304888e-02
  4.293811e+00    4.050726e-01   2.266902e-02
  4.296022e+00    4.355296e-01   2.369489e-02
  4.298232e+00    4.892609e-01   2.532471e-02
  4.300443e+00    4.473595e-01   2.441541e-02
  4.302653e+00    4.442682e-01   2.454163e-02
  4.304864e+00    5.391673e-01   2.727003e-02
  4.307074e+00    5.464541e-01   2.770096e-02
  4.309285e+00    5.676146e-01   2.848879e-02
  4.311495e+00    4.214533e-01   2.477752e-02
  4.313706e+00    4.831834e-01   2.677966e-02
  4.315916e+00    4.679046e-01   2.661189e-02
  4.318126e+00    4.562677e-01   2.653914e-02
  4.320337e+00    4.926850e-01   2.785665e-02
  4.322547e+00    5.288578e-01   2.916759e-02
  4.324758e+00    4.791645e-01   2.805246e-02
  4.326968e+00    4.849626e-01   2.853864e-02
  4.329179e+00    4.843091e-01   2.883413e-02
  4.331389e+00    5.532231e-01   3.117234e-02
  4.333600e+00    5.038598e-01   3.010505e-02
  4.335810e+00    5.074332e-01   3.057017e-02
  4.338021e+00    5.680777e-01   3.275992e-02
  4.340231e+00    5.274689e-01   3.196309e-02
  4.342442e+00    5.110841e-01   3.188576e-02
  4.344652e+00    4.384712e-01   2.993438e-02
  4.346862e+00    4.579144e-01   3.101875e-02
  4.349073e+00    4.869500e-01   3.245315e-02
  4.351283e+00    4.613678e-01   3.206057e-02
  4.353494e+00    4.938526e-01   3.368308e-02
  4.355704e+00    4.455161e-01   3.250742e-02
  4.357915e+00    3.771882e-01   3.040844e-02
  4.360125e+00    4.331115e-01   3.314121e-02
  4.362336e+00    4.473778e-01   3.429627e-02
  4.364546e+00    4.819630e-01   3.624501e-02
  4.366757e+00    4.306115e-01   3.494165e-02
  4.368967e+00    4.942561e-01   3.818172e-02
  4.371177e+00    4.709933e-01   3.806490e-02
  4.373388e+00    5.347825e-01   4.146839e-02
  4.375598e+00    3.545637e-01   3.453423e-02
  4.377809e+00    3.632376e-01   3.584107e-02
  4.380019e+00    2.331034e-01   2.943195e-02
  4.382230e+00    3.367848e-01   3.636422e-02
  4.384440e+00    3.771428e-01   3.958905e-02
  4.386651e+00    4.584427e-01   4.499474e-02
  4.388861e+00    3.316151e-01   3.955252e-02
  4.391072e+00    4.863350e-01   4.957969e-02
  4.393282e+00    4.196914e-01   4.784002e-02
  4.395492e+00    5.166636e-01   5.528608e-02
  4.397703e+00    3.337045e-01   4.646295e-02
  4.399913e+00    2.555290e-01   4.271332e-02
  4.402124e+00    5.147975e-01   6.406416e-02
  4.404334e+00    4.663714e-01   6.482127e-02
  4.406545e+00    3.420053e-01   5.963879e-02
  4.408755e+00    4.664604e-01   7.553274e-02
  4.410966e+00    4.968794e-01   8.628893e-02
  4.413176e+00    1.934566e-01   6.095074e-02
  4.415387e+00   -7.786459e-01            nan
  4.417597e+00   -2.044852e+00            nan
  4.419807e+00   -3.766224e-01            nan
