# == pyFAI calibration ==
# Distance Sample to Detector: 0.216 m
# PONI: 1.166e-01, 1.308e-01 m
# Rotations: 0.000000 0.000000 0.000000 rad
# 
# == Fit2d calibration ==
# Distance Sample-beamCenter: 216.000 mm
# Center: x=1744.293, y=1555.000 pix
# Tilt: 0.000 deg  TiltPlanRot: 0.000 deg
# 
# Detector Eiger 9M	 PixelSize= 7.500e-05, 7.500e-05 m
#    Detector has a mask: True 
#    Detector has a dark current: False 
#    detector has a flat field: False 
# 
# Wavelength: 9.8e-11 m
# Mask applied: from detector
# Dark current applied: False
# Flat field applied: False
# Polarization factor: None
# Normalization factor: 1.0
# 
# Headers of the input frame:
# {
# "_array_data.header_convention": "SLS_1.0",
# "_array_data.header_contents": "# Detector: Dectris Eiger 9M, S/N E-18-0102\r\n# Pixel_size 75e-6 m x 75e-6 m\r\n# Silicon sensor, thickness 0.000450 m\r\n# Exposure_time 0.024997 s\r\n# Exposure_period 0.025000 s\r\n# Count_cutoff 62318 counts\r\n# Wavelength 0.980106 A\r\n# Detector_distance 0.215992 m\r\n# Beam_xy (1555, 1744) pixels\r\n# Start_angle 0.000000 deg.\r\n# Angle_increment 0.000000 deg.",
# "Content-Type": "application/octet-stream;",
# "conversions": "x-CBF_BYTE_OFFSET",
# "Content-Transfer-Encoding": "BINARY",
# "X-Binary-Size": "10166614",
# "X-Binary-ID": "1",
# "X-Binary-Element-Type": "signed 32-bit integer",
# "X-Binary-Element-Byte-Order": "LITTLE_ENDIAN",
# "Content-MD5": "XRGkyqI7tXAzTKROZj5AdQ==",
# "X-Binary-Number-of-Elements": "10166590",
# "X-Binary-Size-Fastest-Dimension": "3110",
# "X-Binary-Size-Second-Dimension": "3269",
# "X-Binary-Size-Padding": "4095"
# }
# --> H:/Proxima2a_2019-04-05/RAW_DATA/C5_gel17_position5/C5_mesh_1_data.cbf/C5_mesh_1_data.cbf000116.dat
#        q_A^-1              I           sigma 
  1.105228e-03    4.337184e-01   3.563615e-01
  3.315685e-03    1.292740e+00   3.740253e-01
  5.526141e-03    1.276251e+00   2.873692e-01
  7.736597e-03    1.219036e+00   2.372621e-01
  9.947054e-03    1.300882e+00   2.160705e-01
  1.215751e-02    1.561925e+00   2.140912e-01
  1.436797e-02    1.445908e+00   1.894725e-01
  1.657842e-02    1.378702e+00   1.722184e-01
  1.878888e-02    1.446463e+00   1.656979e-01
  2.099934e-02    1.300419e+00   1.486427e-01
  2.320979e-02    1.433654e+00   1.484414e-01
  2.542025e-02    1.429357e+00   1.416380e-01
  2.763070e-02    1.318853e+00   1.304934e-01
  2.984116e-02    1.453848e+00   1.318366e-01
  3.205162e-02    1.316312e+00   1.210503e-01
  3.426207e-02    1.285079e+00   1.156751e-01
  3.647253e-02    1.466194e+00   1.197527e-01
  3.868299e-02    1.473856e+00   1.165932e-01
  4.089344e-02    1.478687e+00   1.135845e-01
  4.310390e-02    1.400555e+00   1.076648e-01
  4.531436e-02    1.573187e+00   1.112900e-01
  4.752481e-02    1.363530e+00   1.011699e-01
  4.973527e-02    1.401954e+00   1.002810e-01
  5.194572e-02    1.287001e+00   9.401395e-02
  5.415618e-02    1.302679e+00   9.263127e-02
  5.636664e-02    1.209776e+00   8.750191e-02
  5.857709e-02    1.473304e+00   9.472413e-02
  6.078755e-02    1.461846e+00   9.262072e-02
  6.299801e-02    1.316982e+00   8.635478e-02
  6.520846e-02    1.491417e+00   9.032546e-02
  6.741892e-02    1.441341e+00   8.732394e-02
  6.962938e-02    1.345934e+00   8.303826e-02
  7.183983e-02    1.565117e+00   8.815470e-02
  7.405029e-02    1.466256e+00   8.404002e-02
  7.626074e-02    1.407065e+00   8.112364e-02
  7.847120e-02    1.332070e+00   7.781038e-02
  8.068166e-02    1.379952e+00   7.810343e-02
  8.289211e-02    1.541888e+00   8.145038e-02
  8.510257e-02    1.465547e+00   7.836989e-02
  8.731303e-02    1.422615e+00   7.622692e-02
  8.952348e-02    1.461641e+00   7.630764e-02
  9.173394e-02    1.442214e+00   7.487705e-02
  9.394439e-02    1.532714e+00   7.627458e-02
  9.615485e-02    1.466456e+00   7.374358e-02
  9.836531e-02    1.418234e+00   7.169954e-02
  1.005758e-01    1.509993e+00   7.316560e-02
  1.027862e-01    1.501314e+00   7.216451e-02
  1.049967e-01    1.448956e+00   7.014351e-02
  1.072071e-01    1.558241e+00   7.198600e-02
  1.094176e-01    1.446917e+00   6.866165e-02
  1.116280e-01    1.547142e+00   7.029180e-02
  1.138385e-01    1.632788e+00   7.150531e-02
  1.160490e-01    1.583356e+00   6.973990e-02
  1.182594e-01    1.479477e+00   6.677892e-02
  1.204699e-01    1.452963e+00   6.556740e-02
  1.226803e-01    1.559201e+00   6.730468e-02
  1.248908e-01    1.594549e+00   6.745756e-02
  1.271012e-01    1.573718e+00   6.642884e-02
  1.293117e-01    1.614781e+00   6.671149e-02
  1.315222e-01    1.555850e+00   6.492877e-02
  1.337326e-01    1.483572e+00   6.287526e-02
  1.359431e-01    1.504914e+00   6.336299e-02
  1.381535e-01    1.511627e+00   6.435656e-02
  1.403640e-01    1.582180e+00   6.612560e-02
  1.425744e-01    1.507118e+00   6.464109e-02
  1.447849e-01    1.461677e+00   6.367377e-02
  1.469953e-01    1.599356e+00   6.656337e-02
  1.492058e-01    1.600080e+00   6.650110e-02
  1.514163e-01    1.570568e+00   6.577553e-02
  1.536267e-01    1.623628e+00   6.674684e-02
  1.558372e-01    1.637864e+00   6.689081e-02
  1.580476e-01    1.609229e+00   6.614261e-02
  1.602581e-01    1.650158e+00   6.680834e-02
  1.624685e-01    1.690727e+00   6.743945e-02
  1.646790e-01    1.672199e+00   6.687632e-02
  1.668895e-01    1.706062e+00   6.735499e-02
  1.690999e-01    1.691822e+00   6.687188e-02
  1.713104e-01    1.722609e+00   6.726818e-02
  1.735208e-01    1.805503e+00   6.865354e-02
  1.757313e-01    1.722146e+00   6.683986e-02
  1.779417e-01    1.799621e+00   6.810395e-02
  1.801522e-01    1.877014e+00   6.933143e-02
  1.823626e-01    1.921901e+00   6.992199e-02
  1.845731e-01    1.909173e+00   6.946433e-02
  1.867836e-01    2.004601e+00   7.093900e-02
  1.889940e-01    1.987778e+00   7.040988e-02
  1.912045e-01    1.935858e+00   6.925222e-02
  1.934149e-01    2.028133e+00   7.064625e-02
  1.956254e-01    1.991007e+00   6.976579e-02
  1.978358e-01    1.959605e+00   6.897626e-02
  2.000463e-01    1.986142e+00   6.921158e-02
  2.022568e-01    2.000597e+00   6.923500e-02
  2.044672e-01    1.949105e+00   6.810411e-02
  2.066777e-01    1.935062e+00   6.763307e-02
  2.088881e-01    1.995020e+00   6.844821e-02
  2.110986e-01    1.999650e+00   6.829261e-02
  2.133090e-01    1.998441e+00   6.805002e-02
  2.155195e-01    1.947507e+00   6.695439e-02
  2.177300e-01    1.967319e+00   6.676542e-02
  2.199404e-01    2.035258e+00   6.611912e-02
  2.221509e-01    1.977352e+00   6.410158e-02
  2.243613e-01    1.990786e+00   6.350355e-02
  2.265718e-01    2.003345e+00   6.300141e-02
  2.287822e-01    2.063839e+00   6.331261e-02
  2.309927e-01    2.126554e+00   6.368192e-02
  2.332031e-01    2.106132e+00   6.283297e-02
  2.354136e-01    2.160650e+00   6.312519e-02
  2.376241e-01    2.134176e+00   6.225034e-02
  2.398345e-01    2.153448e+00   6.206797e-02
  2.420450e-01    2.214978e+00   6.249860e-02
  2.442554e-01    2.076752e+00   6.010017e-02
  2.464659e-01    2.083299e+00   5.979066e-02
  2.486763e-01    2.105976e+00   5.972005e-02
  2.508868e-01    2.182082e+00   6.040609e-02
  2.530973e-01    2.123344e+00   5.921811e-02
  2.553077e-01    2.043242e+00   5.773802e-02
  2.575182e-01    2.119250e+00   5.845421e-02
  2.597286e-01    2.086090e+00   5.765797e-02
  2.619391e-01    2.011418e+00   5.629068e-02
  2.641495e-01    1.974585e+00   5.546422e-02
  2.663600e-01    1.990446e+00   5.538027e-02
  2.685704e-01    2.024924e+00   5.555508e-02
  2.707809e-01    2.071910e+00   5.589765e-02
  2.729914e-01    2.009803e+00   5.476658e-02
  2.752018e-01    1.951942e+00   5.369157e-02
  2.774123e-01    1.964607e+00   5.359031e-02
  2.796227e-01    1.957256e+00   5.322538e-02
  2.818332e-01    1.964956e+00   5.306391e-02
  2.840436e-01    1.995813e+00   5.321972e-02
  2.862541e-01    1.962410e+00   5.251880e-02
  2.884646e-01    1.981472e+00   5.252281e-02
  2.906750e-01    1.924488e+00   5.151663e-02
  2.928855e-01    1.945854e+00   5.156180e-02
  2.950959e-01    1.893622e+00   5.063142e-02
  2.973064e-01    1.900777e+00   5.049896e-02
  2.995168e-01    1.986778e+00   5.139492e-02
  3.017273e-01    1.954953e+00   5.075686e-02
  3.039377e-01    1.952134e+00   5.049817e-02
  3.061482e-01    1.878854e+00   4.932697e-02
  3.083587e-01    1.889975e+00   4.925860e-02
  3.105691e-01    1.889126e+00   4.903719e-02
  3.127796e-01    1.893355e+00   4.888566e-02
  3.149900e-01    1.827914e+00   4.783325e-02
  3.172005e-01    1.946895e+00   4.916359e-02
  3.194109e-01    1.955966e+00   4.907461e-02
  3.216214e-01    1.896806e+00   4.812955e-02
  3.238319e-01    1.870524e+00   4.760561e-02
  3.260423e-01    1.808801e+00   4.662709e-02
  3.282528e-01    1.880818e+00   4.735698e-02
  3.304632e-01    1.865593e+00   4.698220e-02
  3.326737e-01    1.956234e+00   4.792227e-02
  3.348841e-01    1.863377e+00   4.658973e-02
  3.370946e-01    1.821014e+00   4.588378e-02
  3.393050e-01    1.828173e+00   4.579974e-02
  3.415155e-01    1.779096e+00   4.501095e-02
  3.437260e-01    1.834210e+00   4.553341e-02
  3.459364e-01    1.860160e+00   4.568476e-02
  3.481469e-01    1.833447e+00   4.519000e-02
  3.503573e-01    1.804141e+00   4.466408e-02
  3.525678e-01    1.811643e+00   4.459733e-02
  3.547782e-01    1.798393e+00   4.427335e-02
  3.569887e-01    1.772031e+00   4.379194e-02
  3.591992e-01    1.848038e+00   4.456300e-02
  3.614096e-01    1.881731e+00   4.481149e-02
  3.636201e-01    1.784090e+00   4.348009e-02
  3.658305e-01    1.759610e+00   4.303344e-02
  3.680410e-01    1.784487e+00   4.318753e-02
  3.702514e-01    1.802178e+00   4.325512e-02
  3.724619e-01    1.780932e+00   4.285298e-02
  3.746724e-01    1.740439e+00   4.222164e-02
  3.768828e-01    1.823358e+00   4.307029e-02
  3.790933e-01    1.786389e+00   4.249252e-02
  3.813037e-01    1.835199e+00   4.292820e-02
  3.835142e-01    1.781104e+00   4.215192e-02
  3.857246e-01    1.735249e+00   4.147109e-02
  3.879351e-01    1.797174e+00   4.206799e-02
  3.901455e-01    1.767636e+00   4.158803e-02
  3.923560e-01    1.738215e+00   4.110940e-02
  3.945665e-01    1.777137e+00   4.143529e-02
  3.967769e-01    1.820809e+00   4.180996e-02
  3.989874e-01    1.850478e+00   4.201763e-02
  4.011978e-01    1.752048e+00   4.075915e-02
  4.034083e-01    1.769624e+00   4.083729e-02
  4.056187e-01    1.828247e+00   4.138035e-02
  4.078292e-01    1.817469e+00   4.113334e-02
  4.100397e-01    1.788656e+00   4.068138e-02
  4.122501e-01    1.804429e+00   4.073812e-02
  4.144606e-01    1.854972e+00   4.118224e-02
  4.166710e-01    1.785183e+00   4.028001e-02
  4.188815e-01    1.744166e+00   3.969695e-02
  4.210919e-01    1.843554e+00   4.069270e-02
  4.233024e-01    1.799158e+00   4.008151e-02
  4.255128e-01    1.811870e+00   4.010658e-02
  4.277233e-01    1.806781e+00   3.993515e-02
  4.299338e-01    1.822695e+00   3.999523e-02
  4.321442e-01    1.768556e+00   3.928403e-02
  4.343547e-01    1.725395e+00   3.869200e-02
  4.365651e-01    1.735864e+00   3.869894e-02
  4.387756e-01    1.758830e+00   3.884501e-02
  4.409860e-01    1.779496e+00   3.896432e-02
  4.431965e-01    1.738749e+00   3.840913e-02
  4.454070e-01    1.770440e+00   3.864975e-02
  4.476174e-01    1.772909e+00   3.857048e-02
  4.498279e-01    1.752960e+00   3.824852e-02
  4.520383e-01    1.799937e+00   3.865128e-02
  4.542488e-01    1.782529e+00   3.836022e-02
  4.564592e-01    1.710200e+00   3.747310e-02
  4.586697e-01    1.681350e+00   3.705704e-02
  4.608801e-01    1.679581e+00   3.693835e-02
  4.630906e-01    1.676977e+00   3.681196e-02
  4.653011e-01    1.667954e+00   3.661625e-02
  4.675115e-01    1.690125e+00   3.676173e-02
  4.697220e-01    1.719538e+00   3.698314e-02
  4.719324e-01    1.699994e+00   3.667727e-02
  4.741429e-01    1.687737e+00   3.645062e-02
  4.763533e-01    1.718359e+00   3.668553e-02
  4.785638e-01    1.673777e+00   3.611300e-02
  4.807743e-01    1.679023e+00   3.607753e-02
  4.829847e-01    1.655766e+00   3.573631e-02
  4.851952e-01    1.700315e+00   3.612222e-02
  4.874056e-01    1.661036e+00   3.561254e-02
  4.896161e-01    1.649312e+00   3.539862e-02
  4.918265e-01    1.650837e+00   3.532703e-02
  4.940370e-01    1.683932e+00   3.559131e-02
  4.962475e-01    1.683972e+00   3.550383e-02
  4.984579e-01    1.662586e+00   3.519071e-02
  5.006684e-01    1.715356e+00   3.565767e-02
  5.028788e-01    1.719780e+00   3.561712e-02
  5.050893e-01    1.719041e+00   3.552286e-02
  5.072997e-01    1.690093e+00   3.513743e-02
  5.095102e-01    1.675321e+00   3.489974e-02
  5.117206e-01    1.657864e+00   3.463488e-02
  5.139311e-01    1.684565e+00   3.483004e-02
  5.161416e-01    1.710293e+00   3.501209e-02
  5.183520e-01    1.709156e+00   3.491728e-02
  5.205625e-01    1.659481e+00   3.432552e-02
  5.227729e-01    1.648243e+00   3.412929e-02
  5.249834e-01    1.664565e+00   3.421824e-02
  5.271938e-01    1.698783e+00   3.448750e-02
  5.294043e-01    1.717237e+00   3.459430e-02
  5.316148e-01    1.779708e+00   3.513725e-02
  5.338252e-01    1.751100e+00   3.477407e-02
  5.360357e-01    1.741331e+00   3.459798e-02
  5.382461e-01    1.713870e+00   3.424650e-02
  5.404566e-01    1.755907e+00   3.458505e-02
  5.426670e-01    1.740321e+00   3.435366e-02
  5.448775e-01    1.750775e+00   3.437969e-02
  5.470879e-01    1.772541e+00   3.451560e-02
  5.492984e-01    1.736853e+00   3.409040e-02
  5.515089e-01    1.721634e+00   3.386542e-02
  5.537193e-01    1.769196e+00   3.425439e-02
  5.559298e-01    1.767477e+00   3.416265e-02
  5.581402e-01    1.752218e+00   3.394054e-02
  5.603507e-01    1.790222e+00   3.423198e-02
  5.625611e-01    1.786184e+00   3.411913e-02
  5.647716e-01    1.813422e+00   3.430367e-02
  5.669821e-01    1.757941e+00   3.370202e-02
  5.691925e-01    1.698835e+00   3.305950e-02
  5.714030e-01    1.721629e+00   3.320955e-02
  5.736134e-01    1.729701e+00   3.321655e-02
  5.758239e-01    1.708719e+00   3.294400e-02
  5.780343e-01    1.709381e+00   3.288067e-02
  5.802448e-01    1.707372e+00   3.279257e-02
  5.824552e-01    1.672860e+00   3.239133e-02
  5.846657e-01    1.688489e+00   3.247446e-02
  5.868762e-01    1.640517e+00   3.194318e-02
  5.890866e-01    1.644278e+00   3.191341e-02
  5.912971e-01    1.667453e+00   3.207100e-02
  5.935075e-01    1.620474e+00   3.155065e-02
  5.957180e-01    1.593620e+00   3.122393e-02
  5.979284e-01    1.620349e+00   3.142042e-02
  6.001389e-01    1.603371e+00   3.119172e-02
  6.023494e-01    1.625242e+00   3.133997e-02
  6.045598e-01    1.654475e+00   3.155619e-02
  6.067703e-01    1.663600e+00   3.157946e-02
  6.089807e-01    1.686192e+00   3.172925e-02
  6.111912e-01    1.663759e+00   3.145456e-02
  6.134016e-01    1.677139e+00   3.151780e-02
  6.156121e-01    1.630062e+00   3.101052e-02
  6.178226e-01    1.679100e+00   3.141120e-02
  6.200330e-01    1.676013e+00   3.132041e-02
  6.222435e-01    1.666442e+00   3.116900e-02
  6.244539e-01    1.684699e+00   3.127790e-02
  6.266644e-01    1.704694e+00   3.140159e-02
  6.288748e-01    1.746651e+00   3.172383e-02
  6.310853e-01    1.697026e+00   3.120920e-02
  6.332957e-01    1.679973e+00   3.099205e-02
  6.355062e-01    1.686640e+00   3.099314e-02
  6.377167e-01    1.689825e+00   3.096289e-02
  6.399271e-01    1.694580e+00   3.094698e-02
  6.421376e-01    1.742252e+00   3.131939e-02
  6.443480e-01    1.700661e+00   3.088445e-02
  6.465585e-01    1.656877e+00   3.042652e-02
  6.487689e-01    1.649002e+00   3.029682e-02
  6.509794e-01    1.654770e+00   3.029251e-02
  6.531899e-01    1.626737e+00   2.997836e-02
  6.554003e-01    1.618794e+00   2.984886e-02
  6.576108e-01    1.614877e+00   2.975720e-02
  6.598212e-01    1.616702e+00   2.971870e-02
  6.620317e-01    1.576771e+00   2.929500e-02
  6.642421e-01    1.591698e+00   2.937885e-02
  6.664526e-01    1.641074e+00   2.977612e-02
  6.686630e-01    1.605322e+00   2.939554e-02
  6.708735e-01    1.624911e+00   2.952008e-02
  6.730840e-01    1.573322e+00   2.899476e-02
  6.752944e-01    1.549899e+00   2.872575e-02
  6.775049e-01    1.573809e+00   2.889392e-02
  6.797153e-01    1.606815e+00   2.914246e-02
  6.819258e-01    1.637676e+00   2.936795e-02
  6.841362e-01    1.576465e+00   2.876205e-02
  6.863467e-01    1.601386e+00   2.893659e-02
  6.885572e-01    1.600209e+00   2.887411e-02
  6.907676e-01    1.630633e+00   2.909508e-02
  6.929781e-01    1.614786e+00   2.890190e-02
  6.951885e-01    1.591411e+00   2.864113e-02
  6.973990e-01    1.615404e+00   2.880519e-02
  6.996094e-01    1.633769e+00   2.891752e-02
  7.018199e-01    1.619514e+00   2.874055e-02
  7.040303e-01    1.601973e+00   2.853429e-02
  7.062408e-01    1.563155e+00   2.813707e-02
  7.084513e-01    1.541170e+00   2.788990e-02
  7.106617e-01    1.576615e+00   2.815977e-02
  7.128722e-01    1.612553e+00   2.842964e-02
  7.150826e-01    1.589603e+00   2.817796e-02
  7.172931e-01    1.567861e+00   2.793635e-02
  7.195035e-01    1.571730e+00   2.792270e-02
  7.217140e-01    1.563976e+00   2.790304e-02
  7.239245e-01    1.542713e+00   2.793713e-02
  7.261349e-01    1.572180e+00   2.831121e-02
  7.283454e-01    1.586984e+00   2.851687e-02
  7.305558e-01    1.574315e+00   2.845680e-02
  7.327663e-01    1.541151e+00   2.819753e-02
  7.349767e-01    1.542034e+00   2.822180e-02
  7.371872e-01    1.544909e+00   2.823703e-02
  7.393976e-01    1.548604e+00   2.825663e-02
  7.416081e-01    1.553105e+00   2.828160e-02
  7.438186e-01    1.554913e+00   2.815464e-02
  7.460290e-01    1.566502e+00   2.796590e-02
  7.482395e-01    1.546773e+00   2.761959e-02
  7.504499e-01    1.553704e+00   2.754603e-02
  7.526604e-01    1.519519e+00   2.712681e-02
  7.548708e-01    1.552573e+00   2.733148e-02
  7.570813e-01    1.571039e+00   2.744263e-02
  7.592918e-01    1.549566e+00   2.721954e-02
  7.615022e-01    1.586323e+00   2.750654e-02
  7.637127e-01    1.586478e+00   2.747501e-02
  7.659231e-01    1.562727e+00   2.723669e-02
  7.681336e-01    1.554533e+00   2.713378e-02
  7.703440e-01    1.562410e+00   2.717134e-02
  7.725545e-01    1.554461e+00   2.707144e-02
  7.747650e-01    1.584031e+00   2.728941e-02
  7.769754e-01    1.570411e+00   2.711922e-02
  7.791859e-01    1.558764e+00   2.696527e-02
  7.813963e-01    1.567269e+00   2.698632e-02
  7.836068e-01    1.579452e+00   2.703909e-02
  7.858172e-01    1.610490e+00   2.725243e-02
  7.880277e-01    1.596683e+00   2.708375e-02
  7.902381e-01    1.608239e+00   2.713217e-02
  7.924486e-01    1.597720e+00   2.699324e-02
  7.946591e-01    1.564662e+00   2.666473e-02
  7.968695e-01    1.590102e+00   2.683257e-02
  7.990800e-01    1.590872e+00   2.679108e-02
  8.012904e-01    1.614449e+00   2.694219e-02
  8.035009e-01    1.633056e+00   2.704879e-02
  8.057113e-01    1.713678e+00   2.766049e-02
  8.079218e-01    1.787470e+00   2.820102e-02
  8.101323e-01    1.777946e+00   2.807806e-02
  8.123427e-01    1.721354e+00   2.758046e-02
  8.145532e-01    1.691007e+00   2.728951e-02
  8.167636e-01    1.689021e+00   2.722759e-02
  8.189741e-01    1.683480e+00   2.713761e-02
  8.211845e-01    1.662638e+00   2.692387e-02
  8.233950e-01    1.673920e+00   2.697115e-02
  8.256054e-01    1.685420e+00   2.701878e-02
  8.278159e-01    1.661663e+00   2.678341e-02
  8.300264e-01    1.635828e+00   2.653132e-02
  8.322368e-01    1.623611e+00   2.638913e-02
  8.344473e-01    1.652171e+00   2.657667e-02
  8.366577e-01    1.638695e+00   2.642549e-02
  8.388682e-01    1.637184e+00   2.637107e-02
  8.410786e-01    1.668797e+00   2.658202e-02
  8.432891e-01    1.684883e+00   2.666740e-02
  8.454996e-01    1.672192e+00   2.652474e-02
  8.477100e-01    1.641020e+00   2.623465e-02
  8.499205e-01    1.642792e+00   2.620758e-02
  8.521309e-01    1.616345e+00   2.595525e-02
  8.543414e-01    1.628686e+00   2.601347e-02
  8.565518e-01    1.640460e+00   2.606670e-02
  8.587623e-01    1.648602e+00   2.609062e-02
  8.609727e-01    1.626536e+00   2.587525e-02
  8.631832e-01    1.605095e+00   2.566450e-02
  8.653937e-01    1.586570e+00   2.547676e-02
  8.676041e-01    1.600935e+00   2.555320e-02
  8.698146e-01    1.636641e+00   2.579712e-02
  8.720250e-01    1.603870e+00   2.549861e-02
  8.742355e-01    1.608566e+00   2.549704e-02
  8.764459e-01    1.577288e+00   2.520943e-02
  8.786564e-01    1.573608e+00   2.514246e-02
  8.808669e-01    1.568973e+00   2.506733e-02
  8.830773e-01    1.593827e+00   2.522706e-02
  8.852878e-01    1.598089e+00   2.522291e-02
  8.874982e-01    1.590608e+00   2.512727e-02
  8.897087e-01    1.626027e+00   2.536752e-02
  8.919191e-01    1.619032e+00   2.527492e-02
  8.941296e-01    1.603451e+00   2.511570e-02
  8.963401e-01    1.587948e+00   2.495769e-02
  8.985505e-01    1.624837e+00   2.520867e-02
  9.007610e-01    1.605459e+00   2.502112e-02
  9.029714e-01    1.589973e+00   2.486440e-02
  9.051819e-01    1.597111e+00   2.488297e-02
  9.073923e-01    1.578937e+00   2.470465e-02
  9.096028e-01    1.574767e+00   2.463739e-02
  9.118132e-01    1.559290e+00   2.448024e-02
  9.140237e-01    1.606446e+00   2.481096e-02
  9.162342e-01    1.563906e+00   2.444609e-02
  9.184446e-01    1.572582e+00   2.447833e-02
  9.206551e-01    1.598248e+00   2.464173e-02
  9.228655e-01    1.603263e+00   2.464505e-02
  9.250760e-01    1.618601e+00   2.472715e-02
  9.272864e-01    1.615287e+00   2.466741e-02
  9.294969e-01    1.619209e+00   2.466137e-02
  9.317074e-01    1.583710e+00   2.435505e-02
  9.339178e-01    1.614295e+00   2.455552e-02
  9.361283e-01    1.647669e+00   2.477149e-02
  9.383387e-01    1.637004e+00   2.465760e-02
  9.405492e-01    1.658698e+00   2.478578e-02
  9.427596e-01    1.650809e+00   2.469120e-02
  9.449701e-01    1.644213e+00   2.460831e-02
  9.471805e-01    1.661708e+00   2.470384e-02
  9.493910e-01    1.673408e+00   2.475666e-02
  9.516015e-01    1.672690e+00   2.471678e-02
  9.538119e-01    1.686124e+00   2.478183e-02
  9.560224e-01    1.712866e+00   2.494241e-02
  9.582328e-01    1.744486e+00   2.513780e-02
  9.604433e-01    1.801584e+00   2.550972e-02
  9.626537e-01    1.780482e+00   2.532579e-02
  9.648642e-01    1.778663e+00   2.527818e-02
  9.670747e-01    1.762332e+00   2.512716e-02
  9.692851e-01    1.760222e+00   2.507874e-02
  9.714956e-01    1.791311e+00   2.526355e-02
  9.737060e-01    1.808055e+00   2.534801e-02
  9.759165e-01    1.867065e+00   2.572203e-02
  9.781269e-01    1.839489e+00   2.549797e-02
  9.803374e-01    1.818705e+00   2.531845e-02
  9.825478e-01    1.806572e+00   2.520056e-02
  9.847583e-01    1.804013e+00   2.514852e-02
  9.869688e-01    1.765848e+00   2.484778e-02
  9.891792e-01    1.746361e+00   2.467743e-02
  9.913897e-01    1.754421e+00   2.470096e-02
  9.936001e-01    1.712332e+00   2.437091e-02
  9.958106e-01    1.704483e+00   2.428195e-02
  9.980210e-01    1.683025e+00   2.409730e-02
  1.000231e+00    1.647470e+00   2.397202e-02
  1.002442e+00    1.622158e+00   2.391353e-02
  1.004652e+00    1.597636e+00   2.379830e-02
  1.006863e+00    1.612222e+00   2.395629e-02
  1.009073e+00    1.608285e+00   2.396365e-02
  1.011284e+00    1.585308e+00   2.382367e-02
  1.013494e+00    1.545707e+00   2.354757e-02
  1.015705e+00    1.517828e+00   2.335627e-02
  1.017915e+00    1.517199e+00   2.336755e-02
  1.020126e+00    1.515343e+00   2.336900e-02
  1.022336e+00    1.542668e+00   2.359039e-02
  1.024547e+00    1.521762e+00   2.344112e-02
  1.026757e+00    1.515694e+00   2.340261e-02
  1.028967e+00    1.526510e+00   2.349360e-02
  1.031178e+00    1.508959e+00   2.336427e-02
  1.033388e+00    1.490690e+00   2.322740e-02
  1.035599e+00    1.455719e+00   2.295667e-02
  1.037809e+00    1.456464e+00   2.296570e-02
  1.040020e+00    1.488560e+00   2.321863e-02
  1.042230e+00    1.498112e+00   2.329495e-02
  1.044441e+00    1.444476e+00   2.287393e-02
  1.046651e+00    1.455577e+00   2.296180e-02
  1.048862e+00    1.489600e+00   2.322783e-02
  1.051072e+00    1.488654e+00   2.321811e-02
  1.053282e+00    1.496444e+00   2.327783e-02
  1.055493e+00    1.489216e+00   2.321726e-02
  1.057703e+00    1.483300e+00   2.316958e-02
  1.059914e+00    1.453249e+00   2.292946e-02
  1.062124e+00    1.491767e+00   2.322728e-02
  1.064335e+00    1.473276e+00   2.307948e-02
  1.066545e+00    1.445939e+00   2.285842e-02
  1.068756e+00    1.458899e+00   2.295692e-02
  1.070966e+00    1.448601e+00   2.286928e-02
  1.073177e+00    1.451110e+00   2.288306e-02
  1.075387e+00    1.408040e+00   2.253582e-02
  1.077597e+00    1.393017e+00   2.240818e-02
  1.079808e+00    1.420799e+00   2.249977e-02
  1.082018e+00    1.408927e+00   2.222004e-02
  1.084229e+00    1.387272e+00   2.194135e-02
  1.086439e+00    1.396313e+00   2.192708e-02
  1.088650e+00    1.406099e+00   2.192939e-02
  1.090860e+00    1.410475e+00   2.189689e-02
  1.093071e+00    1.435123e+00   2.202552e-02
  1.095281e+00    1.397182e+00   2.167616e-02
  1.097492e+00    1.413446e+00   2.174764e-02
  1.099702e+00    1.428145e+00   2.180925e-02
  1.101912e+00    1.447996e+00   2.191132e-02
  1.104123e+00    1.441965e+00   2.181731e-02
  1.106333e+00    1.407904e+00   2.151408e-02
  1.108544e+00    1.400208e+00   2.141138e-02
  1.110754e+00    1.403386e+00   2.139300e-02
  1.112965e+00    1.411947e+00   2.141775e-02
  1.115175e+00    1.423138e+00   2.146125e-02
  1.117386e+00    1.432407e+00   2.149151e-02
  1.119596e+00    1.491296e+00   2.188992e-02
  1.121807e+00    1.486678e+00   2.181617e-02
  1.124017e+00    1.470565e+00   2.166013e-02
  1.126228e+00    1.524706e+00   2.201799e-02
  1.128438e+00    1.516384e+00   2.191961e-02
  1.130648e+00    1.494426e+00   2.172482e-02
  1.132859e+00    1.731736e+00   2.334782e-02
  1.135069e+00    2.280594e+00   2.674913e-02
  1.137280e+00    2.079861e+00   2.550473e-02
  1.139490e+00    1.564078e+00   2.208217e-02
  1.141701e+00    1.396683e+00   2.083372e-02
  1.143911e+00    1.399915e+00   2.082575e-02
  1.146122e+00    1.380162e+00   2.064630e-02
  1.148332e+00    1.381312e+00   2.062301e-02
  1.150543e+00    1.365316e+00   2.047254e-02
  1.152753e+00    1.378390e+00   2.053946e-02
  1.154963e+00    1.401663e+00   2.068078e-02
  1.157174e+00    1.381003e+00   2.049756e-02
  1.159384e+00    1.406704e+00   2.065716e-02
  1.161595e+00    1.435758e+00   2.083887e-02
  1.163805e+00    1.433053e+00   2.078929e-02
  1.166016e+00    1.468264e+00   2.101263e-02
  1.168226e+00    1.541802e+00   2.150164e-02
  1.170437e+00    1.663378e+00   2.230170e-02
  1.172647e+00    1.729131e+00   2.270575e-02
  1.174858e+00    1.608033e+00   2.186578e-02
  1.177068e+00    1.449228e+00   2.072885e-02
  1.179278e+00    1.389399e+00   2.026760e-02
  1.181489e+00    1.350142e+00   1.995228e-02
  1.183699e+00    1.352209e+00   1.994004e-02
  1.185910e+00    1.354968e+00   1.993261e-02
  1.188120e+00    1.398307e+00   2.022179e-02
  1.190331e+00    1.404783e+00   2.024134e-02
  1.192541e+00    1.396042e+00   2.015045e-02
  1.194752e+00    1.497527e+00   2.084157e-02
  1.196962e+00    1.392103e+00   2.006847e-02
  1.199173e+00    1.351688e+00   1.974847e-02
  1.201383e+00    1.362781e+00   1.980206e-02
  1.203593e+00    1.368757e+00   1.982043e-02
  1.205804e+00    1.388341e+00   1.993546e-02
  1.208014e+00    1.359627e+00   1.970127e-02
  1.210225e+00    1.380644e+00   1.982734e-02
  1.212435e+00    1.345124e+00   1.954590e-02
  1.214646e+00    1.338124e+00   1.946896e-02
  1.216856e+00    1.321803e+00   1.932468e-02
  1.219067e+00    1.309057e+00   1.920717e-02
  1.221277e+00    1.313882e+00   1.921785e-02
  1.223488e+00    1.308762e+00   1.915501e-02
  1.225698e+00    1.332958e+00   1.930454e-02
  1.227909e+00    1.332014e+00   1.926776e-02
  1.230119e+00    1.343397e+00   1.931810e-02
  1.232329e+00    1.364537e+00   1.943865e-02
  1.234540e+00    1.324691e+00   1.912272e-02
  1.236750e+00    1.357913e+00   1.933066e-02
  1.238961e+00    1.337911e+00   1.916094e-02
  1.241171e+00    1.308369e+00   1.892440e-02
  1.243382e+00    1.338699e+00   1.911905e-02
  1.245592e+00    1.343500e+00   1.912930e-02
  1.247803e+00    1.297457e+00   1.877545e-02
  1.250013e+00    1.329463e+00   1.898224e-02
  1.252224e+00    1.325132e+00   1.892827e-02
  1.254434e+00    1.325252e+00   1.890560e-02
  1.256644e+00    1.365957e+00   1.917040e-02
  1.258855e+00    1.355006e+00   1.907010e-02
  1.261065e+00    1.331758e+00   1.888259e-02
  1.263276e+00    1.307827e+00   1.868958e-02
  1.265486e+00    1.337007e+00   1.887414e-02
  1.267697e+00    1.341721e+00   1.888446e-02
  1.269907e+00    1.323353e+00   1.873226e-02
  1.272118e+00    1.342859e+00   1.884731e-02
  1.274328e+00    1.358216e+00   1.893198e-02
  1.276539e+00    1.351094e+00   1.885947e-02
  1.278749e+00    1.307269e+00   1.852917e-02
  1.280959e+00    1.327731e+00   1.865125e-02
  1.283170e+00    1.345171e+00   1.875095e-02
  1.285380e+00    1.342034e+00   1.870671e-02
  1.287591e+00    1.321450e+00   1.854088e-02
  1.289801e+00    1.348502e+00   1.870850e-02
  1.292012e+00    1.328548e+00   1.855260e-02
  1.294222e+00    1.354112e+00   1.871397e-02
  1.296433e+00    1.366986e+00   1.878702e-02
  1.298643e+00    1.343239e+00   1.860672e-02
  1.300854e+00    1.350067e+00   1.863751e-02
  1.303064e+00    1.360828e+00   1.869236e-02
  1.305274e+00    1.347706e+00   1.858060e-02
  1.307485e+00    1.323938e+00   1.839468e-02
  1.309695e+00    1.372173e+00   1.870434e-02
  1.311906e+00    1.372943e+00   1.868771e-02
  1.314116e+00    1.367175e+00   1.862749e-02
  1.316327e+00    1.344599e+00   1.845141e-02
  1.318537e+00    1.338168e+00   1.838543e-02
  1.320748e+00    1.350124e+00   1.844584e-02
  1.322958e+00    1.335921e+00   1.832814e-02
  1.325169e+00    1.345753e+00   1.837448e-02
  1.327379e+00    1.339312e+00   1.830873e-02
  1.329589e+00    1.342610e+00   1.831024e-02
  1.331800e+00    1.350931e+00   1.834619e-02
  1.334010e+00    1.372941e+00   1.847420e-02
  1.336221e+00    1.382418e+00   1.851586e-02
  1.338431e+00    1.370269e+00   1.841330e-02
  1.340642e+00    1.348054e+00   1.832755e-02
  1.342852e+00    1.336757e+00   1.835076e-02
  1.345063e+00    1.329528e+00   1.835019e-02
  1.347273e+00    1.334982e+00   1.842282e-02
  1.349484e+00    1.341878e+00   1.849795e-02
  1.351694e+00    1.329430e+00   1.843448e-02
  1.353905e+00    1.310127e+00   1.831790e-02
  1.356115e+00    1.324514e+00   1.843309e-02
  1.358325e+00    1.336801e+00   1.853164e-02
  1.360536e+00    1.328579e+00   1.848612e-02
  1.362746e+00    1.307851e+00   1.835074e-02
  1.364957e+00    1.315754e+00   1.841367e-02
  1.367167e+00    1.331545e+00   1.853094e-02
  1.369378e+00    1.346088e+00   1.863789e-02
  1.371588e+00    1.309238e+00   1.838610e-02
  1.373799e+00    1.284991e+00   1.821862e-02
  1.376009e+00    1.314141e+00   1.842747e-02
  1.378220e+00    1.290518e+00   1.826358e-02
  1.380430e+00    1.290529e+00   1.826634e-02
  1.382640e+00    1.270736e+00   1.812658e-02
  1.384851e+00    1.293768e+00   1.829099e-02
  1.387061e+00    1.293581e+00   1.828996e-02
  1.389272e+00    1.293845e+00   1.829203e-02
  1.391482e+00    1.288899e+00   1.825637e-02
  1.393693e+00    1.261328e+00   1.805920e-02
  1.395903e+00    1.265979e+00   1.809095e-02
  1.398114e+00    1.262078e+00   1.806172e-02
  1.400324e+00    1.251970e+00   1.798712e-02
  1.402535e+00    1.256652e+00   1.801843e-02
  1.404745e+00    1.287842e+00   1.823829e-02
  1.406955e+00    1.290824e+00   1.825668e-02
  1.409166e+00    1.261220e+00   1.804283e-02
  1.411376e+00    1.234945e+00   1.785081e-02
  1.413587e+00    1.259154e+00   1.802114e-02
  1.415797e+00    1.261732e+00   1.803605e-02
  1.418008e+00    1.278441e+00   1.811308e-02
  1.420218e+00    1.273543e+00   1.792842e-02
  1.422429e+00    1.266474e+00   1.779338e-02
  1.424639e+00    1.262748e+00   1.770270e-02
  1.426850e+00    1.252769e+00   1.757826e-02
  1.429060e+00    1.265434e+00   1.761800e-02
  1.431270e+00    1.266395e+00   1.758045e-02
  1.433481e+00    1.260254e+00   1.749697e-02
  1.435691e+00    1.268905e+00   1.751851e-02
  1.437902e+00    1.273331e+00   1.751251e-02
  1.440112e+00    1.263834e+00   1.741185e-02
  1.442323e+00    1.263597e+00   1.737723e-02
  1.444533e+00    1.278703e+00   1.744816e-02
  1.446744e+00    1.239266e+00   1.714623e-02
  1.448954e+00    1.238077e+00   1.710818e-02
  1.451165e+00    1.264558e+00   1.726047e-02
  1.453375e+00    1.257018e+00   1.718106e-02
  1.455586e+00    1.250757e+00   1.711024e-02
  1.457796e+00    1.263500e+00   1.716977e-02
  1.460006e+00    1.260735e+00   1.712380e-02
  1.462217e+00    1.263061e+00   1.711346e-02
  1.464427e+00    1.260165e+00   1.706830e-02
  1.466638e+00    1.273212e+00   1.713106e-02
  1.468848e+00    1.288761e+00   1.720984e-02
  1.471059e+00    1.255536e+00   1.696159e-02
  1.473269e+00    1.259804e+00   1.696610e-02
  1.475480e+00    1.279031e+00   1.707122e-02
  1.477690e+00    1.275738e+00   1.702533e-02
  1.479901e+00    1.273481e+00   1.698637e-02
  1.482111e+00    1.281801e+00   1.701830e-02
  1.484321e+00    1.312992e+00   1.720059e-02
  1.486532e+00    1.285603e+00   1.699775e-02
  1.488742e+00    1.263567e+00   1.682880e-02
  1.490953e+00    1.265043e+00   1.681602e-02
  1.493163e+00    1.237091e+00   1.660717e-02
  1.495374e+00    1.246117e+00   1.664626e-02
  1.497584e+00    1.247692e+00   1.663527e-02
  1.499795e+00    1.213314e+00   1.638326e-02
  1.502005e+00    1.240146e+00   1.654187e-02
  1.504216e+00    1.277794e+00   1.676991e-02
  1.506426e+00    1.257648e+00   1.661638e-02
  1.508636e+00    1.273298e+00   1.669889e-02
  1.510847e+00    1.241903e+00   1.647002e-02
  1.513057e+00    1.240367e+00   1.643491e-02
  1.515268e+00    1.241377e+00   1.641602e-02
  1.517478e+00    1.243595e+00   1.640563e-02
  1.519689e+00    1.256122e+00   1.646307e-02
  1.521899e+00    1.259856e+00   1.646436e-02
  1.524110e+00    1.254718e+00   1.641041e-02
  1.526320e+00    1.243665e+00   1.631845e-02
  1.528531e+00    1.262672e+00   1.642280e-02
  1.530741e+00    1.250394e+00   1.632362e-02
  1.532951e+00    1.242543e+00   1.625277e-02
  1.535162e+00    1.255871e+00   1.642651e-02
  1.537372e+00    1.244249e+00   1.641712e-02
  1.539583e+00    1.226379e+00   1.633272e-02
  1.541793e+00    1.227055e+00   1.634410e-02
  1.544004e+00    1.240920e+00   1.643646e-02
  1.546214e+00    1.231271e+00   1.637092e-02
  1.548425e+00    1.261578e+00   1.657143e-02
  1.550635e+00    1.247929e+00   1.649127e-02
  1.552846e+00    1.233314e+00   1.640400e-02
  1.555056e+00    1.219262e+00   1.626924e-02
  1.557266e+00    1.230752e+00   1.623586e-02
  1.559477e+00    1.229987e+00   1.617206e-02
  1.561687e+00    1.230242e+00   1.614323e-02
  1.563898e+00    1.245893e+00   1.622842e-02
  1.566108e+00    1.235270e+00   1.614320e-02
  1.568319e+00    1.246481e+00   1.620065e-02
  1.570529e+00    1.237401e+00   1.611648e-02
  1.572740e+00    1.231181e+00   1.604845e-02
  1.574950e+00    1.228708e+00   1.600619e-02
  1.577161e+00    1.228759e+00   1.598118e-02
  1.579371e+00    1.235253e+00   1.599980e-02
  1.581582e+00    1.234826e+00   1.597734e-02
  1.583792e+00    1.218131e+00   1.585114e-02
  1.586002e+00    1.218997e+00   1.583933e-02
  1.588213e+00    1.219766e+00   1.582725e-02
  1.590423e+00    1.234152e+00   1.590032e-02
  1.592634e+00    1.243175e+00   1.593672e-02
  1.594844e+00    1.230617e+00   1.583475e-02
  1.597055e+00    1.209173e+00   1.567595e-02
  1.599265e+00    1.209930e+00   1.566039e-02
  1.601476e+00    1.215592e+00   1.567691e-02
  1.603686e+00    1.204111e+00   1.558321e-02
  1.605897e+00    1.217330e+00   1.564853e-02
  1.608107e+00    1.226073e+00   1.568517e-02
  1.610317e+00    1.210801e+00   1.556807e-02
  1.612528e+00    1.221539e+00   1.561789e-02
  1.614738e+00    1.189982e+00   1.539621e-02
  1.616949e+00    1.203482e+00   1.546448e-02
  1.619159e+00    1.189165e+00   1.535378e-02
  1.621370e+00    1.192180e+00   1.535495e-02
  1.623580e+00    1.191606e+00   1.533311e-02
  1.625791e+00    1.161064e+00   1.511745e-02
  1.628001e+00    1.128009e+00   1.488300e-02
  1.630212e+00    1.144678e+00   1.497517e-02
  1.632422e+00    1.149554e+00   1.498942e-02
  1.634632e+00    1.147229e+00   1.495720e-02
  1.636843e+00    1.147658e+00   1.494268e-02
  1.639053e+00    1.141384e+00   1.488472e-02
  1.641264e+00    1.158232e+00   1.497717e-02
  1.643474e+00    1.146632e+00   1.488471e-02
  1.645685e+00    1.130085e+00   1.476048e-02
  1.647895e+00    1.111298e+00   1.462097e-02
  1.650106e+00    1.122702e+00   1.467902e-02
  1.652316e+00    1.124658e+00   1.467548e-02
  1.654527e+00    1.109972e+00   1.456293e-02
  1.656737e+00    1.112154e+00   1.456084e-02
  1.658947e+00    1.114008e+00   1.455683e-02
  1.661158e+00    1.084298e+00   1.434544e-02
  1.663368e+00    1.088723e+00   1.435891e-02
  1.665579e+00    1.065400e+00   1.418852e-02
  1.667789e+00    1.069979e+00   1.420308e-02
  1.670000e+00    1.088101e+00   1.430753e-02
  1.672210e+00    1.092346e+00   1.431967e-02
  1.674421e+00    1.089568e+00   1.428622e-02
  1.676631e+00    1.066867e+00   1.412100e-02
  1.678842e+00    1.048247e+00   1.398182e-02
  1.681052e+00    1.040192e+00   1.391299e-02
  1.683263e+00    1.056236e+00   1.400497e-02
  1.685473e+00    1.073450e+00   1.410357e-02
  1.687683e+00    1.076202e+00   1.410627e-02
  1.689894e+00    1.058847e+00   1.397647e-02
  1.692104e+00    1.031580e+00   1.378073e-02
  1.694315e+00    1.045501e+00   1.385906e-02
  1.696525e+00    1.069827e+00   1.400421e-02
  1.698736e+00    1.068475e+00   1.398054e-02
  1.700946e+00    1.027330e+00   1.369381e-02
  1.703157e+00    1.010207e+00   1.356489e-02
  1.705367e+00    1.026595e+00   1.366016e-02
  1.707578e+00    1.049690e+00   1.379837e-02
  1.709788e+00    1.040157e+00   1.372151e-02
  1.711998e+00    1.028892e+00   1.363210e-02
  1.714209e+00    9.894962e-01   1.335448e-02
  1.716419e+00    1.019465e+00   1.354101e-02
  1.718630e+00    1.031171e+00   1.360429e-02
  1.720840e+00    1.064259e+00   1.380639e-02
  1.723051e+00    1.015005e+00   1.346935e-02
  1.725261e+00    9.931348e-01   1.330895e-02
  1.727472e+00    9.978629e-01   1.332656e-02
  1.729682e+00    9.913985e-01   1.327004e-02
  1.731893e+00    9.896442e-01   1.324452e-02
  1.734103e+00    9.948778e-01   1.326581e-02
  1.736313e+00    1.005134e+00   1.332001e-02
  1.738524e+00    9.961956e-01   1.324685e-02
  1.740734e+00    9.925019e-01   1.320863e-02
  1.742945e+00    9.974799e-01   1.322825e-02
  1.745155e+00    9.931875e-01   1.318631e-02
  1.747366e+00    9.748062e-01   1.305000e-02
  1.749576e+00    9.667887e-01   1.298268e-02
  1.751787e+00    9.713134e-01   1.299975e-02
  1.753997e+00    9.904932e-01   1.311404e-02
  1.756208e+00    9.724932e-01   1.298114e-02
  1.758418e+00    9.643273e-01   1.291346e-02
  1.760628e+00    9.845251e-01   1.303455e-02
  1.762839e+00    9.549254e-01   1.282396e-02
  1.765049e+00    9.479478e-01   1.276400e-02
  1.767260e+00    9.599330e-01   1.283160e-02
  1.769470e+00    9.509378e-01   1.275842e-02
  1.771681e+00    9.615586e-01   1.281623e-02
  1.773891e+00    9.950121e-01   1.302393e-02
  1.776102e+00    9.562417e-01   1.275476e-02
  1.778312e+00    9.231022e-01   1.251920e-02
  1.780523e+00    9.101497e-01   1.241853e-02
  1.782733e+00    9.415419e-01   1.261817e-02
  1.784944e+00    9.322388e-01   1.254283e-02
  1.787154e+00    9.438353e-01   1.260799e-02
  1.789364e+00    9.440470e-01   1.259683e-02
  1.791575e+00    9.281886e-01   1.247805e-02
  1.793785e+00    9.313969e-01   1.248711e-02
  1.795996e+00    9.197711e-01   1.239645e-02
  1.798206e+00    9.005111e-01   1.225357e-02
  1.800417e+00    8.793371e-01   1.209623e-02
  1.802627e+00    8.770745e-01   1.206896e-02
  1.804838e+00    9.008506e-01   1.221941e-02
  1.807048e+00    8.948693e-01   1.216605e-02
  1.809259e+00    9.091262e-01   1.224895e-02
  1.811469e+00    9.140238e-01   1.226687e-02
  1.813679e+00    8.939455e-01   1.211648e-02
  1.815890e+00    8.905391e-01   1.207868e-02
  1.818100e+00    9.299206e-01   1.232747e-02
  1.820311e+00    9.552220e-01   1.247879e-02
  1.822521e+00    9.424129e-01   1.237958e-02
  1.824732e+00    8.962882e-01   1.205796e-02
  1.826942e+00    8.710842e-01   1.187499e-02
  1.829153e+00    8.611047e-01   1.179524e-02
  1.831363e+00    8.459100e-01   1.167894e-02
  1.833574e+00    8.546382e-01   1.172752e-02
  1.835784e+00    8.579205e-01   1.173875e-02
  1.837994e+00    8.791652e-01   1.187146e-02
  1.840205e+00    9.010824e-01   1.200720e-02
  1.842415e+00    8.908769e-01   1.192713e-02
  1.844626e+00    8.662048e-01   1.174928e-02
  1.846836e+00    8.729997e-01   1.178380e-02
  1.849047e+00    8.641797e-01   1.171254e-02
  1.851257e+00    8.724796e-01   1.175901e-02
  1.853468e+00    8.688786e-01   1.172592e-02
  1.855678e+00    8.328171e-01   1.147124e-02
  1.857889e+00    8.510982e-01   1.158800e-02
  1.860099e+00    8.749269e-01   1.174037e-02
  1.862309e+00    8.614830e-01   1.164131e-02
  1.864520e+00    8.454205e-01   1.152375e-02
  1.866730e+00    8.283238e-01   1.139739e-02
  1.868941e+00    8.237966e-01   1.135544e-02
  1.871151e+00    8.346596e-01   1.141878e-02
  1.873362e+00    8.362647e-01   1.141851e-02
  1.875572e+00    8.414673e-01   1.144309e-02
  1.877783e+00    8.402244e-01   1.142326e-02
  1.879993e+00    8.505470e-01   1.148203e-02
  1.882204e+00    8.415253e-01   1.141010e-02
  1.884414e+00    8.341265e-01   1.134884e-02
  1.886624e+00    8.328424e-01   1.132907e-02
  1.888835e+00    8.430935e-01   1.138761e-02
  1.891045e+00    8.234634e-01   1.124348e-02
  1.893256e+00    8.143091e-01   1.116990e-02
  1.895466e+00    7.923282e-01   1.100723e-02
  1.897677e+00    8.125496e-01   1.113603e-02
  1.899887e+00    8.202147e-01   1.117754e-02
  1.902098e+00    8.288956e-01   1.122571e-02
  1.904308e+00    8.503474e-01   1.135935e-02
  1.906519e+00    8.360876e-01   1.125283e-02
  1.908729e+00    8.132189e-01   1.108736e-02
  1.910940e+00    7.940220e-01   1.094481e-02
  1.913150e+00    8.072141e-01   1.102488e-02
  1.915360e+00    8.176371e-01   1.108526e-02
  1.917571e+00    8.169142e-01   1.106953e-02
  1.919781e+00    8.144593e-01   1.104224e-02
  1.921992e+00    8.189012e-01   1.106170e-02
  1.924202e+00    8.127761e-01   1.100952e-02
  1.926413e+00    7.946697e-01   1.087604e-02
  1.928623e+00    7.999413e-01   1.090160e-02
  1.930834e+00    7.954756e-01   1.086081e-02
  1.933044e+00    8.053925e-01   1.091768e-02
  1.935255e+00    7.965193e-01   1.084713e-02
  1.937465e+00    7.867222e-01   1.076995e-02
  1.939675e+00    7.890573e-01   1.077520e-02
  1.941886e+00    7.917420e-01   1.078331e-02
  1.944096e+00    7.982520e-01   1.081740e-02
  1.946307e+00    7.989342e-01   1.081170e-02
  1.948517e+00    8.019019e-01   1.082132e-02
  1.950728e+00    7.991786e-01   1.079265e-02
  1.952938e+00    8.122040e-01   1.087010e-02
  1.955149e+00    7.977572e-01   1.076274e-02
  1.957359e+00    7.981678e-01   1.075545e-02
  1.959570e+00    7.934658e-01   1.071287e-02
  1.961780e+00    7.840979e-01   1.063957e-02
  1.963990e+00    7.961190e-01   1.071068e-02
  1.966201e+00    7.819472e-01   1.060492e-02
  1.968411e+00    7.625521e-01   1.046259e-02
  1.970622e+00    7.709823e-01   1.051028e-02
  1.972832e+00    7.748256e-01   1.052655e-02
  1.975043e+00    7.755532e-01   1.052152e-02
  1.977253e+00    8.011061e-01   1.068339e-02
  1.979464e+00    7.833619e-01   1.055440e-02
  1.981674e+00    7.633901e-01   1.040884e-02
  1.983885e+00    7.806762e-01   1.051601e-02
  1.986095e+00    7.779751e-01   1.048813e-02
  1.988305e+00    7.704037e-01   1.042713e-02
  1.990516e+00    7.471960e-01   1.025916e-02
  1.992726e+00    7.649571e-01   1.037076e-02
  1.994937e+00    7.688498e-01   1.038706e-02
  1.997147e+00    7.673035e-01   1.036692e-02
  1.999358e+00    7.779490e-01   1.042873e-02
  2.001568e+00    7.687935e-01   1.035639e-02
  2.003779e+00    7.728877e-01   1.037202e-02
  2.005989e+00    7.577884e-01   1.025830e-02
  2.008200e+00    7.589144e-01   1.025446e-02
  2.010410e+00    7.714233e-01   1.032687e-02
  2.012621e+00    7.695208e-01   1.030241e-02
  2.014831e+00    7.625086e-01   1.024393e-02
  2.017041e+00    7.416570e-01   1.009269e-02
  2.019252e+00    7.635242e-01   1.023044e-02
  2.021462e+00    7.605279e-01   1.020088e-02
  2.023673e+00    7.559827e-01   1.016102e-02
  2.025883e+00    7.409923e-01   1.005038e-02
  2.028094e+00    7.567231e-01   1.014689e-02
  2.030304e+00    7.613223e-01   1.016816e-02
  2.032515e+00    7.542228e-01   1.011137e-02
  2.034725e+00    7.603280e-01   1.014277e-02
  2.036936e+00    7.545266e-01   1.009468e-02
  2.039146e+00    7.414480e-01   9.997353e-03
  2.041356e+00    7.238578e-01   9.868606e-03
  2.043567e+00    7.220329e-01   9.847061e-03
  2.045777e+00    7.363847e-01   9.935299e-03
  2.047988e+00    7.481607e-01   1.000512e-02
  2.050198e+00    7.406092e-01   9.946117e-03
  2.052409e+00    7.514977e-01   1.001133e-02
  2.054619e+00    7.351744e-01   9.894717e-03
  2.056830e+00    7.441895e-01   9.948048e-03
  2.059040e+00    7.371914e-01   9.893725e-03
  2.061251e+00    7.456009e-01   9.942765e-03
  2.063461e+00    7.510642e-01   9.971526e-03
  2.065671e+00    7.426689e-01   9.906954e-03
  2.067882e+00    7.363963e-01   9.856104e-03
  2.070092e+00    7.300153e-01   9.804217e-03
  2.072303e+00    7.392603e-01   9.856997e-03
  2.074513e+00    7.475751e-01   9.902954e-03
  2.076724e+00    7.313191e-01   9.785314e-03
  2.078934e+00    7.181295e-01   9.687825e-03
  2.081145e+00    7.173721e-01   9.673774e-03
  2.083355e+00    7.298881e-01   9.748712e-03
  2.085566e+00    7.136154e-01   9.630681e-03
  2.087776e+00    7.101996e-01   9.598282e-03
  2.089986e+00    7.135807e-01   9.612472e-03
  2.092197e+00    7.290909e-01   9.707467e-03
  2.094407e+00    7.124009e-01   9.586648e-03
  2.096618e+00    7.263975e-01   9.671503e-03
  2.098828e+00    7.223802e-01   9.635510e-03
  2.101039e+00    7.116374e-01   9.554726e-03
  2.103249e+00    7.288019e-01   9.660624e-03
  2.105460e+00    7.327940e-01   9.678003e-03
  2.107670e+00    7.334627e-01   9.673686e-03
  2.109881e+00    7.038807e-01   9.467554e-03
  2.112091e+00    7.195033e-01   9.563114e-03
  2.114301e+00    7.137313e-01   9.515944e-03
  2.116512e+00    7.106729e-01   9.486830e-03
  2.118722e+00    7.059243e-01   9.446353e-03
  2.120933e+00    7.068009e-01   9.443435e-03
  2.123143e+00    7.044954e-01   9.419209e-03
  2.125354e+00    6.973960e-01   9.363222e-03
  2.127564e+00    6.974022e-01   9.354645e-03
  2.129775e+00    7.035522e-01   9.387143e-03
  2.131985e+00    7.005200e-01   9.357926e-03
  2.134196e+00    7.046017e-01   9.376610e-03
  2.136406e+00    6.982018e-01   9.325291e-03
  2.138617e+00    6.979647e-01   9.315309e-03
  2.140827e+00    7.020021e-01   9.358192e-03
  2.143037e+00    6.935316e-01   9.346615e-03
  2.145248e+00    6.889179e-01   9.337202e-03
  2.147458e+00    7.032128e-01   9.448686e-03
  2.149669e+00    7.153662e-01   9.541962e-03
  2.151879e+00    7.054641e-01   9.484926e-03
  2.154090e+00    7.082478e-01   9.510990e-03
  2.156300e+00    6.880836e-01   9.381164e-03
  2.158511e+00    6.736614e-01   9.287527e-03
  2.160721e+00    6.770862e-01   9.315837e-03
  2.162932e+00    6.960649e-01   9.449226e-03
  2.165142e+00    7.015998e-01   9.489775e-03
  2.167352e+00    7.006697e-01   9.486392e-03
  2.169563e+00    7.015072e-01   9.494021e-03
  2.171773e+00    6.820748e-01   9.364048e-03
  2.173984e+00    6.797207e-01   9.349254e-03
  2.176194e+00    6.802040e-01   9.353769e-03
  2.178405e+00    6.802513e-01   9.354787e-03
  2.180615e+00    6.772786e-01   9.334988e-03
  2.182826e+00    6.853704e-01   9.391267e-03
  2.185036e+00    7.043461e-01   9.520446e-03
  2.187247e+00    6.807938e-01   9.359877e-03
  2.189457e+00    6.640151e-01   9.243408e-03
  2.191667e+00    6.823267e-01   9.369806e-03
  2.193878e+00    6.858302e-01   9.393284e-03
  2.196088e+00    6.811400e-01   9.360415e-03
  2.198299e+00    6.759092e-01   9.323339e-03
  2.200509e+00    6.704141e-01   9.284300e-03
  2.202720e+00    6.685669e-01   9.270362e-03
  2.204930e+00    6.788496e-01   9.340143e-03
  2.207141e+00    6.760505e-01   9.319758e-03
  2.209351e+00    6.800812e-01   9.345617e-03
  2.211562e+00    6.880502e-01   9.398573e-03
  2.213772e+00    6.729937e-01   9.239873e-03
  2.215982e+00    6.602011e-01   9.107918e-03
  2.218193e+00    6.567715e-01   9.055014e-03
  2.220403e+00    6.685785e-01   9.111566e-03
  2.222614e+00    6.833737e-01   9.190752e-03
  2.224824e+00    6.596912e-01   9.010901e-03
  2.227035e+00    6.863769e-01   9.173718e-03
  2.229245e+00    6.708890e-01   9.052702e-03
  2.231456e+00    6.485207e-01   8.885130e-03
  2.233666e+00    6.717792e-01   9.027961e-03
  2.235877e+00    6.623372e-01   8.950109e-03
  2.238087e+00    6.680098e-01   8.974897e-03
  2.240298e+00    6.589800e-01   8.900375e-03
  2.242508e+00    6.499515e-01   8.824263e-03
  2.244718e+00    6.583815e-01   8.865637e-03
  2.246929e+00    6.499748e-01   8.794629e-03
  2.249139e+00    6.594612e-01   8.846256e-03
  2.251350e+00    6.709765e-01   8.911416e-03
  2.253560e+00    6.680395e-01   8.880327e-03
  2.255771e+00    6.742229e-01   8.909836e-03
  2.257981e+00    6.701677e-01   8.871792e-03
  2.260192e+00    6.704035e-01   8.862184e-03
  2.262402e+00    6.696540e-01   8.846333e-03
  2.264613e+00    6.773137e-01   8.885839e-03
  2.266823e+00    6.598844e-01   8.760408e-03
  2.269033e+00    6.659546e-01   8.790172e-03
  2.271244e+00    6.807716e-01   8.876914e-03
  2.273454e+00    6.565591e-01   8.707413e-03
  2.275665e+00    6.412961e-01   8.595452e-03
  2.277875e+00    6.547186e-01   8.675059e-03
  2.280086e+00    6.640175e-01   8.726372e-03
  2.282296e+00    6.565763e-01   8.667968e-03
  2.284507e+00    6.496202e-01   8.611851e-03
  2.286717e+00    6.569891e-01   8.651098e-03
  2.288928e+00    6.544183e-01   8.624339e-03
  2.291138e+00    6.420507e-01   8.533103e-03
  2.293348e+00    6.314116e-01   8.452773e-03
  2.295559e+00    6.348878e-01   8.466822e-03
  2.297769e+00    6.581457e-01   8.611238e-03
  2.299980e+00    6.571779e-01   8.595559e-03
  2.302190e+00    6.433384e-01   8.495508e-03
  2.304401e+00    6.585249e-01   8.585814e-03
  2.306611e+00    6.689722e-01   8.644354e-03
  2.308822e+00    6.464572e-01   8.489287e-03
  2.311032e+00    6.458063e-01   8.478577e-03
  2.313243e+00    6.415546e-01   8.444392e-03
  2.315453e+00    6.430719e-01   8.446825e-03
  2.317663e+00    6.527348e-01   8.500895e-03
  2.319874e+00    6.404430e-01   8.411799e-03
  2.322084e+00    6.240067e-01   8.294328e-03
  2.324295e+00    6.517830e-01   8.468647e-03
  2.326505e+00    6.385142e-01   8.373021e-03
  2.328716e+00    6.254739e-01   8.278628e-03
  2.330926e+00    6.397603e-01   8.363861e-03
  2.333137e+00    6.424663e-01   8.373170e-03
  2.335347e+00    6.478088e-01   8.398985e-03
  2.337558e+00    6.441559e-01   8.367036e-03
  2.339768e+00    6.306922e-01   8.270604e-03
  2.341979e+00    6.271082e-01   8.238793e-03
  2.344189e+00    6.278250e-01   8.235161e-03
  2.346399e+00    6.296602e-01   8.238731e-03
  2.348610e+00    6.273894e-01   8.215476e-03
  2.350820e+00    6.313302e-01   8.233062e-03
  2.353031e+00    6.220848e-01   8.164362e-03
  2.355241e+00    6.143526e-01   8.105544e-03
  2.357452e+00    6.076686e-01   8.053049e-03
  2.359662e+00    6.234795e-01   8.148982e-03
  2.361873e+00    6.336413e-01   8.206866e-03
  2.364083e+00    6.247218e-01   8.140945e-03
  2.366294e+00    6.356246e-01   8.203519e-03
  2.368504e+00    6.196566e-01   8.091778e-03
  2.370714e+00    6.210771e-01   8.093035e-03
  2.372925e+00    6.125239e-01   8.029146e-03
  2.375135e+00    6.126342e-01   8.021874e-03
  2.377346e+00    6.137841e-01   8.021532e-03
  2.379556e+00    6.104745e-01   7.992044e-03
  2.381767e+00    6.103715e-01   7.983584e-03
  2.383977e+00    6.076853e-01   7.958141e-03
  2.386188e+00    6.210065e-01   8.036961e-03
  2.388398e+00    6.211665e-01   8.030051e-03
  2.390609e+00    6.095552e-01   7.946942e-03
  2.392819e+00    6.175009e-01   7.990802e-03
  2.395029e+00    5.991807e-01   7.863826e-03
  2.397240e+00    5.836102e-01   7.753292e-03
  2.399450e+00    5.957482e-01   7.825810e-03
  2.401661e+00    5.940709e-01   7.807225e-03
  2.403871e+00    5.840437e-01   7.733468e-03
  2.406082e+00    5.924199e-01   7.781396e-03
  2.408292e+00    6.016183e-01   7.833842e-03
  2.410503e+00    5.980679e-01   7.803252e-03
  2.412713e+00    5.931548e-01   7.763454e-03
  2.414924e+00    5.828398e-01   7.688291e-03
  2.417134e+00    5.952192e-01   7.761943e-03
  2.419344e+00    5.917143e-01   7.731713e-03
  2.421555e+00    6.000883e-01   7.778746e-03
  2.423765e+00    5.924586e-01   7.721779e-03
  2.425976e+00    6.052081e-01   7.796562e-03
  2.428186e+00    5.987681e-01   7.747786e-03
  2.430397e+00    5.813025e-01   7.626544e-03
  2.432607e+00    6.034382e-01   7.763069e-03
  2.434818e+00    6.046653e-01   7.763376e-03
  2.437028e+00    5.970677e-01   7.707262e-03
  2.439239e+00    6.015464e-01   7.728429e-03
  2.441449e+00    5.867587e-01   7.625678e-03
  2.443659e+00    5.780130e-01   7.561356e-03
  2.445870e+00    5.792080e-01   7.581315e-03
  2.448080e+00    5.726905e-01   7.573039e-03
  2.450291e+00    5.665299e-01   7.548627e-03
  2.452501e+00    5.711044e-01   7.590176e-03
  2.454712e+00    5.666721e-01   7.569041e-03
  2.456922e+00    5.633399e-01   7.553325e-03
  2.459133e+00    5.632591e-01   7.558209e-03
  2.461343e+00    5.537589e-01   7.498484e-03
  2.463554e+00    5.714823e-01   7.621028e-03
  2.465764e+00    5.573772e-01   7.529529e-03
  2.467975e+00    5.505697e-01   7.485660e-03
  2.470185e+00    5.518401e-01   7.496526e-03
  2.472395e+00    5.472268e-01   7.466354e-03
  2.474606e+00    5.565123e-01   7.530971e-03
  2.476816e+00    5.524096e-01   7.503929e-03
  2.479027e+00    5.358482e-01   7.391411e-03
  2.481237e+00    5.376920e-01   7.404389e-03
  2.483448e+00    5.452498e-01   7.456550e-03
  2.485658e+00    5.227698e-01   7.301088e-03
  2.487869e+00    5.372775e-01   7.401726e-03
  2.490079e+00    5.415463e-01   7.430557e-03
  2.492290e+00    5.463586e-01   7.463065e-03
  2.494500e+00    5.413005e-01   7.427700e-03
  2.496710e+00    5.496447e-01   7.484037e-03
  2.498921e+00    5.289723e-01   7.340965e-03
  2.501131e+00    5.234293e-01   7.301460e-03
  2.503342e+00    5.227867e-01   7.295705e-03
  2.505552e+00    5.285990e-01   7.335039e-03
  2.507763e+00    5.300832e-01   7.343904e-03
  2.509973e+00    5.208665e-01   7.278414e-03
  2.512184e+00    5.138576e-01   7.227666e-03
  2.514394e+00    5.148440e-01   7.225354e-03
  2.516605e+00    5.118411e-01   7.157851e-03
  2.518815e+00    5.102564e-01   7.118857e-03
  2.521025e+00    5.194770e-01   7.162048e-03
  2.523236e+00    5.161580e-01   7.121312e-03
  2.525446e+00    5.265392e-01   7.176951e-03
  2.527657e+00    5.224099e-01   7.134177e-03
  2.529867e+00    5.283589e-01   7.160483e-03
  2.532078e+00    5.170114e-01   7.068234e-03
  2.534288e+00    5.131356e-01   7.027969e-03
  2.536499e+00    5.114754e-01   7.004795e-03
  2.538709e+00    5.151831e-01   7.019237e-03
  2.540920e+00    5.227808e-01   7.060174e-03
  2.543130e+00    5.201151e-01   7.031838e-03
  2.545340e+00    5.058606e-01   6.924910e-03
  2.547551e+00    5.081856e-01   6.931006e-03
  2.549761e+00    5.183215e-01   6.990232e-03
  2.551972e+00    5.144044e-01   6.954498e-03
  2.554182e+00    5.065104e-01   6.891878e-03
  2.556393e+00    5.181373e-01   6.961445e-03
  2.558603e+00    5.117230e-01   6.909255e-03
  2.560814e+00    5.175463e-01   6.939740e-03
  2.563024e+00    5.287163e-01   7.005590e-03
  2.565235e+00    5.085291e-01   6.861140e-03
  2.567445e+00    5.234010e-01   6.951137e-03
  2.569656e+00    5.194734e-01   6.915260e-03
  2.571866e+00    5.174727e-01   6.892571e-03
  2.574076e+00    5.280018e-01   6.952965e-03
  2.576287e+00    5.486429e-01   7.078978e-03
  2.578497e+00    5.764291e-01   7.247737e-03
  2.580708e+00    5.627571e-01   7.152842e-03
  2.582918e+00    5.588626e-01   7.119951e-03
  2.585129e+00    5.332636e-01   6.947094e-03
  2.587339e+00    5.299339e-01   6.917570e-03
  2.589550e+00    5.187086e-01   6.836307e-03
  2.591760e+00    5.295634e-01   6.899591e-03
  2.593971e+00    5.131057e-01   6.784024e-03
  2.596181e+00    5.142085e-01   6.785045e-03
  2.598391e+00    5.025338e-01   6.702447e-03
  2.600602e+00    5.026670e-01   6.697455e-03
  2.602812e+00    5.059022e-01   6.711464e-03
  2.605023e+00    4.999252e-01   6.664585e-03
  2.607233e+00    5.070140e-01   6.704543e-03
  2.609444e+00    5.079007e-01   6.703174e-03
  2.611654e+00    4.900001e-01   6.576793e-03
  2.613865e+00    5.131873e-01   6.723498e-03
  2.616075e+00    5.119997e-01   6.708558e-03
  2.618286e+00    5.028531e-01   6.641382e-03
  2.620496e+00    5.055318e-01   6.652351e-03
  2.622706e+00    5.046379e-01   6.640721e-03
  2.624917e+00    5.048708e-01   6.636409e-03
  2.627127e+00    4.961855e-01   6.573366e-03
  2.629338e+00    5.031343e-01   6.613284e-03
  2.631548e+00    4.945972e-01   6.550800e-03
  2.633759e+00    5.077412e-01   6.630098e-03
  2.635969e+00    5.015454e-01   6.582841e-03
  2.638180e+00    4.872161e-01   6.481237e-03
  2.640390e+00    4.924221e-01   6.509215e-03
  2.642601e+00    5.060183e-01   6.591772e-03
  2.644811e+00    5.000581e-01   6.545773e-03
  2.647021e+00    5.001627e-01   6.539878e-03
  2.649232e+00    4.993776e-01   6.528037e-03
  2.651442e+00    4.969122e-01   6.505405e-03
  2.653653e+00    4.971656e-01   6.500296e-03
  2.655863e+00    4.986569e-01   6.503340e-03
  2.658074e+00    4.963422e-01   6.481633e-03
  2.660284e+00    4.902571e-01   6.435471e-03
  2.662495e+00    4.887376e-01   6.418794e-03
  2.664705e+00    4.966529e-01   6.463991e-03
  2.666916e+00    4.962932e-01   6.455184e-03
  2.669126e+00    4.964459e-01   6.449730e-03
  2.671337e+00    5.009377e-01   6.472219e-03
  2.673547e+00    4.943504e-01   6.423155e-03
  2.675757e+00    4.919187e-01   6.400890e-03
  2.677968e+00    4.925223e-01   6.398321e-03
  2.680178e+00    4.926702e-01   6.392876e-03
  2.682389e+00    4.868066e-01   6.348385e-03
  2.684599e+00    4.805698e-01   6.301455e-03
  2.686810e+00    4.955467e-01   6.392274e-03
  2.689020e+00    4.968978e-01   6.394654e-03
  2.691231e+00    4.900838e-01   6.344386e-03
  2.693441e+00    4.831444e-01   6.293201e-03
  2.695652e+00    4.903132e-01   6.333204e-03
  2.697862e+00    4.923367e-01   6.339898e-03
  2.700072e+00    4.808373e-01   6.259401e-03
  2.702283e+00    4.869570e-01   6.292900e-03
  2.704493e+00    4.850794e-01   6.274486e-03
  2.706704e+00    4.936493e-01   6.323245e-03
  2.708914e+00    4.846406e-01   6.259338e-03
  2.711125e+00    4.690487e-01   6.151692e-03
  2.713335e+00    4.831530e-01   6.237427e-03
  2.715546e+00    4.892085e-01   6.269928e-03
  2.717756e+00    4.841879e-01   6.231804e-03
  2.719967e+00    4.751783e-01   6.167414e-03
  2.722177e+00    4.840497e-01   6.218583e-03
  2.724387e+00    4.822777e-01   6.201128e-03
  2.726598e+00    4.632109e-01   6.071391e-03
  2.728808e+00    4.730832e-01   6.129643e-03
  2.731019e+00    4.929004e-01   6.250568e-03
  2.733229e+00    4.876208e-01   6.211170e-03
  2.735440e+00    4.764025e-01   6.133102e-03
  2.737650e+00    4.685014e-01   6.076082e-03
  2.739861e+00    4.714546e-01   6.089227e-03
  2.742071e+00    4.666902e-01   6.052734e-03
  2.744282e+00    4.757455e-01   6.104956e-03
  2.746492e+00    4.867855e-01   6.169322e-03
  2.748702e+00    4.878963e-01   6.170439e-03
  2.750913e+00    4.614154e-01   5.994970e-03
  2.753123e+00    4.744826e-01   6.073185e-03
  2.755334e+00    4.674804e-01   6.022219e-03
  2.757544e+00    4.788024e-01   6.088992e-03
  2.759755e+00    4.730937e-01   6.046730e-03
  2.761965e+00    4.724333e-01   6.036588e-03
  2.764176e+00    4.772407e-01   6.061241e-03
  2.766386e+00    4.784828e-01   6.063357e-03
  2.768597e+00    4.774773e-01   6.051124e-03
  2.770807e+00    4.741556e-01   6.024193e-03
  2.773017e+00    4.802336e-01   6.056706e-03
  2.775228e+00    4.774725e-01   6.033487e-03
  2.777438e+00    4.731237e-01   6.000184e-03
  2.779649e+00    4.708860e-01   5.980121e-03
  2.781859e+00    4.720784e-01   5.981958e-03
  2.784070e+00    4.815708e-01   6.035920e-03
  2.786280e+00    4.732475e-01   5.977794e-03
  2.788491e+00    4.687103e-01   5.943273e-03
  2.790701e+00    4.710109e-01   5.952222e-03
  2.792912e+00    4.727118e-01   5.957030e-03
  2.795122e+00    4.610541e-01   5.877475e-03
  2.797333e+00    4.640537e-01   5.891060e-03
  2.799543e+00    4.680443e-01   5.910520e-03
  2.801753e+00    4.695645e-01   5.914302e-03
  2.803964e+00    4.644548e-01   5.876432e-03
  2.806174e+00    4.783950e-01   5.957786e-03
  2.808385e+00    4.714502e-01   5.907645e-03
  2.810595e+00    4.692285e-01   5.886854e-03
  2.812806e+00    4.768965e-01   5.928145e-03
  2.815016e+00    4.672073e-01   5.862905e-03
  2.817227e+00    4.668323e-01   5.886275e-03
  2.819437e+00    4.836929e-01   6.002829e-03
  2.821648e+00    4.624054e-01   5.871524e-03
  2.823858e+00    4.673657e-01   5.908218e-03
  2.826068e+00    4.747773e-01   5.959884e-03
  2.828279e+00    4.550225e-01   5.838539e-03
  2.830489e+00    4.724995e-01   5.952938e-03
  2.832700e+00    4.660900e-01   5.914973e-03
  2.834910e+00    4.716118e-01   5.951956e-03
  2.837121e+00    4.818219e-01   6.017786e-03
  2.839331e+00    4.636808e-01   5.904635e-03
  2.841542e+00    4.755903e-01   5.980987e-03
  2.843752e+00    4.676661e-01   5.931746e-03
  2.845963e+00    4.567099e-01   5.862243e-03
  2.848173e+00    4.682302e-01   5.935795e-03
  2.850383e+00    4.641810e-01   5.910376e-03
  2.852594e+00    4.654132e-01   5.918138e-03
  2.854804e+00    4.566080e-01   5.861373e-03
  2.857015e+00    4.696039e-01   5.943784e-03
  2.859225e+00    4.476615e-01   5.803017e-03
  2.861436e+00    4.574945e-01   5.865734e-03
  2.863646e+00    4.594916e-01   5.878573e-03
  2.865857e+00    4.541795e-01   5.844835e-03
  2.868067e+00    4.463044e-01   5.794156e-03
  2.870278e+00    4.475102e-01   5.801625e-03
  2.872488e+00    4.566392e-01   5.859354e-03
  2.874698e+00    4.608344e-01   5.885162e-03
  2.876909e+00    4.582170e-01   5.867114e-03
  2.879119e+00    4.641805e-01   5.903528e-03
  2.881330e+00    4.664761e-01   5.916645e-03
  2.883540e+00    4.563071e-01   5.850427e-03
  2.885751e+00    4.529939e-01   5.827515e-03
  2.887961e+00    4.495919e-01   5.803728e-03
  2.890172e+00    4.612572e-01   5.876924e-03
  2.892382e+00    4.656651e-01   5.903135e-03
  2.894593e+00    4.611007e-01   5.872323e-03
  2.896803e+00    4.555011e-01   5.834589e-03
  2.899014e+00    4.595866e-01   5.858775e-03
  2.901224e+00    4.510301e-01   5.802014e-03
  2.903434e+00    4.537603e-01   5.817623e-03
  2.905645e+00    4.415255e-01   5.736471e-03
  2.907855e+00    4.474351e-01   5.772661e-03
  2.910066e+00    4.501173e-01   5.787875e-03
  2.912276e+00    4.454130e-01   5.755475e-03
  2.914487e+00    4.577033e-01   5.831857e-03
  2.916697e+00    4.645405e-01   5.873042e-03
  2.918908e+00    4.576517e-01   5.827327e-03
  2.921118e+00    4.536690e-01   5.799233e-03
  2.923329e+00    4.487941e-01   5.765686e-03
  2.925539e+00    4.520470e-01   5.784295e-03
  2.927749e+00    4.534096e-01   5.790683e-03
  2.929960e+00    4.498383e-01   5.765096e-03
  2.932170e+00    4.546977e-01   5.793819e-03
  2.934381e+00    4.578097e-01   5.811170e-03
  2.936591e+00    4.533286e-01   5.780103e-03
  2.938802e+00    4.387570e-01   5.683770e-03
  2.941012e+00    4.565197e-01   5.795346e-03
  2.943223e+00    4.618995e-01   5.826685e-03
  2.945433e+00    4.604331e-01   5.813678e-03
  2.947644e+00    4.534849e-01   5.765508e-03
  2.949854e+00    4.613458e-01   5.810978e-03
  2.952064e+00    4.491152e-01   5.729241e-03
  2.954275e+00    4.460196e-01   5.705086e-03
  2.956485e+00    4.506484e-01   5.730454e-03
  2.958696e+00    4.559229e-01   5.759497e-03
  2.960906e+00    4.684208e-01   5.833680e-03
  2.963117e+00    4.572795e-01   5.759381e-03
  2.965327e+00    4.680305e-01   5.822726e-03
  2.967538e+00    4.588727e-01   5.762572e-03
  2.969748e+00    4.479908e-01   5.691026e-03
  2.971959e+00    4.463072e-01   5.677204e-03
  2.974169e+00    4.505718e-01   5.701703e-03
  2.976379e+00    4.515960e-01   5.705260e-03
  2.978590e+00    4.481416e-01   5.680296e-03
  2.980800e+00    4.514244e-01   5.698256e-03
  2.983011e+00    4.436624e-01   5.646309e-03
  2.985221e+00    4.419025e-01   5.631973e-03
  2.987432e+00    4.449182e-01   5.648085e-03
  2.989642e+00    4.390482e-01   5.608127e-03
  2.991853e+00    4.364177e-01   5.588062e-03
  2.994063e+00    4.539459e-01   5.696287e-03
  2.996274e+00    4.624963e-01   5.746468e-03
  2.998484e+00    4.564800e-01   5.706258e-03
  3.000694e+00    4.453906e-01   5.633109e-03
  3.002905e+00    4.553230e-01   5.692618e-03
  3.005115e+00    4.486663e-01   5.647888e-03
  3.007326e+00    4.558389e-01   5.689698e-03
  3.009536e+00    4.517175e-01   5.660664e-03
  3.011747e+00    4.584606e-01   5.699830e-03
  3.013957e+00    4.543590e-01   5.671090e-03
  3.016168e+00    4.703920e-01   5.766951e-03
  3.018378e+00    4.628779e-01   5.717646e-03
  3.020589e+00    4.585153e-01   5.687397e-03
  3.022799e+00    4.543868e-01   5.658572e-03
  3.025010e+00    4.540065e-01   5.652952e-03
  3.027220e+00    4.485016e-01   5.615478e-03
  3.029430e+00    4.517535e-01   5.632563e-03
  3.031641e+00    4.559686e-01   5.655616e-03
  3.033851e+00    4.507771e-01   5.619828e-03
  3.036062e+00    4.568607e-01   5.654815e-03
  3.038272e+00    4.521608e-01   5.622082e-03
  3.040483e+00    4.480147e-01   5.593041e-03
  3.042693e+00    4.457285e-01   5.575495e-03
  3.044904e+00    4.385995e-01   5.526774e-03
  3.047114e+00    4.415146e-01   5.540348e-03
  3.049325e+00    4.339536e-01   5.488403e-03
  3.051535e+00    4.389809e-01   5.515738e-03
  3.053745e+00    4.531036e-01   5.599009e-03
  3.055956e+00    4.442775e-01   5.539686e-03
  3.058166e+00    4.606211e-01   5.636318e-03
  3.060377e+00    4.733948e-01   5.709078e-03
  3.062587e+00    4.609301e-01   5.628713e-03
  3.064798e+00    4.626246e-01   5.634747e-03
  3.067008e+00    4.458572e-01   5.526983e-03
  3.069219e+00    4.458448e-01   5.522403e-03
  3.071429e+00    4.455300e-01   5.516967e-03
  3.073640e+00    4.327919e-01   5.434253e-03
  3.075850e+00    4.531025e-01   5.556696e-03
  3.078060e+00    4.523378e-01   5.548896e-03
  3.080271e+00    4.543691e-01   5.557849e-03
  3.082481e+00    4.474915e-01   5.512191e-03
  3.084692e+00    4.410488e-01   5.469008e-03
  3.086902e+00    4.382554e-01   5.448455e-03
  3.089113e+00    4.308337e-01   5.398620e-03
  3.091323e+00    4.412378e-01   5.460064e-03
  3.093534e+00    4.354530e-01   5.420836e-03
  3.095744e+00    4.437144e-01   5.468649e-03
  3.097955e+00    4.353524e-01   5.413373e-03
  3.100165e+00    4.405012e-01   5.441985e-03
  3.102375e+00    4.534836e-01   5.518151e-03
  3.104586e+00    4.586350e-01   5.545867e-03
  3.106796e+00    4.489337e-01   5.483381e-03
  3.109007e+00    4.484731e-01   5.477330e-03
  3.111217e+00    4.524767e-01   5.498008e-03
  3.113428e+00    4.378713e-01   5.405164e-03
  3.115638e+00    4.463394e-01   5.453929e-03
  3.117849e+00    4.510036e-01   5.478621e-03
  3.120059e+00    4.369594e-01   5.389211e-03
  3.122270e+00    4.326236e-01   5.359184e-03
  3.124480e+00    4.405022e-01   5.404098e-03
  3.126691e+00    4.416362e-01   5.407507e-03
  3.128901e+00    4.329979e-01   5.351268e-03
  3.131111e+00    4.310557e-01   5.335480e-03
  3.133322e+00    4.266105e-01   5.304521e-03
  3.135532e+00    4.473033e-01   5.428211e-03
  3.137743e+00    4.501113e-01   5.441746e-03
  3.139953e+00    4.523590e-01   5.451579e-03
  3.142164e+00    4.455940e-01   5.422731e-03
  3.144374e+00    4.336061e-01   5.377403e-03
  3.146585e+00    4.365102e-01   5.409851e-03
  3.148795e+00    4.203638e-01   5.319357e-03
  3.151006e+00    4.267803e-01   5.368186e-03
  3.153216e+00    4.429621e-01   5.476161e-03
  3.155426e+00    4.401582e-01   5.465119e-03
  3.157637e+00    4.330581e-01   5.426315e-03
  3.159847e+00    4.360388e-01   5.449830e-03
  3.162058e+00    4.374877e-01   5.463291e-03
  3.164268e+00    4.323184e-01   5.434927e-03
  3.166479e+00    4.267497e-01   5.403430e-03
  3.168689e+00    4.326068e-01   5.443712e-03
  3.170900e+00    4.362319e-01   5.469634e-03
  3.173110e+00    4.441209e-01   5.521764e-03
  3.175321e+00    4.452162e-01   5.531069e-03
  3.177531e+00    4.459291e-01   5.538271e-03
  3.179741e+00    4.396308e-01   5.501113e-03
  3.181952e+00    4.322084e-01   5.456546e-03
  3.184162e+00    4.427971e-01   5.525202e-03
  3.186373e+00    4.270088e-01   5.427392e-03
  3.188583e+00    4.256993e-01   5.420817e-03
  3.190794e+00    4.307161e-01   5.454410e-03
  3.193004e+00    4.250913e-01   5.419888e-03
  3.195215e+00    4.436037e-01   5.538189e-03
  3.197425e+00    4.380059e-01   5.504333e-03
  3.199636e+00    4.373961e-01   5.499737e-03
  3.201846e+00    4.208429e-01   5.394091e-03
  3.204056e+00    4.272119e-01   5.435599e-03
  3.206267e+00    4.310789e-01   5.460998e-03
  3.208477e+00    4.384416e-01   5.508370e-03
  3.210688e+00    4.331392e-01   5.475805e-03
  3.212898e+00    4.358269e-01   5.493352e-03
  3.215109e+00    4.280853e-01   5.445092e-03
  3.217319e+00    4.325840e-01   5.474255e-03
  3.219530e+00    4.331889e-01   5.478483e-03
  3.221740e+00    4.442247e-01   5.548387e-03
  3.223951e+00    4.438811e-01   5.546733e-03
  3.226161e+00    4.274711e-01   5.443419e-03
  3.228372e+00    4.200222e-01   5.396328e-03
  3.230582e+00    4.157676e-01   5.369025e-03
  3.232792e+00    4.340231e-01   5.485878e-03
  3.235003e+00    4.208497e-01   5.402225e-03
  3.237213e+00    4.221710e-01   5.410801e-03
  3.239424e+00    4.234782e-01   5.419163e-03
  3.241634e+00    4.305492e-01   5.464351e-03
  3.243845e+00    4.278312e-01   5.447149e-03
  3.246055e+00    4.325265e-01   5.476661e-03
  3.248266e+00    4.342438e-01   5.487750e-03
  3.250476e+00    4.355775e-01   5.495860e-03
  3.252687e+00    4.167431e-01   5.375649e-03
  3.254897e+00    4.307120e-01   5.464869e-03
  3.257107e+00    4.182557e-01   5.384983e-03
  3.259318e+00    4.193616e-01   5.391830e-03
  3.261528e+00    4.339933e-01   5.484966e-03
  3.263739e+00    4.206610e-01   5.399494e-03
  3.265949e+00    4.291370e-01   5.453510e-03
  3.268160e+00    4.202825e-01   5.396527e-03
  3.270370e+00    4.412360e-01   5.528905e-03
  3.272581e+00    4.166624e-01   5.372474e-03
  3.274791e+00    4.229720e-01   5.412456e-03
  3.277002e+00    4.257408e-01   5.429588e-03
  3.279212e+00    4.252131e-01   5.425839e-03
  3.281422e+00    4.230075e-01   5.411171e-03
  3.283633e+00    4.305174e-01   5.458308e-03
  3.285843e+00    4.205015e-01   5.394121e-03
  3.288054e+00    4.208251e-01   5.395244e-03
  3.290264e+00    4.190402e-01   5.383470e-03
  3.292475e+00    4.201602e-01   5.389852e-03
  3.294685e+00    4.268581e-01   5.431989e-03
  3.296896e+00    4.257665e-01   5.424295e-03
  3.299106e+00    4.281514e-01   5.438888e-03
  3.301317e+00    4.307352e-01   5.454263e-03
  3.303527e+00    4.098630e-01   5.320011e-03
  3.305737e+00    4.229563e-01   5.403251e-03
  3.307948e+00    4.248676e-01   5.414789e-03
  3.310158e+00    4.237598e-01   5.406880e-03
  3.312369e+00    4.259146e-01   5.419714e-03
  3.314579e+00    4.279377e-01   5.431657e-03
  3.316790e+00    4.257885e-01   5.417296e-03
  3.319000e+00    4.255467e-01   5.414546e-03
  3.321211e+00    4.330308e-01   5.461365e-03
  3.323421e+00    4.166401e-01   5.355808e-03
  3.325632e+00    4.148870e-01   5.343631e-03
  3.327842e+00    4.212973e-01   5.383856e-03
  3.330052e+00    4.248476e-01   5.405413e-03
  3.332263e+00    4.324001e-01   5.452213e-03
  3.334473e+00    4.219347e-01   5.384929e-03
  3.336684e+00    4.230655e-01   5.390864e-03
  3.338894e+00    4.161491e-01   5.345794e-03
  3.341105e+00    4.185135e-01   5.359749e-03
  3.343315e+00    4.230108e-01   5.387309e-03
  3.345526e+00    4.168131e-01   5.346836e-03
  3.347736e+00    4.142599e-01   5.328996e-03
  3.349947e+00    4.344677e-01   5.456500e-03
  3.352157e+00    4.167061e-01   5.342635e-03
  3.354368e+00    4.230234e-01   5.381666e-03
  3.356578e+00    4.164218e-01   5.338497e-03
  3.358788e+00    4.242148e-01   5.386891e-03
  3.360999e+00    4.125396e-01   5.310995e-03
  3.363209e+00    4.103778e-01   5.296059e-03
  3.365420e+00    4.126933e-01   5.309464e-03
  3.367630e+00    4.137680e-01   5.315382e-03
  3.369841e+00    4.189522e-01   5.347122e-03
  3.372051e+00    4.166457e-01   5.330433e-03
  3.374262e+00    4.063734e-01   5.261878e-03
  3.376472e+00    4.035562e-01   5.241232e-03
  3.378683e+00    4.092884e-01   5.275811e-03
  3.380893e+00    4.060323e-01   5.252483e-03
  3.383103e+00    4.103359e-01   5.277555e-03
  3.385314e+00    4.138368e-01   5.297809e-03
  3.387524e+00    4.059549e-01   5.244383e-03
  3.389735e+00    4.234006e-01   5.353258e-03
  3.391945e+00    4.053362e-01   5.234168e-03
  3.394156e+00    4.056197e-01   5.231801e-03
  3.396366e+00    4.172496e-01   5.302837e-03
  3.398577e+00    4.135470e-01   5.276230e-03
  3.400787e+00    4.048148e-01   5.232048e-03
  3.402998e+00    3.890069e-01   5.165948e-03
  3.405208e+00    3.978319e-01   5.244667e-03
  3.407418e+00    3.950917e-01   5.242252e-03
  3.409629e+00    3.868282e-01   5.200854e-03
  3.411839e+00    4.116582e-01   5.377105e-03
  3.414050e+00    4.183317e-01   5.431830e-03
  3.416260e+00    4.021676e-01   5.335597e-03
  3.418471e+00    3.888040e-01   5.255549e-03
  3.420681e+00    3.925577e-01   5.289350e-03
  3.422892e+00    3.818132e-01   5.224373e-03
  3.425102e+00    3.776873e-01   5.203753e-03
  3.427313e+00    3.870883e-01   5.275308e-03
  3.429523e+00    3.709598e-01   5.171144e-03
  3.431733e+00    3.840771e-01   5.268413e-03
  3.433944e+00    3.870684e-01   5.295420e-03
  3.436154e+00    3.849241e-01   5.286964e-03
  3.438365e+00    3.746954e-01   5.222141e-03
  3.440575e+00    3.730675e-01   5.216654e-03
  3.442786e+00    3.806205e-01   5.274799e-03
  3.444996e+00    3.763772e-01   5.250816e-03
  3.447207e+00    3.734351e-01   5.235537e-03
  3.449417e+00    3.690877e-01   5.245641e-03
  3.451628e+00    3.778759e-01   5.337543e-03
  3.453838e+00    3.784698e-01   5.363183e-03
  3.456049e+00    3.561665e-01   5.226337e-03
  3.458259e+00    3.639385e-01   5.304874e-03
  3.460469e+00    3.649555e-01   5.332062e-03
  3.462680e+00    3.488850e-01   5.231929e-03
  3.464890e+00    3.635508e-01   5.358472e-03
  3.467101e+00    3.752612e-01   5.461767e-03
  3.469311e+00    3.899338e-01   5.584477e-03
  3.471522e+00    3.925392e-01   5.619904e-03
  3.473732e+00    3.951516e-01   5.654847e-03
  3.475943e+00    4.132240e-01   5.799035e-03
  3.478153e+00    4.037799e-01   5.748150e-03
  3.480364e+00    4.134152e-01   5.831841e-03
  3.482574e+00    4.160754e-01   5.866170e-03
  3.484784e+00    4.080751e-01   5.824312e-03
  3.486995e+00    4.308501e-01   5.999977e-03
  3.489205e+00    4.463592e-01   6.122106e-03
  3.491416e+00    4.360484e-01   6.066071e-03
  3.493626e+00    4.276126e-01   6.021549e-03
  3.495837e+00    4.416301e-01   6.134224e-03
  3.498047e+00    4.432063e-01   6.159619e-03
  3.500258e+00    4.677936e-01   6.342995e-03
  3.502468e+00    4.638782e-01   6.331027e-03
  3.504679e+00    4.291772e-01   6.103565e-03
  3.506889e+00    4.626378e-01   6.351415e-03
  3.509099e+00    4.699033e-01   6.415449e-03
  3.511310e+00    4.701330e-01   6.431382e-03
  3.513520e+00    4.856185e-01   6.550908e-03
  3.515731e+00    4.882481e-01   6.583026e-03
  3.517941e+00    4.953579e-01   6.645244e-03
  3.520152e+00    4.943868e-01   6.653022e-03
  3.522362e+00    5.220876e-01   6.851652e-03
  3.524573e+00    5.142586e-01   6.814499e-03
  3.526783e+00    5.041050e-01   6.760176e-03
  3.528994e+00    5.264618e-01   6.920753e-03
  3.531204e+00    5.287383e-01   6.948297e-03
  3.533414e+00    5.218705e-01   6.915038e-03
  3.535625e+00    5.313661e-01   6.990078e-03
  3.537835e+00    5.200506e-01   6.927218e-03
  3.540046e+00    5.190539e-01   6.929372e-03
  3.542256e+00    5.306810e-01   7.014043e-03
  3.544467e+00    5.423209e-01   7.098229e-03
  3.546677e+00    5.475082e-01   7.139737e-03
  3.548888e+00    5.357778e-01   7.070358e-03
  3.551098e+00    5.344312e-01   7.068729e-03
  3.553309e+00    5.350107e-01   7.080727e-03
  3.555519e+00    5.370287e-01   7.105375e-03
  3.557729e+00    5.320341e-01   7.083916e-03
  3.559940e+00    5.365712e-01   7.125629e-03
  3.562150e+00    5.478325e-01   7.211851e-03
  3.564361e+00    5.250496e-01   7.073482e-03
  3.566571e+00    5.332180e-01   7.142093e-03
  3.568782e+00    5.132241e-01   7.020720e-03
  3.570992e+00    5.191492e-01   7.074647e-03
  3.573203e+00    5.307728e-01   7.167485e-03
  3.575413e+00    5.372270e-01   7.224758e-03
  3.577624e+00    5.213624e-01   7.131185e-03
  3.579834e+00    5.308570e-01   7.209641e-03
  3.582045e+00    5.411081e-01   7.293030e-03
  3.584255e+00    5.403146e-01   7.301776e-03
  3.586465e+00    5.390394e-01   7.307154e-03
  3.588676e+00    5.209756e-01   7.197659e-03
  3.590886e+00    5.337525e-01   7.299041e-03
  3.593097e+00    5.443680e-01   7.385904e-03
  3.595307e+00    5.419628e-01   7.383559e-03
  3.597518e+00    5.508350e-01   7.458179e-03
  3.599728e+00    5.470029e-01   7.446455e-03
  3.601939e+00    5.259347e-01   7.315578e-03
  3.604149e+00    5.376539e-01   7.411025e-03
  3.606360e+00    5.439051e-01   7.468292e-03
  3.608570e+00    5.363171e-01   7.430180e-03
  3.610780e+00    5.260879e-01   7.369935e-03
  3.612991e+00    5.264820e-01   7.382623e-03
  3.615201e+00    5.336415e-01   7.442436e-03
  3.617412e+00    5.564072e-01   7.606948e-03
  3.619622e+00    5.372077e-01   7.480553e-03
  3.621833e+00    5.391293e-01   7.500628e-03
  3.624043e+00    5.381895e-01   7.503651e-03
  3.626254e+00    5.334687e-01   7.480357e-03
  3.628464e+00    5.219992e-01   7.410350e-03
  3.630675e+00    5.348240e-01   7.514942e-03
  3.632885e+00    5.466947e-01   7.612519e-03
  3.635095e+00    5.414376e-01   7.590345e-03
  3.637306e+00    5.368901e-01   7.572804e-03
  3.639516e+00    5.468442e-01   7.657377e-03
  3.641727e+00    5.338725e-01   7.580634e-03
  3.643937e+00    5.385015e-01   7.628001e-03
  3.646148e+00    5.418516e-01   7.666467e-03
  3.648358e+00    5.466198e-01   7.715140e-03
  3.650569e+00    5.196876e-01   7.537250e-03
  3.652779e+00    5.440089e-01   7.726493e-03
  3.654990e+00    5.363458e-01   7.686831e-03
  3.657200e+00    5.465299e-01   7.774579e-03
  3.659410e+00    5.298503e-01   7.669938e-03
  3.661621e+00    5.497067e-01   7.827713e-03
  3.663831e+00    5.455884e-01   7.813637e-03
  3.666042e+00    5.398808e-01   7.787922e-03
  3.668252e+00    5.379404e-01   7.789275e-03
  3.670463e+00    5.305544e-01   7.750851e-03
  3.672673e+00    5.254567e-01   7.728847e-03
  3.674884e+00    5.142587e-01   7.661185e-03
  3.677094e+00    5.350652e-01   7.830265e-03
  3.679305e+00    5.160097e-01   7.704882e-03
  3.681515e+00    5.251572e-01   7.788415e-03
  3.683726e+00    5.297611e-01   7.838286e-03
  3.685936e+00    5.478546e-01   7.986996e-03
  3.688146e+00    5.264096e-01   7.844907e-03
  3.690357e+00    5.213964e-01   7.823244e-03
  3.692567e+00    5.270447e-01   7.881685e-03
  3.694778e+00    5.346063e-01   7.954181e-03
  3.696988e+00    5.186177e-01   7.850208e-03
  3.699199e+00    5.116860e-01   7.813571e-03
  3.701409e+00    5.191069e-01   7.886350e-03
  3.703620e+00    5.193779e-01   7.904567e-03
  3.705830e+00    5.353460e-01   8.041768e-03
  3.708041e+00    5.317547e-01   8.031495e-03
  3.710251e+00    5.083868e-01   7.869469e-03
  3.712461e+00    5.129420e-01   7.921249e-03
  3.714672e+00    5.085272e-01   7.903595e-03
  3.716882e+00    5.252632e-01   8.049388e-03
  3.719093e+00    5.188938e-01   8.017533e-03
  3.721303e+00    5.196488e-01   8.040326e-03
  3.723514e+00    5.190344e-01   8.052858e-03
  3.725724e+00    5.188674e-01   8.068684e-03
  3.727935e+00    5.064681e-01   7.989035e-03
  3.730145e+00    5.072060e-01   8.011942e-03
  3.732356e+00    5.069715e-01   8.027473e-03
  3.734566e+00    5.214446e-01   8.158918e-03
  3.736776e+00    5.001200e-01   8.007865e-03
  3.738987e+00    5.171007e-01   8.160413e-03
  3.741197e+00    5.098427e-01   8.120935e-03
  3.743408e+00    5.148975e-01   8.179155e-03
  3.745618e+00    5.066410e-01   8.131497e-03
  3.747829e+00    5.087104e-01   8.166148e-03
  3.750039e+00    5.059818e-01   8.162504e-03
  3.752250e+00    5.134345e-01   8.240895e-03
  3.754460e+00    5.106249e-01   8.236868e-03
  3.756671e+00    4.954483e-01   8.132096e-03
  3.758881e+00    4.825260e-01   8.043496e-03
  3.761091e+00    5.082428e-01   8.274164e-03
  3.763302e+00    5.116651e-01   8.321133e-03
  3.765512e+00    5.207419e-01   8.414125e-03
  3.767723e+00    5.035443e-01   8.293286e-03
  3.769933e+00    5.173043e-01   8.425402e-03
  3.772144e+00    5.137148e-01   8.415830e-03
  3.774354e+00    5.064869e-01   8.376303e-03
  3.776565e+00    4.989516e-01   8.333438e-03
  3.778775e+00    5.015150e-01   8.374734e-03
  3.780986e+00    5.023522e-01   8.402009e-03
  3.783196e+00    5.266007e-01   8.623085e-03
  3.785407e+00    5.104869e-01   8.510748e-03
  3.787617e+00    5.057445e-01   8.491863e-03
  3.789827e+00    4.841716e-01   8.329003e-03
  3.792038e+00    5.030297e-01   8.510438e-03
  3.794248e+00    5.188609e-01   8.664927e-03
  3.796459e+00    4.874223e-01   8.419340e-03
  3.798669e+00    4.983733e-01   8.534727e-03
  3.800880e+00    5.038940e-01   8.603428e-03
  3.803090e+00    4.959882e-01   8.557281e-03
  3.805301e+00    5.126514e-01   8.722308e-03
  3.807511e+00    4.867837e-01   8.521079e-03
  3.809722e+00    4.882510e-01   8.555892e-03
  3.811932e+00    5.023756e-01   8.701026e-03
  3.814142e+00    5.207944e-01   8.882501e-03
  3.816353e+00    4.655158e-01   8.419952e-03
  3.818563e+00    4.622779e-01   8.412790e-03
  3.820774e+00    4.808707e-01   8.603103e-03
  3.822984e+00    4.899572e-01   8.707182e-03
  3.825195e+00    5.005409e-01   8.824510e-03
  3.827405e+00    4.978155e-01   8.824334e-03
  3.829616e+00    4.949655e-01   8.823068e-03
  3.831826e+00    4.930637e-01   8.830118e-03
  3.834037e+00    4.777095e-01   8.715624e-03
  3.836247e+00    4.713768e-01   8.681659e-03
  3.838457e+00    4.923490e-01   8.897620e-03
  3.840668e+00    4.950757e-01   8.947402e-03
  3.842878e+00    5.111657e-01   9.117498e-03
  3.845089e+00    4.852870e-01   8.909098e-03
  3.847299e+00    4.749027e-01   8.838417e-03
  3.849510e+00    4.768613e-01   8.882077e-03
  3.851720e+00    4.911139e-01   9.035114e-03
  3.853931e+00    4.769870e-01   8.922874e-03
  3.856141e+00    5.025785e-01   9.178259e-03
  3.858352e+00    5.071324e-01   9.239258e-03
  3.860562e+00    4.977075e-01   9.172393e-03
  3.862772e+00    5.217083e-01   9.411030e-03
  3.864983e+00    5.119537e-01   9.342714e-03
  3.867193e+00    4.999525e-01   9.252476e-03
  3.869404e+00    4.834195e-01   9.117798e-03
  3.871614e+00    4.882795e-01   9.183336e-03
  3.873825e+00    4.994849e-01   9.308659e-03
  3.876035e+00    4.652356e-01   9.003799e-03
  3.878246e+00    4.797918e-01   9.168965e-03
  3.880456e+00    4.913653e-01   9.307858e-03
  3.882667e+00    4.819748e-01   9.247533e-03
  3.884877e+00    5.009341e-01   9.457683e-03
  3.887087e+00    4.974505e-01   9.454866e-03
  3.889298e+00    4.894319e-01   9.408683e-03
  3.891508e+00    5.036654e-01   9.575373e-03
  3.893719e+00    5.096137e-01   9.663388e-03
  3.895929e+00    5.106527e-01   9.705273e-03
  3.898140e+00    5.120795e-01   9.751219e-03
  3.900350e+00    5.268898e-01   9.924499e-03
  3.902561e+00    5.229967e-01   9.921239e-03
  3.904771e+00    4.982090e-01   9.716389e-03
  3.906982e+00    5.243560e-01   1.000234e-02
  3.909192e+00    5.024963e-01   9.825619e-03
  3.911403e+00    5.065237e-01   9.899507e-03
  3.913613e+00    4.871123e-01   9.742203e-03
  3.915823e+00    4.890025e-01   9.795910e-03
  3.918034e+00    4.962378e-01   9.903607e-03
  3.920244e+00    4.743838e-01   9.718358e-03
  3.922455e+00    4.535112e-01   9.536940e-03
  3.924665e+00    4.575154e-01   9.614136e-03
  3.926876e+00    4.828674e-01   9.913844e-03
  3.929086e+00    4.942330e-01   1.006744e-02
  3.931297e+00    5.089948e-01   1.025235e-02
  3.933507e+00    4.837863e-01   1.002401e-02
  3.935718e+00    4.664320e-01   9.870757e-03
  3.937928e+00    4.778043e-01   1.001941e-02
  3.940138e+00    4.746910e-01   1.001573e-02
  3.942349e+00    4.727847e-01   1.002501e-02
  3.944559e+00    4.869820e-01   1.020443e-02
  3.946770e+00    4.748805e-01   1.010663e-02
  3.948980e+00    4.992088e-01   1.039338e-02
  3.951191e+00    4.913301e-01   1.034210e-02
  3.953401e+00    4.831869e-01   1.028725e-02
  3.955612e+00    4.741896e-01   1.022224e-02
  3.957822e+00    5.016708e-01   1.054647e-02
  3.960033e+00    5.160132e-01   1.072983e-02
  3.962243e+00    5.144065e-01   1.074685e-02
  3.964453e+00    4.926454e-01   1.055054e-02
  3.966664e+00    4.807839e-01   1.045591e-02
  3.968874e+00    4.761623e-01   1.043366e-02
  3.971085e+00    5.026254e-01   1.074197e-02
  3.973295e+00    4.805388e-01   1.052470e-02
  3.975506e+00    4.546318e-01   1.025789e-02
  3.977716e+00    5.244865e-01   1.104072e-02
  3.979927e+00    4.819584e-01   1.060571e-02
  3.982137e+00    4.861295e-01   1.067384e-02
  3.984348e+00    4.438985e-01   1.022127e-02
  3.986558e+00    4.915565e-01   1.077823e-02
  3.988768e+00    5.121721e-01   1.102580e-02
  3.990979e+00    4.545687e-01   1.040929e-02
  3.993189e+00    4.625560e-01   1.052279e-02
  3.995400e+00    4.762312e-01   1.070056e-02
  3.997610e+00    4.590454e-01   1.053474e-02
  3.999821e+00    4.932800e-01   1.095825e-02
  4.002031e+00    4.727543e-01   1.076588e-02
  4.004242e+00    4.686154e-01   1.075647e-02
  4.006452e+00    4.630627e-01   1.073096e-02
  4.008663e+00    4.768296e-01   1.092903e-02
  4.010873e+00    4.993382e-01   1.122455e-02
  4.013084e+00    4.677869e-01   1.090449e-02
  4.015294e+00    4.481399e-01   1.071232e-02
  4.017504e+00    5.009022e-01   1.136797e-02
  4.019715e+00    4.975553e-01   1.137313e-02
  4.021925e+00    4.677916e-01   1.106991e-02
  4.024136e+00    4.567013e-01   1.098030e-02
  4.026346e+00    4.804821e-01   1.130646e-02
  4.028557e+00    4.879335e-01   1.143842e-02
  4.030767e+00    4.728947e-01   1.130587e-02
  4.032978e+00    4.805884e-01   1.144355e-02
  4.035188e+00    4.820058e-01   1.150665e-02
  4.037399e+00    4.697149e-01   1.140581e-02
  4.039609e+00    4.654686e-01   1.140097e-02
  4.041819e+00    4.956392e-01   1.181400e-02
  4.044030e+00    4.828166e-01   1.171016e-02
  4.046240e+00    4.905426e-01   1.185359e-02
  4.048451e+00    4.906107e-01   1.190586e-02
  4.050661e+00    4.658467e-01   1.165196e-02
  4.052872e+00    5.187794e-01   1.235088e-02
  4.055082e+00    5.174232e-01   1.239000e-02
  4.057293e+00    4.714572e-01   1.188026e-02
  4.059503e+00    4.310621e-01   1.141136e-02
  4.061714e+00    4.564868e-01   1.179803e-02
  4.063924e+00    4.359683e-01   1.158379e-02
  4.066134e+00    4.881574e-01   1.231520e-02
  4.068345e+00    4.994368e-01   1.251684e-02
  4.070555e+00    4.693044e-01   1.219190e-02
  4.072766e+00    4.647854e-01   1.219277e-02
  4.074976e+00    4.602019e-01   1.219297e-02
  4.077187e+00    4.270238e-01   1.180377e-02
  4.079397e+00    4.475214e-01   1.214513e-02
  4.081608e+00    4.609613e-01   1.239053e-02
  4.083818e+00    4.815280e-01   1.272961e-02
  4.086029e+00    4.916265e-01   1.293043e-02
  4.088239e+00    4.827799e-01   1.288234e-02
  4.090449e+00    4.993298e-01   1.317239e-02
  4.092660e+00    5.258033e-01   1.359154e-02
  4.094870e+00    4.629768e-01   1.282464e-02
  4.097081e+00    5.117424e-01   1.355674e-02
  4.099291e+00    5.293524e-01   1.384545e-02
  4.101502e+00    4.996798e-01   1.350182e-02
  4.103712e+00    4.932533e-01   1.346474e-02
  4.105923e+00    4.927260e-01   1.350950e-02
  4.108133e+00    5.073569e-01   1.376163e-02
  4.110344e+00    4.627913e-01   1.319355e-02
  4.112554e+00    4.710971e-01   1.336402e-02
  4.114764e+00    4.796844e-01   1.353946e-02
  4.116975e+00    4.693885e-01   1.344617e-02
  4.119185e+00    4.929418e-01   1.383529e-02
  4.121396e+00    5.060024e-01   1.407526e-02
  4.123606e+00    5.080941e-01   1.416235e-02
  4.125817e+00    4.856653e-01   1.390412e-02
  4.128027e+00    5.257486e-01   1.452747e-02
  4.130238e+00    4.709315e-01   1.380826e-02
  4.132448e+00    4.643395e-01   1.377075e-02
  4.134659e+00    4.754323e-01   1.399427e-02
  4.136869e+00    4.738257e-01   1.403276e-02
  4.139080e+00    5.274638e-01   1.487251e-02
  4.141290e+00    5.251017e-01   1.490507e-02
  4.143500e+00    5.021453e-01   1.464278e-02
  4.145711e+00    4.950633e-01   1.460702e-02
  4.147921e+00    4.963688e-01   1.469333e-02
  4.150132e+00    5.169318e-01   1.506630e-02
  4.152342e+00    4.736803e-01   1.449206e-02
  4.154553e+00    4.374960e-01   1.399376e-02
  4.156763e+00    4.960898e-01   1.497501e-02
  4.158974e+00    4.938647e-01   1.501674e-02
  4.161184e+00    4.804088e-01   1.488413e-02
  4.163395e+00    4.844159e-01   1.502225e-02
  4.165605e+00    5.113420e-01   1.551442e-02
  4.167815e+00    4.906818e-01   1.527722e-02
  4.170026e+00    4.897899e-01   1.534356e-02
  4.172236e+00    5.067543e-01   1.569162e-02
  4.174447e+00    4.371339e-01   1.465321e-02
  4.176657e+00    4.574873e-01   1.507213e-02
  4.178868e+00    4.543582e-01   1.510562e-02
  4.181078e+00    5.032541e-01   1.598722e-02
  4.183289e+00    4.780006e-01   1.567014e-02
  4.185499e+00    4.886175e-01   1.593677e-02
  4.187710e+00    5.040000e-01   1.628045e-02
  4.189920e+00    4.727307e-01   1.586215e-02
  4.192130e+00    4.953715e-01   1.633704e-02
  4.194341e+00    4.554375e-01   1.576062e-02
  4.196551e+00    4.798921e-01   1.628070e-02
  4.198762e+00    4.750606e-01   1.630134e-02
  4.200972e+00    5.199504e-01   1.716438e-02
  4.203183e+00    5.283222e-01   1.741643e-02
  4.205393e+00    4.744378e-01   1.661392e-02
  4.207604e+00    4.828253e-01   1.687453e-02
  4.209814e+00    5.087508e-01   1.744058e-02
  4.212025e+00    5.070863e-01   1.753534e-02
  4.214235e+00    4.463214e-01   1.656790e-02
  4.216445e+00    4.720646e-01   1.716202e-02
  4.218656e+00    4.537777e-01   1.695266e-02
  4.220866e+00    4.525607e-01   1.705492e-02
  4.223077e+00    5.226731e-01   1.846988e-02
  4.225287e+00    4.575725e-01   1.741696e-02
  4.227498e+00    5.267817e-01   1.883476e-02
  4.229708e+00    4.825917e-01   1.817367e-02
  4.231919e+00    5.148896e-01   1.892737e-02
  4.234129e+00    5.242211e-01   1.925854e-02
  4.236340e+00    5.263741e-01   1.946304e-02
  4.238550e+00    5.159737e-01   1.943974e-02
  4.240761e+00    5.274851e-01   1.982914e-02
  4.242971e+00    5.243729e-01   1.995185e-02
  4.245181e+00    4.619598e-01   1.890248e-02
  4.247392e+00    5.344225e-01   2.052129e-02
  4.249602e+00    4.730896e-01   1.949961e-02
  4.251813e+00    4.653467e-01   1.952996e-02
  4.254023e+00    3.809239e-01   1.784806e-02
  4.256234e+00    4.869769e-01   2.039555e-02
  4.258444e+00    4.885999e-01   2.064336e-02
  4.260655e+00    4.414936e-01   1.983866e-02
  4.262865e+00    5.055558e-01   2.147003e-02
  4.265076e+00    5.406671e-01   2.245555e-02
  4.267286e+00    4.908310e-01   2.164945e-02
  4.269496e+00    5.081215e-01   2.229632e-02
  4.271707e+00    4.364536e-01   2.092003e-02
  4.273917e+00    4.087566e-01   2.050630e-02
  4.276128e+00    4.506741e-01   2.181860e-02
  4.278338e+00    4.483345e-01   2.205197e-02
  4.280549e+00    4.390244e-01   2.213501e-02
  4.282759e+00    5.138592e-01   2.429159e-02
  4.284970e+00    4.776265e-01   2.376631e-02
  4.287180e+00    4.920400e-01   2.441111e-02
  4.289391e+00    5.379519e-01   2.571608e-02
  4.291601e+00    5.001704e-01   2.499494e-02
  4.293811e+00    5.406978e-01   2.619085e-02
  4.296022e+00    5.410030e-01   2.640887e-02
  4.298232e+00    5.089052e-01   2.582802e-02
  4.300443e+00    4.673190e-01   2.495444e-02
  4.302653e+00    4.149462e-01   2.371838e-02
  4.304864e+00    4.343563e-01   2.447660e-02
  4.307074e+00    5.067903e-01   2.667582e-02
  4.309285e+00    5.586931e-01   2.826375e-02
  4.311495e+00    5.295160e-01   2.777354e-02
  4.313706e+00    4.599508e-01   2.612812e-02
  4.315916e+00    5.274275e-01   2.825400e-02
  4.318126e+00    3.746348e-01   2.404880e-02
  4.320337e+00    4.680180e-01   2.714954e-02
  4.322547e+00    5.021317e-01   2.842144e-02
  4.324758e+00    4.382654e-01   2.682791e-02
  4.326968e+00    4.455439e-01   2.735478e-02
  4.329179e+00    4.336205e-01   2.728392e-02
  4.331389e+00    5.014798e-01   2.967825e-02
  4.333600e+00    5.341837e-01   3.099743e-02
  4.335810e+00    4.001789e-01   2.714814e-02
  4.338021e+00    6.006804e-01   3.368606e-02
  4.340231e+00    5.623101e-01   3.300315e-02
  4.342442e+00    4.015533e-01   2.826286e-02
  4.344652e+00    3.792619e-01   2.784016e-02
  4.346862e+00    3.961643e-01   2.885143e-02
  4.349073e+00    4.471278e-01   3.109820e-02
  4.351283e+00    2.748377e-01   2.474473e-02
  4.353494e+00    4.964387e-01   3.377073e-02
  4.355704e+00    4.859657e-01   3.395101e-02
  4.357915e+00    4.003382e-01   3.132775e-02
  4.360125e+00    5.438041e-01   3.713526e-02
  4.362336e+00    5.655985e-01   3.856307e-02
  4.364546e+00    3.324261e-01   3.010239e-02
  4.366757e+00    4.554678e-01   3.593444e-02
  4.368967e+00    4.778607e-01   3.754475e-02
  4.371177e+00    4.269346e-01   3.624047e-02
  4.373388e+00    4.707554e-01   3.890621e-02
  4.375598e+00    4.668439e-01   3.962705e-02
  4.377809e+00    4.133839e-01   3.823381e-02
  4.380019e+00    3.048075e-01   3.365740e-02
  4.382230e+00    2.714068e-01   3.264386e-02
  4.384440e+00    4.119986e-01   4.137808e-02
  4.386651e+00    3.661274e-01   4.021208e-02
  4.388861e+00    2.887636e-01   3.690613e-02
  4.391072e+00    4.915301e-01   4.984559e-02
  4.393282e+00    4.259112e-01   4.819219e-02
  4.395492e+00    3.718694e-01   4.690467e-02
  4.397703e+00    3.834303e-01   4.980499e-02
  4.399913e+00    2.824910e-01   4.491035e-02
  4.402124e+00    5.237689e-01   6.462286e-02
  4.404334e+00    3.053658e-01   5.245308e-02
  4.406545e+00    4.650597e-01   6.954074e-02
  4.408755e+00    3.536685e-01   6.577566e-02
  4.410966e+00    2.929466e-01   6.624850e-02
  4.413176e+00    2.132534e-01   6.399514e-02
  4.415387e+00   -3.955054e-01            nan
  4.417597e+00   -1.948338e+00            nan
  4.419807e+00    1.431295e-01   1.358686e-01
