# == pyFAI calibration ==
# Distance Sample to Detector: 0.216 m
# PONI: 1.166e-01, 1.308e-01 m
# Rotations: 0.000000 0.000000 0.000000 rad
# 
# == Fit2d calibration ==
# Distance Sample-beamCenter: 216.000 mm
# Center: x=1744.293, y=1555.000 pix
# Tilt: 0.000 deg  TiltPlanRot: 0.000 deg
# 
# Detector Eiger 9M	 PixelSize= 7.500e-05, 7.500e-05 m
#    Detector has a mask: True 
#    Detector has a dark current: False 
#    detector has a flat field: False 
# 
# Wavelength: 9.8e-11 m
# Mask applied: from detector
# Dark current applied: False
# Flat field applied: False
# Polarization factor: None
# Normalization factor: 1.0
# 
# Headers of the input frame:
# {
# "_array_data.header_convention": "SLS_1.0",
# "_array_data.header_contents": "# Detector: Dectris Eiger 9M, S/N E-18-0102\r\n# Pixel_size 75e-6 m x 75e-6 m\r\n# Silicon sensor, thickness 0.000450 m\r\n# Exposure_time 0.024997 s\r\n# Exposure_period 0.025000 s\r\n# Count_cutoff 62318 counts\r\n# Wavelength 0.980106 A\r\n# Detector_distance 0.215992 m\r\n# Beam_xy (1555, 1744) pixels\r\n# Start_angle 0.000000 deg.\r\n# Angle_increment 0.000000 deg.",
# "Content-Type": "application/octet-stream;",
# "conversions": "x-CBF_BYTE_OFFSET",
# "Content-Transfer-Encoding": "BINARY",
# "X-Binary-Size": "10166594",
# "X-Binary-ID": "1",
# "X-Binary-Element-Type": "signed 32-bit integer",
# "X-Binary-Element-Byte-Order": "LITTLE_ENDIAN",
# "Content-MD5": "7tf5B8E/xDHoy+W+VuINIg==",
# "X-Binary-Number-of-Elements": "10166590",
# "X-Binary-Size-Fastest-Dimension": "3110",
# "X-Binary-Size-Second-Dimension": "3269",
# "X-Binary-Size-Padding": "4095"
# }
# --> H:/Proxima2a_2019-04-05/RAW_DATA/C5_gel17_position5/C5_mesh_1_data.cbf/C5_mesh_1_data.cbf000188.dat
#        q_A^-1              I           sigma 
  1.105228e-03    1.229057e+00   5.998919e-01
  3.315685e-03    1.209896e+00   3.618425e-01
  5.526141e-03    1.461029e+00   3.074691e-01
  7.736597e-03    1.241262e+00   2.394153e-01
  9.947054e-03    1.350445e+00   2.201481e-01
  1.215751e-02    1.490571e+00   2.091438e-01
  1.436797e-02    1.491617e+00   1.924440e-01
  1.657842e-02    1.549502e+00   1.825747e-01
  1.878888e-02    1.525991e+00   1.701922e-01
  2.099934e-02    1.217239e+00   1.438103e-01
  2.320979e-02    1.254730e+00   1.388698e-01
  2.542025e-02    1.471108e+00   1.436917e-01
  2.763070e-02    1.533513e+00   1.407130e-01
  2.984116e-02    1.513333e+00   1.345066e-01
  3.205162e-02    1.469767e+00   1.279117e-01
  3.426207e-02    1.475313e+00   1.239416e-01
  3.647253e-02    1.256434e+00   1.108561e-01
  3.868299e-02    1.430330e+00   1.148586e-01
  4.089344e-02    1.480716e+00   1.136624e-01
  4.310390e-02    1.540365e+00   1.129108e-01
  4.531436e-02    1.470018e+00   1.075789e-01
  4.752481e-02    1.350803e+00   1.006967e-01
  4.973527e-02    1.545549e+00   1.052915e-01
  5.194572e-02    1.420692e+00   9.877634e-02
  5.415618e-02    1.512115e+00   9.980014e-02
  5.636664e-02    1.501412e+00   9.747993e-02
  5.857709e-02    1.455597e+00   9.415320e-02
  6.078755e-02    1.356337e+00   8.921569e-02
  6.299801e-02    1.324993e+00   8.661702e-02
  6.520846e-02    1.379716e+00   8.687716e-02
  6.741892e-02    1.471194e+00   8.822359e-02
  6.962938e-02    1.608430e+00   9.077524e-02
  7.183983e-02    1.453793e+00   8.496174e-02
  7.405029e-02    1.394567e+00   8.195981e-02
  7.626074e-02    1.466574e+00   8.282135e-02
  7.847120e-02    1.562246e+00   8.426529e-02
  8.068166e-02    1.536695e+00   8.241989e-02
  8.289211e-02    1.576443e+00   8.235802e-02
  8.510257e-02    1.523220e+00   7.989704e-02
  8.731303e-02    1.546922e+00   7.948751e-02
  8.952348e-02    1.503830e+00   7.740106e-02
  9.173394e-02    1.452311e+00   7.513870e-02
  9.394439e-02    1.404402e+00   7.301213e-02
  9.615485e-02    1.476295e+00   7.399057e-02
  9.836531e-02    1.466840e+00   7.291784e-02
  1.005758e-01    1.512741e+00   7.323215e-02
  1.027862e-01    1.527609e+00   7.279374e-02
  1.049967e-01    1.567303e+00   7.295188e-02
  1.072071e-01    1.481164e+00   7.018308e-02
  1.094176e-01    1.459023e+00   6.894827e-02
  1.116280e-01    1.549988e+00   7.035644e-02
  1.138385e-01    1.604815e+00   7.089014e-02
  1.160490e-01    1.619288e+00   7.052678e-02
  1.182594e-01    1.611325e+00   6.969105e-02
  1.204699e-01    1.481674e+00   6.621204e-02
  1.226803e-01    1.519574e+00   6.644392e-02
  1.248908e-01    1.620977e+00   6.801426e-02
  1.271012e-01    1.574685e+00   6.644926e-02
  1.293117e-01    1.561393e+00   6.559941e-02
  1.315222e-01    1.579847e+00   6.542754e-02
  1.337326e-01    1.680446e+00   6.691723e-02
  1.359431e-01    1.607371e+00   6.548441e-02
  1.381535e-01    1.581783e+00   6.583305e-02
  1.403640e-01    1.623377e+00   6.698096e-02
  1.425744e-01    1.686632e+00   6.838252e-02
  1.447849e-01    1.588804e+00   6.638504e-02
  1.469953e-01    1.549166e+00   6.551065e-02
  1.492058e-01    1.556067e+00   6.558009e-02
  1.514163e-01    1.535966e+00   6.504694e-02
  1.536267e-01    1.576154e+00   6.576375e-02
  1.558372e-01    1.654149e+00   6.722253e-02
  1.580476e-01    1.678650e+00   6.755424e-02
  1.602581e-01    1.617233e+00   6.613849e-02
  1.624685e-01    1.661188e+00   6.684773e-02
  1.646790e-01    1.745095e+00   6.831844e-02
  1.668895e-01    1.715312e+00   6.753733e-02
  1.690999e-01    1.763866e+00   6.828087e-02
  1.713104e-01    1.698044e+00   6.678684e-02
  1.735208e-01    1.742606e+00   6.744710e-02
  1.757313e-01    1.866580e+00   6.958631e-02
  1.779417e-01    1.940142e+00   7.071289e-02
  1.801522e-01    1.928182e+00   7.027010e-02
  1.823626e-01    1.870061e+00   6.897253e-02
  1.845731e-01    1.885334e+00   6.902929e-02
  1.867836e-01    1.897371e+00   6.901557e-02
  1.889940e-01    2.012722e+00   7.085026e-02
  1.912045e-01    2.013231e+00   7.062262e-02
  1.934149e-01    1.902535e+00   6.842382e-02
  1.956254e-01    1.973164e+00   6.945247e-02
  1.978358e-01    1.932395e+00   6.849568e-02
  2.000463e-01    2.067414e+00   7.061344e-02
  2.022568e-01    2.056948e+00   7.020330e-02
  2.044672e-01    2.077322e+00   7.030845e-02
  2.066777e-01    2.004307e+00   6.883255e-02
  2.088881e-01    2.015346e+00   6.879602e-02
  2.110986e-01    2.078387e+00   6.962414e-02
  2.133090e-01    2.093264e+00   6.964574e-02
  2.155195e-01    2.011503e+00   6.804558e-02
  2.177300e-01    1.989148e+00   6.713481e-02
  2.199404e-01    2.000695e+00   6.555527e-02
  2.221509e-01    1.930793e+00   6.334241e-02
  2.243613e-01    1.969180e+00   6.315803e-02
  2.265718e-01    1.932505e+00   6.187747e-02
  2.287822e-01    2.054766e+00   6.317330e-02
  2.309927e-01    2.080693e+00   6.299150e-02
  2.332031e-01    2.171247e+00   6.379689e-02
  2.354136e-01    2.117042e+00   6.248493e-02
  2.376241e-01    2.202078e+00   6.323285e-02
  2.398345e-01    2.190613e+00   6.260131e-02
  2.420450e-01    2.147412e+00   6.153797e-02
  2.442554e-01    2.175006e+00   6.150543e-02
  2.464659e-01    2.244665e+00   6.206309e-02
  2.486763e-01    2.130715e+00   6.006983e-02
  2.508868e-01    2.114984e+00   5.947009e-02
  2.530973e-01    2.133133e+00   5.935445e-02
  2.553077e-01    2.163594e+00   5.941412e-02
  2.575182e-01    2.165427e+00   5.908763e-02
  2.597286e-01    2.089050e+00   5.769885e-02
  2.619391e-01    2.026445e+00   5.650055e-02
  2.641495e-01    2.019131e+00   5.608633e-02
  2.663600e-01    2.116686e+00   5.710947e-02
  2.685704e-01    2.099474e+00   5.656851e-02
  2.707809e-01    2.041515e+00   5.548614e-02
  2.729914e-01    2.061984e+00   5.547297e-02
  2.752018e-01    2.060661e+00   5.516656e-02
  2.774123e-01    2.006487e+00   5.415850e-02
  2.796227e-01    2.018142e+00   5.404690e-02
  2.818332e-01    1.955176e+00   5.293170e-02
  2.840436e-01    2.021343e+00   5.355903e-02
  2.862541e-01    1.948545e+00   5.233296e-02
  2.884646e-01    1.964609e+00   5.229883e-02
  2.906750e-01    2.018030e+00   5.275380e-02
  2.928855e-01    2.042240e+00   5.282338e-02
  2.950959e-01    1.991666e+00   5.192560e-02
  2.973064e-01    1.989597e+00   5.166537e-02
  2.995168e-01    1.964342e+00   5.110390e-02
  3.017273e-01    1.971719e+00   5.097404e-02
  3.039377e-01    1.893972e+00   4.974022e-02
  3.061482e-01    1.884640e+00   4.940286e-02
  3.083587e-01    1.933664e+00   4.982469e-02
  3.105691e-01    1.934300e+00   4.962003e-02
  3.127796e-01    1.922184e+00   4.925643e-02
  3.149900e-01    1.889175e+00   4.862820e-02
  3.172005e-01    1.912256e+00   4.872430e-02
  3.194109e-01    1.868035e+00   4.795883e-02
  3.216214e-01    1.902104e+00   4.819671e-02
  3.238319e-01    1.883299e+00   4.776788e-02
  3.260423e-01    1.885201e+00   4.760162e-02
  3.282528e-01    1.871453e+00   4.723895e-02
  3.304632e-01    1.818802e+00   4.638929e-02
  3.326737e-01    1.813801e+00   4.614470e-02
  3.348841e-01    1.796979e+00   4.575212e-02
  3.370946e-01    1.830763e+00   4.600643e-02
  3.393050e-01    1.881583e+00   4.646394e-02
  3.415155e-01    1.892248e+00   4.642023e-02
  3.437260e-01    1.864398e+00   4.590661e-02
  3.459364e-01    1.786019e+00   4.476507e-02
  3.481469e-01    1.844080e+00   4.532083e-02
  3.503573e-01    1.822230e+00   4.488743e-02
  3.525678e-01    1.828807e+00   4.480810e-02
  3.547782e-01    1.851142e+00   4.491796e-02
  3.569887e-01    1.848917e+00   4.473189e-02
  3.591992e-01    1.821905e+00   4.424682e-02
  3.614096e-01    1.771672e+00   4.348129e-02
  3.636201e-01    1.799921e+00   4.367254e-02
  3.658305e-01    1.856457e+00   4.420184e-02
  3.680410e-01    1.802984e+00   4.341078e-02
  3.702514e-01    1.827885e+00   4.356252e-02
  3.724619e-01    1.850181e+00   4.367816e-02
  3.746724e-01    1.829339e+00   4.328655e-02
  3.768828e-01    1.826840e+00   4.311140e-02
  3.790933e-01    1.843932e+00   4.317147e-02
  3.813037e-01    1.803271e+00   4.255315e-02
  3.835142e-01    1.794892e+00   4.231473e-02
  3.857246e-01    1.833572e+00   4.262984e-02
  3.879351e-01    1.817397e+00   4.230401e-02
  3.901455e-01    1.826404e+00   4.227372e-02
  3.923560e-01    1.838778e+00   4.228185e-02
  3.945665e-01    1.842529e+00   4.219073e-02
  3.967769e-01    1.801620e+00   4.158909e-02
  3.989874e-01    1.785190e+00   4.126974e-02
  4.011978e-01    1.806037e+00   4.138236e-02
  4.034083e-01    1.760918e+00   4.073673e-02
  4.056187e-01    1.782728e+00   4.086196e-02
  4.078292e-01    1.795345e+00   4.088221e-02
  4.100397e-01    1.813560e+00   4.096361e-02
  4.122501e-01    1.836637e+00   4.110010e-02
  4.144606e-01    1.793316e+00   4.049205e-02
  4.166710e-01    1.765830e+00   4.006107e-02
  4.188815e-01    1.797293e+00   4.029699e-02
  4.210919e-01    1.840556e+00   4.065960e-02
  4.233024e-01    1.844082e+00   4.057883e-02
  4.255128e-01    1.837429e+00   4.038848e-02
  4.277233e-01    1.802491e+00   3.988772e-02
  4.299338e-01    1.805886e+00   3.981039e-02
  4.321442e-01    1.792796e+00   3.955233e-02
  4.343547e-01    1.795200e+00   3.946692e-02
  4.365651e-01    1.760658e+00   3.897433e-02
  4.387756e-01    1.760779e+00   3.886652e-02
  4.409860e-01    1.781198e+00   3.898296e-02
  4.431965e-01    1.686518e+00   3.782784e-02
  4.454070e-01    1.709657e+00   3.798049e-02
  4.476174e-01    1.756855e+00   3.839545e-02
  4.498279e-01    1.777062e+00   3.851057e-02
  4.520383e-01    1.800929e+00   3.866193e-02
  4.542488e-01    1.782292e+00   3.835767e-02
  4.564592e-01    1.801041e+00   3.845542e-02
  4.586697e-01    1.773493e+00   3.805895e-02
  4.608801e-01    1.711137e+00   3.728373e-02
  4.630906e-01    1.732140e+00   3.741251e-02
  4.653011e-01    1.724651e+00   3.723338e-02
  4.675115e-01    1.748257e+00   3.738859e-02
  4.697220e-01    1.752099e+00   3.733167e-02
  4.719324e-01    1.719202e+00   3.688389e-02
  4.741429e-01    1.683544e+00   3.640532e-02
  4.763533e-01    1.684119e+00   3.631820e-02
  4.785638e-01    1.708441e+00   3.648501e-02
  4.807743e-01    1.737957e+00   3.670525e-02
  4.829847e-01    1.764185e+00   3.688776e-02
  4.851952e-01    1.729190e+00   3.642765e-02
  4.874056e-01    1.686904e+00   3.588877e-02
  4.896161e-01    1.695913e+00   3.589524e-02
  4.918265e-01    1.685602e+00   3.569707e-02
  4.940370e-01    1.691786e+00   3.567422e-02
  4.962475e-01    1.676432e+00   3.542425e-02
  4.984579e-01    1.747852e+00   3.608181e-02
  5.006684e-01    1.783686e+00   3.636095e-02
  5.028788e-01    1.730787e+00   3.573094e-02
  5.050893e-01    1.688583e+00   3.520675e-02
  5.072997e-01    1.674281e+00   3.497267e-02
  5.095102e-01    1.705754e+00   3.521530e-02
  5.117206e-01    1.689179e+00   3.496046e-02
  5.139311e-01    1.695170e+00   3.493952e-02
  5.161416e-01    1.684651e+00   3.474863e-02
  5.183520e-01    1.671540e+00   3.453091e-02
  5.205625e-01    1.656891e+00   3.429871e-02
  5.227729e-01    1.641423e+00   3.405863e-02
  5.249834e-01    1.676993e+00   3.434573e-02
  5.271938e-01    1.724558e+00   3.474816e-02
  5.294043e-01    1.753107e+00   3.495372e-02
  5.316148e-01    1.744148e+00   3.478447e-02
  5.338252e-01    1.775657e+00   3.501703e-02
  5.360357e-01    1.776375e+00   3.494440e-02
  5.382461e-01    1.725045e+00   3.435796e-02
  5.404566e-01    1.771550e+00   3.473877e-02
  5.426670e-01    1.761651e+00   3.456355e-02
  5.448775e-01    1.740893e+00   3.428252e-02
  5.470879e-01    1.750654e+00   3.430184e-02
  5.492984e-01    1.785795e+00   3.456736e-02
  5.515089e-01    1.780979e+00   3.444415e-02
  5.537193e-01    1.801098e+00   3.456186e-02
  5.559298e-01    1.747602e+00   3.397004e-02
  5.581402e-01    1.740602e+00   3.382783e-02
  5.603507e-01    1.790148e+00   3.423127e-02
  5.625611e-01    1.823003e+00   3.446899e-02
  5.647716e-01    1.846851e+00   3.461840e-02
  5.669821e-01    1.804303e+00   3.414353e-02
  5.691925e-01    1.807038e+00   3.409606e-02
  5.714030e-01    1.775554e+00   3.372568e-02
  5.736134e-01    1.729209e+00   3.321182e-02
  5.758239e-01    1.744345e+00   3.328565e-02
  5.780343e-01    1.714249e+00   3.292747e-02
  5.802448e-01    1.693757e+00   3.266155e-02
  5.824552e-01    1.654437e+00   3.221250e-02
  5.846657e-01    1.632060e+00   3.192719e-02
  5.868762e-01    1.684317e+00   3.236678e-02
  5.890866e-01    1.693621e+00   3.238872e-02
  5.912971e-01    1.648691e+00   3.189005e-02
  5.935075e-01    1.649292e+00   3.182995e-02
  5.957180e-01    1.585786e+00   3.114710e-02
  5.979284e-01    1.590762e+00   3.113222e-02
  6.001389e-01    1.637734e+00   3.152420e-02
  6.023494e-01    1.674555e+00   3.181187e-02
  6.045598e-01    1.702321e+00   3.200924e-02
  6.067703e-01    1.647900e+00   3.143012e-02
  6.089807e-01    1.631506e+00   3.121048e-02
  6.111912e-01    1.688583e+00   3.168834e-02
  6.134016e-01    1.689151e+00   3.163045e-02
  6.156121e-01    1.673534e+00   3.142133e-02
  6.178226e-01    1.671661e+00   3.134155e-02
  6.200330e-01    1.681930e+00   3.137566e-02
  6.222435e-01    1.707719e+00   3.155265e-02
  6.244539e-01    1.719538e+00   3.159965e-02
  6.266644e-01    1.758016e+00   3.188892e-02
  6.288748e-01    1.741451e+00   3.167655e-02
  6.310853e-01    1.741894e+00   3.161909e-02
  6.332957e-01    1.719354e+00   3.135319e-02
  6.355062e-01    1.725178e+00   3.134523e-02
  6.377167e-01    1.724074e+00   3.127507e-02
  6.399271e-01    1.713761e+00   3.112166e-02
  6.421376e-01    1.653075e+00   3.050732e-02
  6.443480e-01    1.670041e+00   3.060514e-02
  6.465585e-01    1.695231e+00   3.077668e-02
  6.487689e-01    1.721397e+00   3.095472e-02
  6.509794e-01    1.690568e+00   3.061844e-02
  6.531899e-01    1.663801e+00   3.031795e-02
  6.554003e-01    1.611681e+00   2.978320e-02
  6.576108e-01    1.612891e+00   2.973891e-02
  6.598212e-01    1.600500e+00   2.956940e-02
  6.620317e-01    1.615398e+00   2.965164e-02
  6.642421e-01    1.652177e+00   2.993181e-02
  6.664526e-01    1.591884e+00   2.932648e-02
  6.686630e-01    1.553273e+00   2.891505e-02
  6.708735e-01    1.593224e+00   2.923084e-02
  6.730840e-01    1.595168e+00   2.919534e-02
  6.752944e-01    1.556219e+00   2.878427e-02
  6.775049e-01    1.615533e+00   2.927442e-02
  6.797153e-01    1.633782e+00   2.938602e-02
  6.819258e-01    1.589179e+00   2.892983e-02
  6.841362e-01    1.592102e+00   2.890436e-02
  6.863467e-01    1.571269e+00   2.866319e-02
  6.885572e-01    1.582559e+00   2.871444e-02
  6.907676e-01    1.587488e+00   2.870758e-02
  6.929781e-01    1.626138e+00   2.900330e-02
  6.951885e-01    1.644306e+00   2.911323e-02
  6.973990e-01    1.592590e+00   2.860108e-02
  6.996094e-01    1.624609e+00   2.883633e-02
  7.018199e-01    1.622499e+00   2.876703e-02
  7.040303e-01    1.619374e+00   2.868882e-02
  7.062408e-01    1.641857e+00   2.883670e-02
  7.084513e-01    1.616169e+00   2.856045e-02
  7.106617e-01    1.609970e+00   2.845610e-02
  7.128722e-01    1.578889e+00   2.813133e-02
  7.150826e-01    1.575607e+00   2.805364e-02
  7.172931e-01    1.580899e+00   2.805227e-02
  7.195035e-01    1.541374e+00   2.765175e-02
  7.217140e-01    1.525736e+00   2.755980e-02
  7.239245e-01    1.567776e+00   2.816314e-02
  7.261349e-01    1.582252e+00   2.840175e-02
  7.283454e-01    1.603166e+00   2.866188e-02
  7.305558e-01    1.570790e+00   2.842494e-02
  7.327663e-01    1.560063e+00   2.837000e-02
  7.349767e-01    1.587175e+00   2.863189e-02
  7.371872e-01    1.605534e+00   2.878573e-02
  7.393976e-01    1.618547e+00   2.888768e-02
  7.416081e-01    1.640230e+00   2.906404e-02
  7.438186e-01    1.646844e+00   2.897498e-02
  7.460290e-01    1.608135e+00   2.833509e-02
  7.482395e-01    1.593412e+00   2.803289e-02
  7.504499e-01    1.571434e+00   2.770276e-02
  7.526604e-01    1.542897e+00   2.733469e-02
  7.548708e-01    1.582982e+00   2.759784e-02
  7.570813e-01    1.589313e+00   2.760176e-02
  7.592918e-01    1.571900e+00   2.741501e-02
  7.615022e-01    1.586428e+00   2.750744e-02
  7.637127e-01    1.614993e+00   2.772082e-02
  7.659231e-01    1.568369e+00   2.728581e-02
  7.681336e-01    1.561993e+00   2.719880e-02
  7.703440e-01    1.587322e+00   2.738710e-02
  7.725545e-01    1.626407e+00   2.769083e-02
  7.747650e-01    1.663471e+00   2.796534e-02
  7.769754e-01    1.592587e+00   2.731003e-02
  7.791859e-01    1.576623e+00   2.711930e-02
  7.813963e-01    1.600679e+00   2.727244e-02
  7.836068e-01    1.594845e+00   2.717054e-02
  7.858172e-01    1.592520e+00   2.709997e-02
  7.880277e-01    1.543380e+00   2.662785e-02
  7.902381e-01    1.574954e+00   2.684992e-02
  7.924486e-01    1.617486e+00   2.715967e-02
  7.946591e-01    1.652911e+00   2.740640e-02
  7.968695e-01    1.621683e+00   2.709770e-02
  7.990800e-01    1.623116e+00   2.706123e-02
  8.012904e-01    1.607819e+00   2.688682e-02
  8.035009e-01    1.643776e+00   2.713741e-02
  8.057113e-01    1.671560e+00   2.731850e-02
  8.079218e-01    1.618091e+00   2.683164e-02
  8.101323e-01    1.631672e+00   2.689824e-02
  8.123427e-01    1.651440e+00   2.701456e-02
  8.145532e-01    1.661118e+00   2.704724e-02
  8.167636e-01    1.658497e+00   2.698045e-02
  8.189741e-01    1.629391e+00   2.669808e-02
  8.211845e-01    1.648147e+00   2.680629e-02
  8.233950e-01    1.645149e+00   2.673835e-02
  8.256054e-01    1.656006e+00   2.678198e-02
  8.278159e-01    1.637135e+00   2.658499e-02
  8.300264e-01    1.636863e+00   2.653969e-02
  8.322368e-01    1.663805e+00   2.671378e-02
  8.344473e-01    1.640324e+00   2.648121e-02
  8.366577e-01    1.633235e+00   2.638142e-02
  8.388682e-01    1.652283e+00   2.649239e-02
  8.410786e-01    1.656739e+00   2.648582e-02
  8.432891e-01    1.677936e+00   2.661236e-02
  8.454996e-01    1.667524e+00   2.648770e-02
  8.477100e-01    1.638297e+00   2.621287e-02
  8.499205e-01    1.624877e+00   2.606429e-02
  8.521309e-01    1.641044e+00   2.615279e-02
  8.543414e-01    1.670901e+00   2.634844e-02
  8.565518e-01    1.654803e+00   2.618043e-02
  8.587623e-01    1.604909e+00   2.574256e-02
  8.609727e-01    1.593900e+00   2.561434e-02
  8.631832e-01    1.588616e+00   2.553241e-02
  8.653937e-01    1.616068e+00   2.571249e-02
  8.676041e-01    1.639597e+00   2.585992e-02
  8.698146e-01    1.635531e+00   2.578837e-02
  8.720250e-01    1.637997e+00   2.576846e-02
  8.742355e-01    1.627868e+00   2.564957e-02
  8.764459e-01    1.577022e+00   2.520731e-02
  8.786564e-01    1.577382e+00   2.517258e-02
  8.808669e-01    1.618661e+00   2.546118e-02
  8.830773e-01    1.612621e+00   2.537537e-02
  8.852878e-01    1.620419e+00   2.539852e-02
  8.874982e-01    1.601443e+00   2.521272e-02
  8.897087e-01    1.588969e+00   2.507678e-02
  8.919191e-01    1.626032e+00   2.532950e-02
  8.941296e-01    1.584181e+00   2.496433e-02
  8.963401e-01    1.580502e+00   2.489911e-02
  8.985505e-01    1.598258e+00   2.500164e-02
  9.007610e-01    1.606482e+00   2.502907e-02
  9.029714e-01    1.564165e+00   2.466180e-02
  9.051819e-01    1.597270e+00   2.488419e-02
  9.073923e-01    1.612292e+00   2.496424e-02
  9.096028e-01    1.589286e+00   2.475070e-02
  9.118132e-01    1.588474e+00   2.470827e-02
  9.140237e-01    1.595255e+00   2.472439e-02
  9.162342e-01    1.605956e+00   2.477255e-02
  9.184446e-01    1.633246e+00   2.494600e-02
  9.206551e-01    1.638850e+00   2.495276e-02
  9.228655e-01    1.615444e+00   2.473853e-02
  9.250760e-01    1.629188e+00   2.480786e-02
  9.272864e-01    1.608775e+00   2.461767e-02
  9.294969e-01    1.606553e+00   2.456477e-02
  9.317074e-01    1.647015e+00   2.483705e-02
  9.339178e-01    1.585622e+00   2.433649e-02
  9.361283e-01    1.610308e+00   2.448901e-02
  9.383387e-01    1.647311e+00   2.473511e-02
  9.405492e-01    1.688479e+00   2.500730e-02
  9.427596e-01    1.678395e+00   2.489663e-02
  9.449701e-01    1.684572e+00   2.490850e-02
  9.471805e-01    1.716037e+00   2.510444e-02
  9.493910e-01    1.706916e+00   2.500328e-02
  9.516015e-01    1.772384e+00   2.544268e-02
  9.538119e-01    1.809274e+00   2.567087e-02
  9.560224e-01    1.819613e+00   2.570790e-02
  9.582328e-01    1.766964e+00   2.529927e-02
  9.604433e-01    1.782227e+00   2.537228e-02
  9.626537e-01    1.843177e+00   2.576781e-02
  9.648642e-01    1.834045e+00   2.566872e-02
  9.670747e-01    1.795749e+00   2.536427e-02
  9.692851e-01    1.826499e+00   2.554650e-02
  9.714956e-01    1.859482e+00   2.573979e-02
  9.737060e-01    1.908298e+00   2.604121e-02
  9.759165e-01    1.938333e+00   2.620834e-02
  9.781269e-01    1.981704e+00   2.646527e-02
  9.803374e-01    1.936449e+00   2.612518e-02
  9.825478e-01    1.858293e+00   2.555876e-02
  9.847583e-01    1.806722e+00   2.516741e-02
  9.869688e-01    1.770488e+00   2.488039e-02
  9.891792e-01    1.773122e+00   2.486581e-02
  9.913897e-01    1.773443e+00   2.483448e-02
  9.936001e-01    1.755865e+00   2.467877e-02
  9.958106e-01    1.753045e+00   2.462541e-02
  9.980210e-01    1.707187e+00   2.426967e-02
  1.000231e+00    1.691734e+00   2.429190e-02
  1.002442e+00    1.696794e+00   2.445749e-02
  1.004652e+00    1.650011e+00   2.418526e-02
  1.006863e+00    1.638414e+00   2.415010e-02
  1.009073e+00    1.613913e+00   2.400555e-02
  1.011284e+00    1.613549e+00   2.403492e-02
  1.013494e+00    1.609853e+00   2.403120e-02
  1.015705e+00    1.569919e+00   2.375369e-02
  1.017915e+00    1.605220e+00   2.403580e-02
  1.020126e+00    1.626947e+00   2.421429e-02
  1.022336e+00    1.711586e+00   2.484835e-02
  1.024547e+00    1.853369e+00   2.586934e-02
  1.026757e+00    1.834281e+00   2.574496e-02
  1.028967e+00    1.692281e+00   2.473640e-02
  1.031178e+00    1.612657e+00   2.415376e-02
  1.033388e+00    1.583744e+00   2.394136e-02
  1.035599e+00    1.607719e+00   2.412544e-02
  1.037809e+00    1.626899e+00   2.427225e-02
  1.040020e+00    1.677429e+00   2.464764e-02
  1.042230e+00    1.718284e+00   2.494807e-02
  1.044441e+00    1.799579e+00   2.553115e-02
  1.046651e+00    1.801745e+00   2.554675e-02
  1.048862e+00    1.704170e+00   2.484453e-02
  1.051072e+00    1.603676e+00   2.409844e-02
  1.053282e+00    1.550160e+00   2.369194e-02
  1.055493e+00    1.525792e+00   2.350064e-02
  1.057703e+00    1.529509e+00   2.352771e-02
  1.059914e+00    1.504098e+00   2.332716e-02
  1.062124e+00    1.552476e+00   2.369518e-02
  1.064335e+00    1.591464e+00   2.398735e-02
  1.066545e+00    1.532919e+00   2.353590e-02
  1.068756e+00    1.491507e+00   2.321208e-02
  1.070966e+00    1.459622e+00   2.295610e-02
  1.073177e+00    1.480185e+00   2.311118e-02
  1.075387e+00    1.499876e+00   2.325909e-02
  1.077597e+00    1.505619e+00   2.329627e-02
  1.079808e+00    1.470413e+00   2.288925e-02
  1.082018e+00    1.462614e+00   2.263942e-02
  1.084229e+00    1.444653e+00   2.239053e-02
  1.086439e+00    1.446594e+00   2.231838e-02
  1.088650e+00    1.423581e+00   2.206530e-02
  1.090860e+00    1.419831e+00   2.196939e-02
  1.093071e+00    1.431717e+00   2.199937e-02
  1.095281e+00    1.432578e+00   2.194900e-02
  1.097492e+00    1.434750e+00   2.191092e-02
  1.099702e+00    1.440285e+00   2.190175e-02
  1.101912e+00    1.443388e+00   2.187642e-02
  1.104123e+00    1.447357e+00   2.185806e-02
  1.106333e+00    1.447255e+00   2.181266e-02
  1.108544e+00    1.428020e+00   2.162298e-02
  1.110754e+00    1.418558e+00   2.150833e-02
  1.112965e+00    1.390986e+00   2.125820e-02
  1.115175e+00    1.393801e+00   2.123889e-02
  1.117386e+00    1.398635e+00   2.123666e-02
  1.119596e+00    1.389886e+00   2.113255e-02
  1.121807e+00    1.392456e+00   2.111351e-02
  1.124017e+00    1.376152e+00   2.095330e-02
  1.126228e+00    1.385416e+00   2.098819e-02
  1.128438e+00    1.394449e+00   2.101982e-02
  1.130648e+00    1.423818e+00   2.120540e-02
  1.132859e+00    1.383398e+00   2.086807e-02
  1.135069e+00    1.364704e+00   2.069219e-02
  1.137280e+00    1.355149e+00   2.058706e-02
  1.139490e+00    1.361201e+00   2.060020e-02
  1.141701e+00    1.387620e+00   2.076600e-02
  1.143911e+00    1.383833e+00   2.070580e-02
  1.146122e+00    1.374627e+00   2.060485e-02
  1.148332e+00    1.367842e+00   2.052221e-02
  1.150543e+00    1.366793e+00   2.048362e-02
  1.152753e+00    1.348921e+00   2.031872e-02
  1.154963e+00    1.355670e+00   2.033864e-02
  1.157174e+00    1.362971e+00   2.036329e-02
  1.159384e+00    1.384610e+00   2.049431e-02
  1.161595e+00    1.388545e+00   2.049338e-02
  1.163805e+00    1.368564e+00   2.031613e-02
  1.166016e+00    1.367855e+00   2.028144e-02
  1.168226e+00    1.370375e+00   2.027112e-02
  1.170437e+00    1.386742e+00   2.036297e-02
  1.172647e+00    1.375695e+00   2.025270e-02
  1.174858e+00    1.409015e+00   2.046794e-02
  1.177068e+00    1.387382e+00   2.028170e-02
  1.179278e+00    1.381134e+00   2.020722e-02
  1.181489e+00    1.363799e+00   2.005294e-02
  1.183699e+00    1.382892e+00   2.016499e-02
  1.185910e+00    1.380447e+00   2.011917e-02
  1.188120e+00    1.390059e+00   2.016206e-02
  1.190331e+00    1.390927e+00   2.014126e-02
  1.192541e+00    1.362251e+00   1.990510e-02
  1.194752e+00    1.381037e+00   2.001455e-02
  1.196962e+00    1.350681e+00   1.976763e-02
  1.199173e+00    1.371364e+00   1.989169e-02
  1.201383e+00    1.354474e+00   1.974163e-02
  1.203593e+00    1.335799e+00   1.958035e-02
  1.205804e+00    1.355504e+00   1.969828e-02
  1.208014e+00    1.330195e+00   1.948689e-02
  1.210225e+00    1.331028e+00   1.946780e-02
  1.212435e+00    1.371258e+00   1.973485e-02
  1.214646e+00    1.363913e+00   1.965568e-02
  1.216856e+00    1.358159e+00   1.958864e-02
  1.219067e+00    1.327155e+00   1.933949e-02
  1.221277e+00    1.339480e+00   1.940415e-02
  1.223488e+00    1.320386e+00   1.923989e-02
  1.225698e+00    1.350555e+00   1.943154e-02
  1.227909e+00    1.331753e+00   1.926587e-02
  1.230119e+00    1.330078e+00   1.922211e-02
  1.232329e+00    1.343393e+00   1.928745e-02
  1.234540e+00    1.350729e+00   1.930974e-02
  1.236750e+00    1.342087e+00   1.921770e-02
  1.238961e+00    1.344306e+00   1.920665e-02
  1.241171e+00    1.336641e+00   1.912777e-02
  1.243382e+00    1.335086e+00   1.909324e-02
  1.245592e+00    1.344114e+00   1.913365e-02
  1.247803e+00    1.357150e+00   1.920251e-02
  1.250013e+00    1.347246e+00   1.910876e-02
  1.252224e+00    1.363371e+00   1.919944e-02
  1.254434e+00    1.375541e+00   1.926096e-02
  1.256644e+00    1.356734e+00   1.910559e-02
  1.258855e+00    1.329507e+00   1.888981e-02
  1.261065e+00    1.330755e+00   1.887547e-02
  1.263276e+00    1.326230e+00   1.882060e-02
  1.265486e+00    1.338691e+00   1.888604e-02
  1.267697e+00    1.347188e+00   1.892287e-02
  1.269907e+00    1.360291e+00   1.899191e-02
  1.272118e+00    1.338839e+00   1.881908e-02
  1.274328e+00    1.337838e+00   1.878941e-02
  1.276539e+00    1.352296e+00   1.886786e-02
  1.278749e+00    1.343436e+00   1.878372e-02
  1.280959e+00    1.322849e+00   1.861693e-02
  1.283170e+00    1.336814e+00   1.869262e-02
  1.285380e+00    1.358669e+00   1.882228e-02
  1.287591e+00    1.372415e+00   1.889503e-02
  1.289801e+00    1.382557e+00   1.894326e-02
  1.292012e+00    1.346962e+00   1.868073e-02
  1.294222e+00    1.343711e+00   1.864197e-02
  1.296433e+00    1.349753e+00   1.866823e-02
  1.298643e+00    1.360898e+00   1.872863e-02
  1.300854e+00    1.357136e+00   1.868623e-02
  1.303064e+00    1.399098e+00   1.895337e-02
  1.305274e+00    1.380878e+00   1.880788e-02
  1.307485e+00    1.358423e+00   1.863272e-02
  1.309695e+00    1.345073e+00   1.851871e-02
  1.311906e+00    1.352850e+00   1.855046e-02
  1.314116e+00    1.371628e+00   1.865779e-02
  1.316327e+00    1.388709e+00   1.875162e-02
  1.318537e+00    1.365191e+00   1.857014e-02
  1.320748e+00    1.363159e+00   1.853466e-02
  1.322958e+00    1.368388e+00   1.854953e-02
  1.325169e+00    1.354208e+00   1.843209e-02
  1.327379e+00    1.377899e+00   1.857060e-02
  1.329589e+00    1.356590e+00   1.840533e-02
  1.331800e+00    1.350170e+00   1.834103e-02
  1.334010e+00    1.368268e+00   1.844275e-02
  1.336221e+00    1.372745e+00   1.845095e-02
  1.338431e+00    1.388049e+00   1.853237e-02
  1.340642e+00    1.404991e+00   1.871059e-02
  1.342852e+00    1.371750e+00   1.858941e-02
  1.345063e+00    1.352390e+00   1.850727e-02
  1.347273e+00    1.368582e+00   1.865324e-02
  1.349484e+00    1.368087e+00   1.867772e-02
  1.351694e+00    1.353985e+00   1.860396e-02
  1.353905e+00    1.361323e+00   1.867236e-02
  1.356115e+00    1.339476e+00   1.853693e-02
  1.358325e+00    1.340801e+00   1.855935e-02
  1.360536e+00    1.328676e+00   1.848678e-02
  1.362746e+00    1.308180e+00   1.835306e-02
  1.364957e+00    1.329052e+00   1.850649e-02
  1.367167e+00    1.342486e+00   1.860693e-02
  1.369378e+00    1.347041e+00   1.864449e-02
  1.371588e+00    1.302945e+00   1.834187e-02
  1.373799e+00    1.281563e+00   1.819428e-02
  1.376009e+00    1.301976e+00   1.834198e-02
  1.378220e+00    1.299305e+00   1.832565e-02
  1.380430e+00    1.296820e+00   1.831079e-02
  1.382640e+00    1.287099e+00   1.824292e-02
  1.384851e+00    1.316329e+00   1.844977e-02
  1.387061e+00    1.322548e+00   1.849363e-02
  1.389272e+00    1.273229e+00   1.814571e-02
  1.391482e+00    1.294916e+00   1.829894e-02
  1.393693e+00    1.274181e+00   1.815096e-02
  1.395903e+00    1.285114e+00   1.822717e-02
  1.398114e+00    1.272194e+00   1.813395e-02
  1.400324e+00    1.270972e+00   1.812311e-02
  1.402535e+00    1.267761e+00   1.809790e-02
  1.404745e+00    1.272166e+00   1.812695e-02
  1.406955e+00    1.279907e+00   1.817930e-02
  1.409166e+00    1.301803e+00   1.833082e-02
  1.411376e+00    1.278395e+00   1.816214e-02
  1.413587e+00    1.284754e+00   1.820341e-02
  1.415797e+00    1.256053e+00   1.799543e-02
  1.418008e+00    1.283819e+00   1.815113e-02
  1.420218e+00    1.269515e+00   1.790004e-02
  1.422429e+00    1.261358e+00   1.775741e-02
  1.424639e+00    1.279084e+00   1.781683e-02
  1.426850e+00    1.274260e+00   1.772839e-02
  1.429060e+00    1.286282e+00   1.776255e-02
  1.431270e+00    1.277588e+00   1.765796e-02
  1.433481e+00    1.264242e+00   1.752464e-02
  1.435691e+00    1.272951e+00   1.754641e-02
  1.437902e+00    1.275509e+00   1.752751e-02
  1.440112e+00    1.255143e+00   1.735185e-02
  1.442323e+00    1.270634e+00   1.742556e-02
  1.444533e+00    1.286100e+00   1.749853e-02
  1.446744e+00    1.269839e+00   1.735645e-02
  1.448954e+00    1.272055e+00   1.734136e-02
  1.451165e+00    1.267501e+00   1.728056e-02
  1.453375e+00    1.270192e+00   1.727084e-02
  1.455586e+00    1.280699e+00   1.731385e-02
  1.457796e+00    1.258459e+00   1.713548e-02
  1.460006e+00    1.259531e+00   1.711562e-02
  1.462217e+00    1.278250e+00   1.721603e-02
  1.464427e+00    1.315731e+00   1.744054e-02
  1.466638e+00    1.309891e+00   1.737610e-02
  1.468848e+00    1.275354e+00   1.712008e-02
  1.471059e+00    1.257018e+00   1.697161e-02
  1.473269e+00    1.246054e+00   1.687326e-02
  1.475480e+00    1.267169e+00   1.699189e-02
  1.477690e+00    1.252515e+00   1.686965e-02
  1.479901e+00    1.272240e+00   1.697809e-02
  1.482111e+00    1.250721e+00   1.681073e-02
  1.484321e+00    1.257575e+00   1.683369e-02
  1.486532e+00    1.279753e+00   1.695902e-02
  1.488742e+00    1.272250e+00   1.688653e-02
  1.490953e+00    1.260084e+00   1.678303e-02
  1.493163e+00    1.234007e+00   1.658644e-02
  1.495374e+00    1.260306e+00   1.674076e-02
  1.497584e+00    1.313034e+00   1.706529e-02
  1.499795e+00    1.283013e+00   1.684727e-02
  1.502005e+00    1.261029e+00   1.668059e-02
  1.504216e+00    1.262598e+00   1.666989e-02
  1.506426e+00    1.268236e+00   1.668619e-02
  1.508636e+00    1.268137e+00   1.666499e-02
  1.510847e+00    1.284615e+00   1.675085e-02
  1.513057e+00    1.276147e+00   1.667027e-02
  1.515268e+00    1.270042e+00   1.660447e-02
  1.517478e+00    1.251051e+00   1.645475e-02
  1.519689e+00    1.226452e+00   1.626747e-02
  1.521899e+00    1.263957e+00   1.649113e-02
  1.524110e+00    1.257898e+00   1.643119e-02
  1.526320e+00    1.268810e+00   1.648258e-02
  1.528531e+00    1.249335e+00   1.633587e-02
  1.530741e+00    1.234427e+00   1.621906e-02
  1.532951e+00    1.247682e+00   1.628634e-02
  1.535162e+00    1.233388e+00   1.627883e-02
  1.537372e+00    1.232758e+00   1.634111e-02
  1.539583e+00    1.254158e+00   1.651667e-02
  1.541793e+00    1.253518e+00   1.651940e-02
  1.544004e+00    1.248264e+00   1.648503e-02
  1.546214e+00    1.237902e+00   1.641495e-02
  1.548425e+00    1.257527e+00   1.654481e-02
  1.550635e+00    1.251580e+00   1.651536e-02
  1.552846e+00    1.246167e+00   1.648926e-02
  1.555056e+00    1.249089e+00   1.646703e-02
  1.557266e+00    1.238755e+00   1.628857e-02
  1.559477e+00    1.244902e+00   1.626981e-02
  1.561687e+00    1.247763e+00   1.625778e-02
  1.563898e+00    1.236119e+00   1.616465e-02
  1.566108e+00    1.250011e+00   1.623922e-02
  1.568319e+00    1.251007e+00   1.623004e-02
  1.570529e+00    1.255025e+00   1.623085e-02
  1.572740e+00    1.262891e+00   1.625380e-02
  1.574950e+00    1.281849e+00   1.634865e-02
  1.577161e+00    1.261617e+00   1.619346e-02
  1.579371e+00    1.267553e+00   1.620763e-02
  1.581582e+00    1.233418e+00   1.596823e-02
  1.583792e+00    1.257076e+00   1.610252e-02
  1.586002e+00    1.260423e+00   1.610622e-02
  1.588213e+00    1.253343e+00   1.604362e-02
  1.590423e+00    1.228450e+00   1.586355e-02
  1.592634e+00    1.222075e+00   1.580090e-02
  1.594844e+00    1.247290e+00   1.594163e-02
  1.597055e+00    1.233198e+00   1.583092e-02
  1.599265e+00    1.238541e+00   1.584446e-02
  1.601476e+00    1.248831e+00   1.588980e-02
  1.603686e+00    1.221442e+00   1.569497e-02
  1.605897e+00    1.222773e+00   1.568348e-02
  1.608107e+00    1.229808e+00   1.570904e-02
  1.610317e+00    1.260577e+00   1.588484e-02
  1.612528e+00    1.248206e+00   1.578745e-02
  1.614738e+00    1.234876e+00   1.568394e-02
  1.616949e+00    1.213787e+00   1.553056e-02
  1.619159e+00    1.212211e+00   1.550184e-02
  1.621370e+00    1.195775e+00   1.537811e-02
  1.623580e+00    1.192348e+00   1.533788e-02
  1.625791e+00    1.215632e+00   1.546858e-02
  1.628001e+00    1.235960e+00   1.557889e-02
  1.630212e+00    1.191307e+00   1.527715e-02
  1.632422e+00    1.172808e+00   1.514026e-02
  1.634632e+00    1.170184e+00   1.510609e-02
  1.636843e+00    1.185217e+00   1.518523e-02
  1.639053e+00    1.170237e+00   1.507168e-02
  1.641264e+00    1.157717e+00   1.497385e-02
  1.643474e+00    1.155539e+00   1.494240e-02
  1.645685e+00    1.162786e+00   1.497250e-02
  1.647895e+00    1.136918e+00   1.478856e-02
  1.650106e+00    1.157184e+00   1.490273e-02
  1.652316e+00    1.141445e+00   1.478462e-02
  1.654527e+00    1.125695e+00   1.466570e-02
  1.656737e+00    1.134251e+00   1.470479e-02
  1.658947e+00    1.092480e+00   1.441549e-02
  1.661158e+00    1.121200e+00   1.458750e-02
  1.663368e+00    1.152804e+00   1.477544e-02
  1.665579e+00    1.147574e+00   1.472555e-02
  1.667789e+00    1.111021e+00   1.447292e-02
  1.670000e+00    1.101909e+00   1.439804e-02
  1.672210e+00    1.105314e+00   1.440441e-02
  1.674421e+00    1.090727e+00   1.429382e-02
  1.676631e+00    1.096694e+00   1.431703e-02
  1.678842e+00    1.082050e+00   1.420548e-02
  1.681052e+00    1.086025e+00   1.421619e-02
  1.683263e+00    1.095280e+00   1.426150e-02
  1.685473e+00    1.064887e+00   1.404721e-02
  1.687683e+00    1.066942e+00   1.404545e-02
  1.689894e+00    1.075165e+00   1.408374e-02
  1.692104e+00    1.057739e+00   1.395437e-02
  1.694315e+00    1.051232e+00   1.389701e-02
  1.696525e+00    1.043800e+00   1.383283e-02
  1.698736e+00    1.030872e+00   1.373230e-02
  1.700946e+00    1.058782e+00   1.390184e-02
  1.703157e+00    1.034752e+00   1.372870e-02
  1.705367e+00    1.033769e+00   1.370781e-02
  1.707578e+00    1.014962e+00   1.356821e-02
  1.709788e+00    1.034044e+00   1.368112e-02
  1.711998e+00    1.034766e+00   1.367094e-02
  1.714209e+00    1.046518e+00   1.373387e-02
  1.716419e+00    1.025798e+00   1.358303e-02
  1.718630e+00    1.012722e+00   1.348204e-02
  1.720840e+00    9.830441e-01   1.326916e-02
  1.723051e+00    1.003058e+00   1.338981e-02
  1.725261e+00    1.030824e+00   1.355914e-02
  1.727472e+00    1.049653e+00   1.366802e-02
  1.729682e+00    1.013585e+00   1.341772e-02
  1.731893e+00    9.905572e-01   1.325063e-02
  1.734103e+00    9.739146e-01   1.312531e-02
  1.736313e+00    9.878500e-01   1.320498e-02
  1.738524e+00    1.004911e+00   1.330468e-02
  1.740734e+00    9.919110e-01   1.320469e-02
  1.742945e+00    1.000611e+00   1.324899e-02
  1.745155e+00    9.899521e-01   1.316481e-02
  1.747366e+00    9.896881e-01   1.314924e-02
  1.749576e+00    9.800128e-01   1.307117e-02
  1.751787e+00    9.669036e-01   1.297022e-02
  1.753997e+00    9.566215e-01   1.288785e-02
  1.756208e+00    9.530259e-01   1.285056e-02
  1.758418e+00    9.371218e-01   1.273000e-02
  1.760628e+00    9.383340e-01   1.272510e-02
  1.762839e+00    9.317320e-01   1.266726e-02
  1.765049e+00    9.303244e-01   1.264479e-02
  1.767260e+00    9.453787e-01   1.273396e-02
  1.769470e+00    9.511733e-01   1.275999e-02
  1.771681e+00    9.462502e-01   1.271381e-02
  1.773891e+00    9.374242e-01   1.264143e-02
  1.776102e+00    9.345437e-01   1.260920e-02
  1.778312e+00    9.331655e-01   1.258725e-02
  1.780523e+00    9.298211e-01   1.255203e-02
  1.782733e+00    9.369543e-01   1.258739e-02
  1.784944e+00    9.329028e-01   1.254730e-02
  1.787154e+00    9.354122e-01   1.255160e-02
  1.789364e+00    9.327468e-01   1.252121e-02
  1.791575e+00    9.201568e-01   1.242394e-02
  1.793785e+00    8.985547e-01   1.226500e-02
  1.795996e+00    9.159716e-01   1.237078e-02
  1.798206e+00    9.223334e-01   1.240114e-02
  1.800417e+00    9.608860e-01   1.264468e-02
  1.802627e+00    9.737712e-01   1.271686e-02
  1.804838e+00    9.877536e-01   1.279523e-02
  1.807048e+00    9.782374e-01   1.272015e-02
  1.809259e+00    9.257742e-01   1.236061e-02
  1.811469e+00    9.322240e-01   1.238838e-02
  1.813679e+00    9.679150e-01   1.260780e-02
  1.815890e+00    9.473933e-01   1.245829e-02
  1.818100e+00    9.389603e-01   1.238725e-02
  1.820311e+00    9.463704e-01   1.242085e-02
  1.822521e+00    9.223568e-01   1.224714e-02
  1.824732e+00    8.874086e-01   1.199808e-02
  1.826942e+00    8.983032e-01   1.205908e-02
  1.829153e+00    8.921912e-01   1.200627e-02
  1.831363e+00    8.773429e-01   1.189393e-02
  1.833574e+00    8.882015e-01   1.195560e-02
  1.835784e+00    9.066563e-01   1.206755e-02
  1.837994e+00    9.579634e-01   1.239206e-02
  1.840205e+00    9.367873e-01   1.224281e-02
  1.842415e+00    9.057357e-01   1.202618e-02
  1.844626e+00    9.038053e-01   1.200157e-02
  1.846836e+00    9.153280e-01   1.206611e-02
  1.849047e+00    9.028311e-01   1.197160e-02
  1.851257e+00    8.846200e-01   1.184055e-02
  1.853468e+00    9.012949e-01   1.194263e-02
  1.855678e+00    9.127643e-01   1.200922e-02
  1.857889e+00    9.016567e-01   1.192725e-02
  1.860099e+00    8.859338e-01   1.181400e-02
  1.862309e+00    8.725979e-01   1.171617e-02
  1.864520e+00    8.589060e-01   1.161528e-02
  1.866730e+00    8.557913e-01   1.158482e-02
  1.868941e+00    8.540838e-01   1.156229e-02
  1.871151e+00    8.594505e-01   1.158713e-02
  1.873362e+00    8.583656e-01   1.156841e-02
  1.875572e+00    8.453147e-01   1.146922e-02
  1.877783e+00    8.652433e-01   1.159207e-02
  1.879993e+00    8.588315e-01   1.153782e-02
  1.882204e+00    8.485373e-01   1.145756e-02
  1.884414e+00    8.248802e-01   1.128574e-02
  1.886624e+00    8.411781e-01   1.138563e-02
  1.888835e+00    8.563911e-01   1.147706e-02
  1.891045e+00    8.615150e-01   1.150032e-02
  1.893256e+00    8.338018e-01   1.130281e-02
  1.895466e+00    8.331713e-01   1.128736e-02
  1.897677e+00    8.331439e-01   1.127627e-02
  1.899887e+00    8.426082e-01   1.132911e-02
  1.902098e+00    8.155552e-01   1.113502e-02
  1.904308e+00    8.327657e-01   1.124128e-02
  1.906519e+00    8.402957e-01   1.128111e-02
  1.908729e+00    8.310453e-01   1.120823e-02
  1.910940e+00    8.184677e-01   1.111200e-02
  1.913150e+00    8.284886e-01   1.116923e-02
  1.915360e+00    8.156435e-01   1.107174e-02
  1.917571e+00    8.182312e-01   1.107843e-02
  1.919781e+00    8.315384e-01   1.115742e-02
  1.921992e+00    8.341746e-01   1.116438e-02
  1.924202e+00    8.307410e-01   1.113053e-02
  1.926413e+00    8.236218e-01   1.107239e-02
  1.928623e+00    8.015332e-01   1.091244e-02
  1.930834e+00    8.110833e-01   1.096684e-02
  1.933044e+00    7.932426e-01   1.083502e-02
  1.935255e+00    8.013592e-01   1.088003e-02
  1.937465e+00    7.949706e-01   1.082626e-02
  1.939675e+00    8.052273e-01   1.088504e-02
  1.941886e+00    7.878189e-01   1.075657e-02
  1.944096e+00    7.873484e-01   1.074326e-02
  1.946307e+00    8.035707e-01   1.084303e-02
  1.948517e+00    7.991698e-01   1.080287e-02
  1.950728e+00    8.082893e-01   1.085401e-02
  1.952938e+00    7.952117e-01   1.075578e-02
  1.955149e+00    8.110889e-01   1.085229e-02
  1.957359e+00    8.031772e-01   1.078915e-02
  1.959570e+00    8.097776e-01   1.082241e-02
  1.961780e+00    7.983489e-01   1.073584e-02
  1.963990e+00    7.869925e-01   1.064911e-02
  1.966201e+00    7.863723e-01   1.063487e-02
  1.968411e+00    7.995951e-01   1.071370e-02
  1.970622e+00    7.950839e-01   1.067331e-02
  1.972832e+00    7.857521e-01   1.060051e-02
  1.975043e+00    7.780222e-01   1.053826e-02
  1.977253e+00    7.801707e-01   1.054288e-02
  1.979464e+00    7.813157e-01   1.054059e-02
  1.981674e+00    7.856590e-01   1.055956e-02
  1.983885e+00    7.899128e-01   1.057804e-02
  1.986095e+00    7.879910e-01   1.055542e-02
  1.988305e+00    7.662437e-01   1.039893e-02
  1.990516e+00    7.777350e-01   1.046669e-02
  1.992726e+00    7.921312e-01   1.055337e-02
  1.994937e+00    7.672510e-01   1.037626e-02
  1.997147e+00    7.713407e-01   1.039416e-02
  1.999358e+00    7.565520e-01   1.028432e-02
  2.001568e+00    7.604098e-01   1.029976e-02
  2.003779e+00    7.582701e-01   1.027347e-02
  2.005989e+00    7.589983e-01   1.026648e-02
  2.008200e+00    7.661144e-01   1.030299e-02
  2.010410e+00    7.789491e-01   1.037712e-02
  2.012621e+00    7.643532e-01   1.026777e-02
  2.014831e+00    7.725138e-01   1.031091e-02
  2.017041e+00    7.747607e-01   1.031548e-02
  2.019252e+00    7.536075e-01   1.016380e-02
  2.021462e+00    7.670095e-01   1.024423e-02
  2.023673e+00    7.720069e-01   1.026814e-02
  2.025883e+00    7.485471e-01   1.010149e-02
  2.028094e+00    7.450288e-01   1.006818e-02
  2.030304e+00    7.660376e-01   1.019958e-02
  2.032515e+00    7.656804e-01   1.018789e-02
  2.034725e+00    7.543353e-01   1.010272e-02
  2.036936e+00    7.502679e-01   1.006614e-02
  2.039146e+00    7.637826e-01   1.014680e-02
  2.041356e+00    7.490098e-01   1.003860e-02
  2.043567e+00    7.470372e-01   1.001611e-02
  2.045777e+00    7.476680e-01   1.001113e-02
  2.047988e+00    7.673450e-01   1.013257e-02
  2.050198e+00    7.649034e-01   1.010795e-02
  2.052409e+00    7.848548e-01   1.023110e-02
  2.054619e+00    7.765177e-01   1.016914e-02
  2.056830e+00    7.704682e-01   1.012216e-02
  2.059040e+00    7.610127e-01   1.005232e-02
  2.061251e+00    7.587984e-01   1.003038e-02
  2.063461e+00    7.644811e-01   1.006019e-02
  2.065671e+00    7.511171e-01   9.963145e-03
  2.067882e+00    7.422856e-01   9.895436e-03
  2.070092e+00    7.605968e-01   1.000746e-02
  2.072303e+00    7.614048e-01   1.000355e-02
  2.074513e+00    7.583212e-01   9.973863e-03
  2.076724e+00    7.553953e-01   9.945084e-03
  2.078934e+00    7.495377e-01   9.897417e-03
  2.081145e+00    7.348014e-01   9.790587e-03
  2.083355e+00    7.463248e-01   9.857867e-03
  2.085566e+00    7.392398e-01   9.802063e-03
  2.087776e+00    7.372834e-01   9.779588e-03
  2.089986e+00    7.442502e-01   9.816869e-03
  2.092197e+00    7.457191e-01   9.817543e-03
  2.094407e+00    7.407729e-01   9.775680e-03
  2.096618e+00    7.385021e-01   9.751759e-03
  2.098828e+00    7.231581e-01   9.640693e-03
  2.101039e+00    7.216673e-01   9.621849e-03
  2.103249e+00    7.006125e-01   9.471940e-03
  2.105460e+00    7.156975e-01   9.564449e-03
  2.107670e+00    7.286393e-01   9.641803e-03
  2.109881e+00    7.078190e-01   9.494021e-03
  2.112091e+00    7.050011e-01   9.466236e-03
  2.114301e+00    7.172156e-01   9.539142e-03
  2.116512e+00    7.112926e-01   9.490976e-03
  2.118722e+00    7.020223e-01   9.420194e-03
  2.120933e+00    7.109913e-01   9.471399e-03
  2.123143e+00    7.090721e-01   9.449746e-03
  2.125354e+00    6.971666e-01   9.361685e-03
  2.127564e+00    7.059464e-01   9.411761e-03
  2.129775e+00    7.064529e-01   9.406483e-03
  2.131985e+00    7.270558e-01   9.533521e-03
  2.134196e+00    7.097506e-01   9.410809e-03
  2.136406e+00    7.176014e-01   9.453942e-03
  2.138617e+00    7.173829e-01   9.444010e-03
  2.140827e+00    7.149720e-01   9.444249e-03
  2.143037e+00    7.090154e-01   9.450368e-03
  2.145248e+00    7.065412e-01   9.455880e-03
  2.147458e+00    7.007443e-01   9.432099e-03
  2.149669e+00    7.145111e-01   9.536244e-03
  2.151879e+00    7.102872e-01   9.517309e-03
  2.154090e+00    6.904255e-01   9.390549e-03
  2.156300e+00    7.133738e-01   9.551990e-03
  2.158511e+00    6.991898e-01   9.461875e-03
  2.160721e+00    6.925489e-01   9.421619e-03
  2.162932e+00    6.968748e-01   9.454739e-03
  2.165142e+00    6.866108e-01   9.387844e-03
  2.167352e+00    7.156597e-01   9.587320e-03
  2.169563e+00    7.025452e-01   9.501058e-03
  2.171773e+00    7.118726e-01   9.566377e-03
  2.173984e+00    7.123088e-01   9.570760e-03
  2.176194e+00    7.014130e-01   9.498479e-03
  2.178405e+00    6.874023e-01   9.403833e-03
  2.180615e+00    6.943157e-01   9.451666e-03
  2.182826e+00    7.082934e-01   9.547036e-03
  2.185036e+00    6.982744e-01   9.479328e-03
  2.187247e+00    6.849025e-01   9.388074e-03
  2.189457e+00    6.789305e-01   9.346638e-03
  2.191667e+00    6.879450e-01   9.408309e-03
  2.193878e+00    6.919629e-01   9.435168e-03
  2.196088e+00    6.969746e-01   9.468613e-03
  2.198299e+00    6.808872e-01   9.357600e-03
  2.200509e+00    6.791672e-01   9.344701e-03
  2.202720e+00    6.986580e-01   9.476694e-03
  2.204930e+00    6.842250e-01   9.377047e-03
  2.207141e+00    6.777371e-01   9.331386e-03
  2.209351e+00    6.665623e-01   9.252260e-03
  2.211562e+00    6.708537e-01   9.280382e-03
  2.213772e+00    6.917155e-01   9.367487e-03
  2.215982e+00    6.796698e-01   9.241247e-03
  2.218193e+00    6.692500e-01   9.140636e-03
  2.220403e+00    6.729531e-01   9.141333e-03
  2.222614e+00    6.587852e-01   9.023899e-03
  2.224824e+00    6.553106e-01   8.980914e-03
  2.227035e+00    6.729917e-01   9.083844e-03
  2.229245e+00    6.560341e-01   8.951906e-03
  2.231456e+00    6.555248e-01   8.932982e-03
  2.233666e+00    6.621023e-01   8.962703e-03
  2.235877e+00    6.617042e-01   8.945829e-03
  2.238087e+00    6.680149e-01   8.974936e-03
  2.240298e+00    6.591748e-01   8.901689e-03
  2.242508e+00    6.581236e-01   8.879565e-03
  2.244718e+00    6.721822e-01   8.958068e-03
  2.246929e+00    6.717983e-01   8.941049e-03
  2.249139e+00    6.800671e-01   8.983410e-03
  2.251350e+00    6.734172e-01   8.927613e-03
  2.253560e+00    6.785940e-01   8.950199e-03
  2.255771e+00    6.752617e-01   8.916708e-03
  2.257981e+00    6.664494e-01   8.847136e-03
  2.260192e+00    6.605484e-01   8.796819e-03
  2.262402e+00    6.673698e-01   8.831224e-03
  2.264613e+00    6.605104e-01   8.774932e-03
  2.266823e+00    6.572523e-01   8.742901e-03
  2.269033e+00    6.740615e-01   8.843521e-03
  2.271244e+00    6.841339e-01   8.898804e-03
  2.273454e+00    6.709931e-01   8.802599e-03
  2.275665e+00    6.643780e-01   8.748771e-03
  2.277875e+00    6.638421e-01   8.735300e-03
  2.280086e+00    6.582198e-01   8.688189e-03
  2.282296e+00    6.779567e-01   8.807955e-03
  2.284507e+00    6.681843e-01   8.734046e-03
  2.286717e+00    6.598264e-01   8.669769e-03
  2.288928e+00    6.593977e-01   8.657061e-03
  2.291138e+00    6.574156e-01   8.634621e-03
  2.293348e+00    6.554189e-01   8.611945e-03
  2.295559e+00    6.652799e-01   8.667116e-03
  2.297769e+00    6.618121e-01   8.635202e-03
  2.299980e+00    6.574064e-01   8.597041e-03
  2.302190e+00    6.687970e-01   8.661971e-03
  2.304401e+00    6.561290e-01   8.570203e-03
  2.306611e+00    6.489869e-01   8.514238e-03
  2.308822e+00    6.613280e-01   8.586368e-03
  2.311032e+00    6.560547e-01   8.545585e-03
  2.313243e+00    6.505731e-01   8.503544e-03
  2.315453e+00    6.513584e-01   8.501076e-03
  2.317663e+00    6.440718e-01   8.444301e-03
  2.319874e+00    6.376112e-01   8.393168e-03
  2.322084e+00    6.492489e-01   8.460416e-03
  2.324295e+00    6.591201e-01   8.516195e-03
  2.326505e+00    6.385952e-01   8.373548e-03
  2.328716e+00    6.474974e-01   8.423105e-03
  2.330926e+00    6.450253e-01   8.398230e-03
  2.333137e+00    6.332241e-01   8.312710e-03
  2.335347e+00    6.460479e-01   8.387576e-03
  2.337558e+00    6.425743e-01   8.356732e-03
  2.339768e+00    6.474972e-01   8.380081e-03
  2.341979e+00    6.375652e-01   8.307192e-03
  2.344189e+00    6.405123e-01   8.317959e-03
  2.346399e+00    6.337821e-01   8.265666e-03
  2.348610e+00    6.240762e-01   8.193747e-03
  2.350820e+00    6.371042e-01   8.270629e-03
  2.353031e+00    6.365076e-01   8.258465e-03
  2.355241e+00    6.290354e-01   8.201816e-03
  2.357452e+00    6.232765e-01   8.155832e-03
  2.359662e+00    6.199280e-01   8.125729e-03
  2.361873e+00    6.447357e-01   8.278401e-03
  2.364083e+00    6.483575e-01   8.293510e-03
  2.366294e+00    6.537012e-01   8.319350e-03
  2.368504e+00    6.361757e-01   8.198947e-03
  2.370714e+00    6.280219e-01   8.138149e-03
  2.372925e+00    6.095649e-01   8.009739e-03
  2.375135e+00    6.109496e-01   8.010834e-03
  2.377346e+00    6.112188e-01   8.004734e-03
  2.379556e+00    6.238496e-01   8.079140e-03
  2.381767e+00    6.104298e-01   7.983960e-03
  2.383977e+00    6.138974e-01   7.998716e-03
  2.386188e+00    6.208178e-01   8.035752e-03
  2.388398e+00    6.182329e-01   8.011051e-03
  2.390609e+00    6.220832e-01   8.028203e-03
  2.392819e+00    6.089132e-01   7.935052e-03
  2.395029e+00    6.125179e-01   7.950839e-03
  2.397240e+00    6.034207e-01   7.883794e-03
  2.399450e+00    6.170861e-01   7.964724e-03
  2.401661e+00    6.137432e-01   7.935428e-03
  2.403871e+00    6.301702e-01   8.033054e-03
  2.406082e+00    6.109211e-01   7.901975e-03
  2.408292e+00    6.212605e-01   7.960687e-03
  2.410503e+00    6.190901e-01   7.939230e-03
  2.412713e+00    5.995334e-01   7.805078e-03
  2.414924e+00    5.996771e-01   7.798550e-03
  2.417134e+00    6.031721e-01   7.813626e-03
  2.419344e+00    6.138793e-01   7.875192e-03
  2.421555e+00    6.060467e-01   7.817272e-03
  2.423765e+00    6.083952e-01   7.824935e-03
  2.425976e+00    6.143397e-01   7.855175e-03
  2.428186e+00    5.995713e-01   7.752969e-03
  2.430397e+00    6.031097e-01   7.768285e-03
  2.432607e+00    5.972968e-01   7.723472e-03
  2.434818e+00    5.927657e-01   7.686606e-03
  2.437028e+00    5.955138e-01   7.697234e-03
  2.439239e+00    5.907801e-01   7.658946e-03
  2.441449e+00    5.942093e-01   7.673929e-03
  2.443659e+00    5.943689e-01   7.667601e-03
  2.445870e+00    5.764324e-01   7.563122e-03
  2.448080e+00    5.732414e-01   7.576686e-03
  2.450291e+00    5.615768e-01   7.515570e-03
  2.452501e+00    5.697260e-01   7.581001e-03
  2.454712e+00    5.769070e-01   7.637080e-03
  2.456922e+00    5.629409e-01   7.550668e-03
  2.459133e+00    5.604197e-01   7.539114e-03
  2.461343e+00    5.670059e-01   7.587650e-03
  2.463554e+00    5.629871e-01   7.564183e-03
  2.465764e+00    5.550363e-01   7.513694e-03
  2.467975e+00    5.599771e-01   7.549332e-03
  2.470185e+00    5.558516e-01   7.523731e-03
  2.472395e+00    5.625737e-01   7.570316e-03
  2.474606e+00    5.492885e-01   7.481962e-03
  2.476816e+00    5.432314e-01   7.441309e-03
  2.479027e+00    5.515430e-01   7.498871e-03
  2.481237e+00    5.541135e-01   7.516612e-03
  2.483448e+00    5.492818e-01   7.484070e-03
  2.485658e+00    5.511912e-01   7.496921e-03
  2.487869e+00    5.512262e-01   7.497200e-03
  2.490079e+00    5.414180e-01   7.429682e-03
  2.492290e+00    5.511422e-01   7.495662e-03
  2.494500e+00    5.414094e-01   7.428461e-03
  2.496710e+00    5.303274e-01   7.351340e-03
  2.498921e+00    5.270690e-01   7.327742e-03
  2.501131e+00    5.332981e-01   7.369953e-03
  2.503342e+00    5.330960e-01   7.367318e-03
  2.505552e+00    5.259022e-01   7.316285e-03
  2.507763e+00    5.199154e-01   7.273151e-03
  2.509973e+00    5.232769e-01   7.295208e-03
  2.512184e+00    5.273924e-01   7.322251e-03
  2.514394e+00    5.167850e-01   7.238945e-03
  2.516605e+00    5.326386e-01   7.301833e-03
  2.518815e+00    5.106021e-01   7.121270e-03
  2.521025e+00    5.113397e-01   7.105736e-03
  2.523236e+00    5.233776e-01   7.170942e-03
  2.525446e+00    5.301112e-01   7.201244e-03
  2.527657e+00    5.346566e-01   7.217329e-03
  2.529867e+00    5.259052e-01   7.143821e-03
  2.532078e+00    5.397182e-01   7.221779e-03
  2.534288e+00    5.285878e-01   7.133001e-03
  2.536499e+00    5.390246e-01   7.190972e-03
  2.538709e+00    5.205537e-01   7.055732e-03
  2.540920e+00    5.231031e-01   7.062358e-03
  2.543130e+00    5.029663e-01   6.914945e-03
  2.545340e+00    5.190315e-01   7.014468e-03
  2.547551e+00    5.374498e-01   7.127769e-03
  2.549761e+00    5.303338e-01   7.070792e-03
  2.551972e+00    5.175148e-01   6.975481e-03
  2.554182e+00    5.192017e-01   6.977683e-03
  2.556393e+00    5.174212e-01   6.956645e-03
  2.558603e+00    5.281975e-01   7.019573e-03
  2.560814e+00    5.311550e-01   7.030399e-03
  2.563024e+00    5.292141e-01   7.008886e-03
  2.565235e+00    5.239444e-01   6.964359e-03
  2.567445e+00    5.152143e-01   6.896571e-03
  2.569656e+00    5.055526e-01   6.821973e-03
  2.571866e+00    5.139375e-01   6.868977e-03
  2.574076e+00    5.172371e-01   6.881729e-03
  2.576287e+00    5.255350e-01   6.928315e-03
  2.578497e+00    5.062841e-01   6.792468e-03
  2.580708e+00    5.198570e-01   6.874780e-03
  2.582918e+00    5.172272e-01   6.849606e-03
  2.585129e+00    4.971282e-01   6.707581e-03
  2.587339e+00    5.246870e-01   6.883211e-03
  2.589550e+00    5.240107e-01   6.871165e-03
  2.591760e+00    5.159694e-01   6.810481e-03
  2.593971e+00    5.098866e-01   6.762688e-03
  2.596181e+00    5.027745e-01   6.709190e-03
  2.598391e+00    5.090351e-01   6.745662e-03
  2.600602e+00    4.974554e-01   6.662642e-03
  2.602812e+00    5.050294e-01   6.705675e-03
  2.605023e+00    5.038764e-01   6.690864e-03
  2.607233e+00    5.121613e-01   6.738494e-03
  2.609444e+00    5.042068e-01   6.678756e-03
  2.611654e+00    5.050297e-01   6.676887e-03
  2.613865e+00    5.056854e-01   6.674193e-03
  2.616075e+00    5.000423e-01   6.629744e-03
  2.618286e+00    5.141417e-01   6.715514e-03
  2.620496e+00    5.046912e-01   6.646825e-03
  2.622706e+00    5.041624e-01   6.637580e-03
  2.624917e+00    5.139314e-01   6.695693e-03
  2.627127e+00    5.092940e-01   6.659645e-03
  2.629338e+00    4.990113e-01   6.586120e-03
  2.631548e+00    5.059790e-01   6.625744e-03
  2.633759e+00    5.055727e-01   6.615926e-03
  2.635969e+00    5.065995e-01   6.615923e-03
  2.638180e+00    4.948321e-01   6.531697e-03
  2.640390e+00    5.130308e-01   6.644033e-03
  2.642601e+00    4.895519e-01   6.483646e-03
  2.644811e+00    4.887191e-01   6.471124e-03
  2.647021e+00    4.959879e-01   6.512527e-03
  2.649232e+00    4.958188e-01   6.504726e-03
  2.651442e+00    5.035145e-01   6.548482e-03
  2.653653e+00    4.995354e-01   6.515768e-03
  2.655863e+00    4.951214e-01   6.480249e-03
  2.658074e+00    4.904489e-01   6.443037e-03
  2.660284e+00    4.940089e-01   6.460039e-03
  2.662495e+00    5.017387e-01   6.503609e-03
  2.664705e+00    4.991258e-01   6.480068e-03
  2.666916e+00    5.057519e-01   6.516406e-03
  2.669126e+00    5.096529e-01   6.534958e-03
  2.671337e+00    4.910433e-01   6.407990e-03
  2.673547e+00    4.913321e-01   6.403505e-03
  2.675757e+00    4.936354e-01   6.412064e-03
  2.677968e+00    4.953497e-01   6.416646e-03
  2.680178e+00    5.007364e-01   6.445001e-03
  2.682389e+00    4.975344e-01   6.417949e-03
  2.684599e+00    4.887072e-01   6.354591e-03
  2.686810e+00    4.861501e-01   6.331377e-03
  2.689020e+00    4.866702e-01   6.328511e-03
  2.691231e+00    4.959312e-01   6.382111e-03
  2.693441e+00    4.837038e-01   6.296852e-03
  2.695652e+00    4.850414e-01   6.299051e-03
  2.697862e+00    4.969684e-01   6.369656e-03
  2.700072e+00    4.899506e-01   6.318437e-03
  2.702283e+00    4.886540e-01   6.303864e-03
  2.704493e+00    4.891190e-01   6.300554e-03
  2.706704e+00    4.908244e-01   6.305127e-03
  2.708914e+00    4.804891e-01   6.232474e-03
  2.711125e+00    4.728288e-01   6.176421e-03
  2.713335e+00    4.939812e-01   6.306945e-03
  2.715546e+00    4.955077e-01   6.310169e-03
  2.717756e+00    4.838209e-01   6.229436e-03
  2.719967e+00    4.847279e-01   6.229076e-03
  2.722177e+00    4.716608e-01   6.138497e-03
  2.724387e+00    4.794886e-01   6.183160e-03
  2.726598e+00    4.823635e-01   6.195626e-03
  2.728808e+00    4.761369e-01   6.149421e-03
  2.731019e+00    4.864386e-01   6.209456e-03
  2.733229e+00    4.820938e-01   6.175858e-03
  2.735440e+00    4.822022e-01   6.170312e-03
  2.737650e+00    4.869369e-01   6.194481e-03
  2.739861e+00    4.752848e-01   6.113917e-03
  2.742071e+00    4.833279e-01   6.159666e-03
  2.744282e+00    4.860097e-01   6.170458e-03
  2.746492e+00    5.008595e-01   6.257886e-03
  2.748702e+00    4.748952e-01   6.087662e-03
  2.750913e+00    4.907709e-01   6.182725e-03
  2.753123e+00    4.919446e-01   6.183944e-03
  2.755334e+00    4.790124e-01   6.096042e-03
  2.757544e+00    4.806142e-01   6.100503e-03
  2.759755e+00    4.869421e-01   6.134580e-03
  2.761965e+00    4.930626e-01   6.166983e-03
  2.764176e+00    4.760622e-01   6.053763e-03
  2.766386e+00    4.786986e-01   6.064715e-03
  2.768597e+00    4.775659e-01   6.051692e-03
  2.770807e+00    4.706242e-01   6.001707e-03
  2.773017e+00    4.840247e-01   6.080567e-03
  2.775228e+00    4.786951e-01   6.041213e-03
  2.777438e+00    4.800364e-01   6.043856e-03
  2.779649e+00    4.726420e-01   5.991264e-03
  2.781859e+00    4.717090e-01   5.979612e-03
  2.784070e+00    4.842191e-01   6.052497e-03
  2.786280e+00    4.707159e-01   5.961775e-03
  2.788491e+00    4.728695e-01   5.969584e-03
  2.790701e+00    4.858217e-01   6.045087e-03
  2.792912e+00    4.683958e-01   5.929773e-03
  2.795122e+00    4.724281e-01   5.949521e-03
  2.797333e+00    4.762454e-01   5.967944e-03
  2.799543e+00    4.901013e-01   6.048187e-03
  2.801753e+00    4.846382e-01   6.008489e-03
  2.803964e+00    4.759586e-01   5.948748e-03
  2.806174e+00    4.868850e-01   6.010444e-03
  2.808385e+00    4.689260e-01   5.891794e-03
  2.810595e+00    4.709282e-01   5.897505e-03
  2.812806e+00    4.725019e-01   5.900771e-03
  2.815016e+00    4.727579e-01   5.897630e-03
  2.817227e+00    4.711390e-01   5.913364e-03
  2.819437e+00    4.827623e-01   5.997052e-03
  2.821648e+00    4.815100e-01   5.991581e-03
  2.823858e+00    4.780063e-01   5.975108e-03
  2.826068e+00    4.776537e-01   5.977905e-03
  2.828279e+00    4.670498e-01   5.915198e-03
  2.830489e+00    4.629784e-01   5.892657e-03
  2.832700e+00    4.750378e-01   5.971471e-03
  2.834910e+00    4.775781e-01   5.989494e-03
  2.837121e+00    4.774764e-01   5.990587e-03
  2.839331e+00    4.794508e-01   6.004205e-03
  2.841542e+00    4.604839e-01   5.885240e-03
  2.843752e+00    4.696227e-01   5.944133e-03
  2.845963e+00    4.695930e-01   5.944344e-03
  2.848173e+00    4.797394e-01   6.008310e-03
  2.850383e+00    4.685073e-01   5.937855e-03
  2.852594e+00    4.834086e-01   6.031450e-03
  2.854804e+00    4.706338e-01   5.950735e-03
  2.857015e+00    4.685230e-01   5.936940e-03
  2.859225e+00    4.627774e-01   5.900162e-03
  2.861436e+00    4.721984e-01   5.959264e-03
  2.863646e+00    4.677646e-01   5.931250e-03
  2.865857e+00    4.590681e-01   5.876206e-03
  2.868067e+00    4.621701e-01   5.896246e-03
  2.870278e+00    4.595265e-01   5.879001e-03
  2.872488e+00    4.696102e-01   5.941986e-03
  2.874698e+00    4.703490e-01   5.945610e-03
  2.876909e+00    4.758807e-01   5.979121e-03
  2.879119e+00    4.646183e-01   5.906331e-03
  2.881330e+00    4.613129e-01   5.883813e-03
  2.883540e+00    4.595731e-01   5.871308e-03
  2.885751e+00    4.643208e-01   5.899919e-03
  2.887961e+00    4.718038e-01   5.945364e-03
  2.890172e+00    4.611500e-01   5.876259e-03
  2.892382e+00    4.481139e-01   5.790825e-03
  2.894593e+00    4.573332e-01   5.848273e-03
  2.896803e+00    4.673373e-01   5.909903e-03
  2.899014e+00    4.745634e-01   5.953466e-03
  2.901224e+00    4.777399e-01   5.971346e-03
  2.903434e+00    4.655579e-01   5.892757e-03
  2.905645e+00    4.711831e-01   5.926010e-03
  2.907855e+00    4.644162e-01   5.881177e-03
  2.910066e+00    4.662853e-01   5.890908e-03
  2.912276e+00    4.590706e-01   5.843054e-03
  2.914487e+00    4.540261e-01   5.808403e-03
  2.916697e+00    4.493423e-01   5.776156e-03
  2.918908e+00    4.570354e-01   5.823402e-03
  2.921118e+00    4.603035e-01   5.841466e-03
  2.923329e+00    4.587908e-01   5.829573e-03
  2.925539e+00    4.478130e-01   5.757122e-03
  2.927749e+00    4.648893e-01   5.863534e-03
  2.929960e+00    4.545388e-01   5.795153e-03
  2.932170e+00    4.451171e-01   5.732446e-03
  2.934381e+00    4.592431e-01   5.820262e-03
  2.936591e+00    4.503858e-01   5.761302e-03
  2.938802e+00    4.509443e-01   5.762171e-03
  2.941012e+00    4.670494e-01   5.861803e-03
  2.943223e+00    4.659564e-01   5.852213e-03
  2.945433e+00    4.709019e-01   5.879398e-03
  2.947644e+00    4.504883e-01   5.746447e-03
  2.949854e+00    4.513822e-01   5.747873e-03
  2.952064e+00    4.591211e-01   5.792704e-03
  2.954275e+00    4.698620e-01   5.855594e-03
  2.956485e+00    4.565195e-01   5.767660e-03
  2.958696e+00    4.544449e-01   5.750165e-03
  2.960906e+00    4.643368e-01   5.808177e-03
  2.963117e+00    4.551648e-01   5.746060e-03
  2.965327e+00    4.544320e-01   5.737532e-03
  2.967538e+00    4.503872e-01   5.709012e-03
  2.969748e+00    4.572292e-01   5.749404e-03
  2.971959e+00    4.543018e-01   5.727834e-03
  2.974169e+00    4.547586e-01   5.728130e-03
  2.976379e+00    4.625901e-01   5.774281e-03
  2.978590e+00    4.614013e-01   5.763720e-03
  2.980800e+00    4.600809e-01   5.752638e-03
  2.983011e+00    4.547478e-01   5.716403e-03
  2.985221e+00    4.463405e-01   5.660194e-03
  2.987432e+00    4.452130e-01   5.649942e-03
  2.989642e+00    4.541988e-01   5.704062e-03
  2.991853e+00    4.593246e-01   5.732855e-03
  2.994063e+00    4.626108e-01   5.750389e-03
  2.996274e+00    4.518515e-01   5.679958e-03
  2.998484e+00    4.518249e-01   5.677082e-03
  3.000694e+00    4.669177e-01   5.767633e-03
  3.002905e+00    4.518738e-01   5.671023e-03
  3.005115e+00    4.478699e-01   5.642880e-03
  3.007326e+00    4.421299e-01   5.603472e-03
  3.009536e+00    4.587798e-01   5.704746e-03
  3.011747e+00    4.571507e-01   5.691686e-03
  3.013957e+00    4.477084e-01   5.629420e-03
  3.016168e+00    4.598758e-01   5.702143e-03
  3.018378e+00    4.543749e-01   5.664873e-03
  3.020589e+00    4.513461e-01   5.642769e-03
  3.022799e+00    4.502234e-01   5.632572e-03
  3.025010e+00    4.600364e-01   5.690371e-03
  3.027220e+00    4.464927e-01   5.602896e-03
  3.029430e+00    4.651866e-01   5.715684e-03
  3.031641e+00    4.452730e-01   5.588909e-03
  3.033851e+00    4.517861e-01   5.626097e-03
  3.036062e+00    4.520795e-01   5.625163e-03
  3.038272e+00    4.511236e-01   5.615623e-03
  3.040483e+00    4.499436e-01   5.605061e-03
  3.042693e+00    4.523616e-01   5.616838e-03
  3.044904e+00    4.555828e-01   5.632748e-03
  3.047114e+00    4.468536e-01   5.573746e-03
  3.049325e+00    4.609892e-01   5.656778e-03
  3.051535e+00    4.464544e-01   5.562507e-03
  3.053745e+00    4.503798e-01   5.582167e-03
  3.055956e+00    4.623007e-01   5.650914e-03
  3.058166e+00    4.714348e-01   5.702110e-03
  3.060377e+00    4.606131e-01   5.631475e-03
  3.062587e+00    4.536407e-01   5.584035e-03
  3.064798e+00    4.504074e-01   5.559841e-03
  3.067008e+00    4.537760e-01   5.575844e-03
  3.069219e+00    4.459460e-01   5.523037e-03
  3.071429e+00    4.465126e-01   5.523036e-03
  3.073640e+00    4.377938e-01   5.465572e-03
  3.075850e+00    4.416980e-01   5.486318e-03
  3.078060e+00    4.504580e-01   5.537361e-03
  3.080271e+00    4.432439e-01   5.489375e-03
  3.082481e+00    4.514917e-01   5.536768e-03
  3.084692e+00    4.539920e-01   5.548674e-03
  3.086902e+00    4.516987e-01   5.531382e-03
  3.089113e+00    4.434851e-01   5.477318e-03
  3.091323e+00    4.506653e-01   5.518086e-03
  3.093534e+00    4.534104e-01   5.531467e-03
  3.095744e+00    4.553752e-01   5.540051e-03
  3.097955e+00    4.605248e-01   5.567680e-03
  3.100165e+00    4.441590e-01   5.464543e-03
  3.102375e+00    4.462804e-01   5.474148e-03
  3.104586e+00    4.592980e-01   5.549873e-03
  3.106796e+00    4.437761e-01   5.451780e-03
  3.109007e+00    4.557032e-01   5.521309e-03
  3.111217e+00    4.466676e-01   5.462600e-03
  3.113428e+00    4.501406e-01   5.480363e-03
  3.115638e+00    4.497554e-01   5.474773e-03
  3.117849e+00    4.437811e-01   5.434569e-03
  3.120059e+00    4.563376e-01   5.507404e-03
  3.122270e+00    4.472252e-01   5.448877e-03
  3.124480e+00    4.503032e-01   5.463885e-03
  3.126691e+00    4.610530e-01   5.525095e-03
  3.128901e+00    4.567161e-01   5.495884e-03
  3.131111e+00    4.550655e-01   5.482059e-03
  3.133322e+00    4.520701e-01   5.460512e-03
  3.135532e+00    4.441374e-01   5.408989e-03
  3.137743e+00    4.347550e-01   5.348111e-03
  3.139953e+00    4.317346e-01   5.325842e-03
  3.142164e+00    4.506506e-01   5.453407e-03
  3.144374e+00    4.512017e-01   5.485422e-03
  3.146585e+00    4.451212e-01   5.462957e-03
  3.148795e+00    4.407482e-01   5.446794e-03
  3.151006e+00    4.468724e-01   5.493112e-03
  3.153216e+00    4.395395e-01   5.454965e-03
  3.155426e+00    4.367287e-01   5.443782e-03
  3.157637e+00    4.383381e-01   5.459308e-03
  3.159847e+00    4.367978e-01   5.454557e-03
  3.162058e+00    4.359909e-01   5.453940e-03
  3.164268e+00    4.334728e-01   5.442176e-03
  3.166479e+00    4.414800e-01   5.495886e-03
  3.168689e+00    4.411528e-01   5.497237e-03
  3.170900e+00    4.296749e-01   5.428362e-03
  3.173110e+00    4.359530e-01   5.470756e-03
  3.175321e+00    4.441064e-01   5.524171e-03
  3.177531e+00    4.400616e-01   5.501722e-03
  3.179741e+00    4.242755e-01   5.404183e-03
  3.181952e+00    4.459158e-01   5.542389e-03
  3.184162e+00    4.357814e-01   5.481270e-03
  3.186373e+00    4.316447e-01   5.456764e-03
  3.188583e+00    4.407437e-01   5.515767e-03
  3.190794e+00    4.436008e-01   5.535387e-03
  3.193004e+00    4.391574e-01   5.508848e-03
  3.195215e+00    4.454221e-01   5.549517e-03
  3.197425e+00    4.341564e-01   5.480105e-03
  3.199636e+00    4.320583e-01   5.466084e-03
  3.201846e+00    4.207806e-01   5.393667e-03
  3.204056e+00    4.365225e-01   5.494518e-03
  3.206267e+00    4.400339e-01   5.517442e-03
  3.208477e+00    4.317572e-01   5.466204e-03
  3.210688e+00    4.384886e-01   5.509532e-03
  3.212898e+00    4.351843e-01   5.489289e-03
  3.215109e+00    4.332419e-01   5.477785e-03
  3.217319e+00    4.339599e-01   5.482963e-03
  3.219530e+00    4.219770e-01   5.407121e-03
  3.221740e+00    4.439383e-01   5.546606e-03
  3.223951e+00    4.161442e-01   5.370640e-03
  3.226161e+00    4.278730e-01   5.445958e-03
  3.228372e+00    4.353917e-01   5.494161e-03
  3.230582e+00    4.368178e-01   5.503288e-03
  3.232792e+00    4.285531e-01   5.451189e-03
  3.235003e+00    4.371620e-01   5.505919e-03
  3.237213e+00    4.434938e-01   5.545762e-03
  3.239424e+00    4.431867e-01   5.543832e-03
  3.241634e+00    4.342310e-01   5.487673e-03
  3.243845e+00    4.436368e-01   5.546830e-03
  3.246055e+00    4.422845e-01   5.538130e-03
  3.248266e+00    4.261970e-01   5.436667e-03
  3.250476e+00    4.270753e-01   5.441947e-03
  3.252687e+00    4.204742e-01   5.399659e-03
  3.254897e+00    4.290208e-01   5.454136e-03
  3.257107e+00    4.233088e-01   5.417395e-03
  3.259318e+00    4.431922e-01   5.542906e-03
  3.261528e+00    4.442084e-01   5.549152e-03
  3.263739e+00    4.377141e-01   5.507859e-03
  3.265949e+00    4.290979e-01   5.453257e-03
  3.268160e+00    4.336127e-01   5.481441e-03
  3.270370e+00    4.263109e-01   5.434597e-03
  3.272581e+00    4.269969e-01   5.438679e-03
  3.274791e+00    4.286591e-01   5.448726e-03
  3.277002e+00    4.186226e-01   5.384019e-03
  3.279212e+00    4.130139e-01   5.347431e-03
  3.281422e+00    4.379324e-01   5.505793e-03
  3.283633e+00    4.272177e-01   5.437363e-03
  3.285843e+00    4.366225e-01   5.496538e-03
  3.288054e+00    4.202188e-01   5.391368e-03
  3.290264e+00    4.220524e-01   5.402798e-03
  3.292475e+00    4.125253e-01   5.340646e-03
  3.294685e+00    4.184313e-01   5.378107e-03
  3.296896e+00    4.339048e-01   5.475875e-03
  3.299106e+00    4.184095e-01   5.376684e-03
  3.301317e+00    4.250872e-01   5.418362e-03
  3.303527e+00    4.114469e-01   5.330286e-03
  3.305737e+00    4.298168e-01   5.446890e-03
  3.307948e+00    4.385270e-01   5.501150e-03
  3.310158e+00    4.219332e-01   5.395213e-03
  3.312369e+00    4.277966e-01   5.431683e-03
  3.314579e+00    4.234929e-01   5.403352e-03
  3.316790e+00    4.365195e-01   5.485140e-03
  3.319000e+00    4.129841e-01   5.334058e-03
  3.321211e+00    4.210060e-01   5.384974e-03
  3.323421e+00    4.311356e-01   5.448176e-03
  3.325632e+00    4.229902e-01   5.395580e-03
  3.327842e+00    4.183413e-01   5.364935e-03
  3.330052e+00    4.159489e-01   5.348497e-03
  3.332263e+00    4.175283e-01   5.357650e-03
  3.334473e+00    4.218437e-01   5.384332e-03
  3.336684e+00    4.366067e-01   5.476468e-03
  3.338894e+00    4.232562e-01   5.391238e-03
  3.341105e+00    4.055177e-01   5.275885e-03
  3.343315e+00    4.166208e-01   5.346467e-03
  3.345526e+00    4.178547e-01   5.353494e-03
  3.347736e+00    4.180906e-01   5.353588e-03
  3.349947e+00    4.328023e-01   5.446034e-03
  3.352157e+00    4.125333e-01   5.315812e-03
  3.354368e+00    4.156266e-01   5.334413e-03
  3.356578e+00    4.259166e-01   5.399008e-03
  3.358788e+00    4.324129e-01   5.438685e-03
  3.360999e+00    4.223627e-01   5.373869e-03
  3.363209e+00    4.159881e-01   5.332133e-03
  3.365420e+00    4.184445e-01   5.346344e-03
  3.367630e+00    4.186855e-01   5.346867e-03
  3.369841e+00    4.145388e-01   5.318879e-03
  3.372051e+00    4.132360e-01   5.308570e-03
  3.374262e+00    4.098075e-01   5.284101e-03
  3.376472e+00    4.050926e-01   5.251174e-03
  3.378683e+00    4.085836e-01   5.271254e-03
  3.380893e+00    4.254180e-01   5.376413e-03
  3.383103e+00    4.110453e-01   5.282128e-03
  3.385314e+00    4.093415e-01   5.268940e-03
  3.387524e+00    4.112478e-01   5.278475e-03
  3.389735e+00    4.080758e-01   5.255489e-03
  3.391945e+00    4.113500e-01   5.272831e-03
  3.394156e+00    4.287111e-01   5.378657e-03
  3.396366e+00    4.235570e-01   5.342794e-03
  3.398577e+00    4.053091e-01   5.223414e-03
  3.400787e+00    4.003976e-01   5.203409e-03
  3.402998e+00    4.046443e-01   5.268752e-03
  3.405208e+00    4.061406e-01   5.299155e-03
  3.407418e+00    4.099007e-01   5.339591e-03
  3.409629e+00    4.131398e-01   5.374815e-03
  3.411839e+00    4.000800e-01   5.300982e-03
  3.414050e+00    4.015758e-01   5.321920e-03
  3.416260e+00    4.128411e-01   5.405925e-03
  3.418471e+00    3.959029e-01   5.303311e-03
  3.420681e+00    3.883863e-01   5.261166e-03
  3.422892e+00    3.879857e-01   5.266441e-03
  3.425102e+00    3.904767e-01   5.291125e-03
  3.427313e+00    3.869422e-01   5.274315e-03
  3.429523e+00    3.812823e-01   5.242603e-03
  3.431733e+00    3.700272e-01   5.171160e-03
  3.433944e+00    4.000949e-01   5.383782e-03
  3.436154e+00    3.798793e-01   5.252223e-03
  3.438365e+00    3.723890e-01   5.206044e-03
  3.440575e+00    3.805358e-01   5.268568e-03
  3.442786e+00    3.921863e-01   5.354368e-03
  3.444996e+00    3.932917e-01   5.367505e-03
  3.447207e+00    3.771822e-01   5.261736e-03
  3.449417e+00    3.851287e-01   5.358437e-03
  3.451628e+00    3.589597e-01   5.202233e-03
  3.453838e+00    3.575897e-01   5.213149e-03
  3.456049e+00    3.696482e-01   5.324303e-03
  3.458259e+00    3.649796e-01   5.312467e-03
  3.460469e+00    3.666426e-01   5.344367e-03
  3.462680e+00    3.692648e-01   5.382564e-03
  3.464890e+00    3.759738e-01   5.449267e-03
  3.467101e+00    3.764465e-01   5.470379e-03
  3.469311e+00    3.869203e-01   5.562851e-03
  3.471522e+00    4.000582e-01   5.673478e-03
  3.473732e+00    3.889431e-01   5.610267e-03
  3.475943e+00    4.047396e-01   5.739185e-03
  3.478153e+00    3.991609e-01   5.715185e-03
  3.480364e+00    4.214991e-01   5.888567e-03
  3.482574e+00    4.221605e-01   5.908914e-03
  3.484784e+00    4.311739e-01   5.986872e-03
  3.486995e+00    4.331630e-01   6.016092e-03
  3.489205e+00    4.471213e-01   6.127313e-03
  3.491416e+00    4.383506e-01   6.082070e-03
  3.493626e+00    4.255122e-01   6.006754e-03
  3.495837e+00    4.420741e-01   6.137286e-03
  3.498047e+00    4.514959e-01   6.216969e-03
  3.500258e+00    4.670807e-01   6.338170e-03
  3.502468e+00    4.666998e-01   6.350218e-03
  3.504679e+00    4.777615e-01   6.439783e-03
  3.506889e+00    4.842164e-01   6.497859e-03
  3.509099e+00    4.670794e-01   6.396153e-03
  3.511310e+00    4.647458e-01   6.394427e-03
  3.513520e+00    4.734380e-01   6.468231e-03
  3.515731e+00    5.108003e-01   6.733327e-03
  3.517941e+00    4.940251e-01   6.636323e-03
  3.520152e+00    5.021960e-01   6.705360e-03
  3.522362e+00    5.057815e-01   6.743806e-03
  3.524573e+00    5.108177e-01   6.791655e-03
  3.526783e+00    5.203036e-01   6.867911e-03
  3.528994e+00    5.204225e-01   6.880981e-03
  3.531204e+00    5.167218e-01   6.868863e-03
  3.533414e+00    5.551870e-01   7.132334e-03
  3.535625e+00    5.373642e-01   7.029432e-03
  3.537835e+00    5.180986e-01   6.914220e-03
  3.540046e+00    5.244579e-01   6.965349e-03
  3.542256e+00    5.353657e-01   7.044928e-03
  3.544467e+00    5.287597e-01   7.008932e-03
  3.546677e+00    5.355988e-01   7.061672e-03
  3.548888e+00    5.437495e-01   7.122726e-03
  3.551098e+00    5.452193e-01   7.139723e-03
  3.553309e+00    5.402632e-01   7.115395e-03
  3.555519e+00    5.479516e-01   7.177270e-03
  3.557729e+00    5.543432e-01   7.230912e-03
  3.559940e+00    5.458038e-01   7.186689e-03
  3.562150e+00    5.344238e-01   7.123041e-03
  3.564361e+00    5.473153e-01   7.221875e-03
  3.566571e+00    5.602690e-01   7.321028e-03
  3.568782e+00    5.491191e-01   7.262089e-03
  3.570992e+00    5.300918e-01   7.148844e-03
  3.573203e+00    5.390742e-01   7.223317e-03
  3.575413e+00    5.244275e-01   7.138170e-03
  3.577624e+00    5.406328e-01   7.261780e-03
  3.579834e+00    5.430614e-01   7.292019e-03
  3.582045e+00    5.615326e-01   7.429404e-03
  3.584255e+00    5.450124e-01   7.333473e-03
  3.586465e+00    5.323693e-01   7.261785e-03
  3.588676e+00    5.394279e-01   7.324012e-03
  3.590886e+00    5.325742e-01   7.291008e-03
  3.593097e+00    5.212661e-01   7.227464e-03
  3.595307e+00    5.445470e-01   7.401141e-03
  3.597518e+00    5.352294e-01   7.351791e-03
  3.599728e+00    5.267675e-01   7.307423e-03
  3.601939e+00    5.316169e-01   7.354955e-03
  3.604149e+00    5.334884e-01   7.382313e-03
  3.606360e+00    5.298023e-01   7.370824e-03
  3.608570e+00    5.349680e-01   7.420781e-03
  3.610780e+00    5.423408e-01   7.482935e-03
  3.612991e+00    5.298418e-01   7.406139e-03
  3.615201e+00    5.415541e-01   7.497430e-03
  3.617412e+00    5.505753e-01   7.566961e-03
  3.619622e+00    5.591463e-01   7.631755e-03
  3.621833e+00    5.481491e-01   7.563135e-03
  3.624043e+00    5.455491e-01   7.554756e-03
  3.626254e+00    5.441887e-01   7.555154e-03
  3.628464e+00    5.431984e-01   7.559315e-03
  3.630675e+00    5.535489e-01   7.645396e-03
  3.632885e+00    5.377018e-01   7.549650e-03
  3.635095e+00    5.463524e-01   7.624702e-03
  3.637306e+00    5.301549e-01   7.525165e-03
  3.639516e+00    5.429695e-01   7.630216e-03
  3.641727e+00    5.400431e-01   7.624284e-03
  3.643937e+00    5.300342e-01   7.567829e-03
  3.646148e+00    5.438259e-01   7.680376e-03
  3.648358e+00    5.457923e-01   7.709313e-03
  3.650569e+00    5.425761e-01   7.701396e-03
  3.652779e+00    5.433925e-01   7.722167e-03
  3.654990e+00    5.157191e-01   7.537599e-03
  3.657200e+00    5.215850e-01   7.595050e-03
  3.659410e+00    5.185986e-01   7.588072e-03
  3.661621e+00    5.404548e-01   7.761535e-03
  3.663831e+00    5.205096e-01   7.631970e-03
  3.666042e+00    5.068364e-01   7.545851e-03
  3.668252e+00    5.032181e-01   7.533682e-03
  3.670463e+00    5.233468e-01   7.697976e-03
  3.672673e+00    5.495002e-01   7.903673e-03
  3.674884e+00    5.618968e-01   8.008199e-03
  3.677094e+00    5.414460e-01   7.876804e-03
  3.679305e+00    5.288025e-01   7.799830e-03
  3.681515e+00    5.149207e-01   7.712137e-03
  3.683726e+00    5.258864e-01   7.809558e-03
  3.685936e+00    5.185267e-01   7.770320e-03
  3.688146e+00    5.148317e-01   7.758084e-03
  3.690357e+00    5.206110e-01   7.817429e-03
  3.692567e+00    5.035281e-01   7.703789e-03
  3.694778e+00    5.344464e-01   7.953003e-03
  3.696988e+00    5.052766e-01   7.748572e-03
  3.699199e+00    5.220855e-01   7.892579e-03
  3.701409e+00    5.231295e-01   7.916799e-03
  3.703620e+00    5.368521e-01   8.036468e-03
  3.705830e+00    5.271097e-01   7.979709e-03
  3.708041e+00    5.113788e-01   7.876088e-03
  3.710251e+00    5.159608e-01   7.927863e-03
  3.712461e+00    5.314952e-01   8.063216e-03
  3.714672e+00    5.268885e-01   8.045025e-03
  3.716882e+00    5.289229e-01   8.077383e-03
  3.719093e+00    5.246983e-01   8.062257e-03
  3.721303e+00    5.203520e-01   8.045779e-03
  3.723514e+00    5.089304e-01   7.974084e-03
  3.725724e+00    5.005230e-01   7.924787e-03
  3.727935e+00    5.048863e-01   7.976518e-03
  3.730145e+00    4.939553e-01   7.906597e-03
  3.732356e+00    5.073839e-01   8.030761e-03
  3.734566e+00    5.213878e-01   8.158466e-03
  3.736776e+00    5.018440e-01   8.021624e-03
  3.738987e+00    5.204638e-01   8.186910e-03
  3.741197e+00    5.229741e-01   8.224865e-03
  3.743408e+00    4.811964e-01   7.906954e-03
  3.745618e+00    5.128757e-01   8.181379e-03
  3.747829e+00    4.961728e-01   8.064891e-03
  3.750039e+00    4.904639e-01   8.036335e-03
  3.752250e+00    5.164419e-01   8.264992e-03
  3.754460e+00    5.176520e-01   8.293373e-03
  3.756671e+00    5.253085e-01   8.373511e-03
  3.758881e+00    5.465073e-01   8.560171e-03
  3.761091e+00    5.186638e-01   8.358599e-03
  3.763302e+00    5.274994e-01   8.448938e-03
  3.765512e+00    5.060188e-01   8.294298e-03
  3.767723e+00    5.215125e-01   8.439993e-03
  3.769933e+00    4.975956e-01   8.263327e-03
  3.772144e+00    5.174141e-01   8.446076e-03
  3.774354e+00    5.108994e-01   8.412669e-03
  3.776565e+00    5.326336e-01   8.610138e-03
  3.778775e+00    5.256735e-01   8.574072e-03
  3.780986e+00    5.264543e-01   8.601202e-03
  3.783196e+00    5.093009e-01   8.480287e-03
  3.785407e+00    5.116277e-01   8.520208e-03
  3.787617e+00    5.277635e-01   8.674787e-03
  3.789827e+00    5.168377e-01   8.605370e-03
  3.792038e+00    4.970149e-01   8.459466e-03
  3.794248e+00    4.848223e-01   8.375866e-03
  3.796459e+00    5.092496e-01   8.605769e-03
  3.798669e+00    5.064228e-01   8.603362e-03
  3.800880e+00    5.232669e-01   8.767185e-03
  3.803090e+00    5.185108e-01   8.749506e-03
  3.805301e+00    5.091770e-01   8.692688e-03
  3.807511e+00    5.048804e-01   8.678014e-03
  3.809722e+00    5.125253e-01   8.766007e-03
  3.811932e+00    4.969823e-01   8.654204e-03
  3.814142e+00    5.221501e-01   8.894044e-03
  3.816353e+00    5.009494e-01   8.734493e-03
  3.818563e+00    4.893794e-01   8.655938e-03
  3.820774e+00    4.968516e-01   8.744868e-03
  3.822984e+00    4.820829e-01   8.636954e-03
  3.825195e+00    4.905522e-01   8.735973e-03
  3.827405e+00    5.439603e-01   9.224271e-03
  3.829616e+00    5.013128e-01   8.879459e-03
  3.831826e+00    4.994388e-01   8.887058e-03
  3.834037e+00    5.097076e-01   9.002695e-03
  3.836247e+00    5.130281e-01   9.057151e-03
  3.838457e+00    4.965835e-01   8.935813e-03
  3.840668e+00    4.978206e-01   8.972188e-03
  3.842878e+00    5.072588e-01   9.082601e-03
  3.845089e+00    5.069497e-01   9.105708e-03
  3.847299e+00    5.054993e-01   9.118758e-03
  3.849510e+00    5.085493e-01   9.172373e-03
  3.851720e+00    5.150563e-01   9.252733e-03
  3.853931e+00    5.142514e-01   9.264880e-03
  3.856141e+00    5.141981e-01   9.283766e-03
  3.858352e+00    4.712807e-01   8.906750e-03
  3.860562e+00    4.959515e-01   9.156168e-03
  3.862772e+00    5.166783e-01   9.365556e-03
  3.864983e+00    5.090008e-01   9.315738e-03
  3.867193e+00    5.000562e-01   9.253428e-03
  3.869404e+00    4.894457e-01   9.174451e-03
  3.871614e+00    5.065260e-01   9.353353e-03
  3.873825e+00    5.135336e-01   9.438599e-03
  3.876035e+00    5.082393e-01   9.410701e-03
  3.878246e+00    5.171133e-01   9.518964e-03
  3.880456e+00    4.847681e-01   9.245164e-03
  3.882667e+00    4.951594e-01   9.373176e-03
  3.884877e+00    4.992345e-01   9.441646e-03
  3.887087e+00    4.950458e-01   9.431990e-03
  3.889298e+00    4.809632e-01   9.326911e-03
  3.891508e+00    5.208657e-01   9.737493e-03
  3.893719e+00    5.235364e-01   9.794512e-03
  3.895929e+00    5.017217e-01   9.620033e-03
  3.898140e+00    4.880723e-01   9.519936e-03
  3.900350e+00    5.018466e-01   9.685754e-03
  3.902561e+00    4.856845e-01   9.560819e-03
  3.904771e+00    4.787317e-01   9.524507e-03
  3.906982e+00    5.050496e-01   9.816453e-03
  3.909192e+00    5.199656e-01   9.994932e-03
  3.911403e+00    5.045958e-01   9.880692e-03
  3.913613e+00    4.826961e-01   9.697953e-03
  3.915823e+00    4.952902e-01   9.858658e-03
  3.918034e+00    5.041386e-01   9.982180e-03
  3.920244e+00    4.735644e-01   9.709941e-03
  3.922455e+00    4.813173e-01   9.824906e-03
  3.924665e+00    4.910679e-01   9.960448e-03
  3.926876e+00    4.701907e-01   9.782900e-03
  3.929086e+00    5.227799e-01   1.035409e-02
  3.931297e+00    4.907700e-01   1.006714e-02
  3.933507e+00    4.950027e-01   1.013953e-02
  3.935718e+00    4.970709e-01   1.018976e-02
  3.937928e+00    4.792922e-01   1.003503e-02
  3.940138e+00    4.837322e-01   1.011067e-02
  3.942349e+00    5.041782e-01   1.035248e-02
  3.944559e+00    5.070567e-01   1.041263e-02
  3.946770e+00    4.832645e-01   1.019548e-02
  3.948980e+00    4.816839e-01   1.020935e-02
  3.951191e+00    4.571738e-01   9.976048e-03
  3.953401e+00    5.150515e-01   1.062100e-02
  3.955612e+00    4.981007e-01   1.047693e-02
  3.957822e+00    4.964073e-01   1.049102e-02
  3.960033e+00    4.927466e-01   1.048504e-02
  3.962243e+00    5.282327e-01   1.089035e-02
  3.964453e+00    5.338694e-01   1.098303e-02
  3.966664e+00    5.159771e-01   1.083185e-02
  3.968874e+00    5.033940e-01   1.072791e-02
  3.971085e+00    4.839379e-01   1.054035e-02
  3.973295e+00    4.852291e-01   1.057598e-02
  3.975506e+00    4.923283e-01   1.067465e-02
  3.977716e+00    5.030267e-01   1.081256e-02
  3.979927e+00    4.739026e-01   1.051673e-02
  3.982137e+00    4.794355e-01   1.060001e-02
  3.984348e+00    5.056892e-01   1.090943e-02
  3.986558e+00    5.115292e-01   1.099515e-02
  3.988768e+00    5.098113e-01   1.100027e-02
  3.990979e+00    5.096055e-01   1.102140e-02
  3.993189e+00    5.003128e-01   1.094389e-02
  3.995400e+00    4.686953e-01   1.061560e-02
  3.997610e+00    4.804142e-01   1.077707e-02
  3.999821e+00    4.944618e-01   1.097147e-02
  4.002031e+00    4.813478e-01   1.086327e-02
  4.004242e+00    4.691878e-01   1.076296e-02
  4.006452e+00    4.942100e-01   1.108605e-02
  4.008663e+00    5.000229e-01   1.119161e-02
  4.010873e+00    5.133898e-01   1.138145e-02
  4.013084e+00    4.991097e-01   1.126359e-02
  4.015294e+00    4.865460e-01   1.116200e-02
  4.017504e+00    4.871757e-01   1.121114e-02
  4.019715e+00    4.825025e-01   1.119972e-02
  4.021925e+00    4.903040e-01   1.133314e-02
  4.024136e+00    5.118116e-01   1.162392e-02
  4.026346e+00    5.085799e-01   1.163242e-02
  4.028557e+00    4.936540e-01   1.150526e-02
  4.030767e+00    5.168232e-01   1.181929e-02
  4.032978e+00    5.038632e-01   1.171755e-02
  4.035188e+00    4.749805e-01   1.142240e-02
  4.037399e+00    4.885422e-01   1.163210e-02
  4.039609e+00    4.803379e-01   1.158164e-02
  4.041819e+00    4.733528e-01   1.154532e-02
  4.044030e+00    5.013050e-01   1.193220e-02
  4.046240e+00    4.867950e-01   1.180838e-02
  4.048451e+00    4.784160e-01   1.175689e-02
  4.050661e+00    4.993098e-01   1.206325e-02
  4.052872e+00    4.852619e-01   1.194516e-02
  4.055082e+00    4.892947e-01   1.204861e-02
  4.057293e+00    4.912883e-01   1.212734e-02
  4.059503e+00    4.802143e-01   1.204451e-02
  4.061714e+00    4.997822e-01   1.234478e-02
  4.063924e+00    4.823374e-01   1.218424e-02
  4.066134e+00    4.861877e-01   1.229044e-02
  4.068345e+00    4.864302e-01   1.235271e-02
  4.070555e+00    4.887729e-01   1.244216e-02
  4.072766e+00    4.785172e-01   1.237154e-02
  4.074976e+00    4.991298e-01   1.269819e-02
  4.077187e+00    5.041530e-01   1.282538e-02
  4.079397e+00    5.381511e-01   1.331844e-02
  4.081608e+00    4.880544e-01   1.274950e-02
  4.083818e+00    5.102786e-01   1.310421e-02
  4.086029e+00    4.619227e-01   1.253353e-02
  4.088239e+00    4.373051e-01   1.226079e-02
  4.090449e+00    5.007899e-01   1.319160e-02
  4.092660e+00    5.201437e-01   1.351810e-02
  4.094870e+00    5.243486e-01   1.364818e-02
  4.097081e+00    4.902812e-01   1.326963e-02
  4.099291e+00    4.924276e-01   1.335372e-02
  4.101502e+00    4.877600e-01   1.333984e-02
  4.103712e+00    5.064375e-01   1.364345e-02
  4.105923e+00    4.807318e-01   1.334424e-02
  4.108133e+00    5.268689e-01   1.402356e-02
  4.110344e+00    4.975917e-01   1.368073e-02
  4.112554e+00    5.198524e-01   1.403845e-02
  4.114764e+00    4.944102e-01   1.374568e-02
  4.116975e+00    4.912323e-01   1.375556e-02
  4.119185e+00    4.665300e-01   1.345957e-02
  4.121396e+00    4.587850e-01   1.340252e-02
  4.123606e+00    4.805702e-01   1.377325e-02
  4.125817e+00    4.694780e-01   1.367053e-02
  4.128027e+00    4.976015e-01   1.413317e-02
  4.130238e+00    5.095002e-01   1.436260e-02
  4.132448e+00    5.160865e-01   1.451783e-02
  4.134659e+00    4.755003e-01   1.399516e-02
  4.136869e+00    5.146828e-01   1.462540e-02
  4.139080e+00    5.152446e-01   1.469930e-02
  4.141290e+00    5.198330e-01   1.483019e-02
  4.143500e+00    4.847138e-01   1.438634e-02
  4.145711e+00    4.779464e-01   1.435226e-02
  4.147921e+00    4.716087e-01   1.432233e-02
  4.150132e+00    4.158964e-01   1.351384e-02
  4.152342e+00    5.119121e-01   1.506532e-02
  4.154553e+00    5.162891e-01   1.520204e-02
  4.156763e+00    5.158028e-01   1.526964e-02
  4.158974e+00    4.941643e-01   1.502108e-02
  4.161184e+00    4.976242e-01   1.514846e-02
  4.163395e+00    5.523570e-01   1.604131e-02
  4.165605e+00    5.560977e-01   1.617922e-02
  4.167815e+00    5.493971e-01   1.616525e-02
  4.170026e+00    5.466577e-01   1.620995e-02
  4.172236e+00    5.209053e-01   1.590924e-02
  4.174447e+00    4.965985e-01   1.561784e-02
  4.176657e+00    5.237641e-01   1.612724e-02
  4.178868e+00    5.212957e-01   1.618022e-02
  4.181078e+00    5.111213e-01   1.611163e-02
  4.183289e+00    4.839351e-01   1.576724e-02
  4.185499e+00    5.246803e-01   1.651428e-02
  4.187710e+00    4.730319e-01   1.577247e-02
  4.189920e+00    4.683587e-01   1.578874e-02
  4.192130e+00    4.762248e-01   1.601815e-02
  4.194341e+00    4.975166e-01   1.647240e-02
  4.196551e+00    4.574682e-01   1.589590e-02
  4.198762e+00    4.683446e-01   1.618559e-02
  4.200972e+00    4.838280e-01   1.655770e-02
  4.203183e+00    4.675962e-01   1.638461e-02
  4.205393e+00    5.236034e-01   1.745369e-02
  4.207604e+00    5.183619e-01   1.748468e-02
  4.209814e+00    4.874499e-01   1.707138e-02
  4.212025e+00    4.701331e-01   1.688436e-02
  4.214235e+00    4.954182e-01   1.745541e-02
  4.216445e+00    4.883214e-01   1.745489e-02
  4.218656e+00    5.313497e-01   1.834447e-02
  4.220866e+00    4.506429e-01   1.701924e-02
  4.223077e+00    4.761550e-01   1.762865e-02
  4.225287e+00    4.352489e-01   1.698673e-02
  4.227498e+00    4.593574e-01   1.758807e-02
  4.229708e+00    4.965163e-01   1.843439e-02
  4.231919e+00    4.803700e-01   1.828183e-02
  4.234129e+00    4.874766e-01   1.857143e-02
  4.236340e+00    4.576197e-01   1.814719e-02
  4.238550e+00    5.070422e-01   1.927105e-02
  4.240761e+00    5.150195e-01   1.959318e-02
  4.242971e+00    5.111713e-01   1.969926e-02
  4.245181e+00    4.136617e-01   1.788726e-02
  4.247392e+00    4.849460e-01   1.954804e-02
  4.249602e+00    5.176263e-01   2.039691e-02
  4.251813e+00    4.760348e-01   1.975302e-02
  4.254023e+00    4.288781e-01   1.893808e-02
  4.256234e+00    5.061168e-01   2.079234e-02
  4.258444e+00    4.759960e-01   2.037550e-02
  4.260655e+00    4.631023e-01   2.031850e-02
  4.262865e+00    4.999609e-01   2.135112e-02
  4.265076e+00    4.511637e-01   2.051276e-02
  4.267286e+00    4.888228e-01   2.160547e-02
  4.269496e+00    3.930080e-01   1.960912e-02
  4.271707e+00    4.861667e-01   2.207788e-02
  4.273917e+00    5.640326e-01   2.408912e-02
  4.276128e+00    4.450535e-01   2.168191e-02
  4.278338e+00    5.277929e-01   2.392659e-02
  4.280549e+00    4.172501e-01   2.157953e-02
  4.282759e+00    4.618944e-01   2.303057e-02
  4.284970e+00    4.454592e-01   2.295193e-02
  4.287180e+00    4.651080e-01   2.373366e-02
  4.289391e+00    4.887317e-01   2.451108e-02
  4.291601e+00    4.822352e-01   2.454300e-02
  4.293811e+00    5.086839e-01   2.540383e-02
  4.296022e+00    4.713242e-01   2.464937e-02
  4.298232e+00    5.159006e-01   2.600448e-02
  4.300443e+00    4.753209e-01   2.516716e-02
  4.302653e+00    4.514608e-01   2.474030e-02
  4.304864e+00    5.199265e-01   2.677842e-02
  4.307074e+00    5.355308e-01   2.742301e-02
  4.309285e+00    5.240404e-01   2.737310e-02
  4.311495e+00    5.125600e-01   2.732466e-02
  4.313706e+00    4.141295e-01   2.479259e-02
  4.315916e+00    4.354753e-01   2.567299e-02
  4.318126e+00    5.107457e-01   2.807863e-02
  4.320337e+00    4.372054e-01   2.624193e-02
  4.322547e+00    5.076160e-01   2.857534e-02
  4.324758e+00    5.180312e-01   2.916755e-02
  4.326968e+00    4.685509e-01   2.805202e-02
  4.329179e+00    4.206305e-01   2.687221e-02
  4.331389e+00    3.611418e-01   2.518605e-02
  4.333600e+00    4.944669e-01   2.982222e-02
  4.335810e+00    3.755830e-01   2.630088e-02
  4.338021e+00    4.508557e-01   2.918477e-02
  4.340231e+00    3.935423e-01   2.760879e-02
  4.342442e+00    4.567281e-01   3.014234e-02
  4.344652e+00    3.678277e-01   2.741671e-02
  4.346862e+00    4.171296e-01   2.960589e-02
  4.349073e+00    3.976910e-01   2.932789e-02
  4.351283e+00    3.883147e-01   2.941337e-02
  4.353494e+00    4.836733e-01   3.333331e-02
  4.355704e+00    4.855270e-01   3.393602e-02
  4.357915e+00    2.954105e-01   2.691184e-02
  4.360125e+00    4.134080e-01   3.237817e-02
  4.362336e+00    4.651738e-01   3.497095e-02
  4.364546e+00    4.956164e-01   3.675463e-02
  4.366757e+00    5.109813e-01   3.806345e-02
  4.368967e+00    3.945790e-01   3.411569e-02
  4.371177e+00    3.655967e-01   3.353593e-02
  4.373388e+00    5.390789e-01   4.163350e-02
  4.375598e+00    5.305610e-01   4.224501e-02
  4.377809e+00    2.759421e-01   3.123878e-02
  4.380019e+00    3.840535e-01   3.777763e-02
  4.382230e+00    4.021362e-01   3.973701e-02
  4.384440e+00    3.151523e-01   3.619129e-02
  4.386651e+00    5.522663e-01   4.938440e-02
  4.388861e+00    6.111546e-01   5.369395e-02
  4.391072e+00    4.452658e-01   4.744134e-02
  4.393282e+00    4.896387e-01   5.167298e-02
  4.395492e+00    4.917139e-01   5.393228e-02
  4.397703e+00    4.960970e-01   5.665207e-02
  4.399913e+00    3.325873e-01   4.872983e-02
  4.402124e+00    5.042206e-01   6.340314e-02
  4.404334e+00    3.458702e-01   5.582236e-02
  4.406545e+00    3.708810e-01   6.210295e-02
  4.408755e+00    2.762868e-01   5.813462e-02
  4.410966e+00    3.043359e-01   6.752873e-02
  4.413176e+00    9.473712e-02   4.265797e-02
  4.415387e+00   -7.112816e-01            nan
  4.417597e+00   -1.917918e+00            nan
  4.419807e+00   -3.766224e-01            nan
