# == pyFAI calibration ==
# Distance Sample to Detector: 0.216 m
# PONI: 1.166e-01, 1.308e-01 m
# Rotations: 0.000000 0.000000 0.000000 rad
# 
# == Fit2d calibration ==
# Distance Sample-beamCenter: 216.000 mm
# Center: x=1744.293, y=1555.000 pix
# Tilt: 0.000 deg  TiltPlanRot: 0.000 deg
# 
# Detector Eiger 9M	 PixelSize= 7.500e-05, 7.500e-05 m
#    Detector has a mask: True 
#    Detector has a dark current: False 
#    detector has a flat field: False 
# 
# Wavelength: 9.8e-11 m
# Mask applied: from detector
# Dark current applied: False
# Flat field applied: False
# Polarization factor: None
# Normalization factor: 1.0
# 
# Headers of the input frame:
# {
# "_array_data.header_convention": "SLS_1.0",
# "_array_data.header_contents": "# Detector: Dectris Eiger 9M, S/N E-18-0102\r\n# Pixel_size 75e-6 m x 75e-6 m\r\n# Silicon sensor, thickness 0.000450 m\r\n# Exposure_time 0.024997 s\r\n# Exposure_period 0.025000 s\r\n# Count_cutoff 62318 counts\r\n# Wavelength 0.980106 A\r\n# Detector_distance 0.215992 m\r\n# Beam_xy (1555, 1744) pixels\r\n# Start_angle 0.000000 deg.\r\n# Angle_increment 0.000000 deg.",
# "Content-Type": "application/octet-stream;",
# "conversions": "x-CBF_BYTE_OFFSET",
# "Content-Transfer-Encoding": "BINARY",
# "X-Binary-Size": "10166604",
# "X-Binary-ID": "1",
# "X-Binary-Element-Type": "signed 32-bit integer",
# "X-Binary-Element-Byte-Order": "LITTLE_ENDIAN",
# "Content-MD5": "djLE1Vu6iyfKmhaR1FOgXQ==",
# "X-Binary-Number-of-Elements": "10166590",
# "X-Binary-Size-Fastest-Dimension": "3110",
# "X-Binary-Size-Second-Dimension": "3269",
# "X-Binary-Size-Padding": "4095"
# }
# --> H:/Proxima2a_2019-04-05/RAW_DATA/C5_gel17_position5/C5_mesh_1_data.cbf/C5_mesh_1_data.cbf000177.dat
#        q_A^-1              I           sigma 
  1.105228e-03    1.298151e+00   6.165233e-01
  3.315685e-03    1.460774e+00   3.975914e-01
  5.526141e-03    1.530611e+00   3.147056e-01
  7.736597e-03    1.505341e+00   2.636560e-01
  9.947054e-03    1.169796e+00   2.048951e-01
  1.215751e-02    1.551370e+00   2.133665e-01
  1.436797e-02    1.624813e+00   2.008526e-01
  1.657842e-02    1.314296e+00   1.681478e-01
  1.878888e-02    1.285907e+00   1.562314e-01
  2.099934e-02    1.330474e+00   1.503506e-01
  2.320979e-02    1.477064e+00   1.506720e-01
  2.542025e-02    1.616233e+00   1.506127e-01
  2.763070e-02    1.385571e+00   1.337533e-01
  2.984116e-02    1.549635e+00   1.361103e-01
  3.205162e-02    1.475498e+00   1.281609e-01
  3.426207e-02    1.356267e+00   1.188359e-01
  3.647253e-02    1.327696e+00   1.139565e-01
  3.868299e-02    1.305737e+00   1.097422e-01
  4.089344e-02    1.377823e+00   1.096421e-01
  4.310390e-02    1.338534e+00   1.052540e-01
  4.531436e-02    1.501772e+00   1.087346e-01
  4.752481e-02    1.477309e+00   1.053064e-01
  4.973527e-02    1.366817e+00   9.901635e-02
  5.194572e-02    1.343578e+00   9.605817e-02
  5.415618e-02    1.404534e+00   9.618446e-02
  5.636664e-02    1.362282e+00   9.285358e-02
  5.857709e-02    1.510625e+00   9.591641e-02
  6.078755e-02    1.525921e+00   9.462880e-02
  6.299801e-02    1.382469e+00   8.847574e-02
  6.520846e-02    1.339808e+00   8.561147e-02
  6.741892e-02    1.413829e+00   8.648649e-02
  6.962938e-02    1.416759e+00   8.519506e-02
  7.183983e-02    1.386209e+00   8.296336e-02
  7.405029e-02    1.383281e+00   8.162747e-02
  7.626074e-02    1.361078e+00   7.978695e-02
  7.847120e-02    1.514748e+00   8.297441e-02
  8.068166e-02    1.486641e+00   8.106649e-02
  8.289211e-02    1.473828e+00   7.963245e-02
  8.510257e-02    1.421903e+00   7.719415e-02
  8.731303e-02    1.331850e+00   7.375515e-02
  8.952348e-02    1.435097e+00   7.561156e-02
  9.173394e-02    1.547679e+00   7.756651e-02
  9.394439e-02    1.437718e+00   7.387308e-02
  9.615485e-02    1.463398e+00   7.366665e-02
  9.836531e-02    1.539201e+00   7.469475e-02
  1.005758e-01    1.547321e+00   7.406443e-02
  1.027862e-01    1.409721e+00   6.992854e-02
  1.049967e-01    1.482547e+00   7.095190e-02
  1.072071e-01    1.553880e+00   7.188522e-02
  1.094176e-01    1.568286e+00   7.148337e-02
  1.116280e-01    1.637781e+00   7.232152e-02
  1.138385e-01    1.624267e+00   7.131849e-02
  1.160490e-01    1.529253e+00   6.853803e-02
  1.182594e-01    1.610482e+00   6.967280e-02
  1.204699e-01    1.554506e+00   6.781985e-02
  1.226803e-01    1.610777e+00   6.840881e-02
  1.248908e-01    1.641941e+00   6.845266e-02
  1.271012e-01    1.604766e+00   6.708093e-02
  1.293117e-01    1.668719e+00   6.781651e-02
  1.315222e-01    1.635167e+00   6.656323e-02
  1.337326e-01    1.660792e+00   6.652475e-02
  1.359431e-01    1.628756e+00   6.591859e-02
  1.381535e-01    1.568170e+00   6.554917e-02
  1.403640e-01    1.587241e+00   6.623127e-02
  1.425744e-01    1.528568e+00   6.509946e-02
  1.447849e-01    1.492201e+00   6.433519e-02
  1.469953e-01    1.514725e+00   6.477833e-02
  1.492058e-01    1.593564e+00   6.636552e-02
  1.514163e-01    1.594223e+00   6.626906e-02
  1.536267e-01    1.537026e+00   6.494232e-02
  1.558372e-01    1.607777e+00   6.627359e-02
  1.580476e-01    1.673362e+00   6.744773e-02
  1.602581e-01    1.714391e+00   6.809621e-02
  1.624685e-01    1.604500e+00   6.569725e-02
  1.646790e-01    1.571968e+00   6.484108e-02
  1.668895e-01    1.606452e+00   6.535912e-02
  1.690999e-01    1.710503e+00   6.724006e-02
  1.713104e-01    1.764243e+00   6.807625e-02
  1.735208e-01    1.757629e+00   6.773724e-02
  1.757313e-01    1.722890e+00   6.685431e-02
  1.779417e-01    1.827322e+00   6.862608e-02
  1.801522e-01    1.908252e+00   6.990598e-02
  1.823626e-01    1.847526e+00   6.855568e-02
  1.845731e-01    1.827990e+00   6.797139e-02
  1.867836e-01    1.922359e+00   6.946854e-02
  1.889940e-01    2.009162e+00   7.078759e-02
  1.912045e-01    1.977607e+00   6.999497e-02
  1.934149e-01    2.011979e+00   7.036433e-02
  1.956254e-01    1.969728e+00   6.939200e-02
  1.978358e-01    1.972185e+00   6.919727e-02
  2.000463e-01    1.974186e+00   6.900298e-02
  2.022568e-01    1.886508e+00   6.723187e-02
  2.044672e-01    1.999984e+00   6.898725e-02
  2.066777e-01    2.040581e+00   6.945262e-02
  2.088881e-01    2.029195e+00   6.903199e-02
  2.110986e-01    2.055501e+00   6.923975e-02
  2.133090e-01    1.954156e+00   6.729182e-02
  2.155195e-01    1.950118e+00   6.699925e-02
  2.177300e-01    2.017904e+00   6.761833e-02
  2.199404e-01    2.014498e+00   6.578104e-02
  2.221509e-01    1.943377e+00   6.354848e-02
  2.243613e-01    1.949973e+00   6.284926e-02
  2.265718e-01    1.960759e+00   6.232819e-02
  2.287822e-01    2.062184e+00   6.328722e-02
  2.309927e-01    2.180011e+00   6.447734e-02
  2.332031e-01    2.221417e+00   6.452975e-02
  2.354136e-01    2.172464e+00   6.329755e-02
  2.376241e-01    2.126358e+00   6.213621e-02
  2.398345e-01    2.140784e+00   6.188521e-02
  2.420450e-01    2.242275e+00   6.288252e-02
  2.442554e-01    2.228857e+00   6.226219e-02
  2.464659e-01    2.266918e+00   6.236998e-02
  2.486763e-01    2.216574e+00   6.126813e-02
  2.508868e-01    2.114050e+00   5.945699e-02
  2.530973e-01    2.089704e+00   5.874711e-02
  2.553077e-01    2.092080e+00   5.842397e-02
  2.575182e-01    2.155049e+00   5.894585e-02
  2.597286e-01    2.109115e+00   5.797530e-02
  2.619391e-01    2.054705e+00   5.689316e-02
  2.641495e-01    2.038800e+00   5.635887e-02
  2.663600e-01    2.073636e+00   5.652572e-02
  2.685704e-01    2.069206e+00   5.615927e-02
  2.707809e-01    1.995800e+00   5.486138e-02
  2.729914e-01    1.951713e+00   5.396930e-02
  2.752018e-01    2.000105e+00   5.434994e-02
  2.774123e-01    2.033990e+00   5.452841e-02
  2.796227e-01    2.017045e+00   5.403221e-02
  2.818332e-01    2.003367e+00   5.358005e-02
  2.840436e-01    2.017210e+00   5.350426e-02
  2.862541e-01    1.938077e+00   5.219218e-02
  2.884646e-01    1.930176e+00   5.183851e-02
  2.906750e-01    1.871938e+00   5.080840e-02
  2.928855e-01    1.877618e+00   5.064965e-02
  2.950959e-01    1.944171e+00   5.130272e-02
  2.973064e-01    1.979048e+00   5.152822e-02
  2.995168e-01    2.027734e+00   5.192195e-02
  3.017273e-01    1.988435e+00   5.118968e-02
  3.039377e-01    1.945874e+00   5.041713e-02
  3.061482e-01    1.933874e+00   5.004401e-02
  3.083587e-01    1.931397e+00   4.979546e-02
  3.105691e-01    1.934558e+00   4.962335e-02
  3.127796e-01    1.858871e+00   4.843843e-02
  3.149900e-01    1.866245e+00   4.833217e-02
  3.172005e-01    1.949091e+00   4.919134e-02
  3.194109e-01    1.883497e+00   4.815691e-02
  3.216214e-01    1.888469e+00   4.802365e-02
  3.238319e-01    1.916739e+00   4.819010e-02
  3.260423e-01    1.809950e+00   4.664191e-02
  3.282528e-01    1.856274e+00   4.704695e-02
  3.304632e-01    1.831347e+00   4.654899e-02
  3.326737e-01    1.837060e+00   4.643962e-02
  3.348841e-01    1.826426e+00   4.612546e-02
  3.370946e-01    1.808529e+00   4.572623e-02
  3.393050e-01    1.829381e+00   4.581486e-02
  3.415155e-01    1.884594e+00   4.632626e-02
  3.437260e-01    1.849668e+00   4.572489e-02
  3.459364e-01    1.843282e+00   4.547702e-02
  3.481469e-01    1.849812e+00   4.539122e-02
  3.503573e-01    1.833670e+00   4.502810e-02
  3.525678e-01    1.788829e+00   4.431565e-02
  3.547782e-01    1.767238e+00   4.388819e-02
  3.569887e-01    1.766145e+00   4.371916e-02
  3.591992e-01    1.822267e+00   4.425120e-02
  3.614096e-01    1.733321e+00   4.300811e-02
  3.636201e-01    1.753676e+00   4.310786e-02
  3.658305e-01    1.811599e+00   4.366454e-02
  3.680410e-01    1.808588e+00   4.347821e-02
  3.702514e-01    1.756547e+00   4.270399e-02
  3.724619e-01    1.792840e+00   4.299601e-02
  3.746724e-01    1.763342e+00   4.249854e-02
  3.768828e-01    1.763529e+00   4.235778e-02
  3.790933e-01    1.776428e+00   4.237388e-02
  3.813037e-01    1.786166e+00   4.235083e-02
  3.835142e-01    1.800160e+00   4.237679e-02
  3.857246e-01    1.768525e+00   4.186686e-02
  3.879351e-01    1.749655e+00   4.150810e-02
  3.901455e-01    1.735836e+00   4.121223e-02
  3.923560e-01    1.790820e+00   4.172682e-02
  3.945665e-01    1.779680e+00   4.146492e-02
  3.967769e-01    1.779047e+00   4.132773e-02
  3.989874e-01    1.827379e+00   4.175454e-02
  4.011978e-01    1.804475e+00   4.136447e-02
  4.034083e-01    1.761294e+00   4.074107e-02
  4.056187e-01    1.792663e+00   4.097566e-02
  4.078292e-01    1.760173e+00   4.047978e-02
  4.100397e-01    1.802729e+00   4.084109e-02
  4.122501e-01    1.840399e+00   4.114219e-02
  4.144606e-01    1.801558e+00   4.058498e-02
  4.166710e-01    1.787350e+00   4.030444e-02
  4.188815e-01    1.804434e+00   4.037697e-02
  4.210919e-01    1.830956e+00   4.055343e-02
  4.233024e-01    1.792549e+00   4.000783e-02
  4.255128e-01    1.780588e+00   3.975885e-02
  4.277233e-01    1.786321e+00   3.970839e-02
  4.299338e-01    1.809057e+00   3.984531e-02
  4.321442e-01    1.788578e+00   3.950578e-02
  4.343547e-01    1.742440e+00   3.888264e-02
  4.365651e-01    1.730115e+00   3.863480e-02
  4.387756e-01    1.772997e+00   3.900115e-02
  4.409860e-01    1.748004e+00   3.861801e-02
  4.431965e-01    1.706505e+00   3.805134e-02
  4.454070e-01    1.707212e+00   3.795331e-02
  4.476174e-01    1.729178e+00   3.809183e-02
  4.498279e-01    1.705049e+00   3.772222e-02
  4.520383e-01    1.723961e+00   3.782675e-02
  4.542488e-01    1.707832e+00   3.754786e-02
  4.564592e-01    1.696393e+00   3.732151e-02
  4.586697e-01    1.676061e+00   3.699872e-02
  4.608801e-01    1.730555e+00   3.749466e-02
  4.630906e-01    1.700937e+00   3.707403e-02
  4.653011e-01    1.685533e+00   3.680868e-02
  4.675115e-01    1.750847e+00   3.741626e-02
  4.697220e-01    1.753424e+00   3.734579e-02
  4.719324e-01    1.743455e+00   3.714313e-02
  4.741429e-01    1.705454e+00   3.664145e-02
  4.763533e-01    1.694028e+00   3.642489e-02
  4.785638e-01    1.676241e+00   3.613955e-02
  4.807743e-01    1.686184e+00   3.615439e-02
  4.829847e-01    1.693417e+00   3.614033e-02
  4.851952e-01    1.704269e+00   3.616419e-02
  4.874056e-01    1.677441e+00   3.578797e-02
  4.896161e-01    1.655363e+00   3.546350e-02
  4.918265e-01    1.695362e+00   3.580026e-02
  4.940370e-01    1.762038e+00   3.640737e-02
  4.962475e-01    1.748976e+00   3.618260e-02
  4.984579e-01    1.717531e+00   3.576750e-02
  5.006684e-01    1.685431e+00   3.534528e-02
  5.028788e-01    1.674736e+00   3.514760e-02
  5.050893e-01    1.654399e+00   3.484856e-02
  5.072997e-01    1.651653e+00   3.473554e-02
  5.095102e-01    1.697168e+00   3.512656e-02
  5.117206e-01    1.736106e+00   3.544277e-02
  5.139311e-01    1.667756e+00   3.465585e-02
  5.161416e-01    1.638359e+00   3.426789e-02
  5.183520e-01    1.640763e+00   3.421151e-02
  5.205625e-01    1.694976e+00   3.469066e-02
  5.227729e-01    1.693411e+00   3.459378e-02
  5.249834e-01    1.676212e+00   3.433775e-02
  5.271938e-01    1.708033e+00   3.458126e-02
  5.294043e-01    1.748113e+00   3.490392e-02
  5.316148e-01    1.732418e+00   3.466730e-02
  5.338252e-01    1.756924e+00   3.483183e-02
  5.360357e-01    1.748894e+00   3.467305e-02
  5.382461e-01    1.753971e+00   3.464482e-02
  5.404566e-01    1.753809e+00   3.456440e-02
  5.426670e-01    1.752182e+00   3.447051e-02
  5.448775e-01    1.759980e+00   3.446995e-02
  5.470879e-01    1.755207e+00   3.434643e-02
  5.492984e-01    1.702636e+00   3.375291e-02
  5.515089e-01    1.728263e+00   3.393055e-02
  5.537193e-01    1.755520e+00   3.412175e-02
  5.559298e-01    1.728769e+00   3.378649e-02
  5.581402e-01    1.777273e+00   3.418232e-02
  5.603507e-01    1.808549e+00   3.440676e-02
  5.625611e-01    1.810862e+00   3.435402e-02
  5.647716e-01    1.760428e+00   3.379872e-02
  5.669821e-01    1.778657e+00   3.389999e-02
  5.691925e-01    1.765303e+00   3.370003e-02
  5.714030e-01    1.743643e+00   3.342123e-02
  5.736134e-01    1.703779e+00   3.296670e-02
  5.758239e-01    1.719606e+00   3.304877e-02
  5.780343e-01    1.763268e+00   3.339492e-02
  5.802448e-01    1.738057e+00   3.308593e-02
  5.824552e-01    1.667070e+00   3.233525e-02
  5.846657e-01    1.641773e+00   3.202205e-02
  5.868762e-01    1.673349e+00   3.226123e-02
  5.890866e-01    1.634679e+00   3.182013e-02
  5.912971e-01    1.654750e+00   3.194859e-02
  5.935075e-01    1.644583e+00   3.178448e-02
  5.957180e-01    1.618283e+00   3.146461e-02
  5.979284e-01    1.645721e+00   3.166545e-02
  6.001389e-01    1.679589e+00   3.192448e-02
  6.023494e-01    1.712397e+00   3.216932e-02
  6.045598e-01    1.691703e+00   3.190926e-02
  6.067703e-01    1.653474e+00   3.148321e-02
  6.089807e-01    1.695806e+00   3.181957e-02
  6.111912e-01    1.719095e+00   3.197336e-02
  6.134016e-01    1.688110e+00   3.162071e-02
  6.156121e-01    1.662702e+00   3.131947e-02
  6.178226e-01    1.666400e+00   3.129219e-02
  6.200330e-01    1.641064e+00   3.099215e-02
  6.222435e-01    1.689027e+00   3.137949e-02
  6.244539e-01    1.750636e+00   3.188412e-02
  6.266644e-01    1.758343e+00   3.189189e-02
  6.288748e-01    1.699570e+00   3.129336e-02
  6.310853e-01    1.689323e+00   3.113827e-02
  6.332957e-01    1.698796e+00   3.116519e-02
  6.355062e-01    1.694172e+00   3.106227e-02
  6.377167e-01    1.695043e+00   3.101066e-02
  6.399271e-01    1.685945e+00   3.086804e-02
  6.421376e-01    1.712841e+00   3.105392e-02
  6.443480e-01    1.701621e+00   3.089315e-02
  6.465585e-01    1.684942e+00   3.068314e-02
  6.487689e-01    1.709345e+00   3.084617e-02
  6.509794e-01    1.719215e+00   3.087676e-02
  6.531899e-01    1.654995e+00   3.023763e-02
  6.554003e-01    1.630410e+00   2.995574e-02
  6.576108e-01    1.681137e+00   3.036156e-02
  6.598212e-01    1.598508e+00   2.955101e-02
  6.620317e-01    1.588987e+00   2.940825e-02
  6.642421e-01    1.550771e+00   2.899871e-02
  6.664526e-01    1.589669e+00   2.930605e-02
  6.686630e-01    1.564972e+00   2.902375e-02
  6.708735e-01    1.623462e+00   2.950691e-02
  6.730840e-01    1.603424e+00   2.927082e-02
  6.752944e-01    1.553669e+00   2.876067e-02
  6.775049e-01    1.562326e+00   2.878832e-02
  6.797153e-01    1.630670e+00   2.935800e-02
  6.819258e-01    1.579289e+00   2.883968e-02
  6.841362e-01    1.603507e+00   2.900768e-02
  6.863467e-01    1.616899e+00   2.907640e-02
  6.885572e-01    1.631093e+00   2.915141e-02
  6.907676e-01    1.595962e+00   2.878412e-02
  6.929781e-01    1.573321e+00   2.852840e-02
  6.951885e-01    1.576827e+00   2.850959e-02
  6.973990e-01    1.555398e+00   2.826514e-02
  6.996094e-01    1.568374e+00   2.833286e-02
  7.018199e-01    1.595541e+00   2.852702e-02
  7.040303e-01    1.594461e+00   2.846731e-02
  7.062408e-01    1.593179e+00   2.840598e-02
  7.084513e-01    1.635234e+00   2.872842e-02
  7.106617e-01    1.579872e+00   2.818886e-02
  7.128722e-01    1.600826e+00   2.832607e-02
  7.150826e-01    1.575065e+00   2.804883e-02
  7.172931e-01    1.583207e+00   2.807272e-02
  7.195035e-01    1.619628e+00   2.834498e-02
  7.217140e-01    1.614998e+00   2.835453e-02
  7.239245e-01    1.565154e+00   2.813960e-02
  7.261349e-01    1.566989e+00   2.826442e-02
  7.283454e-01    1.574521e+00   2.840467e-02
  7.305558e-01    1.588150e+00   2.858157e-02
  7.327663e-01    1.576367e+00   2.851786e-02
  7.349767e-01    1.574177e+00   2.851442e-02
  7.371872e-01    1.551418e+00   2.829644e-02
  7.393976e-01    1.542952e+00   2.820502e-02
  7.416081e-01    1.539294e+00   2.815557e-02
  7.438186e-01    1.575886e+00   2.834387e-02
  7.460290e-01    1.565421e+00   2.795625e-02
  7.482395e-01    1.561255e+00   2.774858e-02
  7.504499e-01    1.564418e+00   2.764084e-02
  7.526604e-01    1.566710e+00   2.754482e-02
  7.548708e-01    1.562130e+00   2.741548e-02
  7.570813e-01    1.535414e+00   2.712970e-02
  7.592918e-01    1.526732e+00   2.701824e-02
  7.615022e-01    1.561590e+00   2.729128e-02
  7.637127e-01    1.549373e+00   2.715180e-02
  7.659231e-01    1.567644e+00   2.727949e-02
  7.681336e-01    1.561700e+00   2.719626e-02
  7.703440e-01    1.573525e+00   2.726781e-02
  7.725545e-01    1.606483e+00   2.752069e-02
  7.747650e-01    1.644430e+00   2.780483e-02
  7.769754e-01    1.606870e+00   2.743220e-02
  7.791859e-01    1.618777e+00   2.747945e-02
  7.813963e-01    1.630003e+00   2.752113e-02
  7.836068e-01    1.605937e+00   2.726486e-02
  7.858172e-01    1.637916e+00   2.748349e-02
  7.880277e-01    1.634553e+00   2.740305e-02
  7.902381e-01    1.638588e+00   2.738699e-02
  7.924486e-01    1.636617e+00   2.731984e-02
  7.946591e-01    1.620365e+00   2.713523e-02
  7.968695e-01    1.620252e+00   2.708575e-02
  7.990800e-01    1.656254e+00   2.733607e-02
  8.012904e-01    1.624942e+00   2.702961e-02
  8.035009e-01    1.674190e+00   2.738732e-02
  8.057113e-01    1.643920e+00   2.709169e-02
  8.079218e-01    1.662242e+00   2.719521e-02
  8.101323e-01    1.691048e+00   2.738329e-02
  8.123427e-01    1.653147e+00   2.702852e-02
  8.145532e-01    1.610204e+00   2.662952e-02
  8.167636e-01    1.624583e+00   2.670316e-02
  8.189741e-01    1.634647e+00   2.674110e-02
  8.211845e-01    1.616114e+00   2.654452e-02
  8.233950e-01    1.609778e+00   2.644935e-02
  8.256054e-01    1.629763e+00   2.656892e-02
  8.278159e-01    1.625086e+00   2.648698e-02
  8.300264e-01    1.605926e+00   2.628771e-02
  8.322368e-01    1.626884e+00   2.641570e-02
  8.344473e-01    1.635190e+00   2.643974e-02
  8.366577e-01    1.663993e+00   2.662867e-02
  8.388682e-01    1.672883e+00   2.665704e-02
  8.410786e-01    1.761614e+00   2.731121e-02
  8.432891e-01    1.971739e+00   2.884828e-02
  8.454996e-01    2.002240e+00   2.902463e-02
  8.477100e-01    1.738122e+00   2.699971e-02
  8.499205e-01    1.638432e+00   2.617278e-02
  8.521309e-01    1.614563e+00   2.594093e-02
  8.543414e-01    1.632839e+00   2.604663e-02
  8.565518e-01    1.633088e+00   2.600806e-02
  8.587623e-01    1.613074e+00   2.580797e-02
  8.609727e-01    1.620848e+00   2.582995e-02
  8.631832e-01    1.605426e+00   2.566715e-02
  8.653937e-01    1.613344e+00   2.569081e-02
  8.676041e-01    1.615167e+00   2.566657e-02
  8.698146e-01    1.581761e+00   2.536090e-02
  8.720250e-01    1.621361e+00   2.563727e-02
  8.742355e-01    1.607315e+00   2.548712e-02
  8.764459e-01    1.624637e+00   2.558500e-02
  8.786564e-01    1.614091e+00   2.546383e-02
  8.808669e-01    1.613532e+00   2.542081e-02
  8.830773e-01    1.580975e+00   2.512517e-02
  8.852878e-01    1.564136e+00   2.495352e-02
  8.874982e-01    1.587878e+00   2.510570e-02
  8.897087e-01    1.561893e+00   2.486222e-02
  8.919191e-01    1.588505e+00   2.503550e-02
  8.941296e-01    1.602003e+00   2.510435e-02
  8.963401e-01    1.630753e+00   2.529184e-02
  8.985505e-01    1.616030e+00   2.514028e-02
  9.007610e-01    1.588125e+00   2.488567e-02
  9.029714e-01    1.560651e+00   2.463407e-02
  9.051819e-01    1.544770e+00   2.447184e-02
  9.073923e-01    1.556736e+00   2.453035e-02
  9.096028e-01    1.571664e+00   2.461309e-02
  9.118132e-01    1.579871e+00   2.464128e-02
  9.140237e-01    1.575623e+00   2.457178e-02
  9.162342e-01    1.576664e+00   2.454558e-02
  9.184446e-01    1.591547e+00   2.462551e-02
  9.206551e-01    1.590810e+00   2.458430e-02
  9.228655e-01    1.619734e+00   2.477135e-02
  9.250760e-01    1.618803e+00   2.472867e-02
  9.272864e-01    1.612048e+00   2.464269e-02
  9.294969e-01    1.600360e+00   2.451738e-02
  9.317074e-01    1.618365e+00   2.462008e-02
  9.339178e-01    1.629639e+00   2.467194e-02
  9.361283e-01    1.669212e+00   2.493290e-02
  9.383387e-01    1.665594e+00   2.487199e-02
  9.405492e-01    1.655440e+00   2.476144e-02
  9.427596e-01    1.633530e+00   2.456163e-02
  9.449701e-01    1.652090e+00   2.466718e-02
  9.471805e-01    1.673549e+00   2.479171e-02
  9.493910e-01    1.693269e+00   2.490313e-02
  9.516015e-01    1.679507e+00   2.476710e-02
  9.538119e-01    1.725440e+00   2.506907e-02
  9.560224e-01    1.776241e+00   2.539963e-02
  9.582328e-01    1.903487e+00   2.625842e-02
  9.604433e-01    1.917127e+00   2.631505e-02
  9.626537e-01    1.844566e+00   2.577752e-02
  9.648642e-01    1.829029e+00   2.563358e-02
  9.670747e-01    1.784006e+00   2.528121e-02
  9.692851e-01    1.788531e+00   2.527959e-02
  9.714956e-01    1.799459e+00   2.532096e-02
  9.737060e-01    1.797874e+00   2.527655e-02
  9.759165e-01    1.823604e+00   2.542087e-02
  9.781269e-01    1.840419e+00   2.550441e-02
  9.803374e-01    1.839602e+00   2.546348e-02
  9.825478e-01    1.795500e+00   2.512323e-02
  9.847583e-01    1.768817e+00   2.490198e-02
  9.869688e-01    1.771110e+00   2.488476e-02
  9.891792e-01    1.772089e+00   2.485856e-02
  9.913897e-01    1.755659e+00   2.470965e-02
  9.936001e-01    1.745145e+00   2.460332e-02
  9.958106e-01    1.698527e+00   2.423949e-02
  9.980210e-01    1.652210e+00   2.387568e-02
  1.000231e+00    1.616271e+00   2.374395e-02
  1.002442e+00    1.606825e+00   2.380025e-02
  1.004652e+00    1.617284e+00   2.394418e-02
  1.006863e+00    1.592046e+00   2.380594e-02
  1.009073e+00    1.574865e+00   2.371335e-02
  1.011284e+00    1.570411e+00   2.371146e-02
  1.013494e+00    1.594818e+00   2.391871e-02
  1.015705e+00    1.562043e+00   2.369403e-02
  1.017915e+00    1.563512e+00   2.372150e-02
  1.020126e+00    1.541664e+00   2.357111e-02
  1.022336e+00    1.495808e+00   2.322935e-02
  1.024547e+00    1.511254e+00   2.336002e-02
  1.026757e+00    1.542920e+00   2.361187e-02
  1.028967e+00    1.542451e+00   2.361595e-02
  1.031178e+00    1.523515e+00   2.347669e-02
  1.033388e+00    1.511145e+00   2.338621e-02
  1.035599e+00    1.500384e+00   2.330618e-02
  1.037809e+00    1.510480e+00   2.338772e-02
  1.040020e+00    1.487082e+00   2.320711e-02
  1.042230e+00    1.505022e+00   2.334861e-02
  1.044441e+00    1.462610e+00   2.301705e-02
  1.046651e+00    1.465676e+00   2.304133e-02
  1.048862e+00    1.458931e+00   2.298747e-02
  1.051072e+00    1.471549e+00   2.308433e-02
  1.053282e+00    1.473415e+00   2.309803e-02
  1.055493e+00    1.454022e+00   2.294126e-02
  1.057703e+00    1.471952e+00   2.308078e-02
  1.059914e+00    1.477778e+00   2.312217e-02
  1.062124e+00    1.458447e+00   2.296644e-02
  1.064335e+00    1.491825e+00   2.322428e-02
  1.066545e+00    1.485582e+00   2.316965e-02
  1.068756e+00    1.482138e+00   2.313905e-02
  1.070966e+00    1.463138e+00   2.298374e-02
  1.073177e+00    1.469848e+00   2.303032e-02
  1.075387e+00    1.486317e+00   2.315375e-02
  1.077597e+00    1.457890e+00   2.292401e-02
  1.079808e+00    1.456097e+00   2.277757e-02
  1.082018e+00    1.403497e+00   2.217717e-02
  1.084229e+00    1.421968e+00   2.221403e-02
  1.086439e+00    1.430893e+00   2.219693e-02
  1.088650e+00    1.450127e+00   2.227007e-02
  1.090860e+00    1.423816e+00   2.200020e-02
  1.093071e+00    1.394105e+00   2.170848e-02
  1.095281e+00    1.434234e+00   2.196169e-02
  1.097492e+00    1.408723e+00   2.171129e-02
  1.099702e+00    1.422087e+00   2.176294e-02
  1.101912e+00    1.415181e+00   2.166162e-02
  1.104123e+00    1.423557e+00   2.167760e-02
  1.106333e+00    1.396205e+00   2.142451e-02
  1.108544e+00    1.399216e+00   2.140379e-02
  1.110754e+00    1.410573e+00   2.144771e-02
  1.112965e+00    1.419076e+00   2.147177e-02
  1.115175e+00    1.398816e+00   2.127707e-02
  1.117386e+00    1.421804e+00   2.141183e-02
  1.119596e+00    1.384784e+00   2.109374e-02
  1.121807e+00    1.385513e+00   2.106080e-02
  1.124017e+00    1.420732e+00   2.128996e-02
  1.126228e+00    1.442897e+00   2.141917e-02
  1.128438e+00    1.430535e+00   2.129006e-02
  1.130648e+00    1.509213e+00   2.183201e-02
  1.132859e+00    1.655484e+00   2.282814e-02
  1.135069e+00    1.548025e+00   2.203826e-02
  1.137280e+00    1.416752e+00   2.104980e-02
  1.139490e+00    1.378667e+00   2.073196e-02
  1.141701e+00    1.366845e+00   2.060998e-02
  1.143911e+00    1.382018e+00   2.069218e-02
  1.146122e+00    1.408345e+00   2.085604e-02
  1.148332e+00    1.386775e+00   2.066375e-02
  1.150543e+00    1.362467e+00   2.045118e-02
  1.152753e+00    1.383508e+00   2.057756e-02
  1.154963e+00    1.384182e+00   2.055141e-02
  1.157174e+00    1.396528e+00   2.061244e-02
  1.159384e+00    1.385387e+00   2.050007e-02
  1.161595e+00    1.408493e+00   2.064005e-02
  1.163805e+00    1.397285e+00   2.052820e-02
  1.166016e+00    1.390562e+00   2.044909e-02
  1.168226e+00    1.409817e+00   2.056077e-02
  1.170437e+00    1.432356e+00   2.069514e-02
  1.172647e+00    1.486773e+00   2.105446e-02
  1.174858e+00    1.496031e+00   2.109049e-02
  1.177068e+00    1.464508e+00   2.083784e-02
  1.179278e+00    1.398708e+00   2.033537e-02
  1.181489e+00    1.366745e+00   2.007459e-02
  1.183699e+00    1.361336e+00   2.000721e-02
  1.185910e+00    1.415837e+00   2.037541e-02
  1.188120e+00    1.433980e+00   2.047813e-02
  1.190331e+00    1.385974e+00   2.010537e-02
  1.192541e+00    1.385604e+00   2.007498e-02
  1.194752e+00    1.402508e+00   2.016952e-02
  1.196962e+00    1.402325e+00   2.014198e-02
  1.199173e+00    1.426325e+00   2.028640e-02
  1.201383e+00    1.381831e+00   1.993999e-02
  1.203593e+00    1.368550e+00   1.981894e-02
  1.205804e+00    1.365881e+00   1.977353e-02
  1.208014e+00    1.383335e+00   1.987230e-02
  1.210225e+00    1.329574e+00   1.945719e-02
  1.212435e+00    1.319632e+00   1.935979e-02
  1.214646e+00    1.337662e+00   1.946561e-02
  1.216856e+00    1.319018e+00   1.930430e-02
  1.219067e+00    1.323674e+00   1.931411e-02
  1.221277e+00    1.330653e+00   1.934011e-02
  1.223488e+00    1.330291e+00   1.931193e-02
  1.225698e+00    1.343148e+00   1.937818e-02
  1.227909e+00    1.353916e+00   1.942551e-02
  1.230119e+00    1.324083e+00   1.917875e-02
  1.232329e+00    1.333547e+00   1.921663e-02
  1.234540e+00    1.318918e+00   1.908102e-02
  1.236750e+00    1.318133e+00   1.904541e-02
  1.238961e+00    1.338489e+00   1.916506e-02
  1.241171e+00    1.337460e+00   1.913361e-02
  1.243382e+00    1.382555e+00   1.942970e-02
  1.245592e+00    1.359488e+00   1.924279e-02
  1.247803e+00    1.317628e+00   1.892084e-02
  1.250013e+00    1.337013e+00   1.903605e-02
  1.252224e+00    1.344591e+00   1.906675e-02
  1.254434e+00    1.332168e+00   1.895487e-02
  1.256644e+00    1.326720e+00   1.889306e-02
  1.258855e+00    1.372993e+00   1.919624e-02
  1.261065e+00    1.397692e+00   1.934436e-02
  1.263276e+00    1.391935e+00   1.928118e-02
  1.265486e+00    1.382676e+00   1.919381e-02
  1.267697e+00    1.355291e+00   1.897970e-02
  1.269907e+00    1.367522e+00   1.904233e-02
  1.272118e+00    1.332563e+00   1.877493e-02
  1.274328e+00    1.337427e+00   1.878652e-02
  1.276539e+00    1.342301e+00   1.879800e-02
  1.278749e+00    1.343281e+00   1.878263e-02
  1.280959e+00    1.339272e+00   1.873214e-02
  1.283170e+00    1.315169e+00   1.854068e-02
  1.285380e+00    1.310804e+00   1.848774e-02
  1.287591e+00    1.349346e+00   1.873555e-02
  1.289801e+00    1.361950e+00   1.880156e-02
  1.292012e+00    1.344292e+00   1.866221e-02
  1.294222e+00    1.341998e+00   1.863008e-02
  1.296433e+00    1.348382e+00   1.865876e-02
  1.298643e+00    1.340626e+00   1.858860e-02
  1.300854e+00    1.359340e+00   1.870141e-02
  1.303064e+00    1.357793e+00   1.867150e-02
  1.305274e+00    1.389569e+00   1.886696e-02
  1.307485e+00    1.357509e+00   1.862645e-02
  1.309695e+00    1.370420e+00   1.869238e-02
  1.311906e+00    1.382966e+00   1.875580e-02
  1.314116e+00    1.383620e+00   1.873918e-02
  1.316327e+00    1.376756e+00   1.867075e-02
  1.318537e+00    1.353825e+00   1.849268e-02
  1.320748e+00    1.347777e+00   1.842979e-02
  1.322958e+00    1.354743e+00   1.845681e-02
  1.325169e+00    1.325698e+00   1.823705e-02
  1.327379e+00    1.358418e+00   1.843885e-02
  1.329589e+00    1.339153e+00   1.828667e-02
  1.331800e+00    1.338066e+00   1.825862e-02
  1.334010e+00    1.340664e+00   1.825577e-02
  1.336221e+00    1.352295e+00   1.831301e-02
  1.338431e+00    1.349092e+00   1.827046e-02
  1.340642e+00    1.358042e+00   1.839531e-02
  1.342852e+00    1.352100e+00   1.845578e-02
  1.345063e+00    1.359758e+00   1.855763e-02
  1.347273e+00    1.351421e+00   1.853592e-02
  1.349484e+00    1.356427e+00   1.859796e-02
  1.351694e+00    1.311436e+00   1.830932e-02
  1.353905e+00    1.308180e+00   1.830426e-02
  1.356115e+00    1.324427e+00   1.843249e-02
  1.358325e+00    1.332511e+00   1.850189e-02
  1.360536e+00    1.342458e+00   1.858241e-02
  1.362746e+00    1.317869e+00   1.842091e-02
  1.364957e+00    1.319576e+00   1.844040e-02
  1.367167e+00    1.311606e+00   1.839167e-02
  1.369378e+00    1.320393e+00   1.845915e-02
  1.371588e+00    1.307515e+00   1.837398e-02
  1.373799e+00    1.313291e+00   1.841813e-02
  1.376009e+00    1.325405e+00   1.850628e-02
  1.378220e+00    1.296439e+00   1.830544e-02
  1.380430e+00    1.310423e+00   1.840656e-02
  1.382640e+00    1.304354e+00   1.836481e-02
  1.384851e+00    1.308626e+00   1.839571e-02
  1.387061e+00    1.306777e+00   1.838302e-02
  1.389272e+00    1.277835e+00   1.817852e-02
  1.391482e+00    1.283099e+00   1.821523e-02
  1.393693e+00    1.300401e+00   1.833677e-02
  1.395903e+00    1.284623e+00   1.822371e-02
  1.398114e+00    1.262313e+00   1.806339e-02
  1.400324e+00    1.250011e+00   1.797306e-02
  1.402535e+00    1.258628e+00   1.803258e-02
  1.404745e+00    1.268200e+00   1.809867e-02
  1.406955e+00    1.286708e+00   1.822754e-02
  1.409166e+00    1.268824e+00   1.809714e-02
  1.411376e+00    1.248351e+00   1.794745e-02
  1.413587e+00    1.253246e+00   1.797880e-02
  1.415797e+00    1.271350e+00   1.810466e-02
  1.418008e+00    1.275979e+00   1.809564e-02
  1.420218e+00    1.246743e+00   1.773876e-02
  1.422429e+00    1.263699e+00   1.777387e-02
  1.424639e+00    1.278300e+00   1.781137e-02
  1.426850e+00    1.278012e+00   1.775449e-02
  1.429060e+00    1.297814e+00   1.784197e-02
  1.431270e+00    1.318534e+00   1.793871e-02
  1.433481e+00    1.274994e+00   1.759901e-02
  1.435691e+00    1.286882e+00   1.764217e-02
  1.437902e+00    1.272624e+00   1.750767e-02
  1.440112e+00    1.280317e+00   1.752501e-02
  1.442323e+00    1.289478e+00   1.755431e-02
  1.444533e+00    1.284839e+00   1.748995e-02
  1.446744e+00    1.302515e+00   1.757833e-02
  1.448954e+00    1.276558e+00   1.737203e-02
  1.451165e+00    1.262673e+00   1.724761e-02
  1.453375e+00    1.280948e+00   1.734380e-02
  1.455586e+00    1.294934e+00   1.740982e-02
  1.457796e+00    1.285384e+00   1.731780e-02
  1.460006e+00    1.265629e+00   1.715702e-02
  1.462217e+00    1.261322e+00   1.710168e-02
  1.464427e+00    1.242506e+00   1.694828e-02
  1.466638e+00    1.268142e+00   1.709693e-02
  1.468848e+00    1.235885e+00   1.685310e-02
  1.471059e+00    1.234607e+00   1.681962e-02
  1.473269e+00    1.241634e+00   1.684331e-02
  1.475480e+00    1.255225e+00   1.691161e-02
  1.477690e+00    1.234759e+00   1.674965e-02
  1.479901e+00    1.229250e+00   1.668878e-02
  1.482111e+00    1.255665e+00   1.684389e-02
  1.484321e+00    1.285227e+00   1.701776e-02
  1.486532e+00    1.272523e+00   1.691105e-02
  1.488742e+00    1.296965e+00   1.704975e-02
  1.490953e+00    1.275288e+00   1.688398e-02
  1.493163e+00    1.286940e+00   1.693843e-02
  1.495374e+00    1.269921e+00   1.680455e-02
  1.497584e+00    1.239628e+00   1.658141e-02
  1.499795e+00    1.252271e+00   1.664419e-02
  1.502005e+00    1.266779e+00   1.671856e-02
  1.504216e+00    1.266808e+00   1.669768e-02
  1.506426e+00    1.231722e+00   1.644421e-02
  1.508636e+00    1.245417e+00   1.651504e-02
  1.510847e+00    1.233395e+00   1.641351e-02
  1.513057e+00    1.255345e+00   1.653383e-02
  1.515268e+00    1.268906e+00   1.659704e-02
  1.517478e+00    1.254482e+00   1.647729e-02
  1.519689e+00    1.261504e+00   1.649830e-02
  1.521899e+00    1.256416e+00   1.644187e-02
  1.524110e+00    1.252370e+00   1.639505e-02
  1.526320e+00    1.256800e+00   1.640438e-02
  1.528531e+00    1.247665e+00   1.632493e-02
  1.530741e+00    1.257145e+00   1.636762e-02
  1.532951e+00    1.236723e+00   1.621467e-02
  1.535162e+00    1.236295e+00   1.629799e-02
  1.537372e+00    1.214521e+00   1.621981e-02
  1.539583e+00    1.237465e+00   1.640637e-02
  1.541793e+00    1.258320e+00   1.655101e-02
  1.544004e+00    1.252693e+00   1.651425e-02
  1.546214e+00    1.232640e+00   1.638003e-02
  1.548425e+00    1.218578e+00   1.628658e-02
  1.550635e+00    1.224090e+00   1.633298e-02
  1.552846e+00    1.230749e+00   1.638692e-02
  1.555056e+00    1.222836e+00   1.629309e-02
  1.557266e+00    1.200939e+00   1.603801e-02
  1.559477e+00    1.225632e+00   1.614339e-02
  1.561687e+00    1.229094e+00   1.613570e-02
  1.563898e+00    1.253662e+00   1.627893e-02
  1.566108e+00    1.283688e+00   1.645653e-02
  1.568319e+00    1.263919e+00   1.631359e-02
  1.570529e+00    1.236560e+00   1.611101e-02
  1.572740e+00    1.221095e+00   1.598259e-02
  1.574950e+00    1.234315e+00   1.604265e-02
  1.577161e+00    1.249453e+00   1.611521e-02
  1.579371e+00    1.251091e+00   1.610205e-02
  1.581582e+00    1.244134e+00   1.603744e-02
  1.583792e+00    1.250066e+00   1.605757e-02
  1.586002e+00    1.231305e+00   1.591910e-02
  1.588213e+00    1.230021e+00   1.589364e-02
  1.590423e+00    1.235435e+00   1.590859e-02
  1.592634e+00    1.220468e+00   1.579051e-02
  1.594844e+00    1.234008e+00   1.585653e-02
  1.597055e+00    1.219298e+00   1.574145e-02
  1.599265e+00    1.229124e+00   1.578412e-02
  1.601476e+00    1.237464e+00   1.581730e-02
  1.603686e+00    1.230909e+00   1.575569e-02
  1.605897e+00    1.201890e+00   1.554899e-02
  1.608107e+00    1.193002e+00   1.547218e-02
  1.610317e+00    1.212627e+00   1.557980e-02
  1.612528e+00    1.200100e+00   1.548024e-02
  1.614738e+00    1.197206e+00   1.544286e-02
  1.616949e+00    1.204785e+00   1.547286e-02
  1.619159e+00    1.191953e+00   1.537176e-02
  1.621370e+00    1.182179e+00   1.529042e-02
  1.623580e+00    1.188728e+00   1.531458e-02
  1.625791e+00    1.192916e+00   1.532339e-02
  1.628001e+00    1.173468e+00   1.517993e-02
  1.630212e+00    1.175924e+00   1.517819e-02
  1.632422e+00    1.149891e+00   1.499163e-02
  1.634632e+00    1.129467e+00   1.484095e-02
  1.636843e+00    1.150927e+00   1.496393e-02
  1.639053e+00    1.164206e+00   1.503280e-02
  1.641264e+00    1.141800e+00   1.487056e-02
  1.643474e+00    1.139007e+00   1.483513e-02
  1.645685e+00    1.155837e+00   1.492769e-02
  1.647895e+00    1.151798e+00   1.488502e-02
  1.650106e+00    1.128114e+00   1.471435e-02
  1.652316e+00    1.127466e+00   1.469380e-02
  1.654527e+00    1.112163e+00   1.457729e-02
  1.656737e+00    1.113233e+00   1.456791e-02
  1.658947e+00    1.082801e+00   1.435149e-02
  1.661158e+00    1.094089e+00   1.441007e-02
  1.663368e+00    1.103761e+00   1.445773e-02
  1.665579e+00    1.097354e+00   1.439974e-02
  1.667789e+00    1.080367e+00   1.427186e-02
  1.670000e+00    1.086548e+00   1.429733e-02
  1.672210e+00    1.085811e+00   1.427675e-02
  1.674421e+00    1.080852e+00   1.422898e-02
  1.676631e+00    1.076428e+00   1.418412e-02
  1.678842e+00    1.069609e+00   1.412359e-02
  1.681052e+00    1.049167e+00   1.397288e-02
  1.683263e+00    1.072998e+00   1.411567e-02
  1.685473e+00    1.080609e+00   1.415052e-02
  1.687683e+00    1.069052e+00   1.405934e-02
  1.689894e+00    1.049311e+00   1.391338e-02
  1.692104e+00    1.059946e+00   1.396890e-02
  1.694315e+00    1.060313e+00   1.395691e-02
  1.696525e+00    1.031858e+00   1.375347e-02
  1.698736e+00    1.050231e+00   1.386065e-02
  1.700946e+00    1.022671e+00   1.366271e-02
  1.703157e+00    1.027928e+00   1.368336e-02
  1.705367e+00    1.029967e+00   1.368256e-02
  1.707578e+00    1.031523e+00   1.367847e-02
  1.709788e+00    1.029137e+00   1.364862e-02
  1.711998e+00    1.022377e+00   1.358886e-02
  1.714209e+00    1.020220e+00   1.356021e-02
  1.716419e+00    1.032483e+00   1.362721e-02
  1.718630e+00    9.932399e-01   1.335174e-02
  1.720840e+00    9.876641e-01   1.330029e-02
  1.723051e+00    1.018363e+00   1.349158e-02
  1.725261e+00    9.984784e-01   1.334473e-02
  1.727472e+00    9.851605e-01   1.324147e-02
  1.729682e+00    9.676713e-01   1.311028e-02
  1.731893e+00    9.903151e-01   1.324901e-02
  1.734103e+00    9.976480e-01   1.328426e-02
  1.736313e+00    9.956085e-01   1.325675e-02
  1.738524e+00    9.838846e-01   1.316475e-02
  1.740734e+00    9.698159e-01   1.305681e-02
  1.742945e+00    9.594837e-01   1.297384e-02
  1.745155e+00    9.696749e-01   1.302929e-02
  1.747366e+00    9.656810e-01   1.298878e-02
  1.749576e+00    9.624829e-01   1.295373e-02
  1.751787e+00    9.862428e-01   1.309927e-02
  1.753997e+00    9.812824e-01   1.305293e-02
  1.756208e+00    9.592399e-01   1.289238e-02
  1.758418e+00    9.612069e-01   1.289255e-02
  1.760628e+00    9.712312e-01   1.294624e-02
  1.762839e+00    9.571244e-01   1.283871e-02
  1.765049e+00    9.695719e-01   1.290876e-02
  1.767260e+00    9.553112e-01   1.280069e-02
  1.769470e+00    9.628856e-01   1.283830e-02
  1.771681e+00    9.495314e-01   1.273586e-02
  1.773891e+00    9.298605e-01   1.259031e-02
  1.776102e+00    9.300207e-01   1.257866e-02
  1.778312e+00    9.086887e-01   1.242107e-02
  1.780523e+00    9.095664e-01   1.241455e-02
  1.782733e+00    9.352103e-01   1.257567e-02
  1.784944e+00    9.832941e-01   1.288168e-02
  1.787154e+00    1.006343e+00   1.301880e-02
  1.789364e+00    9.918506e-01   1.291183e-02
  1.791575e+00    9.721575e-01   1.277017e-02
  1.793785e+00    9.467407e-01   1.258956e-02
  1.795996e+00    9.383755e-01   1.252119e-02
  1.798206e+00    9.148139e-01   1.235049e-02
  1.800417e+00    8.999268e-01   1.223703e-02
  1.802627e+00    9.122520e-01   1.230859e-02
  1.804838e+00    9.264685e-01   1.239195e-02
  1.807048e+00    9.379190e-01   1.245523e-02
  1.809259e+00    9.278459e-01   1.237443e-02
  1.811469e+00    9.256893e-01   1.234489e-02
  1.813679e+00    9.427818e-01   1.244303e-02
  1.815890e+00    9.471048e-01   1.245639e-02
  1.818100e+00    9.266976e-01   1.230612e-02
  1.820311e+00    9.330404e-01   1.233304e-02
  1.822521e+00    9.515372e-01   1.243935e-02
  1.824732e+00    9.361445e-01   1.232313e-02
  1.826942e+00    9.293104e-01   1.226546e-02
  1.829153e+00    9.051582e-01   1.209322e-02
  1.831363e+00    8.925450e-01   1.199654e-02
  1.833574e+00    8.870091e-01   1.194758e-02
  1.835784e+00    8.551292e-01   1.171965e-02
  1.837994e+00    8.519326e-01   1.168616e-02
  1.840205e+00    8.727382e-01   1.181684e-02
  1.842415e+00    8.809416e-01   1.186043e-02
  1.844626e+00    8.824183e-01   1.185871e-02
  1.846836e+00    8.895307e-01   1.189486e-02
  1.849047e+00    8.811672e-01   1.182709e-02
  1.851257e+00    8.719339e-01   1.175535e-02
  1.853468e+00    8.568308e-01   1.164432e-02
  1.855678e+00    9.151553e-01   1.202490e-02
  1.857889e+00    9.530662e-01   1.226255e-02
  1.860099e+00    8.817925e-01   1.178640e-02
  1.862309e+00    8.245533e-01   1.138906e-02
  1.864520e+00    8.283527e-01   1.140681e-02
  1.866730e+00    8.501656e-01   1.154667e-02
  1.868941e+00    8.471124e-01   1.151502e-02
  1.871151e+00    8.560439e-01   1.156413e-02
  1.873362e+00    8.608421e-01   1.158509e-02
  1.875572e+00    8.332219e-01   1.138689e-02
  1.877783e+00    8.284566e-01   1.134299e-02
  1.879993e+00    8.461922e-01   1.145259e-02
  1.882204e+00    8.370060e-01   1.137943e-02
  1.884414e+00    8.318133e-01   1.133307e-02
  1.886624e+00    8.394105e-01   1.137367e-02
  1.888835e+00    8.481185e-01   1.142150e-02
  1.891045e+00    8.409799e-01   1.136244e-02
  1.893256e+00    8.236026e-01   1.123345e-02
  1.895466e+00    8.353277e-01   1.130197e-02
  1.897677e+00    8.179075e-01   1.117269e-02
  1.899887e+00    8.173121e-01   1.115775e-02
  1.902098e+00    8.366022e-01   1.127778e-02
  1.904308e+00    8.223001e-01   1.117045e-02
  1.906519e+00    8.323234e-01   1.122745e-02
  1.908729e+00    8.368388e-01   1.124723e-02
  1.910940e+00    8.278055e-01   1.117521e-02
  1.913150e+00    8.119084e-01   1.105691e-02
  1.915360e+00    8.074001e-01   1.101564e-02
  1.917571e+00    8.043106e-01   1.098380e-02
  1.919781e+00    7.950835e-01   1.091011e-02
  1.921992e+00    7.946066e-01   1.089636e-02
  1.924202e+00    8.140270e-01   1.101799e-02
  1.926413e+00    8.048626e-01   1.094556e-02
  1.928623e+00    8.092418e-01   1.096480e-02
  1.930834e+00    8.160103e-01   1.100009e-02
  1.933044e+00    8.078344e-01   1.093422e-02
  1.935255e+00    8.037958e-01   1.089656e-02
  1.937465e+00    7.973120e-01   1.084219e-02
  1.939675e+00    7.984431e-01   1.083910e-02
  1.941886e+00    7.976178e-01   1.082324e-02
  1.944096e+00    7.931610e-01   1.078287e-02
  1.946307e+00    7.844733e-01   1.071341e-02
  1.948517e+00    7.920361e-01   1.075452e-02
  1.950728e+00    7.942480e-01   1.075933e-02
  1.952938e+00    7.915763e-01   1.073115e-02
  1.955149e+00    7.982993e-01   1.076641e-02
  1.957359e+00    7.896883e-01   1.069817e-02
  1.959570e+00    7.753610e-01   1.058994e-02
  1.961780e+00    7.851851e-01   1.064694e-02
  1.963990e+00    7.805113e-01   1.060518e-02
  1.966201e+00    7.730759e-01   1.054459e-02
  1.968411e+00    7.610461e-01   1.045225e-02
  1.970622e+00    7.926373e-01   1.065685e-02
  1.972832e+00    7.941641e-01   1.065711e-02
  1.975043e+00    8.245608e-01   1.084884e-02
  1.977253e+00    7.996258e-01   1.067355e-02
  1.979464e+00    7.880941e-01   1.058620e-02
  1.981674e+00    7.842949e-01   1.055040e-02
  1.983885e+00    7.889505e-01   1.057159e-02
  1.986095e+00    7.858568e-01   1.054112e-02
  1.988305e+00    7.760765e-01   1.046544e-02
  1.990516e+00    7.722393e-01   1.042966e-02
  1.992726e+00    7.682950e-01   1.039337e-02
  1.994937e+00    7.668540e-01   1.037357e-02
  1.997147e+00    7.701110e-01   1.038586e-02
  1.999358e+00    7.731462e-01   1.039649e-02
  2.001568e+00    7.625418e-01   1.031421e-02
  2.003779e+00    7.740808e-01   1.038000e-02
  2.005989e+00    7.925822e-01   1.049116e-02
  2.008200e+00    7.716650e-01   1.034025e-02
  2.010410e+00    7.647330e-01   1.028201e-02
  2.012621e+00    7.427392e-01   1.012154e-02
  2.014831e+00    7.630687e-01   1.024768e-02
  2.017041e+00    7.637002e-01   1.024158e-02
  2.019252e+00    7.534855e-01   1.016297e-02
  2.021462e+00    7.552281e-01   1.016526e-02
  2.023673e+00    7.749891e-01   1.028795e-02
  2.025883e+00    7.707493e-01   1.025020e-02
  2.028094e+00    7.619167e-01   1.018166e-02
  2.030304e+00    7.473255e-01   1.007426e-02
  2.032515e+00    7.469369e-01   1.006240e-02
  2.034725e+00    7.551795e-01   1.010837e-02
  2.036936e+00    7.483728e-01   1.005343e-02
  2.039146e+00    7.465891e-01   1.003195e-02
  2.041356e+00    7.551269e-01   1.007949e-02
  2.043567e+00    7.476543e-01   1.002025e-02
  2.045777e+00    7.641919e-01   1.012115e-02
  2.047988e+00    7.614004e-01   1.009326e-02
  2.050198e+00    7.425824e-01   9.959384e-03
  2.052409e+00    7.444910e-01   9.964532e-03
  2.054619e+00    7.593768e-01   1.005627e-02
  2.056830e+00    7.488434e-01   9.979113e-03
  2.059040e+00    7.484452e-01   9.968948e-03
  2.061251e+00    7.483025e-01   9.960772e-03
  2.063461e+00    7.445912e-01   9.928461e-03
  2.065671e+00    7.392272e-01   9.883970e-03
  2.067882e+00    7.373500e-01   9.862487e-03
  2.070092e+00    7.195405e-01   9.733625e-03
  2.072303e+00    7.182704e-01   9.716062e-03
  2.074513e+00    7.271762e-01   9.766896e-03
  2.076724e+00    7.252603e-01   9.744694e-03
  2.078934e+00    7.268323e-01   9.746344e-03
  2.081145e+00    7.329681e-01   9.778367e-03
  2.083355e+00    7.369163e-01   9.795533e-03
  2.085566e+00    7.378946e-01   9.793136e-03
  2.087776e+00    7.216526e-01   9.675391e-03
  2.089986e+00    7.014517e-01   9.530419e-03
  2.092197e+00    7.302435e-01   9.715131e-03
  2.094407e+00    7.328022e-01   9.722946e-03
  2.096618e+00    7.084901e-01   9.551558e-03
  2.098828e+00    7.279432e-01   9.672531e-03
  2.101039e+00    7.118782e-01   9.556351e-03
  2.103249e+00    7.029012e-01   9.487413e-03
  2.105460e+00    7.090865e-01   9.520176e-03
  2.107670e+00    7.277151e-01   9.635670e-03
  2.109881e+00    7.154704e-01   9.545210e-03
  2.112091e+00    7.075099e-01   9.483060e-03
  2.114301e+00    6.970931e-01   9.404398e-03
  2.116512e+00    6.941378e-01   9.375802e-03
  2.118722e+00    7.110040e-01   9.480269e-03
  2.120933e+00    7.133757e-01   9.487264e-03
  2.123143e+00    6.983709e-01   9.378171e-03
  2.125354e+00    7.161018e-01   9.487952e-03
  2.127564e+00    7.255732e-01   9.541710e-03
  2.129775e+00    7.174580e-01   9.479467e-03
  2.131985e+00    7.081375e-01   9.408676e-03
  2.134196e+00    7.116541e-01   9.423411e-03
  2.136406e+00    7.225018e-01   9.486169e-03
  2.138617e+00    7.192728e-01   9.456441e-03
  2.140827e+00    6.960639e-01   9.318548e-03
  2.143037e+00    6.852214e-01   9.290426e-03
  2.145248e+00    7.113659e-01   9.488100e-03
  2.147458e+00    7.192403e-01   9.555773e-03
  2.149669e+00    7.002852e-01   9.440853e-03
  2.151879e+00    7.112768e-01   9.523911e-03
  2.154090e+00    6.950073e-01   9.421677e-03
  2.156300e+00    6.903140e-01   9.396338e-03
  2.158511e+00    6.964245e-01   9.443136e-03
  2.160721e+00    6.793780e-01   9.331601e-03
  2.162932e+00    6.754756e-01   9.308449e-03
  2.165142e+00    6.813280e-01   9.351638e-03
  2.167352e+00    6.852723e-01   9.381602e-03
  2.169563e+00    6.878340e-01   9.401036e-03
  2.171773e+00    7.060863e-01   9.527418e-03
  2.173984e+00    6.961595e-01   9.461652e-03
  2.176194e+00    6.741198e-01   9.311846e-03
  2.178405e+00    6.827300e-01   9.371804e-03
  2.180615e+00    6.826197e-01   9.371744e-03
  2.182826e+00    6.677602e-01   9.269834e-03
  2.185036e+00    6.723388e-01   9.301608e-03
  2.187247e+00    6.967658e-01   9.469007e-03
  2.189457e+00    7.031243e-01   9.511728e-03
  2.191667e+00    6.821820e-01   9.368830e-03
  2.193878e+00    6.812504e-01   9.361861e-03
  2.196088e+00    6.803918e-01   9.355265e-03
  2.198299e+00    7.033523e-01   9.510717e-03
  2.200509e+00    6.713837e-01   9.291032e-03
  2.202720e+00    6.712790e-01   9.289144e-03
  2.204930e+00    6.705400e-01   9.282795e-03
  2.207141e+00    6.839551e-01   9.374091e-03
  2.209351e+00    6.730421e-01   9.297122e-03
  2.211562e+00    6.815947e-01   9.354379e-03
  2.213772e+00    6.716849e-01   9.230872e-03
  2.215982e+00    6.620608e-01   9.120736e-03
  2.218193e+00    6.675926e-01   9.129305e-03
  2.220403e+00    6.729505e-01   9.141317e-03
  2.222614e+00    6.825857e-01   9.185438e-03
  2.224824e+00    6.745348e-01   9.111715e-03
  2.227035e+00    6.734774e-01   9.087120e-03
  2.229245e+00    6.555167e-01   8.948371e-03
  2.231456e+00    6.810704e-01   9.105365e-03
  2.233666e+00    6.875049e-01   9.133019e-03
  2.235877e+00    6.732564e-01   9.023597e-03
  2.238087e+00    6.715277e-01   8.998493e-03
  2.240298e+00    6.687402e-01   8.966037e-03
  2.242508e+00    6.695691e-01   8.956458e-03
  2.244718e+00    6.752617e-01   8.978559e-03
  2.246929e+00    6.538374e-01   8.820742e-03
  2.249139e+00    6.468368e-01   8.761162e-03
  2.251350e+00    6.571351e-01   8.819047e-03
  2.253560e+00    6.535397e-01   8.783403e-03
  2.255771e+00    6.547210e-01   8.780045e-03
  2.257981e+00    6.628132e-01   8.822961e-03
  2.260192e+00    6.662709e-01   8.834831e-03
  2.262402e+00    6.574299e-01   8.765231e-03
  2.264613e+00    6.588057e-01   8.763590e-03
  2.266823e+00    6.541008e-01   8.721918e-03
  2.269033e+00    6.781522e-01   8.870308e-03
  2.271244e+00    6.807849e-01   8.877004e-03
  2.273454e+00    6.421499e-01   8.611335e-03
  2.275665e+00    6.463625e-01   8.629330e-03
  2.277875e+00    6.604431e-01   8.712907e-03
  2.280086e+00    6.512551e-01   8.642106e-03
  2.282296e+00    6.458979e-01   8.597179e-03
  2.284507e+00    6.590624e-01   8.674219e-03
  2.286717e+00    6.524322e-01   8.621047e-03
  2.288928e+00    6.615666e-01   8.671289e-03
  2.291138e+00    6.448206e-01   8.551513e-03
  2.293348e+00    6.373653e-01   8.492512e-03
  2.295559e+00    6.528193e-01   8.585569e-03
  2.297769e+00    6.329947e-01   8.445107e-03
  2.299980e+00    6.473250e-01   8.530864e-03
  2.302190e+00    6.464567e-01   8.516072e-03
  2.304401e+00    6.556804e-01   8.567260e-03
  2.306611e+00    6.569583e-01   8.566377e-03
  2.308822e+00    6.383134e-01   8.435646e-03
  2.311032e+00    6.420778e-01   8.454064e-03
  2.313243e+00    6.476881e-01   8.484661e-03
  2.315453e+00    6.402355e-01   8.428185e-03
  2.317663e+00    6.373296e-01   8.399982e-03
  2.319874e+00    6.486320e-01   8.465386e-03
  2.322084e+00    6.458254e-01   8.438092e-03
  2.324295e+00    6.581228e-01   8.509741e-03
  2.326505e+00    6.420991e-01   8.396494e-03
  2.328716e+00    6.400486e-01   8.374517e-03
  2.330926e+00    6.485013e-01   8.420818e-03
  2.333137e+00    6.424863e-01   8.373295e-03
  2.335347e+00    6.301578e-01   8.283784e-03
  2.337558e+00    6.300778e-01   8.275084e-03
  2.339768e+00    6.322123e-01   8.280572e-03
  2.341979e+00    6.487195e-01   8.379530e-03
  2.344189e+00    6.504785e-01   8.382427e-03
  2.346399e+00    6.253667e-01   8.210615e-03
  2.348610e+00    6.188019e-01   8.159052e-03
  2.350820e+00    6.236330e-01   8.182712e-03
  2.353031e+00    6.436154e-01   8.304447e-03
  2.355241e+00    6.293915e-01   8.204143e-03
  2.357452e+00    6.262299e-01   8.175133e-03
  2.359662e+00    6.124322e-01   8.076460e-03
  2.361873e+00    6.179836e-01   8.104837e-03
  2.364083e+00    6.167037e-01   8.088529e-03
  2.366294e+00    6.252126e-01   8.136049e-03
  2.368504e+00    6.316954e-01   8.170010e-03
  2.370714e+00    6.231422e-01   8.106478e-03
  2.372925e+00    6.268138e-01   8.122255e-03
  2.375135e+00    6.300436e-01   8.135055e-03
  2.377346e+00    6.279719e-01   8.113715e-03
  2.379556e+00    6.220237e-01   8.067293e-03
  2.381767e+00    6.056399e-01   7.952578e-03
  2.383977e+00    6.214582e-01   8.047811e-03
  2.386188e+00    6.257765e-01   8.067793e-03
  2.388398e+00    6.157328e-01   7.994829e-03
  2.390609e+00    6.180926e-01   8.002415e-03
  2.392819e+00    6.160151e-01   7.981178e-03
  2.395029e+00    6.132272e-01   7.955452e-03
  2.397240e+00    6.113997e-01   7.935733e-03
  2.399450e+00    6.133688e-01   7.940711e-03
  2.401661e+00    6.139196e-01   7.936571e-03
  2.403871e+00    6.136592e-01   7.927124e-03
  2.406082e+00    5.967236e-01   7.809617e-03
  2.408292e+00    6.014581e-01   7.832790e-03
  2.410503e+00    5.886323e-01   7.741477e-03
  2.412713e+00    5.890476e-01   7.736502e-03
  2.414924e+00    5.918744e-01   7.747658e-03
  2.417134e+00    5.921012e-01   7.741592e-03
  2.419344e+00    5.868003e-01   7.699539e-03
  2.421555e+00    6.035311e-01   7.801014e-03
  2.423765e+00    6.019906e-01   7.783651e-03
  2.425976e+00    5.973325e-01   7.745682e-03
  2.428186e+00    5.838272e-01   7.650495e-03
  2.430397e+00    6.002835e-01   7.750054e-03
  2.432607e+00    6.028121e-01   7.759055e-03
  2.434818e+00    5.744476e-01   7.566905e-03
  2.437028e+00    5.946310e-01   7.691517e-03
  2.439239e+00    5.869059e-01   7.633800e-03
  2.441449e+00    5.812514e-01   7.589810e-03
  2.443659e+00    5.727952e-01   7.527143e-03
  2.445870e+00    5.771945e-01   7.568126e-03
  2.448080e+00    5.759717e-01   7.594693e-03
  2.450291e+00    5.646690e-01   7.536244e-03
  2.452501e+00    5.616099e-01   7.526812e-03
  2.454712e+00    5.619717e-01   7.537575e-03
  2.456922e+00    5.761867e-01   7.638966e-03
  2.459133e+00    5.649399e-01   7.569474e-03
  2.461343e+00    5.444154e-01   7.434963e-03
  2.463554e+00    5.613552e-01   7.553198e-03
  2.465764e+00    5.637712e-01   7.572589e-03
  2.467975e+00    5.642880e-01   7.578339e-03
  2.470185e+00    5.464358e-01   7.459744e-03
  2.472395e+00    5.537421e-01   7.510658e-03
  2.474606e+00    5.393688e-01   7.414095e-03
  2.476816e+00    5.263112e-01   7.324520e-03
  2.479027e+00    5.191281e-01   7.275170e-03
  2.481237e+00    5.247782e-01   7.314939e-03
  2.483448e+00    5.303411e-01   7.353902e-03
  2.485658e+00    5.349070e-01   7.385337e-03
  2.487869e+00    5.397791e-01   7.418946e-03
  2.490079e+00    5.408000e-01   7.425435e-03
  2.492290e+00    5.372496e-01   7.400599e-03
  2.494500e+00    5.370392e-01   7.398395e-03
  2.496710e+00    5.432404e-01   7.440313e-03
  2.498921e+00    5.402543e-01   7.418824e-03
  2.501131e+00    5.271620e-01   7.327453e-03
  2.503342e+00    5.093409e-01   7.201286e-03
  2.505552e+00    5.201991e-01   7.276528e-03
  2.507763e+00    5.232227e-01   7.296211e-03
  2.509973e+00    5.332175e-01   7.364203e-03
  2.512184e+00    5.142266e-01   7.230263e-03
  2.514394e+00    5.197701e-01   7.259838e-03
  2.516605e+00    5.231382e-01   7.236403e-03
  2.518815e+00    5.167615e-01   7.164109e-03
  2.521025e+00    5.203231e-01   7.167862e-03
  2.523236e+00    5.332213e-01   7.238066e-03
  2.525446e+00    5.366112e-01   7.245266e-03
  2.527657e+00    5.281484e-01   7.173261e-03
  2.529867e+00    5.330049e-01   7.191889e-03
  2.532078e+00    5.234444e-01   7.112076e-03
  2.534288e+00    5.280560e-01   7.129401e-03
  2.536499e+00    5.293733e-01   7.126310e-03
  2.538709e+00    5.275429e-01   7.102933e-03
  2.540920e+00    5.343387e-01   7.137802e-03
  2.543130e+00    5.193860e-01   7.026904e-03
  2.545340e+00    5.213979e-01   7.030455e-03
  2.547551e+00    5.190144e-01   7.004459e-03
  2.549761e+00    5.124757e-01   6.950721e-03
  2.551972e+00    5.092220e-01   6.919360e-03
  2.554182e+00    5.163746e-01   6.958661e-03
  2.556393e+00    5.237218e-01   6.998868e-03
  2.558603e+00    5.137168e-01   6.922707e-03
  2.560814e+00    4.936822e-01   6.777865e-03
  2.563024e+00    5.082145e-01   6.868410e-03
  2.565235e+00    5.104975e-01   6.874405e-03
  2.567445e+00    5.050747e-01   6.828371e-03
  2.569656e+00    5.073578e-01   6.834135e-03
  2.571866e+00    5.102221e-01   6.844108e-03
  2.574076e+00    5.277877e-01   6.951560e-03
  2.576287e+00    5.246720e-01   6.922624e-03
  2.578497e+00    5.161583e-01   6.858376e-03
  2.580708e+00    5.184147e-01   6.865255e-03
  2.582918e+00    5.155838e-01   6.838702e-03
  2.585129e+00    5.132073e-01   6.815193e-03
  2.587339e+00    5.054740e-01   6.756030e-03
  2.589550e+00    5.107120e-01   6.783409e-03
  2.591760e+00    5.223221e-01   6.852263e-03
  2.593971e+00    5.080385e-01   6.750423e-03
  2.596181e+00    5.081602e-01   6.745037e-03
  2.598391e+00    5.048615e-01   6.717936e-03
  2.600602e+00    5.105389e-01   6.749701e-03
  2.602812e+00    5.110303e-01   6.745384e-03
  2.605023e+00    5.233027e-01   6.818627e-03
  2.607233e+00    5.250898e-01   6.823028e-03
  2.609444e+00    4.952988e-01   6.619490e-03
  2.611654e+00    4.970424e-01   6.623881e-03
  2.613865e+00    5.088562e-01   6.695071e-03
  2.616075e+00    5.134064e-01   6.717770e-03
  2.618286e+00    5.013661e-01   6.631556e-03
  2.620496e+00    5.054848e-01   6.652041e-03
  2.622706e+00    5.118979e-01   6.688310e-03
  2.624917e+00    5.040255e-01   6.630855e-03
  2.627127e+00    4.901730e-01   6.533438e-03
  2.629338e+00    4.967131e-01   6.570919e-03
  2.631548e+00    5.081823e-01   6.640164e-03
  2.633759e+00    5.099310e-01   6.644390e-03
  2.635969e+00    4.928596e-01   6.525586e-03
  2.638180e+00    4.940815e-01   6.526741e-03
  2.640390e+00    4.977161e-01   6.544114e-03
  2.642601e+00    4.958966e-01   6.525521e-03
  2.644811e+00    4.893134e-01   6.475055e-03
  2.647021e+00    5.028061e-01   6.557136e-03
  2.649232e+00    5.093057e-01   6.592611e-03
  2.651442e+00    4.891772e-01   6.454582e-03
  2.653653e+00    4.886900e-01   6.444640e-03
  2.655863e+00    4.913055e-01   6.455224e-03
  2.658074e+00    4.970738e-01   6.486420e-03
  2.660284e+00    4.972616e-01   6.481262e-03
  2.662495e+00    5.059074e-01   6.530574e-03
  2.664705e+00    4.904536e-01   6.423532e-03
  2.666916e+00    4.991803e-01   6.473931e-03
  2.669126e+00    5.041866e-01   6.499805e-03
  2.671337e+00    5.002330e-01   6.467670e-03
  2.673547e+00    4.910951e-01   6.401963e-03
  2.675757e+00    5.028130e-01   6.471394e-03
  2.677968e+00    5.114581e-01   6.520146e-03
  2.680178e+00    5.032828e-01   6.461376e-03
  2.682389e+00    4.933275e-01   6.390753e-03
  2.684599e+00    4.880545e-01   6.350344e-03
  2.686810e+00    4.889934e-01   6.349872e-03
  2.689020e+00    4.907932e-01   6.355254e-03
  2.691231e+00    4.878258e-01   6.329747e-03
  2.693441e+00    4.882701e-01   6.326491e-03
  2.695652e+00    4.853486e-01   6.301067e-03
  2.697862e+00    4.912684e-01   6.333018e-03
  2.700072e+00    4.763060e-01   6.229840e-03
  2.702283e+00    4.760496e-01   6.222019e-03
  2.704493e+00    4.774575e-01   6.225013e-03
  2.706704e+00    4.733243e-01   6.191699e-03
  2.708914e+00    4.711952e-01   6.171883e-03
  2.711125e+00    4.824217e-01   6.238775e-03
  2.713335e+00    4.910963e-01   6.288500e-03
  2.715546e+00    4.903445e-01   6.277198e-03
  2.717756e+00    4.892253e-01   6.264133e-03
  2.719967e+00    4.977722e-01   6.312327e-03
  2.722177e+00    4.972028e-01   6.302510e-03
  2.724387e+00    4.913444e-01   6.259147e-03
  2.726598e+00    4.684804e-01   6.105819e-03
  2.728808e+00    4.872491e-01   6.220760e-03
  2.731019e+00    4.736519e-01   6.127312e-03
  2.733229e+00    4.720091e-01   6.110921e-03
  2.735440e+00    4.676412e-01   6.076442e-03
  2.737650e+00    4.747007e-01   6.116154e-03
  2.739861e+00    4.847732e-01   6.174627e-03
  2.742071e+00    4.763363e-01   6.114975e-03
  2.744282e+00    4.636030e-01   6.026549e-03
  2.746492e+00    4.709938e-01   6.068430e-03
  2.748702e+00    4.719122e-01   6.068515e-03
  2.750913e+00    4.735520e-01   6.073298e-03
  2.753123e+00    4.787537e-01   6.100458e-03
  2.755334e+00    4.814414e-01   6.111495e-03
  2.757544e+00    4.744192e-01   6.061039e-03
  2.759755e+00    4.883564e-01   6.143502e-03
  2.761965e+00    4.718682e-01   6.032982e-03
  2.764176e+00    4.736837e-01   6.038609e-03
  2.766386e+00    4.781149e-01   6.061019e-03
  2.768597e+00    4.664954e-01   5.981148e-03
  2.770807e+00    4.683622e-01   5.987265e-03
  2.773017e+00    4.636951e-01   5.951505e-03
  2.775228e+00    4.601868e-01   5.923268e-03
  2.777438e+00    4.705267e-01   5.983674e-03
  2.779649e+00    4.836626e-01   6.060722e-03
  2.781859e+00    4.696541e-01   5.966583e-03
  2.784070e+00    4.637203e-01   5.922996e-03
  2.786280e+00    4.681344e-01   5.945391e-03
  2.788491e+00    4.816036e-01   6.024465e-03
  2.790701e+00    4.684889e-01   5.936286e-03
  2.792912e+00    4.749665e-01   5.971199e-03
  2.795122e+00    4.769276e-01   5.977796e-03
  2.797333e+00    4.659640e-01   5.903178e-03
  2.799543e+00    4.738591e-01   5.947130e-03
  2.801753e+00    4.708180e-01   5.922193e-03
  2.803964e+00    4.751352e-01   5.943600e-03
  2.806174e+00    4.818423e-01   5.979226e-03
  2.808385e+00    4.916335e-01   6.032756e-03
  2.810595e+00    4.844378e-01   5.981521e-03
  2.812806e+00    4.723105e-01   5.899565e-03
  2.815016e+00    4.651673e-01   5.850099e-03
  2.817227e+00    4.717368e-01   5.917112e-03
  2.819437e+00    4.714713e-01   5.926510e-03
  2.821648e+00    4.674079e-01   5.903184e-03
  2.823858e+00    4.804765e-01   5.990524e-03
  2.826068e+00    4.780612e-01   5.980459e-03
  2.828279e+00    4.630691e-01   5.889933e-03
  2.830489e+00    4.625666e-01   5.890038e-03
  2.832700e+00    4.504704e-01   5.815016e-03
  2.834910e+00    4.698647e-01   5.940921e-03
  2.837121e+00    4.782363e-01   5.995353e-03
  2.839331e+00    4.773448e-01   5.990983e-03
  2.841542e+00    4.847828e-01   6.038533e-03
  2.843752e+00    4.719471e-01   5.958830e-03
  2.845963e+00    4.664592e-01   5.924479e-03
  2.848173e+00    4.673999e-01   5.930534e-03
  2.850383e+00    4.696153e-01   5.944869e-03
  2.852594e+00    4.806812e-01   6.014418e-03
  2.854804e+00    4.741590e-01   5.972976e-03
  2.857015e+00    4.733945e-01   5.967712e-03
  2.859225e+00    4.709018e-01   5.951745e-03
  2.861436e+00    4.512401e-01   5.825517e-03
  2.863646e+00    4.565541e-01   5.859753e-03
  2.865857e+00    4.700185e-01   5.945859e-03
  2.868067e+00    4.664331e-01   5.923381e-03
  2.870278e+00    4.628823e-01   5.900438e-03
  2.872488e+00    4.499770e-01   5.816454e-03
  2.874698e+00    4.634826e-01   5.902039e-03
  2.876909e+00    4.752594e-01   5.975220e-03
  2.879119e+00    4.765908e-01   5.981932e-03
  2.881330e+00    4.688411e-01   5.931640e-03
  2.883540e+00    4.494447e-01   5.806261e-03
  2.885751e+00    4.592252e-01   5.867448e-03
  2.887961e+00    4.736303e-01   5.956854e-03
  2.890172e+00    4.735427e-01   5.954694e-03
  2.892382e+00    4.693447e-01   5.926414e-03
  2.894593e+00    4.537160e-01   5.825114e-03
  2.896803e+00    4.525801e-01   5.815831e-03
  2.899014e+00    4.627942e-01   5.879200e-03
  2.901224e+00    4.481553e-01   5.783503e-03
  2.903434e+00    4.555689e-01   5.829192e-03
  2.905645e+00    4.553147e-01   5.825352e-03
  2.907855e+00    4.629433e-01   5.871848e-03
  2.910066e+00    4.612539e-01   5.859041e-03
  2.912276e+00    4.522971e-01   5.799780e-03
  2.914487e+00    4.573503e-01   5.829614e-03
  2.916697e+00    4.612007e-01   5.851893e-03
  2.918908e+00    4.477722e-01   5.764095e-03
  2.921118e+00    4.417177e-01   5.722319e-03
  2.923329e+00    4.562403e-01   5.813326e-03
  2.925539e+00    4.628457e-01   5.852971e-03
  2.927749e+00    4.468029e-01   5.748349e-03
  2.929960e+00    4.530691e-01   5.785756e-03
  2.932170e+00    4.504903e-01   5.766960e-03
  2.934381e+00    4.340047e-01   5.658084e-03
  2.936591e+00    4.385212e-01   5.684894e-03
  2.938802e+00    4.613688e-01   5.828393e-03
  2.941012e+00    4.525826e-01   5.770318e-03
  2.943223e+00    4.523431e-01   5.766090e-03
  2.945433e+00    4.502549e-01   5.749052e-03
  2.947644e+00    4.588990e-01   5.799835e-03
  2.949854e+00    4.579362e-01   5.789458e-03
  2.952064e+00    4.584446e-01   5.788438e-03
  2.954275e+00    4.554549e-01   5.765121e-03
  2.956485e+00    4.548339e-01   5.756994e-03
  2.958696e+00    4.550811e-01   5.754204e-03
  2.960906e+00    4.491700e-01   5.712527e-03
  2.963117e+00    4.515758e-01   5.723356e-03
  2.965327e+00    4.665779e-01   5.813683e-03
  2.967538e+00    4.575079e-01   5.753985e-03
  2.969748e+00    4.527968e-01   5.721472e-03
  2.971959e+00    4.546784e-01   5.730206e-03
  2.974169e+00    4.519102e-01   5.710158e-03
  2.976379e+00    4.590005e-01   5.751849e-03
  2.978590e+00    4.579565e-01   5.742153e-03
  2.980800e+00    4.573653e-01   5.735638e-03
  2.983011e+00    4.589464e-01   5.742727e-03
  2.985221e+00    4.457772e-01   5.656629e-03
  2.987432e+00    4.391986e-01   5.611660e-03
  2.989642e+00    4.454125e-01   5.648609e-03
  2.991853e+00    4.504021e-01   5.676913e-03
  2.994063e+00    4.475634e-01   5.656089e-03
  2.996274e+00    4.451911e-01   5.637936e-03
  2.998484e+00    4.615519e-01   5.737872e-03
  3.000694e+00    4.496209e-01   5.659800e-03
  3.002905e+00    4.417466e-01   5.607097e-03
  3.005115e+00    4.591874e-01   5.713732e-03
  3.007326e+00    4.603044e-01   5.717490e-03
  3.009536e+00    4.504476e-01   5.652715e-03
  3.011747e+00    4.473362e-01   5.630249e-03
  3.013957e+00    4.493766e-01   5.639907e-03
  3.016168e+00    4.491651e-01   5.635343e-03
  3.018378e+00    4.607543e-01   5.704498e-03
  3.020589e+00    4.624213e-01   5.711576e-03
  3.022799e+00    4.538621e-01   5.655291e-03
  3.025010e+00    4.512822e-01   5.635988e-03
  3.027220e+00    4.442807e-01   5.588981e-03
  3.029430e+00    4.620171e-01   5.696177e-03
  3.031641e+00    4.548749e-01   5.648841e-03
  3.033851e+00    4.541416e-01   5.640753e-03
  3.036062e+00    4.528234e-01   5.629788e-03
  3.038272e+00    4.488893e-01   5.601696e-03
  3.040483e+00    4.635440e-01   5.689142e-03
  3.042693e+00    4.469216e-01   5.582965e-03
  3.044904e+00    4.627255e-01   5.676732e-03
  3.047114e+00    4.533894e-01   5.614372e-03
  3.049325e+00    4.561730e-01   5.627131e-03
  3.051535e+00    4.651443e-01   5.677749e-03
  3.053745e+00    4.557074e-01   5.615084e-03
  3.055956e+00    4.525019e-01   5.590723e-03
  3.058166e+00    4.474839e-01   5.555379e-03
  3.060377e+00    4.414015e-01   5.512776e-03
  3.062587e+00    4.614004e-01   5.631579e-03
  3.064798e+00    4.486708e-01   5.549125e-03
  3.067008e+00    4.535613e-01   5.574513e-03
  3.069219e+00    4.539712e-01   5.572514e-03
  3.071429e+00    4.552714e-01   5.576953e-03
  3.073640e+00    4.441523e-01   5.505106e-03
  3.075850e+00    4.433232e-01   5.496420e-03
  3.078060e+00    4.479822e-01   5.522120e-03
  3.080271e+00    4.386745e-01   5.461019e-03
  3.082481e+00    4.536653e-01   5.550068e-03
  3.084692e+00    4.473340e-01   5.507838e-03
  3.086902e+00    4.522958e-01   5.535040e-03
  3.089113e+00    4.652471e-01   5.610080e-03
  3.091323e+00    4.610721e-01   5.581447e-03
  3.093534e+00    4.533486e-01   5.531101e-03
  3.095744e+00    4.570128e-01   5.549994e-03
  3.097955e+00    4.613023e-01   5.572369e-03
  3.100165e+00    4.494250e-01   5.496852e-03
  3.102375e+00    4.489186e-01   5.490309e-03
  3.104586e+00    4.401183e-01   5.432757e-03
  3.106796e+00    4.381248e-01   5.416964e-03
  3.109007e+00    4.530871e-01   5.505427e-03
  3.111217e+00    4.401917e-01   5.422863e-03
  3.113428e+00    4.540100e-01   5.503864e-03
  3.115638e+00    4.339107e-01   5.377482e-03
  3.117849e+00    4.299726e-01   5.349340e-03
  3.120059e+00    4.413475e-01   5.416207e-03
  3.122270e+00    4.396810e-01   5.402713e-03
  3.124480e+00    4.374488e-01   5.385347e-03
  3.126691e+00    4.448128e-01   5.426907e-03
  3.128901e+00    4.383076e-01   5.383984e-03
  3.131111e+00    4.583382e-01   5.501718e-03
  3.133322e+00    4.534738e-01   5.468988e-03
  3.135532e+00    4.524667e-01   5.459469e-03
  3.137743e+00    4.381378e-01   5.368878e-03
  3.139953e+00    4.303687e-01   5.317439e-03
  3.142164e+00    4.353251e-01   5.359862e-03
  3.144374e+00    4.366143e-01   5.396020e-03
  3.146585e+00    4.485942e-01   5.484211e-03
  3.148795e+00    4.461402e-01   5.480023e-03
  3.151006e+00    4.266218e-01   5.367211e-03
  3.153216e+00    4.264237e-01   5.372955e-03
  3.155426e+00    4.476374e-01   5.511341e-03
  3.157637e+00    4.299948e-01   5.407110e-03
  3.159847e+00    4.337008e-01   5.435186e-03
  3.162058e+00    4.384018e-01   5.468990e-03
  3.164268e+00    4.316086e-01   5.430484e-03
  3.166479e+00    4.247071e-01   5.390466e-03
  3.168689e+00    4.392067e-01   5.485077e-03
  3.170900e+00    4.542409e-01   5.581399e-03
  3.173110e+00    4.303808e-01   5.435679e-03
  3.175321e+00    4.362696e-01   5.475226e-03
  3.177531e+00    4.373169e-01   5.484527e-03
  3.179741e+00    4.300583e-01   5.440885e-03
  3.181952e+00    4.283457e-01   5.432115e-03
  3.184162e+00    4.302065e-01   5.446083e-03
  3.186373e+00    4.402103e-01   5.510632e-03
  3.188583e+00    4.419048e-01   5.523033e-03
  3.190794e+00    4.402790e-01   5.514635e-03
  3.193004e+00    4.296528e-01   5.448907e-03
  3.195215e+00    4.184118e-01   5.378630e-03
  3.197425e+00    4.233548e-01   5.411492e-03
  3.199636e+00    4.430693e-01   5.535281e-03
  3.201846e+00    4.385660e-01   5.506493e-03
  3.204056e+00    4.193518e-01   5.385382e-03
  3.206267e+00    4.229424e-01   5.409210e-03
  3.208477e+00    4.368460e-01   5.498335e-03
  3.210688e+00    4.323554e-01   5.470854e-03
  3.212898e+00    4.227136e-01   5.410076e-03
  3.215109e+00    4.229658e-01   5.412440e-03
  3.217319e+00    4.233637e-01   5.415600e-03
  3.219530e+00    4.167732e-01   5.373691e-03
  3.221740e+00    4.055321e-01   5.301236e-03
  3.223951e+00    4.285806e-01   5.450296e-03
  3.226161e+00    4.181699e-01   5.383865e-03
  3.228372e+00    4.216619e-01   5.406831e-03
  3.230582e+00    4.247686e-01   5.426848e-03
  3.232792e+00    4.332296e-01   5.480850e-03
  3.235003e+00    4.363246e-01   5.500648e-03
  3.237213e+00    4.336751e-01   5.484034e-03
  3.239424e+00    4.316216e-01   5.471020e-03
  3.241634e+00    4.238635e-01   5.421769e-03
  3.243845e+00    4.211224e-01   5.404255e-03
  3.246055e+00    4.291954e-01   5.455551e-03
  3.248266e+00    4.165096e-01   5.374518e-03
  3.250476e+00    4.139301e-01   5.357563e-03
  3.252687e+00    4.094976e-01   5.328706e-03
  3.254897e+00    4.262460e-01   5.436462e-03
  3.257107e+00    4.320177e-01   5.472844e-03
  3.259318e+00    4.277675e-01   5.445614e-03
  3.261528e+00    4.206441e-01   5.399959e-03
  3.263739e+00    3.967759e-01   5.243974e-03
  3.265949e+00    3.991952e-01   5.259801e-03
  3.268160e+00    4.115085e-01   5.339903e-03
  3.270370e+00    4.277251e-01   5.443593e-03
  3.272581e+00    4.260871e-01   5.432877e-03
  3.274791e+00    4.146190e-01   5.358778e-03
  3.277002e+00    4.149358e-01   5.360233e-03
  3.279212e+00    4.197769e-01   5.391032e-03
  3.281422e+00    4.379113e-01   5.505672e-03
  3.283633e+00    4.361560e-01   5.493939e-03
  3.285843e+00    4.372227e-01   5.500319e-03
  3.288054e+00    4.197415e-01   5.388294e-03
  3.290264e+00    4.187334e-01   5.381521e-03
  3.292475e+00    4.193292e-01   5.384505e-03
  3.294685e+00    4.069010e-01   5.303494e-03
  3.296896e+00    4.243960e-01   5.415543e-03
  3.299106e+00    4.284789e-01   5.440987e-03
  3.301317e+00    4.293008e-01   5.445156e-03
  3.303527e+00    4.160426e-01   5.359963e-03
  3.305737e+00    4.222645e-01   5.398831e-03
  3.307948e+00    4.271149e-01   5.429097e-03
  3.310158e+00    4.213509e-01   5.391483e-03
  3.312369e+00    4.317755e-01   5.456873e-03
  3.314579e+00    4.170175e-01   5.361915e-03
  3.316790e+00    4.254894e-01   5.415374e-03
  3.319000e+00    4.321150e-01   5.456197e-03
  3.321211e+00    4.151158e-01   5.347189e-03
  3.323421e+00    4.190738e-01   5.371429e-03
  3.325632e+00    4.258277e-01   5.413631e-03
  3.327842e+00    4.209926e-01   5.381915e-03
  3.330052e+00    4.125867e-01   5.326840e-03
  3.332263e+00    4.139283e-01   5.334505e-03
  3.334473e+00    4.182075e-01   5.361070e-03
  3.336684e+00    4.325574e-01   5.451010e-03
  3.338894e+00    4.238341e-01   5.394915e-03
  3.341105e+00    4.307737e-01   5.437683e-03
  3.343315e+00    4.300498e-01   5.431957e-03
  3.345526e+00    4.286481e-01   5.422200e-03
  3.347736e+00    4.220393e-01   5.378816e-03
  3.349947e+00    4.190836e-01   5.359030e-03
  3.352157e+00    4.190917e-01   5.357883e-03
  3.354368e+00    4.313339e-01   5.434270e-03
  3.356578e+00    4.313272e-01   5.433225e-03
  3.358788e+00    3.997135e-01   5.229021e-03
  3.360999e+00    4.150451e-01   5.327079e-03
  3.363209e+00    4.292269e-01   5.416322e-03
  3.365420e+00    4.177230e-01   5.341730e-03
  3.367630e+00    4.242026e-01   5.381971e-03
  3.369841e+00    4.390205e-01   5.473697e-03
  3.372051e+00    4.196630e-01   5.349700e-03
  3.374262e+00    4.183654e-01   5.338970e-03
  3.376472e+00    4.158801e-01   5.320639e-03
  3.378683e+00    4.210478e-01   5.351073e-03
  3.380893e+00    4.088529e-01   5.270709e-03
  3.383103e+00    3.971086e-01   5.191784e-03
  3.385314e+00    4.118587e-01   5.285126e-03
  3.387524e+00    4.096614e-01   5.268284e-03
  3.389735e+00    4.089146e-01   5.260873e-03
  3.391945e+00    4.060191e-01   5.238574e-03
  3.394156e+00    4.086869e-01   5.251544e-03
  3.396366e+00    4.086816e-01   5.248133e-03
  3.398577e+00    4.011518e-01   5.196537e-03
  3.400787e+00    4.118022e-01   5.277011e-03
  3.402998e+00    4.045180e-01   5.267916e-03
  3.405208e+00    3.994183e-01   5.255131e-03
  3.407418e+00    3.897488e-01   5.206689e-03
  3.409629e+00    4.033171e-01   5.310539e-03
  3.411839e+00    3.883269e-01   5.222518e-03
  3.414050e+00    3.915140e-01   5.254843e-03
  3.416260e+00    3.924612e-01   5.270795e-03
  3.418471e+00    3.912461e-01   5.272033e-03
  3.420681e+00    3.926786e-01   5.290153e-03
  3.422892e+00    3.918661e-01   5.292716e-03
  3.425102e+00    3.932505e-01   5.309874e-03
  3.427313e+00    3.791713e-01   5.221099e-03
  3.429523e+00    3.760283e-01   5.206345e-03
  3.431733e+00    3.708678e-01   5.177038e-03
  3.433944e+00    3.732905e-01   5.200304e-03
  3.436154e+00    3.926238e-01   5.339579e-03
  3.438365e+00    3.948594e-01   5.360820e-03
  3.440575e+00    3.769912e-01   5.244008e-03
  3.442786e+00    3.954142e-01   5.376333e-03
  3.444996e+00    3.746980e-01   5.239106e-03
  3.447207e+00    3.669347e-01   5.189759e-03
  3.449417e+00    3.699670e-01   5.251908e-03
  3.451628e+00    3.651814e-01   5.247093e-03
  3.453838e+00    3.654310e-01   5.270023e-03
  3.456049e+00    3.584914e-01   5.243344e-03
  3.458259e+00    3.574040e-01   5.257041e-03
  3.460469e+00    3.644795e-01   5.328576e-03
  3.462680e+00    3.719916e-01   5.402399e-03
  3.464890e+00    3.664055e-01   5.379484e-03
  3.467101e+00    3.735044e-01   5.448960e-03
  3.469311e+00    3.764583e-01   5.487148e-03
  3.471522e+00    3.811193e-01   5.537542e-03
  3.473732e+00    3.824032e-01   5.562894e-03
  3.475943e+00    4.002608e-01   5.707329e-03
  3.478153e+00    4.097117e-01   5.790228e-03
  3.480364e+00    4.122466e-01   5.823602e-03
  3.482574e+00    4.107280e-01   5.828329e-03
  3.484784e+00    4.217018e-01   5.920774e-03
  3.486995e+00    4.242481e-01   5.953841e-03
  3.489205e+00    4.298625e-01   6.007923e-03
  3.491416e+00    4.358815e-01   6.064874e-03
  3.493626e+00    4.427712e-01   6.127338e-03
  3.495837e+00    4.490626e-01   6.185654e-03
  3.498047e+00    4.346224e-01   6.099689e-03
  3.500258e+00    4.530230e-01   6.242063e-03
  3.502468e+00    4.719918e-01   6.386098e-03
  3.504679e+00    4.902011e-01   6.523086e-03
  3.506889e+00    4.812984e-01   6.478256e-03
  3.509099e+00    4.605268e-01   6.351129e-03
  3.511310e+00    4.669646e-01   6.409677e-03
  3.513520e+00    4.694170e-01   6.440706e-03
  3.515731e+00    4.712794e-01   6.467621e-03
  3.517941e+00    4.909426e-01   6.615570e-03
  3.520152e+00    4.814531e-01   6.565411e-03
  3.522362e+00    5.062660e-01   6.747042e-03
  3.524573e+00    5.043170e-01   6.748300e-03
  3.526783e+00    5.200354e-01   6.866124e-03
  3.528994e+00    5.147015e-01   6.843078e-03
  3.531204e+00    5.076393e-01   6.808202e-03
  3.533414e+00    5.378729e-01   7.020280e-03
  3.535625e+00    5.264078e-01   6.957373e-03
  3.537835e+00    5.307543e-01   6.998146e-03
  3.540046e+00    5.272948e-01   6.984157e-03
  3.542256e+00    5.345998e-01   7.039913e-03
  3.544467e+00    5.254913e-01   6.987229e-03
  3.546677e+00    5.367644e-01   7.069321e-03
  3.548888e+00    5.438677e-01   7.123540e-03
  3.551098e+00    5.352202e-01   7.073938e-03
  3.553309e+00    5.460192e-01   7.153208e-03
  3.555519e+00    5.289221e-01   7.051528e-03
  3.557729e+00    5.375831e-01   7.120783e-03
  3.559940e+00    5.571055e-01   7.260674e-03
  3.562150e+00    5.382009e-01   7.148206e-03
  3.564361e+00    5.328845e-01   7.126039e-03
  3.566571e+00    5.316247e-01   7.131400e-03
  3.568782e+00    5.468056e-01   7.246779e-03
  3.570992e+00    5.379752e-01   7.201779e-03
  3.573203e+00    5.418858e-01   7.242159e-03
  3.575413e+00    5.367942e-01   7.221834e-03
  3.577624e+00    5.177093e-01   7.106154e-03
  3.579834e+00    5.365091e-01   7.247945e-03
  3.582045e+00    5.280325e-01   7.204365e-03
  3.584255e+00    5.158514e-01   7.134579e-03
  3.586465e+00    5.199195e-01   7.176368e-03
  3.588676e+00    5.297824e-01   7.258230e-03
  3.590886e+00    5.283990e-01   7.262357e-03
  3.593097e+00    5.334731e-01   7.311609e-03
  3.595307e+00    5.387916e-01   7.361938e-03
  3.597518e+00    5.474607e-01   7.435291e-03
  3.599728e+00    5.443339e-01   7.428259e-03
  3.601939e+00    5.406705e-01   7.417367e-03
  3.604149e+00    5.314202e-01   7.367961e-03
  3.606360e+00    5.278805e-01   7.357447e-03
  3.608570e+00    5.209939e-01   7.323239e-03
  3.610780e+00    5.393575e-01   7.462316e-03
  3.612991e+00    5.415758e-01   7.487697e-03
  3.615201e+00    5.339504e-01   7.444599e-03
  3.617412e+00    5.428880e-01   7.513979e-03
  3.619622e+00    5.274394e-01   7.412215e-03
  3.621833e+00    5.313472e-01   7.446292e-03
  3.624043e+00    5.438048e-01   7.542687e-03
  3.626254e+00    5.344082e-01   7.486952e-03
  3.628464e+00    5.367115e-01   7.514045e-03
  3.630675e+00    5.470304e-01   7.600235e-03
  3.632885e+00    5.020805e-01   7.295334e-03
  3.635095e+00    5.109379e-01   7.373409e-03
  3.637306e+00    5.383608e-01   7.583174e-03
  3.639516e+00    5.382670e-01   7.597096e-03
  3.641727e+00    5.392433e-01   7.618641e-03
  3.643937e+00    5.471556e-01   7.689071e-03
  3.646148e+00    5.443828e-01   7.684348e-03
  3.648358e+00    5.297945e-01   7.595440e-03
  3.650569e+00    5.387906e-01   7.674521e-03
  3.652779e+00    5.276631e-01   7.609576e-03
  3.654990e+00    5.094293e-01   7.491493e-03
  3.657200e+00    4.969899e-01   7.413813e-03
  3.659410e+00    5.501775e-01   7.815644e-03
  3.661621e+00    5.420609e-01   7.773109e-03
  3.663831e+00    5.367916e-01   7.750374e-03
  3.666042e+00    5.358504e-01   7.758833e-03
  3.668252e+00    5.380666e-01   7.790185e-03
  3.670463e+00    5.245388e-01   7.706757e-03
  3.672673e+00    5.349190e-01   7.798145e-03
  3.674884e+00    5.141544e-01   7.660403e-03
  3.677094e+00    5.286077e-01   7.782870e-03
  3.679305e+00    5.122221e-01   7.676553e-03
  3.681515e+00    5.284973e-01   7.813145e-03
  3.683726e+00    5.226718e-01   7.785666e-03
  3.685936e+00    5.427877e-01   7.949968e-03
  3.688146e+00    5.334870e-01   7.897465e-03
  3.690357e+00    5.314363e-01   7.898221e-03
  3.692567e+00    5.130293e-01   7.776170e-03
  3.694778e+00    5.054456e-01   7.734227e-03
  3.696988e+00    5.185040e-01   7.849326e-03
  3.699199e+00    5.207934e-01   7.882800e-03
  3.701409e+00    5.164097e-01   7.865818e-03
  3.703620e+00    5.242010e-01   7.941217e-03
  3.705830e+00    5.370085e-01   8.054205e-03
  3.708041e+00    5.360515e-01   8.063894e-03
  3.710251e+00    5.267153e-01   8.010068e-03
  3.712461e+00    5.192654e-01   7.969925e-03
  3.714672e+00    5.109407e-01   7.922349e-03
  3.716882e+00    5.030828e-01   7.877602e-03
  3.719093e+00    5.167686e-01   8.001084e-03
  3.721303e+00    5.194505e-01   8.038799e-03
  3.723514e+00    5.067058e-01   7.956662e-03
  3.725724e+00    5.059604e-01   7.967692e-03
  3.727935e+00    5.029600e-01   7.961308e-03
  3.730145e+00    4.959661e-01   7.922663e-03
  3.732356e+00    5.073656e-01   8.030604e-03
  3.734566e+00    5.267881e-01   8.200604e-03
  3.736776e+00    5.173293e-01   8.144459e-03
  3.738987e+00    5.035225e-01   8.052580e-03
  3.741197e+00    5.008911e-01   8.049319e-03
  3.743408e+00    5.100345e-01   8.140426e-03
  3.745618e+00    5.052711e-01   8.120510e-03
  3.747829e+00    5.047970e-01   8.134693e-03
  3.750039e+00    5.043827e-01   8.149583e-03
  3.752250e+00    5.043542e-01   8.167666e-03
  3.754460e+00    5.236467e-01   8.341210e-03
  3.756671e+00    5.436056e-01   8.518179e-03
  3.758881e+00    4.984908e-01   8.175497e-03
  3.761091e+00    4.875021e-01   8.103584e-03
  3.763302e+00    5.162554e-01   8.358380e-03
  3.765512e+00    4.950931e-01   8.204253e-03
  3.767723e+00    5.095271e-01   8.342439e-03
  3.769933e+00    5.116870e-01   8.379510e-03
  3.772144e+00    5.053111e-01   8.346714e-03
  3.774354e+00    5.127503e-01   8.427933e-03
  3.776565e+00    5.059228e-01   8.391473e-03
  3.778775e+00    4.930398e-01   8.303694e-03
  3.780986e+00    4.813997e-01   8.224893e-03
  3.783196e+00    5.042502e-01   8.438122e-03
  3.785407e+00    4.790283e-01   8.244311e-03
  3.787617e+00    4.893881e-01   8.353424e-03
  3.789827e+00    5.162024e-01   8.600083e-03
  3.792038e+00    5.071788e-01   8.545522e-03
  3.794248e+00    5.082440e-01   8.575798e-03
  3.796459e+00    4.872302e-01   8.417672e-03
  3.798669e+00    5.046446e-01   8.588243e-03
  3.800880e+00    4.951364e-01   8.528318e-03
  3.803090e+00    5.026272e-01   8.614389e-03
  3.805301e+00    5.007610e-01   8.620556e-03
  3.807511e+00    5.147436e-01   8.762366e-03
  3.809722e+00    5.059534e-01   8.709635e-03
  3.811932e+00    4.770571e-01   8.478965e-03
  3.814142e+00    4.879372e-01   8.597722e-03
  3.816353e+00    4.796202e-01   8.546515e-03
  3.818563e+00    5.214149e-01   8.934691e-03
  3.820774e+00    4.933123e-01   8.713711e-03
  3.822984e+00    5.118186e-01   8.899305e-03
  3.825195e+00    5.147765e-01   8.949097e-03
  3.827405e+00    5.010524e-01   8.853019e-03
  3.829616e+00    4.872073e-01   8.753610e-03
  3.831826e+00    4.917901e-01   8.818756e-03
  3.834037e+00    4.953592e-01   8.875108e-03
  3.836247e+00    5.067059e-01   9.001123e-03
  3.838457e+00    4.927197e-01   8.900997e-03
  3.840668e+00    5.014925e-01   9.005180e-03
  3.842878e+00    4.989178e-01   9.007654e-03
  3.845089e+00    4.837333e-01   8.894772e-03
  3.847299e+00    4.767236e-01   8.855392e-03
  3.849510e+00    4.924590e-01   9.026118e-03
  3.851720e+00    4.966469e-01   9.085875e-03
  3.853931e+00    4.907599e-01   9.050797e-03
  3.856141e+00    4.945021e-01   9.104204e-03
  3.858352e+00    4.885527e-01   9.068467e-03
  3.860562e+00    5.013399e-01   9.205787e-03
  3.862772e+00    5.028563e-01   9.239461e-03
  3.864983e+00    4.973712e-01   9.208677e-03
  3.867193e+00    5.032820e-01   9.283206e-03
  3.869404e+00    4.842788e-01   9.125915e-03
  3.871614e+00    5.074412e-01   9.361813e-03
  3.873825e+00    5.128379e-01   9.432133e-03
  3.876035e+00    6.384338e-01   1.054740e-02
  3.878246e+00    5.761748e-01   1.004789e-02
  3.880456e+00    5.177095e-01   9.554194e-03
  3.882667e+00    4.982513e-01   9.402446e-03
  3.884877e+00    4.601571e-01   9.064579e-03
  3.887087e+00    4.857056e-01   9.342565e-03
  3.889298e+00    4.591937e-01   9.113364e-03
  3.891508e+00    4.907892e-01   9.452227e-03
  3.893719e+00    4.965685e-01   9.538874e-03
  3.895929e+00    4.975898e-01   9.580341e-03
  3.898140e+00    4.880599e-01   9.519769e-03
  3.900350e+00    5.053312e-01   9.719351e-03
  3.902561e+00    5.144471e-01   9.839810e-03
  3.904771e+00    4.972347e-01   9.706852e-03
  3.906982e+00    4.882956e-01   9.652309e-03
  3.909192e+00    5.109175e-01   9.907620e-03
  3.911403e+00    4.729193e-01   9.565460e-03
  3.913613e+00    4.980059e-01   9.850533e-03
  3.915823e+00    4.805435e-01   9.710792e-03
  3.918034e+00    4.674657e-01   9.612285e-03
  3.920244e+00    4.656552e-01   9.628439e-03
  3.922455e+00    5.115039e-01   1.012831e-02
  3.924665e+00    4.768498e-01   9.815292e-03
  3.926876e+00    4.839451e-01   9.924893e-03
  3.929086e+00    4.608623e-01   9.721700e-03
  3.931297e+00    4.640966e-01   9.789638e-03
  3.933507e+00    4.767881e-01   9.951198e-03
  3.935718e+00    5.013608e-01   1.023361e-02
  3.937928e+00    4.900266e-01   1.014687e-02
  3.940138e+00    4.758284e-01   1.002766e-02
  3.942349e+00    4.812326e-01   1.011420e-02
  3.944559e+00    4.905613e-01   1.024177e-02
  3.946770e+00    5.268085e-01   1.064488e-02
  3.948980e+00    4.943751e-01   1.034311e-02
  3.951191e+00    4.789175e-01   1.021046e-02
  3.953401e+00    5.026683e-01   1.049262e-02
  3.955612e+00    4.923051e-01   1.041571e-02
  3.957822e+00    4.962825e-01   1.048972e-02
  3.960033e+00    5.068470e-01   1.063407e-02
  3.962243e+00    4.695072e-01   1.026726e-02
  3.964453e+00    4.522505e-01   1.010858e-02
  3.966664e+00    4.951811e-01   1.061137e-02
  3.968874e+00    4.764601e-01   1.043688e-02
  3.971085e+00    4.818501e-01   1.051767e-02
  3.973295e+00    4.896551e-01   1.062396e-02
  3.975506e+00    5.036145e-01   1.079645e-02
  3.977716e+00    5.053068e-01   1.083695e-02
  3.979927e+00    4.818929e-01   1.060502e-02
  3.982137e+00    4.913522e-01   1.073093e-02
  3.984348e+00    5.090322e-01   1.094551e-02
  3.986558e+00    4.661956e-01   1.049662e-02
  3.988768e+00    4.803409e-01   1.067763e-02
  3.990979e+00    5.010560e-01   1.092849e-02
  3.993189e+00    4.750210e-01   1.066377e-02
  3.995400e+00    4.560381e-01   1.047122e-02
  3.997610e+00    4.717188e-01   1.067907e-02
  3.999821e+00    4.993060e-01   1.102507e-02
  4.002031e+00    4.659295e-01   1.068781e-02
  4.004242e+00    4.727940e-01   1.080435e-02
  4.006452e+00    4.732242e-01   1.084806e-02
  4.008663e+00    4.963020e-01   1.114995e-02
  4.010873e+00    4.792408e-01   1.099640e-02
  4.013084e+00    4.970200e-01   1.123990e-02
  4.015294e+00    5.015956e-01   1.133330e-02
  4.017504e+00    4.997701e-01   1.135514e-02
  4.019715e+00    4.990175e-01   1.138978e-02
  4.021925e+00    4.645303e-01   1.103123e-02
  4.024136e+00    4.946711e-01   1.142762e-02
  4.026346e+00    4.916937e-01   1.143772e-02
  4.028557e+00    4.999910e-01   1.157877e-02
  4.030767e+00    5.209805e-01   1.186677e-02
  4.032978e+00    4.988225e-01   1.165872e-02
  4.035188e+00    4.637041e-01   1.128607e-02
  4.037399e+00    4.526081e-01   1.119617e-02
  4.039609e+00    5.037832e-01   1.186081e-02
  4.041819e+00    4.959445e-01   1.181770e-02
  4.044030e+00    4.996149e-01   1.191205e-02
  4.046240e+00    5.181060e-01   1.218216e-02
  4.048451e+00    4.866306e-01   1.185741e-02
  4.050661e+00    4.902470e-01   1.195326e-02
  4.052872e+00    4.928230e-01   1.203794e-02
  4.055082e+00    4.983484e-01   1.215953e-02
  4.057293e+00    4.673631e-01   1.182850e-02
  4.059503e+00    4.258243e-01   1.134182e-02
  4.061714e+00    4.608210e-01   1.185385e-02
  4.063924e+00    4.821258e-01   1.218158e-02
  4.066134e+00    4.960827e-01   1.241493e-02
  4.068345e+00    4.907622e-01   1.240753e-02
  4.070555e+00    4.647721e-01   1.213292e-02
  4.072766e+00    5.163847e-01   1.285165e-02
  4.074976e+00    5.089968e-01   1.282313e-02
  4.077187e+00    4.892009e-01   1.263383e-02
  4.079397e+00    4.908686e-01   1.271992e-02
  4.081608e+00    5.085283e-01   1.301400e-02
  4.083818e+00    5.004275e-01   1.297708e-02
  4.086029e+00    5.170403e-01   1.326042e-02
  4.088239e+00    4.467810e-01   1.239292e-02
  4.090449e+00    4.485845e-01   1.248504e-02
  4.092660e+00    5.155997e-01   1.345894e-02
  4.094870e+00    5.103770e-01   1.346513e-02
  4.097081e+00    4.959578e-01   1.334625e-02
  4.099291e+00    4.943993e-01   1.338037e-02
  4.101502e+00    4.919380e-01   1.339692e-02
  4.103712e+00    4.312480e-01   1.259002e-02
  4.105923e+00    4.641856e-01   1.311251e-02
  4.108133e+00    4.839189e-01   1.343988e-02
  4.110344e+00    4.922057e-01   1.360632e-02
  4.112554e+00    4.981422e-01   1.374219e-02
  4.114764e+00    4.617375e-01   1.328380e-02
  4.116975e+00    5.292555e-01   1.427789e-02
  4.119185e+00    5.038434e-01   1.398748e-02
  4.121396e+00    5.152358e-01   1.420313e-02
  4.123606e+00    5.086489e-01   1.416994e-02
  4.125817e+00    5.088873e-01   1.423259e-02
  4.128027e+00    4.898750e-01   1.402333e-02
  4.130238e+00    4.738361e-01   1.385065e-02
  4.132448e+00    5.024651e-01   1.432488e-02
  4.134659e+00    4.925891e-01   1.424446e-02
  4.136869e+00    5.131491e-01   1.460361e-02
  4.139080e+00    4.824566e-01   1.422392e-02
  4.141290e+00    4.574848e-01   1.391252e-02
  4.143500e+00    4.474734e-01   1.382259e-02
  4.145711e+00    4.716018e-01   1.425674e-02
  4.147921e+00    4.535404e-01   1.404524e-02
  4.150132e+00    4.571730e-01   1.416862e-02
  4.152342e+00    4.360690e-01   1.390485e-02
  4.154553e+00    4.390735e-01   1.401891e-02
  4.156763e+00    4.879047e-01   1.485085e-02
  4.158974e+00    4.666036e-01   1.459653e-02
  4.161184e+00    4.460461e-01   1.434182e-02
  4.163395e+00    5.006503e-01   1.527188e-02
  4.165605e+00    4.814410e-01   1.505418e-02
  4.167815e+00    4.796764e-01   1.510469e-02
  4.170026e+00    4.807192e-01   1.520097e-02
  4.172236e+00    4.841487e-01   1.533759e-02
  4.174447e+00    4.491768e-01   1.485358e-02
  4.176657e+00    4.626490e-01   1.515701e-02
  4.178868e+00    5.055960e-01   1.593453e-02
  4.181078e+00    5.095609e-01   1.608716e-02
  4.183289e+00    5.012708e-01   1.604718e-02
  4.185499e+00    5.040125e-01   1.618571e-02
  4.187710e+00    4.943996e-01   1.612473e-02
  4.189920e+00    5.075329e-01   1.643572e-02
  4.192130e+00    5.241937e-01   1.680544e-02
  4.194341e+00    4.921398e-01   1.638339e-02
  4.196551e+00    4.607361e-01   1.595248e-02
  4.198762e+00    5.309372e-01   1.723328e-02
  4.200972e+00    4.789771e-01   1.647448e-02
  4.203183e+00    4.229929e-01   1.558365e-02
  4.205393e+00    4.998898e-01   1.705381e-02
  4.207604e+00    5.226007e-01   1.755598e-02
  4.209814e+00    4.723596e-01   1.680516e-02
  4.212025e+00    5.435984e-01   1.815567e-02
  4.214235e+00    5.112409e-01   1.773175e-02
  4.216445e+00    5.083463e-01   1.780959e-02
  4.218656e+00    4.237610e-01   1.638230e-02
  4.220866e+00    4.953616e-01   1.784327e-02
  4.223077e+00    4.462886e-01   1.706702e-02
  4.225287e+00    4.501072e-01   1.727428e-02
  4.227498e+00    4.896416e-01   1.815854e-02
  4.229708e+00    5.289608e-01   1.902682e-02
  4.231919e+00    5.017283e-01   1.868412e-02
  4.234129e+00    4.917092e-01   1.865175e-02
  4.236340e+00    4.889880e-01   1.875914e-02
  4.238550e+00    5.177393e-01   1.947295e-02
  4.240761e+00    5.056603e-01   1.941460e-02
  4.242971e+00    5.784804e-01   2.095582e-02
  4.245181e+00    4.747735e-01   1.916321e-02
  4.247392e+00    4.701157e-01   1.924706e-02
  4.249602e+00    4.512260e-01   1.904359e-02
  4.251813e+00    4.371570e-01   1.892920e-02
  4.254023e+00    4.373509e-01   1.912400e-02
  4.256234e+00    4.892407e-01   2.044302e-02
  4.258444e+00    4.376638e-01   1.953801e-02
  4.260655e+00    4.498383e-01   2.002507e-02
  4.262865e+00    5.197445e-01   2.176918e-02
  4.265076e+00    4.453716e-01   2.038136e-02
  4.267286e+00    4.528340e-01   2.079429e-02
  4.269496e+00    4.912612e-01   2.192340e-02
  4.271707e+00    4.334270e-01   2.084664e-02
  4.273917e+00    4.983643e-01   2.264307e-02
  4.276128e+00    3.810575e-01   2.006287e-02
  4.278338e+00    4.162476e-01   2.124809e-02
  4.280549e+00    4.586688e-01   2.262493e-02
  4.282759e+00    4.361783e-01   2.238014e-02
  4.284970e+00    5.714766e-01   2.599644e-02
  4.287180e+00    5.048221e-01   2.472625e-02
  4.289391e+00    4.740347e-01   2.414024e-02
  4.291601e+00    5.009316e-01   2.501427e-02
  4.293811e+00    4.103235e-01   2.281598e-02
  4.296022e+00    4.384519e-01   2.377373e-02
  4.298232e+00    5.942237e-01   2.790929e-02
  4.300443e+00    4.727328e-01   2.509912e-02
  4.302653e+00    4.505378e-01   2.471415e-02
  4.304864e+00    4.392163e-01   2.461302e-02
  4.307074e+00    5.284432e-01   2.724027e-02
  4.309285e+00    4.882075e-01   2.642099e-02
  4.311495e+00    4.287029e-01   2.499019e-02
  4.313706e+00    4.421981e-01   2.561832e-02
  4.315916e+00    4.370997e-01   2.572135e-02
  4.318126e+00    5.069993e-01   2.797533e-02
  4.320337e+00    5.346058e-01   2.901764e-02
  4.322547e+00    5.005450e-01   2.837638e-02
  4.324758e+00    3.245738e-01   2.308817e-02
  4.326968e+00    4.849345e-01   2.853772e-02
  4.329179e+00    5.344670e-01   3.028974e-02
  4.331389e+00    4.867865e-01   2.924119e-02
  4.333600e+00    5.384701e-01   3.112166e-02
  4.335810e+00    4.618302e-01   2.916452e-02
  4.338021e+00    4.872937e-01   3.034094e-02
  4.340231e+00    4.272768e-01   2.876800e-02
  4.342442e+00    3.378727e-01   2.592529e-02
  4.344652e+00    5.343075e-01   3.304387e-02
  4.346862e+00    4.929191e-01   3.218295e-02
  4.349073e+00    4.556922e-01   3.139429e-02
  4.351283e+00    4.554361e-01   3.185360e-02
  4.353494e+00    4.572115e-01   3.240942e-02
  4.355704e+00    4.286579e-01   3.188660e-02
  4.357915e+00    3.682387e-01   3.004537e-02
  4.360125e+00    3.613549e-01   3.027177e-02
  4.362336e+00    4.579903e-01   3.469995e-02
  4.364546e+00    4.254724e-01   3.405644e-02
  4.366757e+00    4.597831e-01   3.610545e-02
  4.368967e+00    4.658277e-01   3.706630e-02
  4.371177e+00    4.638153e-01   3.777495e-02
  4.373388e+00    5.149237e-01   4.068973e-02
  4.375598e+00    3.703427e-01   3.529494e-02
  4.377809e+00    4.827274e-01   4.131659e-02
  4.380019e+00    3.791173e-01   3.753418e-02
  4.382230e+00    3.879309e-01   3.903029e-02
  4.384440e+00    3.970522e-01   4.061965e-02
  4.386651e+00    5.279669e-01   4.828500e-02
  4.388861e+00    4.830749e-01   4.773888e-02
  4.391072e+00    5.548853e-01   5.296081e-02
  4.393282e+00    4.912414e-01   5.175590e-02
  4.395492e+00    4.750911e-01   5.301458e-02
  4.397703e+00    2.674622e-01   4.159910e-02
  4.399913e+00    2.266092e-01   4.022590e-02
  4.402124e+00    4.762507e-01   6.162019e-02
  4.404334e+00    2.726955e-01   4.956385e-02
  4.406545e+00    4.841742e-01   7.095936e-02
  4.408755e+00    2.228903e-01   5.221891e-02
  4.410966e+00    1.653620e-01   4.976861e-02
  4.413176e+00    2.198032e-01   6.496941e-02
  4.415387e+00   -6.855217e-01            nan
  4.417597e+00   -2.015506e+00            nan
  4.419807e+00   -3.766224e-01            nan
