# == pyFAI calibration ==
# Distance Sample to Detector: 0.216 m
# PONI: 1.166e-01, 1.308e-01 m
# Rotations: 0.000000 0.000000 0.000000 rad
# 
# == Fit2d calibration ==
# Distance Sample-beamCenter: 216.000 mm
# Center: x=1744.293, y=1555.000 pix
# Tilt: 0.000 deg  TiltPlanRot: 0.000 deg
# 
# Detector Eiger 9M	 PixelSize= 7.500e-05, 7.500e-05 m
#    Detector has a mask: True 
#    Detector has a dark current: False 
#    detector has a flat field: False 
# 
# Wavelength: 9.8e-11 m
# Mask applied: from detector
# Dark current applied: False
# Flat field applied: False
# Polarization factor: None
# Normalization factor: 1.0
# 
# Headers of the input frame:
# {
# "_array_data.header_convention": "SLS_1.0",
# "_array_data.header_contents": "# Detector: Dectris Eiger 9M, S/N E-18-0102\r\n# Pixel_size 75e-6 m x 75e-6 m\r\n# Silicon sensor, thickness 0.000450 m\r\n# Exposure_time 0.024997 s\r\n# Exposure_period 0.025000 s\r\n# Count_cutoff 62318 counts\r\n# Wavelength 0.980106 A\r\n# Detector_distance 0.215992 m\r\n# Beam_xy (1555, 1744) pixels\r\n# Start_angle 0.000000 deg.\r\n# Angle_increment 0.000000 deg.",
# "Content-Type": "application/octet-stream;",
# "conversions": "x-CBF_BYTE_OFFSET",
# "Content-Transfer-Encoding": "BINARY",
# "X-Binary-Size": "10166610",
# "X-Binary-ID": "1",
# "X-Binary-Element-Type": "signed 32-bit integer",
# "X-Binary-Element-Byte-Order": "LITTLE_ENDIAN",
# "Content-MD5": "ki7d38Pt/NBVFeCP1/NJEA==",
# "X-Binary-Number-of-Elements": "10166590",
# "X-Binary-Size-Fastest-Dimension": "3110",
# "X-Binary-Size-Second-Dimension": "3269",
# "X-Binary-Size-Padding": "4095"
# }
# --> H:/Proxima2a_2019-04-05/RAW_DATA/C5_gel17_position5/C5_mesh_1_data.cbf/C5_mesh_1_data.cbf000051.dat
#        q_A^-1              I           sigma 
  1.105228e-03    1.215443e+00   5.965601e-01
  3.315685e-03    1.399266e+00   3.891307e-01
  5.526141e-03    1.138682e+00   2.714397e-01
  7.736597e-03    1.478187e+00   2.612672e-01
  9.947054e-03    1.468763e+00   2.295897e-01
  1.215751e-02    1.607697e+00   2.172055e-01
  1.436797e-02    1.391116e+00   1.858478e-01
  1.657842e-02    1.304250e+00   1.675039e-01
  1.878888e-02    1.539339e+00   1.709349e-01
  2.099934e-02    1.246222e+00   1.455124e-01
  2.320979e-02    1.347509e+00   1.439125e-01
  2.542025e-02    1.427912e+00   1.415664e-01
  2.763070e-02    1.377104e+00   1.333441e-01
  2.984116e-02    1.325512e+00   1.258834e-01
  3.205162e-02    1.382016e+00   1.240346e-01
  3.426207e-02    1.316640e+00   1.170869e-01
  3.647253e-02    1.341581e+00   1.145508e-01
  3.868299e-02    1.462164e+00   1.161298e-01
  4.089344e-02    1.308686e+00   1.068559e-01
  4.310390e-02    1.197648e+00   9.956083e-02
  4.531436e-02    1.387046e+00   1.044988e-01
  4.752481e-02    1.419627e+00   1.032300e-01
  4.973527e-02    1.432214e+00   1.013575e-01
  5.194572e-02    1.373385e+00   9.711785e-02
  5.415618e-02    1.453407e+00   9.784359e-02
  5.636664e-02    1.467098e+00   9.635956e-02
  5.857709e-02    1.423852e+00   9.312086e-02
  6.078755e-02    1.426842e+00   9.150509e-02
  6.299801e-02    1.518020e+00   9.271182e-02
  6.520846e-02    1.439455e+00   8.873803e-02
  6.741892e-02    1.501982e+00   8.914196e-02
  6.962938e-02    1.405219e+00   8.484737e-02
  7.183983e-02    1.480734e+00   8.574533e-02
  7.405029e-02    1.517677e+00   8.550094e-02
  7.626074e-02    1.559646e+00   8.540894e-02
  7.847120e-02    1.417700e+00   8.027239e-02
  8.068166e-02    1.386807e+00   7.829722e-02
  8.289211e-02    1.448557e+00   7.894678e-02
  8.510257e-02    1.469308e+00   7.847040e-02
  8.731303e-02    1.453077e+00   7.703873e-02
  8.952348e-02    1.502229e+00   7.735986e-02
  9.173394e-02    1.476327e+00   7.575743e-02
  9.394439e-02    1.497390e+00   7.539052e-02
  9.615485e-02    1.519178e+00   7.505750e-02
  9.836531e-02    1.531286e+00   7.450246e-02
  1.005758e-01    1.494378e+00   7.278631e-02
  1.027862e-01    1.497820e+00   7.208048e-02
  1.049967e-01    1.490121e+00   7.113295e-02
  1.072071e-01    1.464173e+00   6.977936e-02
  1.094176e-01    1.413766e+00   6.787053e-02
  1.116280e-01    1.471306e+00   6.854744e-02
  1.138385e-01    1.508767e+00   6.873602e-02
  1.160490e-01    1.449352e+00   6.672354e-02
  1.182594e-01    1.405277e+00   6.508280e-02
  1.204699e-01    1.505402e+00   6.674009e-02
  1.226803e-01    1.592272e+00   6.801473e-02
  1.248908e-01    1.628892e+00   6.818011e-02
  1.271012e-01    1.585754e+00   6.668241e-02
  1.293117e-01    1.576362e+00   6.591313e-02
  1.315222e-01    1.578942e+00   6.540881e-02
  1.337326e-01    1.598503e+00   6.526531e-02
  1.359431e-01    1.552702e+00   6.436116e-02
  1.381535e-01    1.618881e+00   6.660055e-02
  1.403640e-01    1.657044e+00   6.767197e-02
  1.425744e-01    1.547072e+00   6.549229e-02
  1.447849e-01    1.562078e+00   6.582430e-02
  1.469953e-01    1.628607e+00   6.716932e-02
  1.492058e-01    1.618003e+00   6.687250e-02
  1.514163e-01    1.612495e+00   6.664773e-02
  1.536267e-01    1.585472e+00   6.595786e-02
  1.558372e-01    1.602893e+00   6.617284e-02
  1.580476e-01    1.653687e+00   6.705004e-02
  1.602581e-01    1.601369e+00   6.581331e-02
  1.624685e-01    1.621094e+00   6.603609e-02
  1.646790e-01    1.642020e+00   6.627011e-02
  1.668895e-01    1.672916e+00   6.669747e-02
  1.690999e-01    1.718305e+00   6.739324e-02
  1.713104e-01    1.832106e+00   6.937319e-02
  1.735208e-01    1.799801e+00   6.854504e-02
  1.757313e-01    1.834572e+00   6.898710e-02
  1.779417e-01    1.767179e+00   6.748734e-02
  1.801522e-01    1.723282e+00   6.643158e-02
  1.823626e-01    1.932515e+00   7.011478e-02
  1.845731e-01    1.878792e+00   6.890943e-02
  1.867836e-01    1.880722e+00   6.871210e-02
  1.889940e-01    1.873059e+00   6.834795e-02
  1.912045e-01    1.825814e+00   6.725507e-02
  1.934149e-01    1.924099e+00   6.881048e-02
  1.956254e-01    1.888092e+00   6.793878e-02
  1.978358e-01    1.896722e+00   6.786054e-02
  2.000463e-01    1.958627e+00   6.873050e-02
  2.022568e-01    1.992674e+00   6.909776e-02
  2.044672e-01    1.961493e+00   6.832019e-02
  2.066777e-01    1.958039e+00   6.803341e-02
  2.088881e-01    1.973460e+00   6.807739e-02
  2.110986e-01    1.949960e+00   6.743874e-02
  2.133090e-01    1.991602e+00   6.793346e-02
  2.155195e-01    1.959957e+00   6.716808e-02
  2.177300e-01    1.821018e+00   6.423494e-02
  2.199404e-01    1.969282e+00   6.503858e-02
  2.221509e-01    1.866623e+00   6.228095e-02
  2.243613e-01    1.903108e+00   6.208939e-02
  2.265718e-01    1.942264e+00   6.203353e-02
  2.287822e-01    2.031839e+00   6.281986e-02
  2.309927e-01    2.030399e+00   6.222554e-02
  2.332031e-01    2.071009e+00   6.230686e-02
  2.354136e-01    2.107285e+00   6.234076e-02
  2.376241e-01    2.155582e+00   6.256176e-02
  2.398345e-01    2.061013e+00   6.072129e-02
  2.420450e-01    2.093153e+00   6.075554e-02
  2.442554e-01    2.130502e+00   6.087294e-02
  2.464659e-01    2.094404e+00   5.994981e-02
  2.486763e-01    2.088437e+00   5.947085e-02
  2.508868e-01    2.107772e+00   5.936862e-02
  2.530973e-01    2.121427e+00   5.919134e-02
  2.553077e-01    2.128245e+00   5.892678e-02
  2.575182e-01    2.064311e+00   5.769156e-02
  2.597286e-01    2.029368e+00   5.686870e-02
  2.619391e-01    2.062820e+00   5.700538e-02
  2.641495e-01    2.055637e+00   5.659111e-02
  2.663600e-01    2.031826e+00   5.595299e-02
  2.685704e-01    1.980528e+00   5.494271e-02
  2.707809e-01    1.968323e+00   5.448240e-02
  2.729914e-01    2.026441e+00   5.499280e-02
  2.752018e-01    1.995090e+00   5.428176e-02
  2.774123e-01    1.964116e+00   5.358362e-02
  2.796227e-01    1.957445e+00   5.322794e-02
  2.818332e-01    1.999641e+00   5.353019e-02
  2.840436e-01    2.004593e+00   5.333667e-02
  2.862541e-01    2.030334e+00   5.341997e-02
  2.884646e-01    1.950988e+00   5.211723e-02
  2.906750e-01    1.948450e+00   5.183637e-02
  2.928855e-01    1.893740e+00   5.086663e-02
  2.950959e-01    1.900797e+00   5.072723e-02
  2.973064e-01    1.916406e+00   5.070618e-02
  2.995168e-01    1.918517e+00   5.050429e-02
  3.017273e-01    1.890098e+00   4.990786e-02
  3.039377e-01    1.860961e+00   4.930482e-02
  3.061482e-01    1.894662e+00   4.953405e-02
  3.083587e-01    1.923847e+00   4.969805e-02
  3.105691e-01    1.852859e+00   4.856421e-02
  3.127796e-01    1.857011e+00   4.841418e-02
  3.149900e-01    1.856524e+00   4.820614e-02
  3.172005e-01    1.855639e+00   4.799758e-02
  3.194109e-01    1.889827e+00   4.823774e-02
  3.216214e-01    1.873694e+00   4.783544e-02
  3.238319e-01    1.854672e+00   4.740344e-02
  3.260423e-01    1.860809e+00   4.729267e-02
  3.282528e-01    1.840199e+00   4.684282e-02
  3.304632e-01    1.829120e+00   4.652068e-02
  3.326737e-01    1.869006e+00   4.684166e-02
  3.348841e-01    1.827557e+00   4.613975e-02
  3.370946e-01    1.835742e+00   4.606896e-02
  3.393050e-01    1.863909e+00   4.624520e-02
  3.415155e-01    1.811173e+00   4.541492e-02
  3.437260e-01    1.746517e+00   4.443162e-02
  3.459364e-01    1.787292e+00   4.478101e-02
  3.481469e-01    1.787428e+00   4.461928e-02
  3.503573e-01    1.728215e+00   4.371414e-02
  3.525678e-01    1.775616e+00   4.415167e-02
  3.547782e-01    1.801704e+00   4.431409e-02
  3.569887e-01    1.743342e+00   4.343600e-02
  3.591992e-01    1.772520e+00   4.364301e-02
  3.614096e-01    1.726325e+00   4.292122e-02
  3.636201e-01    1.783942e+00   4.347825e-02
  3.658305e-01    1.801955e+00   4.354817e-02
  3.680410e-01    1.836891e+00   4.381706e-02
  3.702514e-01    1.830610e+00   4.359500e-02
  3.724619e-01    1.756414e+00   4.255697e-02
  3.746724e-01    1.806260e+00   4.301262e-02
  3.768828e-01    1.788757e+00   4.265969e-02
  3.790933e-01    1.740478e+00   4.194293e-02
  3.813037e-01    1.747705e+00   4.189239e-02
  3.835142e-01    1.734967e+00   4.160236e-02
  3.857246e-01    1.815470e+00   4.241886e-02
  3.879351e-01    1.809784e+00   4.221534e-02
  3.901455e-01    1.762096e+00   4.152279e-02
  3.923560e-01    1.774970e+00   4.154177e-02
  3.945665e-01    1.844400e+00   4.221214e-02
  3.967769e-01    1.833326e+00   4.195345e-02
  3.989874e-01    1.761752e+00   4.099794e-02
  4.011978e-01    1.800167e+00   4.131505e-02
  4.034083e-01    1.780079e+00   4.095777e-02
  4.056187e-01    1.741667e+00   4.038863e-02
  4.078292e-01    1.821018e+00   4.117348e-02
  4.100397e-01    1.765620e+00   4.041858e-02
  4.122501e-01    1.743613e+00   4.004572e-02
  4.144606e-01    1.789698e+00   4.045117e-02
  4.166710e-01    1.785668e+00   4.028546e-02
  4.188815e-01    1.805764e+00   4.039185e-02
  4.210919e-01    1.786546e+00   4.005861e-02
  4.233024e-01    1.793566e+00   4.001915e-02
  4.255128e-01    1.845483e+00   4.047690e-02
  4.277233e-01    1.787109e+00   3.971715e-02
  4.299338e-01    1.797147e+00   3.971394e-02
  4.321442e-01    1.761804e+00   3.920898e-02
  4.343547e-01    1.712466e+00   3.854676e-02
  4.365651e-01    1.737919e+00   3.872183e-02
  4.387756e-01    1.801077e+00   3.930878e-02
  4.409860e-01    1.783291e+00   3.900584e-02
  4.431965e-01    1.763655e+00   3.868324e-02
  4.454070e-01    1.776835e+00   3.871948e-02
  4.476174e-01    1.758974e+00   3.841864e-02
  4.498279e-01    1.709671e+00   3.777329e-02
  4.520383e-01    1.723521e+00   3.782192e-02
  4.542488e-01    1.702990e+00   3.749460e-02
  4.564592e-01    1.731452e+00   3.770519e-02
  4.586697e-01    1.702323e+00   3.728747e-02
  4.608801e-01    1.706938e+00   3.723794e-02
  4.630906e-01    1.669786e+00   3.673296e-02
  4.653011e-01    1.696290e+00   3.692597e-02
  4.675115e-01    1.698119e+00   3.684856e-02
  4.697220e-01    1.715500e+00   3.693970e-02
  4.719324e-01    1.715437e+00   3.684346e-02
  4.741429e-01    1.736430e+00   3.697271e-02
  4.763533e-01    1.715917e+00   3.665946e-02
  4.785638e-01    1.716046e+00   3.656612e-02
  4.807743e-01    1.714905e+00   3.646101e-02
  4.829847e-01    1.744671e+00   3.668317e-02
  4.851952e-01    1.688384e+00   3.599529e-02
  4.874056e-01    1.680211e+00   3.581749e-02
  4.896161e-01    1.698258e+00   3.592004e-02
  4.918265e-01    1.699775e+00   3.584684e-02
  4.940370e-01    1.705618e+00   3.581974e-02
  4.962475e-01    1.723661e+00   3.591979e-02
  4.984579e-01    1.703564e+00   3.562176e-02
  5.006684e-01    1.695166e+00   3.544721e-02
  5.028788e-01    1.659963e+00   3.499224e-02
  5.050893e-01    1.668652e+00   3.499835e-02
  5.072997e-01    1.657949e+00   3.480168e-02
  5.095102e-01    1.661527e+00   3.475577e-02
  5.117206e-01    1.648770e+00   3.453977e-02
  5.139311e-01    1.652134e+00   3.449314e-02
  5.161416e-01    1.665306e+00   3.454855e-02
  5.183520e-01    1.629016e+00   3.408884e-02
  5.205625e-01    1.596806e+00   3.367108e-02
  5.227729e-01    1.645620e+00   3.410212e-02
  5.249834e-01    1.634182e+00   3.390453e-02
  5.271938e-01    1.649135e+00   3.397981e-02
  5.294043e-01    1.695490e+00   3.437454e-02
  5.316148e-01    1.686435e+00   3.420412e-02
  5.338252e-01    1.757825e+00   3.484076e-02
  5.360357e-01    1.759909e+00   3.478206e-02
  5.382461e-01    1.719731e+00   3.430502e-02
  5.404566e-01    1.723706e+00   3.426647e-02
  5.426670e-01    1.752715e+00   3.447574e-02
  5.448775e-01    1.785966e+00   3.472351e-02
  5.470879e-01    1.773867e+00   3.452850e-02
  5.492984e-01    1.765182e+00   3.436727e-02
  5.515089e-01    1.781744e+00   3.445156e-02
  5.537193e-01    1.736266e+00   3.393411e-02
  5.559298e-01    1.718910e+00   3.369002e-02
  5.581402e-01    1.722262e+00   3.364916e-02
  5.603507e-01    1.746080e+00   3.380730e-02
  5.625611e-01    1.809365e+00   3.433982e-02
  5.647716e-01    1.773021e+00   3.391940e-02
  5.669821e-01    1.747952e+00   3.360613e-02
  5.691925e-01    1.726757e+00   3.333007e-02
  5.714030e-01    1.755478e+00   3.353445e-02
  5.736134e-01    1.736872e+00   3.328533e-02
  5.758239e-01    1.741153e+00   3.325519e-02
  5.780343e-01    1.737571e+00   3.315069e-02
  5.802448e-01    1.711676e+00   3.283387e-02
  5.824552e-01    1.653814e+00   3.220643e-02
  5.846657e-01    1.614013e+00   3.175018e-02
  5.868762e-01    1.617744e+00   3.172068e-02
  5.890866e-01    1.622840e+00   3.170468e-02
  5.912971e-01    1.667572e+00   3.207214e-02
  5.935075e-01    1.666656e+00   3.199707e-02
  5.957180e-01    1.656081e+00   3.182995e-02
  5.979284e-01    1.633631e+00   3.154893e-02
  6.001389e-01    1.641693e+00   3.156228e-02
  6.023494e-01    1.646989e+00   3.154896e-02
  6.045598e-01    1.641860e+00   3.143566e-02
  6.067703e-01    1.653116e+00   3.147981e-02
  6.089807e-01    1.647599e+00   3.136404e-02
  6.111912e-01    1.667289e+00   3.148790e-02
  6.134016e-01    1.651891e+00   3.127965e-02
  6.156121e-01    1.645669e+00   3.115862e-02
  6.178226e-01    1.710201e+00   3.170078e-02
  6.200330e-01    1.710597e+00   3.164192e-02
  6.222435e-01    1.741707e+00   3.186509e-02
  6.244539e-01    1.732242e+00   3.171618e-02
  6.266644e-01    1.710380e+00   3.145393e-02
  6.288748e-01    1.729544e+00   3.156808e-02
  6.310853e-01    1.682980e+00   3.107979e-02
  6.332957e-01    1.676837e+00   3.096310e-02
  6.355062e-01    1.716203e+00   3.126359e-02
  6.377167e-01    1.721593e+00   3.125257e-02
  6.399271e-01    1.666022e+00   3.068513e-02
  6.421376e-01    1.691785e+00   3.086244e-02
  6.443480e-01    1.698732e+00   3.086692e-02
  6.465585e-01    1.658926e+00   3.044534e-02
  6.487689e-01    1.678191e+00   3.056378e-02
  6.509794e-01    1.677717e+00   3.050183e-02
  6.531899e-01    1.611822e+00   2.984063e-02
  6.554003e-01    1.638102e+00   3.002631e-02
  6.576108e-01    1.678852e+00   3.034091e-02
  6.598212e-01    1.619792e+00   2.974710e-02
  6.620317e-01    1.610628e+00   2.960783e-02
  6.642421e-01    1.634131e+00   2.976790e-02
  6.664526e-01    1.584804e+00   2.926117e-02
  6.686630e-01    1.585556e+00   2.921400e-02
  6.708735e-01    1.578159e+00   2.909232e-02
  6.730840e-01    1.580315e+00   2.905909e-02
  6.752944e-01    1.571574e+00   2.892592e-02
  6.775049e-01    1.590503e+00   2.904676e-02
  6.797153e-01    1.570332e+00   2.880974e-02
  6.819258e-01    1.582865e+00   2.887228e-02
  6.841362e-01    1.607486e+00   2.904367e-02
  6.863467e-01    1.604268e+00   2.896260e-02
  6.885572e-01    1.562924e+00   2.853576e-02
  6.907676e-01    1.541705e+00   2.829058e-02
  6.929781e-01    1.619518e+00   2.894420e-02
  6.951885e-01    1.623858e+00   2.893164e-02
  6.973990e-01    1.607549e+00   2.873508e-02
  6.996094e-01    1.625854e+00   2.884739e-02
  7.018199e-01    1.601015e+00   2.857594e-02
  7.040303e-01    1.589498e+00   2.842296e-02
  7.062408e-01    1.582832e+00   2.831361e-02
  7.084513e-01    1.564680e+00   2.810182e-02
  7.106617e-01    1.611639e+00   2.847083e-02
  7.128722e-01    1.580517e+00   2.814584e-02
  7.150826e-01    1.543247e+00   2.776407e-02
  7.172931e-01    1.517047e+00   2.747991e-02
  7.195035e-01    1.551341e+00   2.774100e-02
  7.217140e-01    1.579757e+00   2.804345e-02
  7.239245e-01    1.582852e+00   2.829823e-02
  7.261349e-01    1.592047e+00   2.848952e-02
  7.283454e-01    1.578300e+00   2.843874e-02
  7.305558e-01    1.561562e+00   2.834132e-02
  7.327663e-01    1.540860e+00   2.819486e-02
  7.349767e-01    1.570294e+00   2.847923e-02
  7.371872e-01    1.578827e+00   2.854531e-02
  7.393976e-01    1.580354e+00   2.854482e-02
  7.416081e-01    1.571028e+00   2.844432e-02
  7.438186e-01    1.597914e+00   2.854129e-02
  7.460290e-01    1.582593e+00   2.810917e-02
  7.482395e-01    1.550593e+00   2.765365e-02
  7.504499e-01    1.557402e+00   2.757880e-02
  7.526604e-01    1.523614e+00   2.716335e-02
  7.548708e-01    1.553189e+00   2.733690e-02
  7.570813e-01    1.552450e+00   2.727980e-02
  7.592918e-01    1.553632e+00   2.725522e-02
  7.615022e-01    1.564313e+00   2.731507e-02
  7.637127e-01    1.542620e+00   2.709257e-02
  7.659231e-01    1.539063e+00   2.702967e-02
  7.681336e-01    1.542424e+00   2.702789e-02
  7.703440e-01    1.568160e+00   2.722128e-02
  7.725545e-01    1.573320e+00   2.723517e-02
  7.747650e-01    1.615544e+00   2.755953e-02
  7.769754e-01    1.540671e+00   2.686122e-02
  7.791859e-01    1.538663e+00   2.679083e-02
  7.813963e-01    1.570745e+00   2.701622e-02
  7.836068e-01    1.566415e+00   2.692729e-02
  7.858172e-01    1.584944e+00   2.703541e-02
  7.880277e-01    1.612276e+00   2.721568e-02
  7.902381e-01    1.647782e+00   2.746370e-02
  7.924486e-01    1.650377e+00   2.743444e-02
  7.946591e-01    1.629526e+00   2.721183e-02
  7.968695e-01    1.670884e+00   2.750569e-02
  7.990800e-01    1.646598e+00   2.725628e-02
  8.012904e-01    1.685031e+00   2.752482e-02
  8.035009e-01    1.696360e+00   2.756808e-02
  8.057113e-01    1.647285e+00   2.711941e-02
  8.079218e-01    1.643788e+00   2.704385e-02
  8.101323e-01    1.648989e+00   2.704060e-02
  8.123427e-01    1.699994e+00   2.740881e-02
  8.145532e-01    1.687793e+00   2.726354e-02
  8.167636e-01    1.723181e+00   2.750156e-02
  8.189741e-01    1.664392e+00   2.698333e-02
  8.211845e-01    1.608324e+00   2.648046e-02
  8.233950e-01    1.600056e+00   2.636936e-02
  8.256054e-01    1.616009e+00   2.645656e-02
  8.278159e-01    1.627660e+00   2.650795e-02
  8.300264e-01    1.620090e+00   2.640337e-02
  8.322368e-01    1.632315e+00   2.645978e-02
  8.344473e-01    1.640096e+00   2.647936e-02
  8.366577e-01    1.666230e+00   2.664657e-02
  8.388682e-01    1.649059e+00   2.646655e-02
  8.410786e-01    1.657984e+00   2.649575e-02
  8.432891e-01    1.655267e+00   2.643200e-02
  8.454996e-01    1.650603e+00   2.635294e-02
  8.477100e-01    1.653003e+00   2.633026e-02
  8.499205e-01    1.585560e+00   2.574703e-02
  8.521309e-01    1.592952e+00   2.576672e-02
  8.543414e-01    1.620534e+00   2.594830e-02
  8.565518e-01    1.654382e+00   2.617706e-02
  8.587623e-01    1.711336e+00   2.658238e-02
  8.609727e-01    1.732306e+00   2.670329e-02
  8.631832e-01    1.738711e+00   2.671136e-02
  8.653937e-01    1.705444e+00   2.641396e-02
  8.676041e-01    1.650153e+00   2.594305e-02
  8.698146e-01    1.619529e+00   2.566190e-02
  8.720250e-01    1.620457e+00   2.563013e-02
  8.742355e-01    1.619742e+00   2.558546e-02
  8.764459e-01    1.647280e+00   2.576267e-02
  8.786564e-01    1.636254e+00   2.563805e-02
  8.808669e-01    1.665917e+00   2.583014e-02
  8.830773e-01    1.739862e+00   2.635746e-02
  8.852878e-01    1.735234e+00   2.628294e-02
  8.874982e-01    1.651312e+00   2.560228e-02
  8.897087e-01    1.642477e+00   2.549551e-02
  8.919191e-01    1.609229e+00   2.519832e-02
  8.941296e-01    1.569875e+00   2.485134e-02
  8.963401e-01    1.616991e+00   2.518489e-02
  8.985505e-01    1.589630e+00   2.493409e-02
  9.007610e-01    1.577929e+00   2.480564e-02
  9.029714e-01    1.579669e+00   2.478370e-02
  9.051819e-01    1.569199e+00   2.466458e-02
  9.073923e-01    1.566739e+00   2.460904e-02
  9.096028e-01    1.602527e+00   2.485357e-02
  9.118132e-01    1.589645e+00   2.471738e-02
  9.140237e-01    1.588242e+00   2.466998e-02
  9.162342e-01    1.578443e+00   2.455943e-02
  9.184446e-01    1.633458e+00   2.494763e-02
  9.206551e-01    1.607778e+00   2.471509e-02
  9.228655e-01    1.590808e+00   2.454916e-02
  9.250760e-01    1.594965e+00   2.454592e-02
  9.272864e-01    1.635365e+00   2.482025e-02
  9.294969e-01    1.652369e+00   2.491259e-02
  9.317074e-01    1.617799e+00   2.461579e-02
  9.339178e-01    1.611795e+00   2.453650e-02
  9.361283e-01    1.633687e+00   2.466615e-02
  9.383387e-01    1.639829e+00   2.467887e-02
  9.405492e-01    1.603572e+00   2.437044e-02
  9.427596e-01    1.626776e+00   2.451077e-02
  9.449701e-01    1.664682e+00   2.476102e-02
  9.471805e-01    1.657714e+00   2.467416e-02
  9.493910e-01    1.637810e+00   2.449191e-02
  9.516015e-01    1.656076e+00   2.459371e-02
  9.538119e-01    1.704963e+00   2.491989e-02
  9.560224e-01    1.680576e+00   2.470620e-02
  9.582328e-01    1.727630e+00   2.501607e-02
  9.604433e-01    1.795644e+00   2.546762e-02
  9.626537e-01    1.767733e+00   2.523497e-02
  9.648642e-01    1.766196e+00   2.518942e-02
  9.670747e-01    1.808308e+00   2.545280e-02
  9.692851e-01    1.798504e+00   2.535000e-02
  9.714956e-01    1.748743e+00   2.496158e-02
  9.737060e-01    1.783621e+00   2.517615e-02
  9.759165e-01    1.793476e+00   2.521002e-02
  9.781269e-01    1.783239e+00   2.510508e-02
  9.803374e-01    1.815403e+00   2.529545e-02
  9.825478e-01    1.801489e+00   2.516508e-02
  9.847583e-01    1.810839e+00   2.519604e-02
  9.869688e-01    1.778408e+00   2.493598e-02
  9.891792e-01    1.751336e+00   2.471257e-02
  9.913897e-01    1.733740e+00   2.455493e-02
  9.936001e-01    1.706225e+00   2.432741e-02
  9.958106e-01    1.693120e+00   2.420087e-02
  9.980210e-01    1.662866e+00   2.395254e-02
  1.000231e+00    1.656698e+00   2.403907e-02
  1.002442e+00    1.605485e+00   2.379032e-02
  1.004652e+00    1.624186e+00   2.399522e-02
  1.006863e+00    1.624846e+00   2.404991e-02
  1.009073e+00    1.595846e+00   2.387080e-02
  1.011284e+00    1.573972e+00   2.373833e-02
  1.013494e+00    1.579572e+00   2.380410e-02
  1.015705e+00    1.568981e+00   2.374660e-02
  1.017915e+00    1.527671e+00   2.344804e-02
  1.020126e+00    1.530381e+00   2.348469e-02
  1.022336e+00    1.544823e+00   2.360686e-02
  1.024547e+00    1.542529e+00   2.360052e-02
  1.026757e+00    1.487082e+00   2.318070e-02
  1.028967e+00    1.462430e+00   2.299521e-02
  1.031178e+00    1.481151e+00   2.314795e-02
  1.033388e+00    1.501264e+00   2.330963e-02
  1.035599e+00    1.474462e+00   2.310397e-02
  1.037809e+00    1.470968e+00   2.307979e-02
  1.040020e+00    1.454642e+00   2.295258e-02
  1.042230e+00    1.490860e+00   2.323849e-02
  1.044441e+00    1.483595e+00   2.318158e-02
  1.046651e+00    1.473660e+00   2.310401e-02
  1.048862e+00    1.486516e+00   2.320376e-02
  1.051072e+00    1.495140e+00   2.326864e-02
  1.053282e+00    1.492907e+00   2.325031e-02
  1.055493e+00    1.495706e+00   2.326778e-02
  1.057703e+00    1.511960e+00   2.339234e-02
  1.059914e+00    1.568149e+00   2.381865e-02
  1.062124e+00    1.627070e+00   2.425777e-02
  1.064335e+00    1.599528e+00   2.404806e-02
  1.066545e+00    1.524006e+00   2.346738e-02
  1.068756e+00    1.442660e+00   2.282882e-02
  1.070966e+00    1.418245e+00   2.262838e-02
  1.073177e+00    1.454830e+00   2.291237e-02
  1.075387e+00    1.436729e+00   2.276423e-02
  1.077597e+00    1.413389e+00   2.257146e-02
  1.079808e+00    1.402642e+00   2.235553e-02
  1.082018e+00    1.420790e+00   2.231338e-02
  1.084229e+00    1.406485e+00   2.209275e-02
  1.086439e+00    1.467030e+00   2.247546e-02
  1.088650e+00    1.507763e+00   2.270832e-02
  1.090860e+00    1.482216e+00   2.244686e-02
  1.093071e+00    1.444537e+00   2.209767e-02
  1.095281e+00    1.410480e+00   2.177907e-02
  1.097492e+00    1.382129e+00   2.150537e-02
  1.099702e+00    1.397418e+00   2.157336e-02
  1.101912e+00    1.390397e+00   2.147109e-02
  1.104123e+00    1.396544e+00   2.147095e-02
  1.106333e+00    1.397705e+00   2.143599e-02
  1.108544e+00    1.417818e+00   2.154562e-02
  1.110754e+00    1.391967e+00   2.130579e-02
  1.112965e+00    1.414054e+00   2.143373e-02
  1.115175e+00    1.412273e+00   2.137917e-02
  1.117386e+00    1.413591e+00   2.134990e-02
  1.119596e+00    1.407979e+00   2.126967e-02
  1.121807e+00    1.370383e+00   2.094550e-02
  1.124017e+00    1.402287e+00   2.115131e-02
  1.126228e+00    1.390404e+00   2.102595e-02
  1.128438e+00    1.373478e+00   2.086117e-02
  1.130648e+00    1.384990e+00   2.091426e-02
  1.132859e+00    1.398725e+00   2.098332e-02
  1.135069e+00    1.393471e+00   2.090916e-02
  1.137280e+00    1.369052e+00   2.069239e-02
  1.139490e+00    1.355034e+00   2.055348e-02
  1.141701e+00    1.393993e+00   2.081365e-02
  1.143911e+00    1.353714e+00   2.047922e-02
  1.146122e+00    1.346311e+00   2.039154e-02
  1.148332e+00    1.333727e+00   2.026466e-02
  1.150543e+00    1.334403e+00   2.023945e-02
  1.152753e+00    1.344881e+00   2.028827e-02
  1.154963e+00    1.367746e+00   2.042902e-02
  1.157174e+00    1.361792e+00   2.035449e-02
  1.159384e+00    1.376630e+00   2.043515e-02
  1.161595e+00    1.404103e+00   2.060788e-02
  1.163805e+00    1.364552e+00   2.028634e-02
  1.166016e+00    1.340218e+00   2.007551e-02
  1.168226e+00    1.366729e+00   2.024412e-02
  1.170437e+00    1.387822e+00   2.037088e-02
  1.172647e+00    1.419079e+00   2.056957e-02
  1.174858e+00    1.405253e+00   2.044060e-02
  1.177068e+00    1.371281e+00   2.016368e-02
  1.179278e+00    1.381005e+00   2.020625e-02
  1.181489e+00    1.372744e+00   2.011859e-02
  1.183699e+00    1.362475e+00   2.001559e-02
  1.185910e+00    1.363358e+00   1.999424e-02
  1.188120e+00    1.349226e+00   1.986376e-02
  1.190331e+00    1.357089e+00   1.989473e-02
  1.192541e+00    1.400454e+00   2.018228e-02
  1.194752e+00    1.373567e+00   1.996036e-02
  1.196962e+00    1.353744e+00   1.979003e-02
  1.199173e+00    1.346714e+00   1.971211e-02
  1.201383e+00    1.340678e+00   1.964082e-02
  1.203593e+00    1.353825e+00   1.971204e-02
  1.205804e+00    1.330521e+00   1.951592e-02
  1.208014e+00    1.337774e+00   1.954230e-02
  1.210225e+00    1.314116e+00   1.934375e-02
  1.212435e+00    1.319463e+00   1.935854e-02
  1.214646e+00    1.352528e+00   1.957347e-02
  1.216856e+00    1.343214e+00   1.948055e-02
  1.219067e+00    1.346755e+00   1.948178e-02
  1.221277e+00    1.311845e+00   1.920296e-02
  1.223488e+00    1.333296e+00   1.933371e-02
  1.225698e+00    1.350171e+00   1.942879e-02
  1.227909e+00    1.324323e+00   1.921203e-02
  1.230119e+00    1.346655e+00   1.934154e-02
  1.232329e+00    1.329282e+00   1.918588e-02
  1.234540e+00    1.360980e+00   1.938286e-02
  1.236750e+00    1.358090e+00   1.933194e-02
  1.238961e+00    1.352581e+00   1.926567e-02
  1.241171e+00    1.352355e+00   1.923987e-02
  1.243382e+00    1.368690e+00   1.933204e-02
  1.245592e+00    1.369253e+00   1.931175e-02
  1.247803e+00    1.364494e+00   1.925439e-02
  1.250013e+00    1.354497e+00   1.916013e-02
  1.252224e+00    1.371020e+00   1.925322e-02
  1.254434e+00    1.376424e+00   1.926714e-02
  1.256644e+00    1.360932e+00   1.913512e-02
  1.258855e+00    1.362430e+00   1.912226e-02
  1.261065e+00    1.368522e+00   1.914143e-02
  1.263276e+00    1.355053e+00   1.902403e-02
  1.265486e+00    1.333734e+00   1.885105e-02
  1.267697e+00    1.328398e+00   1.879046e-02
  1.269907e+00    1.331328e+00   1.878864e-02
  1.272118e+00    1.313044e+00   1.863690e-02
  1.274328e+00    1.343084e+00   1.882620e-02
  1.276539e+00    1.348336e+00   1.884022e-02
  1.278749e+00    1.346582e+00   1.880570e-02
  1.280959e+00    1.331199e+00   1.867559e-02
  1.283170e+00    1.378045e+00   1.897868e-02
  1.285380e+00    1.416565e+00   1.921912e-02
  1.287591e+00    1.399578e+00   1.908110e-02
  1.289801e+00    1.411485e+00   1.914041e-02
  1.292012e+00    1.378586e+00   1.889875e-02
  1.294222e+00    1.401953e+00   1.904168e-02
  1.296433e+00    1.414893e+00   1.911342e-02
  1.298643e+00    1.366066e+00   1.876415e-02
  1.300854e+00    1.376423e+00   1.881855e-02
  1.303064e+00    1.403340e+00   1.898208e-02
  1.305274e+00    1.364089e+00   1.869320e-02
  1.307485e+00    1.352695e+00   1.859337e-02
  1.309695e+00    1.378124e+00   1.874488e-02
  1.311906e+00    1.361035e+00   1.860647e-02
  1.314116e+00    1.396773e+00   1.882804e-02
  1.316327e+00    1.365638e+00   1.859520e-02
  1.318537e+00    1.388131e+00   1.872551e-02
  1.320748e+00    1.414228e+00   1.887866e-02
  1.322958e+00    1.396203e+00   1.873710e-02
  1.325169e+00    1.401140e+00   1.874878e-02
  1.327379e+00    1.407157e+00   1.876672e-02
  1.329589e+00    1.422397e+00   1.884646e-02
  1.331800e+00    1.449949e+00   1.900665e-02
  1.334010e+00    1.425414e+00   1.882396e-02
  1.336221e+00    1.401127e+00   1.864072e-02
  1.338431e+00    1.396580e+00   1.858925e-02
  1.340642e+00    1.375792e+00   1.851514e-02
  1.342852e+00    1.393523e+00   1.873634e-02
  1.345063e+00    1.397166e+00   1.881118e-02
  1.347273e+00    1.372500e+00   1.867992e-02
  1.349484e+00    1.371565e+00   1.870143e-02
  1.351694e+00    1.370393e+00   1.871635e-02
  1.353905e+00    1.347309e+00   1.857600e-02
  1.356115e+00    1.341050e+00   1.854780e-02
  1.358325e+00    1.346831e+00   1.860104e-02
  1.360536e+00    1.344901e+00   1.859931e-02
  1.362746e+00    1.330526e+00   1.850915e-02
  1.364957e+00    1.329311e+00   1.850829e-02
  1.367167e+00    1.340195e+00   1.859104e-02
  1.369378e+00    1.336190e+00   1.856924e-02
  1.371588e+00    1.324094e+00   1.849009e-02
  1.373799e+00    1.349596e+00   1.867098e-02
  1.376009e+00    1.349428e+00   1.867325e-02
  1.378220e+00    1.339409e+00   1.860632e-02
  1.380430e+00    1.300755e+00   1.833857e-02
  1.382640e+00    1.278372e+00   1.818098e-02
  1.384851e+00    1.269340e+00   1.811748e-02
  1.387061e+00    1.313471e+00   1.843004e-02
  1.389272e+00    1.296487e+00   1.831071e-02
  1.391482e+00    1.295713e+00   1.830456e-02
  1.393693e+00    1.280146e+00   1.819340e-02
  1.395903e+00    1.334602e+00   1.857478e-02
  1.398114e+00    1.344446e+00   1.864179e-02
  1.400324e+00    1.302141e+00   1.834400e-02
  1.402535e+00    1.274502e+00   1.814596e-02
  1.404745e+00    1.271297e+00   1.812075e-02
  1.406955e+00    1.295589e+00   1.829035e-02
  1.409166e+00    1.284255e+00   1.820686e-02
  1.411376e+00    1.271672e+00   1.811431e-02
  1.413587e+00    1.281813e+00   1.818256e-02
  1.415797e+00    1.280634e+00   1.817066e-02
  1.418008e+00    1.243533e+00   1.786409e-02
  1.420218e+00    1.262656e+00   1.785158e-02
  1.422429e+00    1.286864e+00   1.793607e-02
  1.424639e+00    1.256555e+00   1.765922e-02
  1.426850e+00    1.266782e+00   1.767631e-02
  1.429060e+00    1.301207e+00   1.786529e-02
  1.431270e+00    1.311398e+00   1.789009e-02
  1.433481e+00    1.320790e+00   1.791227e-02
  1.435691e+00    1.322933e+00   1.788759e-02
  1.437902e+00    1.290842e+00   1.763253e-02
  1.440112e+00    1.321827e+00   1.780682e-02
  1.442323e+00    1.317808e+00   1.774610e-02
  1.444533e+00    1.316639e+00   1.770507e-02
  1.446744e+00    1.303192e+00   1.758291e-02
  1.448954e+00    1.275020e+00   1.736155e-02
  1.451165e+00    1.281777e+00   1.737759e-02
  1.453375e+00    1.298999e+00   1.746559e-02
  1.455586e+00    1.301758e+00   1.745562e-02
  1.457796e+00    1.276180e+00   1.725570e-02
  1.460006e+00    1.270025e+00   1.718678e-02
  1.462217e+00    1.263606e+00   1.711714e-02
  1.464427e+00    1.265478e+00   1.710424e-02
  1.466638e+00    1.253814e+00   1.700008e-02
  1.468848e+00    1.239994e+00   1.688107e-02
  1.471059e+00    1.266952e+00   1.703852e-02
  1.473269e+00    1.285737e+00   1.713985e-02
  1.475480e+00    1.265753e+00   1.698238e-02
  1.477690e+00    1.257571e+00   1.690368e-02
  1.479901e+00    1.238262e+00   1.674983e-02
  1.482111e+00    1.256719e+00   1.685097e-02
  1.484321e+00    1.255950e+00   1.682282e-02
  1.486532e+00    1.252167e+00   1.677525e-02
  1.488742e+00    1.262626e+00   1.682254e-02
  1.490953e+00    1.251957e+00   1.672881e-02
  1.493163e+00    1.261410e+00   1.676959e-02
  1.495374e+00    1.283623e+00   1.689492e-02
  1.497584e+00    1.279963e+00   1.684904e-02
  1.499795e+00    1.273758e+00   1.678636e-02
  1.502005e+00    1.264340e+00   1.670248e-02
  1.504216e+00    1.259025e+00   1.664630e-02
  1.506426e+00    1.235526e+00   1.646960e-02
  1.508636e+00    1.226228e+00   1.638731e-02
  1.510847e+00    1.246769e+00   1.650225e-02
  1.513057e+00    1.248998e+00   1.649199e-02
  1.515268e+00    1.239288e+00   1.640220e-02
  1.517478e+00    1.237784e+00   1.636727e-02
  1.519689e+00    1.239514e+00   1.635386e-02
  1.521899e+00    1.246810e+00   1.637889e-02
  1.524110e+00    1.253240e+00   1.640074e-02
  1.526320e+00    1.247921e+00   1.634634e-02
  1.528531e+00    1.264148e+00   1.643239e-02
  1.530741e+00    1.257593e+00   1.637056e-02
  1.532951e+00    1.244894e+00   1.626812e-02
  1.535162e+00    1.262986e+00   1.647300e-02
  1.537372e+00    1.226568e+00   1.630005e-02
  1.539583e+00    1.224520e+00   1.632033e-02
  1.541793e+00    1.242405e+00   1.644602e-02
  1.544004e+00    1.231660e+00   1.637502e-02
  1.546214e+00    1.238956e+00   1.642194e-02
  1.548425e+00    1.232666e+00   1.638046e-02
  1.550635e+00    1.234212e+00   1.640036e-02
  1.552846e+00    1.221249e+00   1.632359e-02
  1.555056e+00    1.195748e+00   1.611159e-02
  1.557266e+00    1.224724e+00   1.619605e-02
  1.559477e+00    1.230512e+00   1.617550e-02
  1.561687e+00    1.228042e+00   1.612880e-02
  1.563898e+00    1.252179e+00   1.626931e-02
  1.566108e+00    1.246432e+00   1.621597e-02
  1.568319e+00    1.246311e+00   1.619956e-02
  1.570529e+00    1.238973e+00   1.612671e-02
  1.572740e+00    1.242983e+00   1.612518e-02
  1.574950e+00    1.253282e+00   1.616544e-02
  1.577161e+00    1.257368e+00   1.616617e-02
  1.579371e+00    1.260551e+00   1.616281e-02
  1.581582e+00    1.261420e+00   1.614847e-02
  1.583792e+00    1.252285e+00   1.607183e-02
  1.586002e+00    1.225947e+00   1.588442e-02
  1.588213e+00    1.232810e+00   1.591164e-02
  1.590423e+00    1.247447e+00   1.598574e-02
  1.592634e+00    1.237384e+00   1.589956e-02
  1.594844e+00    1.232869e+00   1.584920e-02
  1.597055e+00    1.247845e+00   1.592466e-02
  1.599265e+00    1.229831e+00   1.578868e-02
  1.601476e+00    1.202299e+00   1.559094e-02
  1.603686e+00    1.214157e+00   1.564809e-02
  1.605897e+00    1.210294e+00   1.560326e-02
  1.608107e+00    1.204604e+00   1.554723e-02
  1.610317e+00    1.217950e+00   1.561397e-02
  1.612528e+00    1.200794e+00   1.548469e-02
  1.614738e+00    1.216714e+00   1.556817e-02
  1.616949e+00    1.225696e+00   1.560657e-02
  1.619159e+00    1.234900e+00   1.564622e-02
  1.621370e+00    1.216508e+00   1.551086e-02
  1.623580e+00    1.168976e+00   1.518681e-02
  1.625791e+00    1.176309e+00   1.521636e-02
  1.628001e+00    1.167167e+00   1.513911e-02
  1.630212e+00    1.171258e+00   1.514804e-02
  1.632422e+00    1.174070e+00   1.514840e-02
  1.634632e+00    1.199753e+00   1.529576e-02
  1.636843e+00    1.166749e+00   1.506646e-02
  1.639053e+00    1.146178e+00   1.491595e-02
  1.641264e+00    1.161037e+00   1.499530e-02
  1.643474e+00    1.148423e+00   1.489634e-02
  1.645685e+00    1.123432e+00   1.471695e-02
  1.647895e+00    1.129803e+00   1.474221e-02
  1.650106e+00    1.115045e+00   1.462888e-02
  1.652316e+00    1.104889e+00   1.454593e-02
  1.654527e+00    1.108599e+00   1.455391e-02
  1.656737e+00    1.098794e+00   1.447312e-02
  1.658947e+00    1.096959e+00   1.444501e-02
  1.661158e+00    1.106995e+00   1.449480e-02
  1.663368e+00    1.113317e+00   1.452019e-02
  1.665579e+00    1.112942e+00   1.450164e-02
  1.667789e+00    1.090807e+00   1.434066e-02
  1.670000e+00    1.091655e+00   1.433089e-02
  1.672210e+00    1.080084e+00   1.423907e-02
  1.674421e+00    1.089993e+00   1.428900e-02
  1.676631e+00    1.091677e+00   1.428425e-02
  1.678842e+00    1.119560e+00   1.444959e-02
  1.681052e+00    1.151219e+00   1.463667e-02
  1.683263e+00    1.172945e+00   1.475846e-02
  1.685473e+00    1.144281e+00   1.456146e-02
  1.687683e+00    1.090348e+00   1.419869e-02
  1.689894e+00    1.054778e+00   1.394958e-02
  1.692104e+00    1.061414e+00   1.397857e-02
  1.694315e+00    1.047021e+00   1.386914e-02
  1.696525e+00    1.042877e+00   1.382671e-02
  1.698736e+00    1.045128e+00   1.382694e-02
  1.700946e+00    1.035287e+00   1.374672e-02
  1.703157e+00    1.051443e+00   1.383897e-02
  1.705367e+00    1.032211e+00   1.369749e-02
  1.707578e+00    1.030293e+00   1.367029e-02
  1.709788e+00    1.023036e+00   1.360811e-02
  1.711998e+00    1.007437e+00   1.348920e-02
  1.714209e+00    1.037408e+00   1.367395e-02
  1.716419e+00    1.050744e+00   1.374719e-02
  1.718630e+00    1.031507e+00   1.360650e-02
  1.720840e+00    1.041499e+00   1.365796e-02
  1.723051e+00    1.038089e+00   1.362163e-02
  1.725261e+00    1.029927e+00   1.355325e-02
  1.727472e+00    1.004303e+00   1.336949e-02
  1.729682e+00    1.037246e+00   1.357337e-02
  1.731893e+00    1.083824e+00   1.386041e-02
  1.734103e+00    1.083838e+00   1.384623e-02
  1.736313e+00    1.073028e+00   1.376254e-02
  1.738524e+00    1.042466e+00   1.355102e-02
  1.740734e+00    9.941788e-01   1.321978e-02
  1.742945e+00    9.880822e-01   1.316579e-02
  1.745155e+00    9.710205e-01   1.303832e-02
  1.747366e+00    9.703388e-01   1.302006e-02
  1.749576e+00    9.785807e-01   1.306160e-02
  1.751787e+00    9.740299e-01   1.301795e-02
  1.753997e+00    9.472229e-01   1.282438e-02
  1.756208e+00    9.538004e-01   1.285578e-02
  1.758418e+00    9.601704e-01   1.288559e-02
  1.760628e+00    9.529020e-01   1.282350e-02
  1.762839e+00    9.859513e-01   1.303060e-02
  1.765049e+00    1.014471e+00   1.320427e-02
  1.767260e+00    9.555780e-01   1.280250e-02
  1.769470e+00    9.376191e-01   1.266874e-02
  1.771681e+00    9.373180e-01   1.265368e-02
  1.773891e+00    9.063607e-01   1.243021e-02
  1.776102e+00    9.453842e-01   1.268211e-02
  1.778312e+00    9.655914e-01   1.280407e-02
  1.780523e+00    9.809111e-01   1.289224e-02
  1.782733e+00    9.928182e-01   1.295723e-02
  1.784944e+00    9.525795e-01   1.267894e-02
  1.787154e+00    9.122479e-01   1.239522e-02
  1.789364e+00    9.408660e-01   1.257558e-02
  1.791575e+00    9.240454e-01   1.245016e-02
  1.793785e+00    9.032647e-01   1.229710e-02
  1.795996e+00    9.033979e-01   1.228560e-02
  1.798206e+00    9.118524e-01   1.233048e-02
  1.800417e+00    9.103558e-01   1.230772e-02
  1.802627e+00    9.015077e-01   1.223591e-02
  1.804838e+00    8.911075e-01   1.215318e-02
  1.807048e+00    8.961965e-01   1.217504e-02
  1.809259e+00    9.356080e-01   1.242607e-02
  1.811469e+00    9.491802e-01   1.250056e-02
  1.813679e+00    9.296367e-01   1.235599e-02
  1.815890e+00    8.868009e-01   1.205333e-02
  1.818100e+00    8.615460e-01   1.186563e-02
  1.820311e+00    8.615401e-01   1.185108e-02
  1.822521e+00    8.821448e-01   1.197719e-02
  1.824732e+00    8.796115e-01   1.194525e-02
  1.826942e+00    8.884922e-01   1.199305e-02
  1.829153e+00    8.749813e-01   1.188990e-02
  1.831363e+00    8.721047e-01   1.185839e-02
  1.833574e+00    8.652354e-01   1.180002e-02
  1.835784e+00    8.524261e-01   1.170111e-02
  1.837994e+00    8.595166e-01   1.173805e-02
  1.840205e+00    8.816136e-01   1.187679e-02
  1.842415e+00    8.636266e-01   1.174328e-02
  1.844626e+00    8.731784e-01   1.179649e-02
  1.846836e+00    8.548954e-01   1.166098e-02
  1.849047e+00    8.589190e-01   1.167684e-02
  1.851257e+00    8.246744e-01   1.143234e-02
  1.853468e+00    8.424891e-01   1.154645e-02
  1.855678e+00    8.501085e-01   1.158972e-02
  1.857889e+00    8.515076e-01   1.159080e-02
  1.860099e+00    8.574488e-01   1.162252e-02
  1.862309e+00    8.423799e-01   1.151152e-02
  1.864520e+00    8.400468e-01   1.148705e-02
  1.866730e+00    8.366745e-01   1.145470e-02
  1.868941e+00    8.507645e-01   1.153980e-02
  1.871151e+00    8.547277e-01   1.155526e-02
  1.873362e+00    8.351964e-01   1.141121e-02
  1.875572e+00    8.478620e-01   1.148648e-02
  1.877783e+00    8.723224e-01   1.163940e-02
  1.879993e+00    8.609807e-01   1.155226e-02
  1.882204e+00    8.604149e-01   1.153744e-02
  1.884414e+00    8.454999e-01   1.142594e-02
  1.886624e+00    8.379349e-01   1.136367e-02
  1.888835e+00    8.545149e-01   1.146447e-02
  1.891045e+00    8.430521e-01   1.137643e-02
  1.893256e+00    8.610070e-01   1.148569e-02
  1.895466e+00    8.440772e-01   1.136100e-02
  1.897677e+00    8.350126e-01   1.128892e-02
  1.899887e+00    8.443127e-01   1.134055e-02
  1.902098e+00    8.687984e-01   1.149273e-02
  1.904308e+00    8.696584e-01   1.148761e-02
  1.906519e+00    8.501811e-01   1.134727e-02
  1.908729e+00    8.394713e-01   1.126490e-02
  1.910940e+00    8.644779e-01   1.142005e-02
  1.913150e+00    9.145913e-01   1.173523e-02
  1.915360e+00    1.059259e+00   1.261725e-02
  1.917571e+00    1.060761e+00   1.261395e-02
  1.919781e+00    9.287280e-01   1.179150e-02
  1.921992e+00    8.502709e-01   1.127159e-02
  1.924202e+00    8.383231e-01   1.118121e-02
  1.926413e+00    8.525360e-01   1.126505e-02
  1.928623e+00    8.595070e-01   1.130021e-02
  1.930834e+00    8.390003e-01   1.115399e-02
  1.933044e+00    8.283497e-01   1.107218e-02
  1.935255e+00    8.263425e-01   1.104833e-02
  1.937465e+00    8.041919e-01   1.088888e-02
  1.939675e+00    7.907643e-01   1.078686e-02
  1.941886e+00    7.823113e-01   1.071888e-02
  1.944096e+00    8.237799e-01   1.098900e-02
  1.946307e+00    8.194565e-01   1.094970e-02
  1.948517e+00    8.089857e-01   1.086899e-02
  1.950728e+00    8.107347e-01   1.087043e-02
  1.952938e+00    7.821892e-01   1.066737e-02
  1.955149e+00    7.861169e-01   1.068391e-02
  1.957359e+00    7.746680e-01   1.059595e-02
  1.959570e+00    7.714674e-01   1.056331e-02
  1.961780e+00    7.709411e-01   1.054993e-02
  1.963990e+00    7.881144e-01   1.065669e-02
  1.966201e+00    7.730182e-01   1.054419e-02
  1.968411e+00    7.952134e-01   1.068429e-02
  1.970622e+00    7.999765e-01   1.070609e-02
  1.972832e+00    8.040706e-01   1.072337e-02
  1.975043e+00    7.997528e-01   1.068442e-02
  1.977253e+00    7.941136e-01   1.063667e-02
  1.979464e+00    8.005482e-01   1.066953e-02
  1.981674e+00    7.970861e-01   1.063608e-02
  1.983885e+00    7.936522e-01   1.060305e-02
  1.986095e+00    7.663434e-01   1.040943e-02
  1.988305e+00    7.778031e-01   1.047707e-02
  1.990516e+00    7.779759e-01   1.046833e-02
  1.992726e+00    7.735868e-01   1.042911e-02
  1.994937e+00    7.830198e-01   1.048233e-02
  1.997147e+00    7.762759e-01   1.042736e-02
  1.999358e+00    7.757809e-01   1.041419e-02
  2.001568e+00    7.504567e-01   1.023214e-02
  2.003779e+00    7.615284e-01   1.029551e-02
  2.005989e+00    7.750858e-01   1.037471e-02
  2.008200e+00    7.618583e-01   1.027433e-02
  2.010410e+00    7.486287e-01   1.017316e-02
  2.012621e+00    7.620461e-01   1.025225e-02
  2.014831e+00    7.588545e-01   1.021936e-02
  2.017041e+00    7.659390e-01   1.025656e-02
  2.019252e+00    7.828590e-01   1.035917e-02
  2.021462e+00    7.586056e-01   1.018798e-02
  2.023673e+00    7.496500e-01   1.011836e-02
  2.025883e+00    7.528383e-01   1.013040e-02
  2.028094e+00    7.582416e-01   1.015707e-02
  2.030304e+00    7.496449e-01   1.008988e-02
  2.032515e+00    7.509827e-01   1.008961e-02
  2.034725e+00    7.601736e-01   1.014175e-02
  2.036936e+00    7.473715e-01   1.004670e-02
  2.039146e+00    7.432423e-01   1.000943e-02
  2.041356e+00    7.597013e-01   1.010997e-02
  2.043567e+00    7.464388e-01   1.001213e-02
  2.045777e+00    7.407726e-01   9.964845e-03
  2.047988e+00    7.640991e-01   1.011113e-02
  2.050198e+00    7.424724e-01   9.958635e-03
  2.052409e+00    7.330608e-01   9.887771e-03
  2.054619e+00    7.321085e-01   9.874046e-03
  2.056830e+00    7.355976e-01   9.890460e-03
  2.059040e+00    7.342532e-01   9.873995e-03
  2.061251e+00    7.230732e-01   9.791399e-03
  2.063461e+00    7.488356e-01   9.956713e-03
  2.065671e+00    7.575929e-01   1.000599e-02
  2.067882e+00    7.488002e-01   9.938773e-03
  2.070092e+00    7.498190e-01   9.936304e-03
  2.072303e+00    7.401969e-01   9.863253e-03
  2.074513e+00    7.302245e-01   9.787363e-03
  2.076724e+00    7.296987e-01   9.774457e-03
  2.078934e+00    7.456331e-01   9.871582e-03
  2.081145e+00    7.530601e-01   9.911487e-03
  2.083355e+00    7.500116e-01   9.882184e-03
  2.085566e+00    7.331820e-01   9.761825e-03
  2.087776e+00    7.346377e-01   9.762033e-03
  2.089986e+00    7.113895e-01   9.597704e-03
  2.092197e+00    7.117164e-01   9.591106e-03
  2.094407e+00    7.139340e-01   9.596946e-03
  2.096618e+00    7.308795e-01   9.701306e-03
  2.098828e+00    7.212826e-01   9.628179e-03
  2.101039e+00    7.220798e-01   9.624581e-03
  2.103249e+00    7.151326e-01   9.569606e-03
  2.105460e+00    7.011554e-01   9.466791e-03
  2.107670e+00    7.038254e-01   9.476189e-03
  2.109881e+00    7.245358e-01   9.605474e-03
  2.112091e+00    7.065981e-01   9.476958e-03
  2.114301e+00    7.136014e-01   9.515082e-03
  2.116512e+00    7.167360e-01   9.527213e-03
  2.118722e+00    7.085658e-01   9.464006e-03
  2.120933e+00    7.176912e-01   9.515900e-03
  2.123143e+00    7.282555e-01   9.576731e-03
  2.125354e+00    7.042832e-01   9.409350e-03
  2.127564e+00    7.023386e-01   9.387692e-03
  2.129775e+00    6.885654e-01   9.286634e-03
  2.131985e+00    6.962278e-01   9.329210e-03
  2.134196e+00    6.919443e-01   9.292020e-03
  2.136406e+00    6.883833e-01   9.259475e-03
  2.138617e+00    6.920631e-01   9.275846e-03
  2.140827e+00    6.865546e-01   9.254662e-03
  2.143037e+00    6.891660e-01   9.317141e-03
  2.145248e+00    7.026401e-01   9.429727e-03
  2.147458e+00    6.979573e-01   9.413325e-03
  2.149669e+00    7.097957e-01   9.504737e-03
  2.151879e+00    6.863217e-01   9.355369e-03
  2.154090e+00    6.874907e-01   9.370564e-03
  2.156300e+00    6.906210e-01   9.398436e-03
  2.158511e+00    6.892805e-01   9.394587e-03
  2.160721e+00    6.853709e-01   9.372658e-03
  2.162932e+00    6.950985e-01   9.442677e-03
  2.165142e+00    6.907440e-01   9.416064e-03
  2.167352e+00    6.877717e-01   9.398681e-03
  2.169563e+00    6.731315e-01   9.300028e-03
  2.171773e+00    6.789081e-01   9.342268e-03
  2.173984e+00    6.886666e-01   9.410573e-03
  2.176194e+00    6.727913e-01   9.302676e-03
  2.178405e+00    6.575429e-01   9.197312e-03
  2.180615e+00    6.679000e-01   9.270143e-03
  2.182826e+00    6.598197e-01   9.214549e-03
  2.185036e+00    6.738901e-01   9.312337e-03
  2.187247e+00    6.797557e-01   9.352718e-03
  2.189457e+00    6.693571e-01   9.280531e-03
  2.191667e+00    6.659753e-01   9.256846e-03
  2.193878e+00    6.783932e-01   9.342209e-03
  2.196088e+00    6.794987e-01   9.349134e-03
  2.198299e+00    6.772482e-01   9.332555e-03
  2.200509e+00    6.927708e-01   9.437832e-03
  2.202720e+00    6.864308e-01   9.393401e-03
  2.204930e+00    6.871706e-01   9.397212e-03
  2.207141e+00    6.715764e-01   9.288871e-03
  2.209351e+00    6.842434e-01   9.374164e-03
  2.211562e+00    6.794462e-01   9.339641e-03
  2.213772e+00    6.633352e-01   9.173309e-03
  2.215982e+00    6.779488e-01   9.229517e-03
  2.218193e+00    6.704131e-01   9.148592e-03
  2.220403e+00    6.634640e-01   9.076647e-03
  2.222614e+00    6.628975e-01   9.052010e-03
  2.224824e+00    6.761347e-01   9.122493e-03
  2.227035e+00    6.802622e-01   9.132792e-03
  2.229245e+00    6.688308e-01   9.038774e-03
  2.231456e+00    6.962059e-01   9.206009e-03
  2.233666e+00    6.647813e-01   8.980813e-03
  2.235877e+00    6.796056e-01   9.066034e-03
  2.238087e+00    6.744482e-01   9.018038e-03
  2.240298e+00    6.838037e-01   9.066460e-03
  2.242508e+00    6.713796e-01   8.968557e-03
  2.244718e+00    6.950842e-01   9.109379e-03
  2.246929e+00    7.015635e-01   9.136986e-03
  2.249139e+00    6.912420e-01   9.056915e-03
  2.251350e+00    6.910691e-01   9.043872e-03
  2.253560e+00    6.732783e-01   8.915079e-03
  2.255771e+00    6.765710e-01   8.925335e-03
  2.257981e+00    6.896271e-01   8.999669e-03
  2.260192e+00    6.811892e-01   8.933187e-03
  2.262402e+00    6.798487e-01   8.913430e-03
  2.264613e+00    6.517516e-01   8.716572e-03
  2.266823e+00    6.478209e-01   8.679937e-03
  2.269033e+00    6.586637e-01   8.741941e-03
  2.271244e+00    6.734315e-01   8.828897e-03
  2.273454e+00    7.076069e-01   9.039548e-03
  2.275665e+00    7.445965e-01   9.261892e-03
  2.277875e+00    7.256240e-01   9.132751e-03
  2.280086e+00    6.862137e-01   8.871052e-03
  2.282296e+00    6.599924e-01   8.690477e-03
  2.284507e+00    6.491759e-01   8.608929e-03
  2.286717e+00    6.420122e-01   8.551919e-03
  2.288928e+00    6.609698e-01   8.667379e-03
  2.291138e+00    6.423671e-01   8.535224e-03
  2.293348e+00    6.474873e-01   8.559684e-03
  2.295559e+00    6.412050e-01   8.508859e-03
  2.297769e+00    6.491935e-01   8.552467e-03
  2.299980e+00    6.418878e-01   8.494974e-03
  2.302190e+00    6.366181e-01   8.451026e-03
  2.304401e+00    6.400281e-01   8.464379e-03
  2.306611e+00    6.524173e-01   8.536716e-03
  2.308822e+00    6.375811e-01   8.430799e-03
  2.311032e+00    6.544286e-01   8.534978e-03
  2.313243e+00    6.637296e-01   8.589082e-03
  2.315453e+00    6.620857e-01   8.570815e-03
  2.317663e+00    6.375052e-01   8.401148e-03
  2.319874e+00    6.442071e-01   8.436456e-03
  2.322084e+00    6.418551e-01   8.412125e-03
  2.324295e+00    6.453770e-01   8.426938e-03
  2.326505e+00    6.277585e-01   8.302196e-03
  2.328716e+00    6.220505e-01   8.255935e-03
  2.330926e+00    6.455382e-01   8.401543e-03
  2.333137e+00    6.454493e-01   8.392590e-03
  2.335347e+00    6.373059e-01   8.330625e-03
  2.337558e+00    6.357354e-01   8.312160e-03
  2.339768e+00    6.198943e-01   8.199506e-03
  2.341979e+00    6.301987e-01   8.259051e-03
  2.344189e+00    6.275206e-01   8.233184e-03
  2.346399e+00    6.297341e-01   8.239212e-03
  2.348610e+00    6.328443e-01   8.251110e-03
  2.350820e+00    6.503976e-01   8.356462e-03
  2.353031e+00    6.291342e-01   8.210505e-03
  2.355241e+00    6.149408e-01   8.109410e-03
  2.357452e+00    6.223989e-01   8.150069e-03
  2.359662e+00    6.273712e-01   8.174384e-03
  2.361873e+00    6.228356e-01   8.136587e-03
  2.364083e+00    6.244220e-01   8.138998e-03
  2.366294e+00    6.156466e-01   8.073558e-03
  2.368504e+00    6.194168e-01   8.090226e-03
  2.370714e+00    6.218666e-01   8.098164e-03
  2.372925e+00    6.180349e-01   8.065183e-03
  2.375135e+00    6.255754e-01   8.106155e-03
  2.377346e+00    6.163538e-01   8.038310e-03
  2.379556e+00    6.185514e-01   8.044740e-03
  2.381767e+00    6.111301e-01   7.988545e-03
  2.383977e+00    6.060491e-01   7.947422e-03
  2.386188e+00    6.235010e-01   8.053097e-03
  2.388398e+00    6.222140e-01   8.036808e-03
  2.390609e+00    6.050193e-01   7.917327e-03
  2.392819e+00    6.066221e-01   7.920099e-03
  2.395029e+00    6.105518e-01   7.938072e-03
  2.397240e+00    6.161231e-01   7.966335e-03
  2.399450e+00    5.981318e-01   7.841464e-03
  2.401661e+00    6.102237e-01   7.912640e-03
  2.403871e+00    6.187753e-01   7.960086e-03
  2.406082e+00    6.102803e-01   7.897840e-03
  2.408292e+00    5.990815e-01   7.817305e-03
  2.410503e+00    6.059093e-01   7.854243e-03
  2.412713e+00    6.009456e-01   7.814256e-03
  2.414924e+00    6.104642e-01   7.868388e-03
  2.417134e+00    5.843811e-01   7.690964e-03
  2.419344e+00    5.958009e-01   7.758364e-03
  2.421555e+00    5.841211e-01   7.674564e-03
  2.423765e+00    5.936278e-01   7.729369e-03
  2.425976e+00    6.123804e-01   7.842641e-03
  2.428186e+00    6.059061e-01   7.793822e-03
  2.430397e+00    5.836170e-01   7.641720e-03
  2.432607e+00    5.838873e-01   7.636285e-03
  2.434818e+00    5.795304e-01   7.600304e-03
  2.437028e+00    5.869834e-01   7.641897e-03
  2.439239e+00    5.982628e-01   7.707302e-03
  2.441449e+00    5.910105e-01   7.653248e-03
  2.443659e+00    5.876126e-01   7.623890e-03
  2.445870e+00    5.814261e-01   7.595825e-03
  2.448080e+00    5.630582e-01   7.509076e-03
  2.450291e+00    5.703671e-01   7.574141e-03
  2.452501e+00    5.863516e-01   7.690837e-03
  2.454712e+00    5.588437e-01   7.516580e-03
  2.456922e+00    5.643201e-01   7.559892e-03
  2.459133e+00    5.580440e-01   7.523133e-03
  2.461343e+00    5.571187e-01   7.521207e-03
  2.463554e+00    5.535119e-01   7.500248e-03
  2.465764e+00    5.532200e-01   7.501393e-03
  2.467975e+00    5.449746e-01   7.447522e-03
  2.470185e+00    5.428557e-01   7.435258e-03
  2.472395e+00    5.573171e-01   7.534863e-03
  2.474606e+00    5.448935e-01   7.451966e-03
  2.476816e+00    5.490587e-01   7.481115e-03
  2.479027e+00    5.573786e-01   7.538442e-03
  2.481237e+00    5.317148e-01   7.363135e-03
  2.483448e+00    5.276741e-01   7.335384e-03
  2.485658e+00    5.327609e-01   7.370514e-03
  2.487869e+00    5.300116e-01   7.351517e-03
  2.490079e+00    5.346765e-01   7.383275e-03
  2.492290e+00    5.338206e-01   7.376937e-03
  2.494500e+00    5.315446e-01   7.360475e-03
  2.496710e+00    5.233733e-01   7.302973e-03
  2.498921e+00    5.253596e-01   7.315855e-03
  2.501131e+00    5.159808e-01   7.249316e-03
  2.503342e+00    5.304269e-01   7.348828e-03
  2.505552e+00    5.310234e-01   7.351838e-03
  2.507763e+00    5.289507e-01   7.336068e-03
  2.509973e+00    5.258824e-01   7.313353e-03
  2.512184e+00    5.230522e-01   7.292062e-03
  2.514394e+00    5.223849e-01   7.278069e-03
  2.516605e+00    5.251518e-01   7.250317e-03
  2.518815e+00    5.354370e-01   7.292395e-03
  2.521025e+00    5.432924e-01   7.324378e-03
  2.523236e+00    5.338360e-01   7.242249e-03
  2.525446e+00    5.246642e-01   7.164162e-03
  2.527657e+00    5.271968e-01   7.166797e-03
  2.529867e+00    5.315691e-01   7.182184e-03
  2.532078e+00    5.493993e-01   7.286258e-03
  2.534288e+00    5.334989e-01   7.166074e-03
  2.536499e+00    5.279906e-01   7.116984e-03
  2.538709e+00    5.268063e-01   7.097974e-03
  2.540920e+00    5.706190e-01   7.376091e-03
  2.543130e+00    5.960088e-01   7.527434e-03
  2.545340e+00    5.526277e-01   7.237956e-03
  2.547551e+00    5.272843e-01   7.060054e-03
  2.549761e+00    5.169232e-01   6.980811e-03
  2.551972e+00    5.190529e-01   6.985835e-03
  2.554182e+00    5.186484e-01   6.973963e-03
  2.556393e+00    5.453551e-01   7.141951e-03
  2.558603e+00    5.605555e-01   7.231384e-03
  2.560814e+00    5.368099e-01   7.067749e-03
  2.563024e+00    5.366914e-01   7.058224e-03
  2.565235e+00    5.171986e-01   6.919383e-03
  2.567445e+00    5.172629e-01   6.910260e-03
  2.569656e+00    5.226768e-01   6.936539e-03
  2.571866e+00    5.138315e-01   6.868295e-03
  2.574076e+00    5.050082e-01   6.799889e-03
  2.576287e+00    5.209856e-01   6.898250e-03
  2.578497e+00    5.211743e-01   6.891621e-03
  2.580708e+00    5.216584e-01   6.886694e-03
  2.582918e+00    5.157854e-01   6.840040e-03
  2.585129e+00    5.156239e-01   6.831225e-03
  2.587339e+00    5.020984e-01   6.733435e-03
  2.589550e+00    5.087500e-01   6.770362e-03
  2.591760e+00    5.098825e-01   6.770182e-03
  2.593971e+00    5.077863e-01   6.748743e-03
  2.596181e+00    5.052635e-01   6.725783e-03
  2.598391e+00    4.937354e-01   6.643513e-03
  2.600602e+00    4.954950e-01   6.649504e-03
  2.602812e+00    5.013175e-01   6.680972e-03
  2.605023e+00    5.214359e-01   6.806462e-03
  2.607233e+00    4.929878e-01   6.611169e-03
  2.609444e+00    4.971866e-01   6.632080e-03
  2.611654e+00    5.098810e-01   6.708891e-03
  2.613865e+00    4.965747e-01   6.613794e-03
  2.616075e+00    4.956109e-01   6.600314e-03
  2.618286e+00    4.861816e-01   6.530361e-03
  2.620496e+00    4.922126e-01   6.564118e-03
  2.622706e+00    4.958808e-01   6.582850e-03
  2.624917e+00    5.020978e-01   6.618152e-03
  2.627127e+00    4.973089e-01   6.580818e-03
  2.629338e+00    4.994349e-01   6.588907e-03
  2.631548e+00    5.040535e-01   6.613145e-03
  2.633759e+00    5.074137e-01   6.627947e-03
  2.635969e+00    5.124333e-01   6.653907e-03
  2.638180e+00    4.928840e-01   6.518836e-03
  2.640390e+00    4.975010e-01   6.542698e-03
  2.642601e+00    4.983210e-01   6.541449e-03
  2.644811e+00    5.007369e-01   6.550200e-03
  2.647021e+00    5.117564e-01   6.615248e-03
  2.649232e+00    4.952842e-01   6.501230e-03
  2.651442e+00    4.931571e-01   6.480779e-03
  2.653653e+00    4.921271e-01   6.467268e-03
  2.655863e+00    4.935277e-01   6.469812e-03
  2.658074e+00    4.950579e-01   6.473240e-03
  2.660284e+00    5.120723e-01   6.577075e-03
  2.662495e+00    5.073877e-01   6.540124e-03
  2.664705e+00    5.044013e-01   6.514224e-03
  2.666916e+00    4.995409e-01   6.476286e-03
  2.669126e+00    5.047904e-01   6.503690e-03
  2.671337e+00    4.975955e-01   6.450594e-03
  2.673547e+00    4.982390e-01   6.448360e-03
  2.675757e+00    5.032849e-01   6.474429e-03
  2.677968e+00    4.914789e-01   6.391545e-03
  2.680178e+00    4.786400e-01   6.301194e-03
  2.682389e+00    4.917510e-01   6.380525e-03
  2.684599e+00    4.865843e-01   6.340785e-03
  2.686810e+00    4.779133e-01   6.277506e-03
  2.689020e+00    4.959863e-01   6.388785e-03
  2.691231e+00    4.839275e-01   6.304409e-03
  2.693441e+00    4.755105e-01   6.243292e-03
  2.695652e+00    4.880452e-01   6.318536e-03
  2.697862e+00    4.878981e-01   6.311252e-03
  2.700072e+00    4.939082e-01   6.343896e-03
  2.702283e+00    4.931811e-01   6.333006e-03
  2.704493e+00    4.852255e-01   6.275428e-03
  2.706704e+00    4.983828e-01   6.353481e-03
  2.708914e+00    4.908324e-01   6.299189e-03
  2.711125e+00    4.939320e-01   6.312766e-03
  2.713335e+00    4.916195e-01   6.291848e-03
  2.715546e+00    5.024522e-01   6.354225e-03
  2.717756e+00    4.892184e-01   6.264091e-03
  2.719967e+00    4.950247e-01   6.294886e-03
  2.722177e+00    4.897790e-01   6.255290e-03
  2.724387e+00    4.805671e-01   6.190120e-03
  2.726598e+00    4.660903e-01   6.090223e-03
  2.728808e+00    4.790669e-01   6.168302e-03
  2.731019e+00    4.839335e-01   6.193449e-03
  2.733229e+00    4.696667e-01   6.095749e-03
  2.735440e+00    4.798162e-01   6.155021e-03
  2.737650e+00    4.790262e-01   6.143959e-03
  2.739861e+00    5.045243e-01   6.299158e-03
  2.742071e+00    4.826847e-01   6.155580e-03
  2.744282e+00    4.835166e-01   6.154624e-03
  2.746492e+00    4.833465e-01   6.147501e-03
  2.748702e+00    4.798141e-01   6.119105e-03
  2.750913e+00    4.826230e-01   6.131185e-03
  2.753123e+00    4.848876e-01   6.139434e-03
  2.755334e+00    4.766851e-01   6.081217e-03
  2.757544e+00    4.754945e-01   6.067907e-03
  2.759755e+00    5.000252e-01   6.216455e-03
  2.761965e+00    4.815630e-01   6.094653e-03
  2.764176e+00    4.631183e-01   5.970891e-03
  2.766386e+00    4.747695e-01   6.039760e-03
  2.768597e+00    4.835807e-01   6.089685e-03
  2.770807e+00    4.755904e-01   6.033298e-03
  2.773017e+00    4.774395e-01   6.039057e-03
  2.775228e+00    4.802724e-01   6.051152e-03
  2.777438e+00    4.859103e-01   6.080726e-03
  2.779649e+00    4.674041e-01   5.957980e-03
  2.781859e+00    4.801926e-01   6.033142e-03
  2.784070e+00    4.684733e-01   5.953284e-03
  2.786280e+00    4.687725e-01   5.949446e-03
  2.788491e+00    4.828889e-01   6.032487e-03
  2.790701e+00    4.754258e-01   5.980071e-03
  2.792912e+00    4.684073e-01   5.929838e-03
  2.795122e+00    4.736369e-01   5.957130e-03
  2.797333e+00    4.728176e-01   5.946427e-03
  2.799543e+00    4.793526e-01   5.981511e-03
  2.801753e+00    4.646642e-01   5.883361e-03
  2.803964e+00    4.730511e-01   5.930556e-03
  2.806174e+00    4.745673e-01   5.933918e-03
  2.808385e+00    4.698831e-01   5.897803e-03
  2.810595e+00    4.823014e-01   5.968298e-03
  2.812806e+00    4.791444e-01   5.942103e-03
  2.815016e+00    4.739071e-01   5.904788e-03
  2.817227e+00    4.794311e-01   5.965181e-03
  2.819437e+00    4.681296e-01   5.905477e-03
  2.821648e+00    4.675038e-01   5.903792e-03
  2.823858e+00    4.709973e-01   5.931139e-03
  2.826068e+00    4.711212e-01   5.936888e-03
  2.828279e+00    4.694532e-01   5.930389e-03
  2.830489e+00    4.808277e-01   6.005175e-03
  2.832700e+00    4.757487e-01   5.975949e-03
  2.834910e+00    4.695465e-01   5.938918e-03
  2.837121e+00    4.593282e-01   5.875642e-03
  2.839331e+00    4.649797e-01   5.912881e-03
  2.841542e+00    4.612600e-01   5.890202e-03
  2.843752e+00    4.702033e-01   5.947805e-03
  2.845963e+00    4.683064e-01   5.936198e-03
  2.848173e+00    4.736065e-01   5.969780e-03
  2.850383e+00    4.696604e-01   5.945154e-03
  2.852594e+00    4.796785e-01   6.008147e-03
  2.854804e+00    4.653038e-01   5.916932e-03
  2.857015e+00    4.643350e-01   5.910350e-03
  2.859225e+00    4.661911e-01   5.921878e-03
  2.861436e+00    4.624229e-01   5.897268e-03
  2.863646e+00    4.573858e-01   5.865088e-03
  2.865857e+00    4.621778e-01   5.896059e-03
  2.868067e+00    4.715628e-01   5.955853e-03
  2.870278e+00    4.686454e-01   5.937055e-03
  2.872488e+00    4.587700e-01   5.873010e-03
  2.874698e+00    4.725458e-01   5.959467e-03
  2.876909e+00    4.765508e-01   5.983336e-03
  2.879119e+00    4.695879e-01   5.937834e-03
  2.881330e+00    4.578088e-01   5.861422e-03
  2.883540e+00    4.454610e-01   5.780467e-03
  2.885751e+00    4.555559e-01   5.843966e-03
  2.887961e+00    4.560345e-01   5.845164e-03
  2.890172e+00    4.590241e-01   5.862691e-03
  2.892382e+00    4.575318e-01   5.851354e-03
  2.894593e+00    4.596135e-01   5.862849e-03
  2.896803e+00    4.523364e-01   5.814275e-03
  2.899014e+00    4.588705e-01   5.854210e-03
  2.901224e+00    4.614162e-01   5.868440e-03
  2.903434e+00    4.486633e-01   5.784855e-03
  2.905645e+00    4.504097e-01   5.793894e-03
  2.907855e+00    4.555806e-01   5.824972e-03
  2.910066e+00    4.558627e-01   5.824684e-03
  2.912276e+00    4.602176e-01   5.850346e-03
  2.914487e+00    4.531446e-01   5.802758e-03
  2.916697e+00    4.531244e-01   5.800419e-03
  2.918908e+00    4.541584e-01   5.805032e-03
  2.921118e+00    4.648679e-01   5.870373e-03
  2.923329e+00    4.545135e-01   5.802328e-03
  2.925539e+00    4.520105e-01   5.784054e-03
  2.927749e+00    4.460143e-01   5.743264e-03
  2.929960e+00    4.525995e-01   5.782765e-03
  2.932170e+00    4.529557e-01   5.782709e-03
  2.934381e+00    4.416678e-01   5.707808e-03
  2.936591e+00    4.569779e-01   5.803299e-03
  2.938802e+00    4.477328e-01   5.741638e-03
  2.941012e+00    4.547240e-01   5.783929e-03
  2.943223e+00    4.693872e-01   5.873715e-03
  2.945433e+00    4.561482e-01   5.786573e-03
  2.947644e+00    4.521290e-01   5.756883e-03
  2.949854e+00    4.532413e-01   5.759715e-03
  2.952064e+00    4.474119e-01   5.718357e-03
  2.954275e+00    4.648595e-01   5.824333e-03
  2.956485e+00    4.550774e-01   5.758537e-03
  2.958696e+00    4.580415e-01   5.772878e-03
  2.960906e+00    4.539342e-01   5.742754e-03
  2.963117e+00    4.431483e-01   5.669705e-03
  2.965327e+00    4.397202e-01   5.643880e-03
  2.967538e+00    4.532464e-01   5.727117e-03
  2.969748e+00    4.486204e-01   5.695029e-03
  2.971959e+00    4.511074e-01   5.707657e-03
  2.974169e+00    4.480029e-01   5.685413e-03
  2.976379e+00    4.619298e-01   5.770173e-03
  2.978590e+00    4.596451e-01   5.752735e-03
  2.980800e+00    4.434486e-01   5.647714e-03
  2.983011e+00    4.423914e-01   5.638197e-03
  2.985221e+00    4.470801e-01   5.664870e-03
  2.987432e+00    4.553756e-01   5.714066e-03
  2.989642e+00    4.621898e-01   5.754010e-03
  2.991853e+00    4.712224e-01   5.806637e-03
  2.994063e+00    4.539912e-01   5.696574e-03
  2.996274e+00    4.524401e-01   5.683646e-03
  2.998484e+00    4.724393e-01   5.805145e-03
  3.000694e+00    4.762673e-01   5.825086e-03
  3.002905e+00    4.606268e-01   5.725692e-03
  3.005115e+00    4.710846e-01   5.787272e-03
  3.007326e+00    4.645616e-01   5.743873e-03
  3.009536e+00    4.661033e-01   5.750087e-03
  3.011747e+00    4.787073e-01   5.824339e-03
  3.013957e+00    4.604650e-01   5.709080e-03
  3.016168e+00    4.425032e-01   5.593391e-03
  3.018378e+00    4.577664e-01   5.685969e-03
  3.020589e+00    4.620273e-01   5.709138e-03
  3.022799e+00    4.518400e-01   5.642695e-03
  3.025010e+00    4.447873e-01   5.595270e-03
  3.027220e+00    4.405584e-01   5.565531e-03
  3.029430e+00    4.468143e-01   5.601675e-03
  3.031641e+00    4.563444e-01   5.657947e-03
  3.033851e+00    4.397897e-01   5.550919e-03
  3.036062e+00    4.533124e-01   5.632811e-03
  3.038272e+00    4.467286e-01   5.588209e-03
  3.040483e+00    4.489595e-01   5.598923e-03
  3.042693e+00    4.658754e-01   5.700117e-03
  3.044904e+00    4.492464e-01   5.593450e-03
  3.047114e+00    4.489206e-01   5.586621e-03
  3.049325e+00    4.570691e-01   5.632665e-03
  3.051535e+00    4.493872e-01   5.580760e-03
  3.053745e+00    4.426833e-01   5.534264e-03
  3.055956e+00    4.424859e-01   5.528492e-03
  3.058166e+00    4.436640e-01   5.531617e-03
  3.060377e+00    4.425612e-01   5.520002e-03
  3.062587e+00    4.540348e-01   5.586461e-03
  3.064798e+00    4.488369e-01   5.550146e-03
  3.067008e+00    4.402832e-01   5.492317e-03
  3.069219e+00    4.656710e-01   5.643837e-03
  3.071429e+00    4.633998e-01   5.626536e-03
  3.073640e+00    4.414199e-01   5.488156e-03
  3.075850e+00    4.528192e-01   5.554967e-03
  3.078060e+00    4.559510e-01   5.571010e-03
  3.080271e+00    4.394165e-01   5.465636e-03
  3.082481e+00    4.447835e-01   5.495470e-03
  3.084692e+00    4.499601e-01   5.523979e-03
  3.086902e+00    4.547378e-01   5.549961e-03
  3.089113e+00    4.538817e-01   5.541142e-03
  3.091323e+00    4.579305e-01   5.562393e-03
  3.093534e+00    4.558913e-01   5.546586e-03
  3.095744e+00    4.539726e-01   5.531507e-03
  3.097955e+00    4.535439e-01   5.525325e-03
  3.100165e+00    4.575351e-01   5.546202e-03
  3.102375e+00    4.556853e-01   5.531533e-03
  3.104586e+00    4.572976e-01   5.537778e-03
  3.106796e+00    4.487816e-01   5.482438e-03
  3.109007e+00    4.543154e-01   5.512903e-03
  3.111217e+00    4.536388e-01   5.505052e-03
  3.113428e+00    4.634387e-01   5.560732e-03
  3.115638e+00    4.480623e-01   5.464459e-03
  3.117849e+00    4.494074e-01   5.468913e-03
  3.120059e+00    4.427274e-01   5.424650e-03
  3.122270e+00    4.451726e-01   5.436365e-03
  3.124480e+00    4.470303e-01   5.443991e-03
  3.126691e+00    4.471732e-01   5.441300e-03
  3.128901e+00    4.632583e-01   5.535090e-03
  3.131111e+00    4.575102e-01   5.496771e-03
  3.133322e+00    4.508205e-01   5.452964e-03
  3.135532e+00    4.412030e-01   5.391073e-03
  3.137743e+00    4.502040e-01   5.442298e-03
  3.139953e+00    4.363469e-01   5.354246e-03
  3.142164e+00    4.389740e-01   5.382277e-03
  3.144374e+00    4.467242e-01   5.458142e-03
  3.146585e+00    4.438558e-01   5.455181e-03
  3.148795e+00    4.411954e-01   5.449553e-03
  3.151006e+00    4.570318e-01   5.555194e-03
  3.153216e+00    4.594665e-01   5.577257e-03
  3.155426e+00    4.467178e-01   5.505688e-03
  3.157637e+00    4.500319e-01   5.531640e-03
  3.159847e+00    4.383917e-01   5.464508e-03
  3.162058e+00    4.516380e-01   5.550936e-03
  3.164268e+00    4.360443e-01   5.458322e-03
  3.166479e+00    4.326776e-01   5.440812e-03
  3.168689e+00    4.409861e-01   5.496180e-03
  3.170900e+00    4.438224e-01   5.517011e-03
  3.173110e+00    4.328394e-01   5.451190e-03
  3.175321e+00    4.514830e-01   5.569859e-03
  3.177531e+00    4.554428e-01   5.597041e-03
  3.179741e+00    4.431553e-01   5.523111e-03
  3.181952e+00    4.332318e-01   5.463017e-03
  3.184162e+00    4.435726e-01   5.530031e-03
  3.186373e+00    4.478498e-01   5.558246e-03
  3.188583e+00    4.425173e-01   5.526869e-03
  3.190794e+00    4.385818e-01   5.504001e-03
  3.193004e+00    4.231766e-01   5.407673e-03
  3.195215e+00    4.409563e-01   5.521626e-03
  3.197425e+00    4.320375e-01   5.466715e-03
  3.199636e+00    4.411646e-01   5.523376e-03
  3.201846e+00    4.275382e-01   5.436817e-03
  3.204056e+00    4.359042e-01   5.490615e-03
  3.206267e+00    4.439972e-01   5.542230e-03
  3.208477e+00    4.292603e-01   5.450390e-03
  3.210688e+00    4.492500e-01   5.576709e-03
  3.212898e+00    4.394224e-01   5.515968e-03
  3.215109e+00    4.396224e-01   5.517961e-03
  3.217319e+00    4.375759e-01   5.505769e-03
  3.219530e+00    4.290659e-01   5.452341e-03
  3.221740e+00    4.292291e-01   5.453943e-03
  3.223951e+00    4.259060e-01   5.433262e-03
  3.226161e+00    4.292775e-01   5.454911e-03
  3.228372e+00    4.306788e-01   5.464335e-03
  3.230582e+00    4.327429e-01   5.477550e-03
  3.232792e+00    4.248655e-01   5.427691e-03
  3.235003e+00    4.285717e-01   5.451564e-03
  3.237213e+00    4.289906e-01   5.454326e-03
  3.239424e+00    4.374837e-01   5.508042e-03
  3.241634e+00    4.264860e-01   5.438513e-03
  3.243845e+00    4.249560e-01   5.428807e-03
  3.246055e+00    4.276777e-01   5.445894e-03
  3.248266e+00    4.239148e-01   5.422089e-03
  3.250476e+00    4.047952e-01   5.298116e-03
  3.252687e+00    4.214205e-01   5.405714e-03
  3.254897e+00    4.331947e-01   5.480597e-03
  3.257107e+00    4.333071e-01   5.480998e-03
  3.259318e+00    4.401975e-01   5.524164e-03
  3.261528e+00    4.426410e-01   5.539352e-03
  3.263739e+00    4.197900e-01   5.393907e-03
  3.265949e+00    4.270099e-01   5.439969e-03
  3.268160e+00    4.266787e-01   5.437441e-03
  3.270370e+00    4.160503e-01   5.368805e-03
  3.272581e+00    4.278047e-01   5.443807e-03
  3.274791e+00    4.103067e-01   5.330829e-03
  3.277002e+00    4.303775e-01   5.459054e-03
  3.279212e+00    4.242519e-01   5.419721e-03
  3.281422e+00    4.086251e-01   5.318383e-03
  3.283633e+00    4.251188e-01   5.423965e-03
  3.285843e+00    4.336304e-01   5.477679e-03
  3.288054e+00    4.239730e-01   5.415382e-03
  3.290264e+00    4.161019e-01   5.364587e-03
  3.292475e+00    4.154342e-01   5.359444e-03
  3.294685e+00    4.261014e-01   5.427176e-03
  3.296896e+00    4.159931e-01   5.361675e-03
  3.299106e+00    4.091461e-01   5.316821e-03
  3.301317e+00    4.125933e-01   5.338143e-03
  3.303527e+00    4.219832e-01   5.398092e-03
  3.305737e+00    4.260897e-01   5.423238e-03
  3.307948e+00    4.187519e-01   5.375671e-03
  3.310158e+00    4.320334e-01   5.459400e-03
  3.312369e+00    4.271991e-01   5.427897e-03
  3.314579e+00    4.073893e-01   5.299644e-03
  3.316790e+00    4.257970e-01   5.417329e-03
  3.319000e+00    4.313795e-01   5.451543e-03
  3.321211e+00    4.171469e-01   5.360278e-03
  3.323421e+00    4.308238e-01   5.446188e-03
  3.325632e+00    4.276786e-01   5.425398e-03
  3.327842e+00    4.116321e-01   5.321748e-03
  3.330052e+00    4.174490e-01   5.358133e-03
  3.332263e+00    4.241966e-01   5.400256e-03
  3.334473e+00    4.175401e-01   5.356805e-03
  3.336684e+00    4.340824e-01   5.460601e-03
  3.338894e+00    4.079634e-01   5.292974e-03
  3.341105e+00    4.219572e-01   5.381736e-03
  3.343315e+00    4.147238e-01   5.334295e-03
  3.345526e+00    4.170330e-01   5.348220e-03
  3.347736e+00    4.164732e-01   5.343234e-03
  3.349947e+00    4.092415e-01   5.295725e-03
  3.352157e+00    4.146307e-01   5.329295e-03
  3.354368e+00    4.220030e-01   5.375182e-03
  3.356578e+00    4.162865e-01   5.337646e-03
  3.358788e+00    4.146155e-01   5.325564e-03
  3.360999e+00    4.306603e-01   5.426399e-03
  3.363209e+00    4.121699e-01   5.307618e-03
  3.365420e+00    4.182515e-01   5.345081e-03
  3.367630e+00    4.350618e-01   5.450430e-03
  3.369841e+00    4.342109e-01   5.443639e-03
  3.372051e+00    4.205318e-01   5.355233e-03
  3.374262e+00    4.226456e-01   5.366206e-03
  3.376472e+00    4.236746e-01   5.370273e-03
  3.378683e+00    4.048474e-01   5.247117e-03
  3.380893e+00    4.177899e-01   5.327980e-03
  3.383103e+00    4.150483e-01   5.307783e-03
  3.385314e+00    4.043718e-01   5.236877e-03
  3.387524e+00    4.024792e-01   5.221883e-03
  3.389735e+00    4.104667e-01   5.270871e-03
  3.391945e+00    3.976803e-01   5.184472e-03
  3.394156e+00    4.192845e-01   5.319196e-03
  3.396366e+00    4.161069e-01   5.295594e-03
  3.398577e+00    4.165379e-01   5.295272e-03
  3.400787e+00    4.049580e-01   5.232964e-03
  3.402998e+00    4.024751e-01   5.254614e-03
  3.405208e+00    3.943883e-01   5.221921e-03
  3.407418e+00    4.063338e-01   5.316324e-03
  3.409629e+00    3.930397e-01   5.242432e-03
  3.411839e+00    3.935167e-01   5.257315e-03
  3.414050e+00    3.974856e-01   5.294746e-03
  3.416260e+00    3.966686e-01   5.298990e-03
  3.418471e+00    3.934613e-01   5.286920e-03
  3.420681e+00    4.037160e-01   5.363999e-03
  3.422892e+00    3.743958e-01   5.173393e-03
  3.425102e+00    3.713995e-01   5.160254e-03
  3.427313e+00    3.818343e-01   5.239379e-03
  3.429523e+00    3.767868e-01   5.211592e-03
  3.431733e+00    3.840303e-01   5.268108e-03
  3.433944e+00    3.823426e-01   5.262985e-03
  3.436154e+00    3.684242e-01   5.172446e-03
  3.438365e+00    3.557180e-01   5.088145e-03
  3.440575e+00    3.783349e-01   5.253339e-03
  3.442786e+00    3.802113e-01   5.271971e-03
  3.444996e+00    3.802663e-01   5.277878e-03
  3.447207e+00    3.628573e-01   5.160875e-03
  3.449417e+00    3.504640e-01   5.111569e-03
  3.451628e+00    3.564573e-01   5.184068e-03
  3.453838e+00    3.683062e-01   5.290675e-03
  3.456049e+00    3.728203e-01   5.347117e-03
  3.458259e+00    3.628908e-01   5.297255e-03
  3.460469e+00    3.707561e-01   5.374239e-03
  3.462680e+00    3.867890e-01   5.508806e-03
  3.464890e+00    3.749807e-01   5.442077e-03
  3.467101e+00    3.686330e-01   5.413323e-03
  3.469311e+00    3.833523e-01   5.537149e-03
  3.471522e+00    3.971041e-01   5.652467e-03
  3.473732e+00    3.945320e-01   5.650431e-03
  3.475943e+00    3.970428e-01   5.684365e-03
  3.478153e+00    4.010952e-01   5.729006e-03
  3.480364e+00    4.029830e-01   5.757795e-03
  3.482574e+00    4.114256e-01   5.833291e-03
  3.484784e+00    4.254930e-01   5.947307e-03
  3.486995e+00    4.305523e-01   5.997935e-03
  3.489205e+00    4.179167e-01   5.923831e-03
  3.491416e+00    4.443580e-01   6.123567e-03
  3.493626e+00    4.242473e-01   5.997831e-03
  3.495837e+00    4.365264e-01   6.098671e-03
  3.498047e+00    4.576421e-01   6.259142e-03
  3.500258e+00    4.566806e-01   6.267213e-03
  3.502468e+00    4.642884e-01   6.333774e-03
  3.504679e+00    4.731275e-01   6.408492e-03
  3.506889e+00    4.742983e-01   6.430971e-03
  3.509099e+00    4.850285e-01   6.517855e-03
  3.511310e+00    4.795875e-01   6.495753e-03
  3.513520e+00    4.986182e-01   6.637994e-03
  3.515731e+00    5.031480e-01   6.682741e-03
  3.517941e+00    4.926712e-01   6.627184e-03
  3.520152e+00    5.060164e-01   6.730823e-03
  3.522362e+00    4.994842e-01   6.701713e-03
  3.524573e+00    4.902567e-01   6.653580e-03
  3.526783e+00    4.870915e-01   6.645089e-03
  3.528994e+00    5.011662e-01   6.752464e-03
  3.531204e+00    5.011992e-01   6.764916e-03
  3.533414e+00    5.114539e-01   6.845676e-03
  3.535625e+00    5.267772e-01   6.959826e-03
  3.537835e+00    5.292656e-01   6.988311e-03
  3.540046e+00    5.500714e-01   7.133399e-03
  3.542256e+00    5.412201e-01   7.083380e-03
  3.544467e+00    5.328901e-01   7.036224e-03
  3.546677e+00    5.327933e-01   7.043146e-03
  3.548888e+00    5.435265e-01   7.121290e-03
  3.551098e+00    5.361336e-01   7.079982e-03
  3.553309e+00    5.424486e-01   7.129763e-03
  3.555519e+00    5.399293e-01   7.124543e-03
  3.557729e+00    5.503609e-01   7.204896e-03
  3.559940e+00    5.335158e-01   7.105312e-03
  3.562150e+00    5.545339e-01   7.255821e-03
  3.564361e+00    5.396551e-01   7.171188e-03
  3.566571e+00    5.344344e-01   7.150248e-03
  3.568782e+00    5.075081e-01   6.981531e-03
  3.570992e+00    5.136271e-01   7.036904e-03
  3.573203e+00    5.118086e-01   7.038306e-03
  3.575413e+00    5.297450e-01   7.174241e-03
  3.577624e+00    5.284213e-01   7.179299e-03
  3.579834e+00    5.337172e-01   7.229041e-03
  3.582045e+00    5.290236e-01   7.211129e-03
  3.584255e+00    5.495161e-01   7.363698e-03
  3.586465e+00    5.378250e-01   7.298903e-03
  3.588676e+00    5.279762e-01   7.245865e-03
  3.590886e+00    5.366608e-01   7.318911e-03
  3.593097e+00    5.381399e-01   7.343525e-03
  3.595307e+00    5.296682e-01   7.299330e-03
  3.597518e+00    5.259002e-01   7.287445e-03
  3.599728e+00    5.229925e-01   7.281157e-03
  3.601939e+00    5.446112e-01   7.444328e-03
  3.604149e+00    5.308310e-01   7.363885e-03
  3.606360e+00    5.303978e-01   7.374961e-03
  3.608570e+00    5.234646e-01   7.340616e-03
  3.610780e+00    5.384712e-01   7.456143e-03
  3.612991e+00    5.263240e-01   7.381529e-03
  3.615201e+00    5.456418e-01   7.525656e-03
  3.617412e+00    5.361745e-01   7.467385e-03
  3.619622e+00    5.382742e-01   7.487941e-03
  3.621833e+00    5.438378e-01   7.533325e-03
  3.624043e+00    5.496627e-01   7.583207e-03
  3.626254e+00    5.395607e-01   7.522941e-03
  3.628464e+00    5.410722e-01   7.544538e-03
  3.630675e+00    5.248306e-01   7.444406e-03
  3.632885e+00    5.213194e-01   7.433750e-03
  3.635095e+00    5.322606e-01   7.525716e-03
  3.637306e+00    5.304008e-01   7.526923e-03
  3.639516e+00    5.260475e-01   7.510371e-03
  3.641727e+00    5.363783e-01   7.598359e-03
  3.643937e+00    5.524415e-01   7.726146e-03
  3.646148e+00    5.253263e-01   7.548603e-03
  3.648358e+00    5.512934e-01   7.748085e-03
  3.650569e+00    5.343533e-01   7.642836e-03
  3.652779e+00    5.272297e-01   7.606437e-03
  3.654990e+00    5.214716e-01   7.579496e-03
  3.657200e+00    5.395617e-01   7.724818e-03
  3.659410e+00    5.445604e-01   7.775709e-03
  3.661621e+00    5.520135e-01   7.844096e-03
  3.663831e+00    5.340970e-01   7.730931e-03
  3.666042e+00    5.225253e-01   7.661746e-03
  3.668252e+00    5.173284e-01   7.638578e-03
  3.670463e+00    5.256022e-01   7.714569e-03
  3.672673e+00    5.124359e-01   7.632474e-03
  3.674884e+00    5.440403e-01   7.879925e-03
  3.677094e+00    5.397685e-01   7.864582e-03
  3.679305e+00    5.231349e-01   7.757895e-03
  3.681515e+00    5.273297e-01   7.804531e-03
  3.683726e+00    5.114623e-01   7.701717e-03
  3.685936e+00    5.307600e-01   7.861399e-03
  3.688146e+00    5.103603e-01   7.724409e-03
  3.690357e+00    5.111255e-01   7.745795e-03
  3.692567e+00    5.418070e-01   7.991311e-03
  3.694778e+00    5.147989e-01   7.805431e-03
  3.696988e+00    4.977484e-01   7.690620e-03
  3.699199e+00    5.198677e-01   7.875785e-03
  3.701409e+00    5.075601e-01   7.798157e-03
  3.703620e+00    5.344967e-01   8.018798e-03
  3.705830e+00    5.301643e-01   8.002755e-03
  3.708041e+00    5.170981e-01   7.920026e-03
  3.710251e+00    5.151500e-01   7.921658e-03
  3.712461e+00    5.199062e-01   7.974828e-03
  3.714672e+00    5.122987e-01   7.932846e-03
  3.716882e+00    5.188239e-01   7.999896e-03
  3.719093e+00    5.157377e-01   7.993100e-03
  3.721303e+00    5.337614e-01   8.148782e-03
  3.723514e+00    5.217214e-01   8.073673e-03
  3.725724e+00    5.103686e-01   8.002346e-03
  3.727935e+00    5.225422e-01   8.114778e-03
  3.730145e+00    5.186360e-01   8.101734e-03
  3.732356e+00    5.171192e-01   8.107426e-03
  3.734566e+00    5.281734e-01   8.211420e-03
  3.736776e+00    5.068653e-01   8.061626e-03
  3.738987e+00    5.294568e-01   8.257374e-03
  3.741197e+00    5.018319e-01   8.056879e-03
  3.743408e+00    5.106859e-01   8.145630e-03
  3.745618e+00    5.128962e-01   8.181551e-03
  3.747829e+00    5.000801e-01   8.096596e-03
  3.750039e+00    5.114405e-01   8.206395e-03
  3.752250e+00    4.892963e-01   8.044850e-03
  3.754460e+00    4.824993e-01   8.006821e-03
  3.756671e+00    4.756920e-01   7.968304e-03
  3.758881e+00    5.011891e-01   8.197553e-03
  3.761091e+00    4.905208e-01   8.128646e-03
  3.763302e+00    4.979421e-01   8.208793e-03
  3.765512e+00    4.939070e-01   8.194484e-03
  3.767723e+00    5.035695e-01   8.293426e-03
  3.769933e+00    5.225740e-01   8.468239e-03
  3.772144e+00    5.051137e-01   8.345068e-03
  3.774354e+00    4.977122e-01   8.303437e-03
  3.776565e+00    4.847132e-01   8.213739e-03
  3.778775e+00    4.762190e-01   8.160724e-03
  3.780986e+00    4.978407e-01   8.364197e-03
  3.783196e+00    5.093321e-01   8.480540e-03
  3.785407e+00    4.932289e-01   8.365614e-03
  3.787617e+00    5.070305e-01   8.502686e-03
  3.789827e+00    4.876892e-01   8.359199e-03
  3.792038e+00    4.882157e-01   8.384200e-03
  3.794248e+00    5.016080e-01   8.519643e-03
  3.796459e+00    4.731252e-01   8.294941e-03
  3.798669e+00    5.059457e-01   8.599286e-03
  3.800880e+00    5.185407e-01   8.727510e-03
  3.803090e+00    5.152469e-01   8.721948e-03
  3.805301e+00    4.974818e-01   8.592224e-03
  3.807511e+00    5.140162e-01   8.756194e-03
  3.809722e+00    4.986878e-01   8.646845e-03
  3.811932e+00    4.886756e-01   8.581610e-03
  3.814142e+00    5.049908e-01   8.746615e-03
  3.816353e+00    5.231369e-01   8.925865e-03
  3.818563e+00    4.970919e-01   8.723867e-03
  3.820774e+00    4.896347e-01   8.681133e-03
  3.822984e+00    4.839200e-01   8.653361e-03
  3.825195e+00    5.028407e-01   8.844728e-03
  3.827405e+00    5.283601e-01   9.091043e-03
  3.829616e+00    5.110464e-01   8.965235e-03
  3.831826e+00    5.114003e-01   8.992808e-03
  3.834037e+00    5.020569e-01   8.934935e-03
  3.836247e+00    4.977200e-01   8.921014e-03
  3.838457e+00    4.864577e-01   8.844214e-03
  3.840668e+00    4.946308e-01   8.943412e-03
  3.842878e+00    4.745016e-01   8.784442e-03
  3.845089e+00    4.990640e-01   9.034610e-03
  3.847299e+00    4.868855e-01   8.949237e-03
  3.849510e+00    5.130464e-01   9.212848e-03
  3.851720e+00    5.266451e-01   9.356274e-03
  3.853931e+00    5.022481e-01   9.156154e-03
  3.856141e+00    4.829503e-01   8.997209e-03
  3.858352e+00    5.015495e-01   9.188319e-03
  3.860562e+00    4.919944e-01   9.119580e-03
  3.862772e+00    4.907038e-01   9.127098e-03
  3.864983e+00    4.995442e-01   9.228770e-03
  3.867193e+00    5.069862e-01   9.317303e-03
  3.869404e+00    4.835106e-01   9.118648e-03
  3.871614e+00    4.818937e-01   9.123166e-03
  3.873825e+00    4.963241e-01   9.279111e-03
  3.876035e+00    4.889768e-01   9.230630e-03
  3.878246e+00    4.836743e-01   9.206000e-03
  3.880456e+00    4.946295e-01   9.338774e-03
  3.882667e+00    4.962783e-01   9.383755e-03
  3.884877e+00    4.777262e-01   9.235997e-03
  3.887087e+00    4.644692e-01   9.136076e-03
  3.889298e+00    4.620328e-01   9.141490e-03
  3.891508e+00    5.090781e-01   9.626716e-03
  3.893719e+00    4.870432e-01   9.446965e-03
  3.895929e+00    4.927208e-01   9.533368e-03
  3.898140e+00    4.758396e-01   9.399835e-03
  3.900350e+00    4.885498e-01   9.556605e-03
  3.902561e+00    4.825909e-01   9.530271e-03
  3.904771e+00    4.720696e-01   9.458002e-03
  3.906982e+00    5.033237e-01   9.799687e-03
  3.909192e+00    5.064046e-01   9.863803e-03
  3.911403e+00    4.839463e-01   9.676337e-03
  3.913613e+00    4.962400e-01   9.833043e-03
  3.915823e+00    5.029083e-01   9.934220e-03
  3.918034e+00    5.137696e-01   1.007705e-02
  3.920244e+00    4.788145e-01   9.763638e-03
  3.922455e+00    4.624813e-01   9.630727e-03
  3.924665e+00    5.021189e-01   1.007193e-02
  3.926876e+00    4.811662e-01   9.896365e-03
  3.929086e+00    4.937385e-01   1.006250e-02
  3.931297e+00    4.614817e-01   9.762043e-03
  3.933507e+00    4.911458e-01   1.009995e-02
  3.935718e+00    5.179318e-01   1.040132e-02
  3.937928e+00    5.163251e-01   1.041556e-02
  3.940138e+00    4.937427e-01   1.021476e-02
  3.942349e+00    4.732143e-01   1.002954e-02
  3.944559e+00    4.893753e-01   1.022949e-02
  3.946770e+00    5.172949e-01   1.054828e-02
  3.948980e+00    4.903837e-01   1.030120e-02
  3.951191e+00    4.942501e-01   1.037269e-02
  3.953401e+00    5.063546e-01   1.053101e-02
  3.955612e+00    4.651106e-01   1.012399e-02
  3.957822e+00    4.543146e-01   1.003635e-02
  3.960033e+00    5.142904e-01   1.071186e-02
  3.962243e+00    4.922678e-01   1.051313e-02
  3.964453e+00    4.755806e-01   1.036607e-02
  3.966664e+00    4.859599e-01   1.051206e-02
  3.968874e+00    4.787956e-01   1.046245e-02
  3.971085e+00    4.807959e-01   1.050617e-02
  3.973295e+00    4.880250e-01   1.060627e-02
  3.975506e+00    4.867410e-01   1.061403e-02
  3.977716e+00    4.812852e-01   1.057625e-02
  3.979927e+00    4.947279e-01   1.074527e-02
  3.982137e+00    5.011199e-01   1.083711e-02
  3.984348e+00    4.926997e-01   1.076844e-02
  3.986558e+00    4.917636e-01   1.078064e-02
  3.988768e+00    4.736925e-01   1.060345e-02
  3.990979e+00    4.995026e-01   1.091161e-02
  3.993189e+00    4.654700e-01   1.055591e-02
  3.995400e+00    4.984223e-01   1.094697e-02
  3.997610e+00    5.150597e-01   1.115899e-02
  3.999821e+00    5.089534e-01   1.113107e-02
  4.002031e+00    4.703887e-01   1.073889e-02
  4.004242e+00    4.648907e-01   1.071364e-02
  4.006452e+00    4.889317e-01   1.102662e-02
  4.008663e+00    4.822730e-01   1.099127e-02
  4.010873e+00    4.494544e-01   1.064921e-02
  4.013084e+00    4.442770e-01   1.062678e-02
  4.015294e+00    4.969113e-01   1.128020e-02
  4.017504e+00    5.194693e-01   1.157684e-02
  4.019715e+00    5.103530e-01   1.151832e-02
  4.021925e+00    4.810703e-01   1.122598e-02
  4.024136e+00    4.614281e-01   1.103700e-02
  4.026346e+00    4.634224e-01   1.110405e-02
  4.028557e+00    4.697843e-01   1.122348e-02
  4.030767e+00    4.811305e-01   1.140399e-02
  4.032978e+00    4.833394e-01   1.147628e-02
  4.035188e+00    5.021942e-01   1.174507e-02
  4.037399e+00    5.126879e-01   1.191610e-02
  4.039609e+00    4.894405e-01   1.169091e-02
  4.041819e+00    4.713733e-01   1.152126e-02
  4.044030e+00    4.762789e-01   1.163049e-02
  4.046240e+00    4.887609e-01   1.183215e-02
  4.048451e+00    4.683535e-01   1.163266e-02
  4.050661e+00    4.499623e-01   1.145151e-02
  4.052872e+00    4.833143e-01   1.192127e-02
  4.055082e+00    4.644723e-01   1.173908e-02
  4.057293e+00    4.463739e-01   1.155965e-02
  4.059503e+00    4.623919e-01   1.181876e-02
  4.061714e+00    4.854275e-01   1.216638e-02
  4.063924e+00    4.813896e-01   1.217224e-02
  4.066134e+00    4.478650e-01   1.179617e-02
  4.068345e+00    4.682042e-01   1.211906e-02
  4.070555e+00    4.633255e-01   1.211398e-02
  4.072766e+00    4.471920e-01   1.195968e-02
  4.074976e+00    4.708268e-01   1.233293e-02
  4.077187e+00    4.790953e-01   1.250269e-02
  4.079397e+00    4.677843e-01   1.241725e-02
  4.081608e+00    4.695938e-01   1.250591e-02
  4.083818e+00    4.992299e-01   1.296150e-02
  4.086029e+00    4.715767e-01   1.266393e-02
  4.088239e+00    4.642020e-01   1.263221e-02
  4.090449e+00    4.606749e-01   1.265230e-02
  4.092660e+00    4.739876e-01   1.290445e-02
  4.094870e+00    4.568479e-01   1.273939e-02
  4.097081e+00    4.589852e-01   1.283916e-02
  4.099291e+00    4.835241e-01   1.323233e-02
  4.101502e+00    4.664159e-01   1.304468e-02
  4.103712e+00    4.945254e-01   1.348196e-02
  4.105923e+00    5.097448e-01   1.374105e-02
  4.108133e+00    4.791889e-01   1.337406e-02
  4.110344e+00    4.940298e-01   1.363156e-02
  4.112554e+00    4.969444e-01   1.372575e-02
  4.114764e+00    4.825273e-01   1.357948e-02
  4.116975e+00    4.697202e-01   1.345096e-02
  4.119185e+00    4.684493e-01   1.348726e-02
  4.121396e+00    4.823996e-01   1.374311e-02
  4.123606e+00    4.508065e-01   1.333998e-02
  4.125817e+00    4.518561e-01   1.341150e-02
  4.128027e+00    4.823840e-01   1.391532e-02
  4.130238e+00    4.934797e-01   1.413499e-02
  4.132448e+00    4.695827e-01   1.384829e-02
  4.134659e+00    4.784528e-01   1.403878e-02
  4.136869e+00    4.881990e-01   1.424394e-02
  4.139080e+00    4.846535e-01   1.425637e-02
  4.141290e+00    4.867493e-01   1.435040e-02
  4.143500e+00    4.429637e-01   1.375272e-02
  4.145711e+00    4.617065e-01   1.410639e-02
  4.147921e+00    4.763503e-01   1.439395e-02
  4.150132e+00    4.843605e-01   1.458391e-02
  4.152342e+00    4.910906e-01   1.475573e-02
  4.154553e+00    5.422400e-01   1.557922e-02
  4.156763e+00    5.336835e-01   1.553214e-02
  4.158974e+00    4.997976e-01   1.510652e-02
  4.161184e+00    4.853798e-01   1.496104e-02
  4.163395e+00    5.157421e-01   1.550044e-02
  4.165605e+00    4.834290e-01   1.508508e-02
  4.167815e+00    4.678007e-01   1.491679e-02
  4.170026e+00    4.720542e-01   1.506321e-02
  4.172236e+00    4.683218e-01   1.508480e-02
  4.174447e+00    4.436229e-01   1.476150e-02
  4.176657e+00    4.723353e-01   1.531475e-02
  4.178868e+00    4.986876e-01   1.582546e-02
  4.181078e+00    5.115499e-01   1.611840e-02
  4.183289e+00    4.723044e-01   1.557664e-02
  4.185499e+00    4.406376e-01   1.513405e-02
  4.187710e+00    5.040769e-01   1.628146e-02
  4.189920e+00    4.739474e-01   1.588288e-02
  4.192130e+00    5.056247e-01   1.650486e-02
  4.194341e+00    5.215274e-01   1.686560e-02
  4.196551e+00    4.779253e-01   1.624719e-02
  4.198762e+00    4.457016e-01   1.578965e-02
  4.200972e+00    4.821481e-01   1.652879e-02
  4.203183e+00    4.629780e-01   1.630379e-02
  4.205393e+00    4.722987e-01   1.657661e-02
  4.207604e+00    4.387411e-01   1.608557e-02
  4.209814e+00    4.777748e-01   1.690128e-02
  4.212025e+00    4.877563e-01   1.719773e-02
  4.214235e+00    4.480055e-01   1.659934e-02
  4.216445e+00    4.316854e-01   1.641164e-02
  4.218656e+00    4.126161e-01   1.616546e-02
  4.220866e+00    4.879063e-01   1.770842e-02
  4.223077e+00    5.318353e-01   1.863108e-02
  4.225287e+00    4.571179e-01   1.740811e-02
  4.227498e+00    4.312182e-01   1.704111e-02
  4.229708e+00    4.621581e-01   1.778458e-02
  4.231919e+00    5.143014e-01   1.891686e-02
  4.234129e+00    4.693686e-01   1.822290e-02
  4.236340e+00    4.966692e-01   1.890584e-02
  4.238550e+00    4.418864e-01   1.799032e-02
  4.240761e+00    4.073349e-01   1.742503e-02
  4.242971e+00    4.310340e-01   1.808920e-02
  4.245181e+00    5.104891e-01   1.987050e-02
  4.247392e+00    4.239836e-01   1.827834e-02
  4.249602e+00    5.064935e-01   2.017614e-02
  4.251813e+00    4.673260e-01   1.957168e-02
  4.254023e+00    4.543883e-01   1.949300e-02
  4.256234e+00    4.934687e-01   2.053117e-02
  4.258444e+00    3.965693e-01   1.859776e-02
  4.260655e+00    5.168196e-01   2.146468e-02
  4.262865e+00    4.723220e-01   2.075246e-02
  4.265076e+00    4.741955e-01   2.102974e-02
  4.267286e+00    5.284088e-01   2.246302e-02
  4.269496e+00    3.704996e-01   1.903971e-02
  4.271707e+00    4.558153e-01   2.137801e-02
  4.273917e+00    4.816986e-01   2.226138e-02
  4.276128e+00    4.411505e-01   2.158652e-02
  4.278338e+00    4.752414e-01   2.270449e-02
  4.280549e+00    5.397139e-01   2.454294e-02
  4.282759e+00    4.901472e-01   2.372419e-02
  4.284970e+00    4.009342e-01   2.177481e-02
  4.287180e+00    4.963921e-01   2.451869e-02
  4.289391e+00    5.163531e-01   2.519497e-02
  4.291601e+00    5.203544e-01   2.549379e-02
  4.293811e+00    5.026124e-01   2.525191e-02
  4.296022e+00    4.845432e-01   2.499306e-02
  4.298232e+00    4.738551e-01   2.492231e-02
  4.300443e+00    4.433268e-01   2.430565e-02
  4.302653e+00    3.871478e-01   2.291008e-02
  4.304864e+00    5.456716e-01   2.743398e-02
  4.307074e+00    5.289302e-01   2.725315e-02
  4.309285e+00    4.417376e-01   2.513219e-02
  4.311495e+00    4.987323e-01   2.695324e-02
  4.313706e+00    4.384667e-01   2.551073e-02
  4.315916e+00    4.821857e-01   2.701501e-02
  4.318126e+00    4.117908e-01   2.521251e-02
  4.320337e+00    4.188118e-01   2.568341e-02
  4.322547e+00    5.118931e-01   2.869654e-02
  4.324758e+00    4.531643e-01   2.727984e-02
  4.326968e+00    4.893867e-01   2.866824e-02
  4.329179e+00    5.251155e-01   3.002486e-02
  4.331389e+00    3.442687e-01   2.459109e-02
  4.333600e+00    4.388933e-01   2.809636e-02
  4.335810e+00    3.772450e-01   2.635879e-02
  4.338021e+00    3.977337e-01   2.741094e-02
  4.340231e+00    5.584055e-01   3.288786e-02
  4.342442e+00    3.997179e-01   2.819823e-02
  4.344652e+00    4.190804e-01   2.926454e-02
  4.346862e+00    4.290241e-01   3.002433e-02
  4.349073e+00    4.698498e-01   3.187846e-02
  4.351283e+00    4.562677e-01   3.188407e-02
  4.353494e+00    3.534243e-01   2.849263e-02
  4.355704e+00    4.707271e-01   3.341454e-02
  4.357915e+00    4.703586e-01   3.395718e-02
  4.360125e+00    5.303939e-01   3.667459e-02
  4.362336e+00    3.735837e-01   3.134127e-02
  4.364546e+00    4.110432e-01   3.347190e-02
  4.366757e+00    3.613592e-01   3.200960e-02
  4.368967e+00    3.565560e-01   3.242923e-02
  4.371177e+00    5.237969e-01   4.014122e-02
  4.373388e+00    5.561363e-01   4.228742e-02
  4.375598e+00    2.606547e-01   2.961244e-02
  4.377809e+00    5.102370e-01   4.247581e-02
  4.380019e+00    3.796717e-01   3.756380e-02
  4.382230e+00    3.612376e-01   3.766072e-02
  4.384440e+00    5.608319e-01   4.827763e-02
  4.386651e+00    3.525151e-01   3.945747e-02
  4.388861e+00    1.369307e-01   2.541419e-02
  4.391072e+00    4.192298e-01   4.603346e-02
  4.393282e+00    3.712537e-01   4.499463e-02
  4.395492e+00    5.199389e-01   5.545943e-02
  4.397703e+00    4.373065e-01   5.318937e-02
  4.399913e+00    4.517528e-01   5.679395e-02
  4.402124e+00    2.782325e-01   4.709874e-02
  4.404334e+00    4.228306e-01   6.172010e-02
  4.406545e+00    1.675770e-01   4.175180e-02
  4.408755e+00    6.785427e-01   9.109887e-02
  4.410966e+00    3.586503e-01   7.331368e-02
  4.413176e+00    2.358364e-01   6.729197e-02
  4.415387e+00   -8.426852e-01            nan
  4.417597e+00   -2.044852e+00            nan
  4.419807e+00   -3.766224e-01            nan
