# == pyFAI calibration ==
# Distance Sample to Detector: 0.216 m
# PONI: 1.166e-01, 1.308e-01 m
# Rotations: 0.000000 0.000000 0.000000 rad
# 
# == Fit2d calibration ==
# Distance Sample-beamCenter: 216.000 mm
# Center: x=1744.293, y=1555.000 pix
# Tilt: 0.000 deg  TiltPlanRot: 0.000 deg
# 
# Detector Eiger 9M	 PixelSize= 7.500e-05, 7.500e-05 m
#    Detector has a mask: True 
#    Detector has a dark current: False 
#    detector has a flat field: False 
# 
# Wavelength: 9.8e-11 m
# Mask applied: from detector
# Dark current applied: False
# Flat field applied: False
# Polarization factor: None
# Normalization factor: 1.0
# 
# Headers of the input frame:
# {
# "_array_data.header_convention": "SLS_1.0",
# "_array_data.header_contents": "# Detector: Dectris Eiger 9M, S/N E-18-0102\r\n# Pixel_size 75e-6 m x 75e-6 m\r\n# Silicon sensor, thickness 0.000450 m\r\n# Exposure_time 0.024997 s\r\n# Exposure_period 0.025000 s\r\n# Count_cutoff 62318 counts\r\n# Wavelength 0.980106 A\r\n# Detector_distance 0.215992 m\r\n# Beam_xy (1555, 1744) pixels\r\n# Start_angle 0.000000 deg.\r\n# Angle_increment 0.000000 deg.",
# "Content-Type": "application/octet-stream;",
# "conversions": "x-CBF_BYTE_OFFSET",
# "Content-Transfer-Encoding": "BINARY",
# "X-Binary-Size": "10166608",
# "X-Binary-ID": "1",
# "X-Binary-Element-Type": "signed 32-bit integer",
# "X-Binary-Element-Byte-Order": "LITTLE_ENDIAN",
# "Content-MD5": "fpyzATfuDLWeAH0yrtCEJg==",
# "X-Binary-Number-of-Elements": "10166590",
# "X-Binary-Size-Fastest-Dimension": "3110",
# "X-Binary-Size-Second-Dimension": "3269",
# "X-Binary-Size-Padding": "4095"
# }
# --> H:/Proxima2a_2019-04-05/RAW_DATA/C5_gel17_position5/C5_mesh_1_data.cbf/C5_mesh_1_data.cbf000135.dat
#        q_A^-1              I           sigma 
  1.105228e-03    1.595927e+00   6.835866e-01
  3.315685e-03    1.161834e+00   3.545827e-01
  5.526141e-03    1.685488e+00   3.302440e-01
  7.736597e-03    1.364776e+00   2.510446e-01
  9.947054e-03    1.384843e+00   2.229342e-01
  1.215751e-02    1.203839e+00   1.879545e-01
  1.436797e-02    1.173724e+00   1.707100e-01
  1.657842e-02    1.055673e+00   1.506986e-01
  1.878888e-02    1.236915e+00   1.532264e-01
  2.099934e-02    1.408723e+00   1.547087e-01
  2.320979e-02    1.533538e+00   1.535253e-01
  2.542025e-02    1.554706e+00   1.477180e-01
  2.763070e-02    1.580061e+00   1.428326e-01
  2.984116e-02    1.423090e+00   1.304346e-01
  3.205162e-02    1.506335e+00   1.294932e-01
  3.426207e-02    1.443816e+00   1.226114e-01
  3.647253e-02    1.479848e+00   1.203090e-01
  3.868299e-02    1.501667e+00   1.176881e-01
  4.089344e-02    1.444659e+00   1.122699e-01
  4.310390e-02    1.424778e+00   1.085919e-01
  4.531436e-02    1.559406e+00   1.108015e-01
  4.752481e-02    1.496187e+00   1.059771e-01
  4.973527e-02    1.435067e+00   1.014584e-01
  5.194572e-02    1.458895e+00   1.000956e-01
  5.415618e-02    1.534390e+00   1.005325e-01
  5.636664e-02    1.427329e+00   9.504458e-02
  5.857709e-02    1.333515e+00   9.011839e-02
  6.078755e-02    1.418635e+00   9.124155e-02
  6.299801e-02    1.374833e+00   8.823104e-02
  6.520846e-02    1.447508e+00   8.898590e-02
  6.741892e-02    1.495903e+00   8.896139e-02
  6.962938e-02    1.523848e+00   8.835625e-02
  7.183983e-02    1.384935e+00   8.292525e-02
  7.405029e-02    1.513503e+00   8.538328e-02
  7.626074e-02    1.419952e+00   8.149429e-02
  7.847120e-02    1.366194e+00   7.880069e-02
  8.068166e-02    1.495718e+00   8.131359e-02
  8.289211e-02    1.477165e+00   7.972258e-02
  8.510257e-02    1.464882e+00   7.835212e-02
  8.731303e-02    1.534002e+00   7.915488e-02
  8.952348e-02    1.531092e+00   7.809950e-02
  9.173394e-02    1.584269e+00   7.847808e-02
  9.394439e-02    1.581812e+00   7.748663e-02
  9.615485e-02    1.565474e+00   7.619258e-02
  9.836531e-02    1.568147e+00   7.539383e-02
  1.005758e-01    1.552833e+00   7.419623e-02
  1.027862e-01    1.450758e+00   7.093906e-02
  1.049967e-01    1.433224e+00   6.976168e-02
  1.072071e-01    1.491090e+00   7.041784e-02
  1.094176e-01    1.526612e+00   7.052721e-02
  1.116280e-01    1.518838e+00   6.964588e-02
  1.138385e-01    1.481459e+00   6.811114e-02
  1.160490e-01    1.428463e+00   6.624095e-02
  1.182594e-01    1.497415e+00   6.718253e-02
  1.204699e-01    1.575428e+00   6.827471e-02
  1.226803e-01    1.605766e+00   6.830233e-02
  1.248908e-01    1.579093e+00   6.712981e-02
  1.271012e-01    1.578726e+00   6.653447e-02
  1.293117e-01    1.588366e+00   6.616359e-02
  1.315222e-01    1.576571e+00   6.535970e-02
  1.337326e-01    1.602071e+00   6.533809e-02
  1.359431e-01    1.588396e+00   6.509674e-02
  1.381535e-01    1.649932e+00   6.723626e-02
  1.403640e-01    1.692639e+00   6.839491e-02
  1.425744e-01    1.644547e+00   6.752399e-02
  1.447849e-01    1.610750e+00   6.684192e-02
  1.469953e-01    1.712552e+00   6.887867e-02
  1.492058e-01    1.690386e+00   6.835195e-02
  1.514163e-01    1.573083e+00   6.582820e-02
  1.536267e-01    1.558795e+00   6.540059e-02
  1.558372e-01    1.667525e+00   6.749377e-02
  1.580476e-01    1.638931e+00   6.675023e-02
  1.602581e-01    1.622477e+00   6.624561e-02
  1.624685e-01    1.592727e+00   6.545580e-02
  1.646790e-01    1.509359e+00   6.353671e-02
  1.668895e-01    1.643580e+00   6.611007e-02
  1.690999e-01    1.735089e+00   6.772159e-02
  1.713104e-01    1.717521e+00   6.716877e-02
  1.735208e-01    1.817522e+00   6.888165e-02
  1.757313e-01    1.853712e+00   6.934603e-02
  1.779417e-01    1.960327e+00   7.107978e-02
  1.801522e-01    1.900489e+00   6.976364e-02
  1.823626e-01    1.960225e+00   7.061569e-02
  1.845731e-01    1.933358e+00   6.990293e-02
  1.867836e-01    1.986232e+00   7.061322e-02
  1.889940e-01    1.996675e+00   7.056724e-02
  1.912045e-01    2.097097e+00   7.207856e-02
  1.934149e-01    2.068444e+00   7.134489e-02
  1.956254e-01    1.997191e+00   6.987408e-02
  1.978358e-01    1.926157e+00   6.838505e-02
  2.000463e-01    2.022714e+00   6.984591e-02
  2.022568e-01    2.023875e+00   6.963664e-02
  2.044672e-01    2.064116e+00   7.008460e-02
  2.066777e-01    2.036219e+00   6.937835e-02
  2.088881e-01    2.016254e+00   6.881153e-02
  2.110986e-01    1.942786e+00   6.731459e-02
  2.133090e-01    1.982445e+00   6.777710e-02
  2.155195e-01    2.044235e+00   6.859700e-02
  2.177300e-01    1.969511e+00   6.680261e-02
  2.199404e-01    1.927275e+00   6.434119e-02
  2.221509e-01    1.957650e+00   6.378141e-02
  2.243613e-01    1.949295e+00   6.283832e-02
  2.265718e-01    1.975553e+00   6.256288e-02
  2.287822e-01    2.046157e+00   6.304081e-02
  2.309927e-01    2.102298e+00   6.331769e-02
  2.332031e-01    2.281929e+00   6.540272e-02
  2.354136e-01    2.212106e+00   6.387248e-02
  2.376241e-01    2.194196e+00   6.311959e-02
  2.398345e-01    2.200547e+00   6.274309e-02
  2.420450e-01    2.092177e+00   6.074138e-02
  2.442554e-01    2.194956e+00   6.178686e-02
  2.464659e-01    2.150450e+00   6.074666e-02
  2.486763e-01    2.147168e+00   6.030127e-02
  2.508868e-01    2.214971e+00   6.085960e-02
  2.530973e-01    2.150536e+00   5.959607e-02
  2.553077e-01    2.171963e+00   5.952894e-02
  2.575182e-01    2.126015e+00   5.854743e-02
  2.597286e-01    2.081563e+00   5.759538e-02
  2.619391e-01    2.050206e+00   5.683083e-02
  2.641495e-01    2.069481e+00   5.678133e-02
  2.663600e-01    2.119667e+00   5.714968e-02
  2.685704e-01    2.103435e+00   5.662185e-02
  2.707809e-01    2.060494e+00   5.574344e-02
  2.729914e-01    2.094806e+00   5.591276e-02
  2.752018e-01    1.985828e+00   5.415560e-02
  2.774123e-01    2.051743e+00   5.476585e-02
  2.796227e-01    2.030386e+00   5.421060e-02
  2.818332e-01    2.087438e+00   5.469274e-02
  2.840436e-01    2.017101e+00   5.350282e-02
  2.862541e-01    2.002576e+00   5.305354e-02
  2.884646e-01    2.024733e+00   5.309307e-02
  2.906750e-01    1.998929e+00   5.250354e-02
  2.928855e-01    1.994944e+00   5.220814e-02
  2.950959e-01    1.979186e+00   5.176267e-02
  2.973064e-01    1.952024e+00   5.117521e-02
  2.995168e-01    1.935458e+00   5.072679e-02
  3.017273e-01    1.946824e+00   5.065122e-02
  3.039377e-01    1.943807e+00   5.039034e-02
  3.061482e-01    1.997678e+00   5.086286e-02
  3.083587e-01    1.874564e+00   4.905736e-02
  3.105691e-01    1.937091e+00   4.965581e-02
  3.127796e-01    1.945589e+00   4.955539e-02
  3.149900e-01    1.960833e+00   4.954188e-02
  3.172005e-01    1.975635e+00   4.952518e-02
  3.194109e-01    1.893395e+00   4.828328e-02
  3.216214e-01    1.875508e+00   4.785858e-02
  3.238319e-01    1.886170e+00   4.780426e-02
  3.260423e-01    1.895317e+00   4.772918e-02
  3.282528e-01    1.968379e+00   4.844679e-02
  3.304632e-01    1.930832e+00   4.779663e-02
  3.326737e-01    1.867571e+00   4.682370e-02
  3.348841e-01    1.837825e+00   4.626918e-02
  3.370946e-01    1.874388e+00   4.655134e-02
  3.393050e-01    1.871394e+00   4.633798e-02
  3.415155e-01    1.816750e+00   4.548475e-02
  3.437260e-01    1.830939e+00   4.549281e-02
  3.459364e-01    1.828868e+00   4.529885e-02
  3.481469e-01    1.860148e+00   4.551787e-02
  3.503573e-01    1.817521e+00   4.482939e-02
  3.525678e-01    1.829239e+00   4.481339e-02
  3.547782e-01    1.813109e+00   4.445413e-02
  3.569887e-01    1.765898e+00   4.371609e-02
  3.591992e-01    1.805156e+00   4.404295e-02
  3.614096e-01    1.854124e+00   4.448156e-02
  3.636201e-01    1.847452e+00   4.424544e-02
  3.658305e-01    1.815929e+00   4.371670e-02
  3.680410e-01    1.798875e+00   4.336128e-02
  3.702514e-01    1.771273e+00   4.288263e-02
  3.724619e-01    1.764353e+00   4.265303e-02
  3.746724e-01    1.833254e+00   4.333283e-02
  3.768828e-01    1.786595e+00   4.263390e-02
  3.790933e-01    1.823277e+00   4.292900e-02
  3.813037e-01    1.797611e+00   4.248632e-02
  3.835142e-01    1.820673e+00   4.261755e-02
  3.857246e-01    1.795085e+00   4.218006e-02
  3.879351e-01    1.769003e+00   4.173697e-02
  3.901455e-01    1.815663e+00   4.214920e-02
  3.923560e-01    1.830701e+00   4.218889e-02
  3.945665e-01    1.803701e+00   4.174382e-02
  3.967769e-01    1.817670e+00   4.177392e-02
  3.989874e-01    1.797567e+00   4.141255e-02
  4.011978e-01    1.799170e+00   4.130362e-02
  4.034083e-01    1.790039e+00   4.107219e-02
  4.056187e-01    1.809870e+00   4.117185e-02
  4.078292e-01    1.837896e+00   4.136384e-02
  4.100397e-01    1.826547e+00   4.111003e-02
  4.122501e-01    1.832329e+00   4.105185e-02
  4.144606e-01    1.847373e+00   4.109782e-02
  4.166710e-01    1.808535e+00   4.054260e-02
  4.188815e-01    1.838650e+00   4.075800e-02
  4.210919e-01    1.802425e+00   4.023623e-02
  4.233024e-01    1.878780e+00   4.095880e-02
  4.255128e-01    1.815090e+00   4.014222e-02
  4.277233e-01    1.780564e+00   3.964435e-02
  4.299338e-01    1.764024e+00   3.934626e-02
  4.321442e-01    1.797689e+00   3.960626e-02
  4.343547e-01    1.805295e+00   3.957774e-02
  4.365651e-01    1.799657e+00   3.940361e-02
  4.387756e-01    1.778464e+00   3.906124e-02
  4.409860e-01    1.785875e+00   3.903409e-02
  4.431965e-01    1.755173e+00   3.859012e-02
  4.454070e-01    1.705280e+00   3.793184e-02
  4.476174e-01    1.749202e+00   3.831174e-02
  4.498279e-01    1.803794e+00   3.879914e-02
  4.520383e-01    1.750465e+00   3.811642e-02
  4.542488e-01    1.708551e+00   3.755576e-02
  4.564592e-01    1.751297e+00   3.792065e-02
  4.586697e-01    1.754063e+00   3.784987e-02
  4.608801e-01    1.707413e+00   3.724313e-02
  4.630906e-01    1.707584e+00   3.714637e-02
  4.653011e-01    1.680856e+00   3.675760e-02
  4.675115e-01    1.721059e+00   3.709661e-02
  4.697220e-01    1.733061e+00   3.712829e-02
  4.719324e-01    1.721168e+00   3.690497e-02
  4.741429e-01    1.714697e+00   3.674060e-02
  4.763533e-01    1.732953e+00   3.684099e-02
  4.785638e-01    1.727602e+00   3.668904e-02
  4.807743e-01    1.734521e+00   3.666894e-02
  4.829847e-01    1.731269e+00   3.654202e-02
  4.851952e-01    1.688529e+00   3.599681e-02
  4.874056e-01    1.722408e+00   3.626448e-02
  4.896161e-01    1.669684e+00   3.561658e-02
  4.918265e-01    1.665463e+00   3.548319e-02
  4.940370e-01    1.731995e+00   3.609564e-02
  4.962475e-01    1.713731e+00   3.581618e-02
  4.984579e-01    1.725574e+00   3.585113e-02
  5.006684e-01    1.747042e+00   3.598552e-02
  5.028788e-01    1.739857e+00   3.582441e-02
  5.050893e-01    1.760005e+00   3.594362e-02
  5.072997e-01    1.760151e+00   3.585830e-02
  5.095102e-01    1.686688e+00   3.501794e-02
  5.117206e-01    1.703039e+00   3.510360e-02
  5.139311e-01    1.689693e+00   3.488303e-02
  5.161416e-01    1.670659e+00   3.460402e-02
  5.183520e-01    1.725848e+00   3.508736e-02
  5.205625e-01    1.666195e+00   3.439489e-02
  5.227729e-01    1.635994e+00   3.400224e-02
  5.249834e-01    1.687927e+00   3.445752e-02
  5.271938e-01    1.756243e+00   3.506591e-02
  5.294043e-01    1.780457e+00   3.522535e-02
  5.316148e-01    1.758923e+00   3.493149e-02
  5.338252e-01    1.768477e+00   3.494617e-02
  5.360357e-01    1.784142e+00   3.502070e-02
  5.382461e-01    1.801777e+00   3.511380e-02
  5.404566e-01    1.736137e+00   3.438981e-02
  5.426670e-01    1.745555e+00   3.440528e-02
  5.448775e-01    1.685530e+00   3.373301e-02
  5.470879e-01    1.734676e+00   3.414493e-02
  5.492984e-01    1.749538e+00   3.421465e-02
  5.515089e-01    1.815743e+00   3.477869e-02
  5.537193e-01    1.815040e+00   3.469535e-02
  5.559298e-01    1.789395e+00   3.437383e-02
  5.581402e-01    1.786107e+00   3.426717e-02
  5.603507e-01    1.823192e+00   3.454574e-02
  5.625611e-01    1.842362e+00   3.465155e-02
  5.647716e-01    1.802033e+00   3.419577e-02
  5.669821e-01    1.781089e+00   3.392319e-02
  5.691925e-01    1.739283e+00   3.345073e-02
  5.714030e-01    1.768712e+00   3.366062e-02
  5.736134e-01    1.712065e+00   3.304679e-02
  5.758239e-01    1.734242e+00   3.318911e-02
  5.780343e-01    1.722018e+00   3.300199e-02
  5.802448e-01    1.724465e+00   3.295629e-02
  5.824552e-01    1.731497e+00   3.295414e-02
  5.846657e-01    1.690806e+00   3.249674e-02
  5.868762e-01    1.658695e+00   3.211965e-02
  5.890866e-01    1.672552e+00   3.218663e-02
  5.912971e-01    1.640561e+00   3.181133e-02
  5.935075e-01    1.586335e+00   3.121652e-02
  5.957180e-01    1.665237e+00   3.191780e-02
  5.979284e-01    1.661019e+00   3.181230e-02
  6.001389e-01    1.615276e+00   3.130732e-02
  6.023494e-01    1.623850e+00   3.132654e-02
  6.045598e-01    1.702293e+00   3.200897e-02
  6.067703e-01    1.672143e+00   3.166046e-02
  6.089807e-01    1.647947e+00   3.136736e-02
  6.111912e-01    1.661187e+00   3.143023e-02
  6.134016e-01    1.709952e+00   3.182461e-02
  6.156121e-01    1.675619e+00   3.144089e-02
  6.178226e-01    1.681146e+00   3.143034e-02
  6.200330e-01    1.714281e+00   3.167596e-02
  6.222435e-01    1.714931e+00   3.161922e-02
  6.244539e-01    1.681793e+00   3.125092e-02
  6.266644e-01    1.715268e+00   3.149882e-02
  6.288748e-01    1.747458e+00   3.173116e-02
  6.310853e-01    1.734790e+00   3.155454e-02
  6.332957e-01    1.727417e+00   3.142662e-02
  6.355062e-01    1.700301e+00   3.111843e-02
  6.377167e-01    1.676248e+00   3.083824e-02
  6.399271e-01    1.660968e+00   3.063854e-02
  6.421376e-01    1.709027e+00   3.101931e-02
  6.443480e-01    1.688571e+00   3.077448e-02
  6.465585e-01    1.692027e+00   3.074758e-02
  6.487689e-01    1.671059e+00   3.049877e-02
  6.509794e-01    1.690471e+00   3.061755e-02
  6.531899e-01    1.658623e+00   3.027073e-02
  6.554003e-01    1.691699e+00   3.051359e-02
  6.576108e-01    1.676597e+00   3.032054e-02
  6.598212e-01    1.638341e+00   2.991693e-02
  6.620317e-01    1.631966e+00   2.980331e-02
  6.642421e-01    1.610206e+00   2.954918e-02
  6.664526e-01    1.643871e+00   2.980148e-02
  6.686630e-01    1.604856e+00   2.939127e-02
  6.708735e-01    1.606523e+00   2.935257e-02
  6.730840e-01    1.626296e+00   2.947882e-02
  6.752944e-01    1.616136e+00   2.933315e-02
  6.775049e-01    1.623443e+00   2.934601e-02
  6.797153e-01    1.593478e+00   2.902128e-02
  6.819258e-01    1.616155e+00   2.917432e-02
  6.841362e-01    1.579853e+00   2.879295e-02
  6.863467e-01    1.597079e+00   2.889763e-02
  6.885572e-01    1.622444e+00   2.907403e-02
  6.907676e-01    1.615469e+00   2.895947e-02
  6.929781e-01    1.609521e+00   2.885474e-02
  6.951885e-01    1.596658e+00   2.868831e-02
  6.973990e-01    1.590605e+00   2.858324e-02
  6.996094e-01    1.613473e+00   2.873734e-02
  7.018199e-01    1.640649e+00   2.892748e-02
  7.040303e-01    1.625017e+00   2.873878e-02
  7.062408e-01    1.622213e+00   2.866366e-02
  7.084513e-01    1.604288e+00   2.845529e-02
  7.106617e-01    1.601901e+00   2.838468e-02
  7.128722e-01    1.639935e+00   2.866999e-02
  7.150826e-01    1.615235e+00   2.840425e-02
  7.172931e-01    1.574785e+00   2.799796e-02
  7.195035e-01    1.611454e+00   2.827338e-02
  7.217140e-01    1.572898e+00   2.798251e-02
  7.239245e-01    1.583317e+00   2.830240e-02
  7.261349e-01    1.580148e+00   2.838285e-02
  7.283454e-01    1.591648e+00   2.855876e-02
  7.305558e-01    1.534287e+00   2.809271e-02
  7.327663e-01    1.580041e+00   2.855106e-02
  7.349767e-01    1.614459e+00   2.887695e-02
  7.371872e-01    1.582594e+00   2.857932e-02
  7.393976e-01    1.591370e+00   2.864415e-02
  7.416081e-01    1.572206e+00   2.845497e-02
  7.438186e-01    1.607867e+00   2.863005e-02
  7.460290e-01    1.584557e+00   2.812659e-02
  7.482395e-01    1.607111e+00   2.815314e-02
  7.504499e-01    1.596085e+00   2.791920e-02
  7.526604e-01    1.546112e+00   2.736317e-02
  7.548708e-01    1.566578e+00   2.745446e-02
  7.570813e-01    1.584942e+00   2.756380e-02
  7.592918e-01    1.584831e+00   2.752752e-02
  7.615022e-01    1.594658e+00   2.757872e-02
  7.637127e-01    1.584623e+00   2.745894e-02
  7.659231e-01    1.594737e+00   2.751420e-02
  7.681336e-01    1.589602e+00   2.743814e-02
  7.703440e-01    1.593284e+00   2.743849e-02
  7.725545e-01    1.609742e+00   2.754861e-02
  7.747650e-01    1.638980e+00   2.775870e-02
  7.769754e-01    1.641323e+00   2.772474e-02
  7.791859e-01    1.591594e+00   2.724776e-02
  7.813963e-01    1.568333e+00   2.699547e-02
  7.836068e-01    1.623601e+00   2.741439e-02
  7.858172e-01    1.587221e+00   2.705485e-02
  7.880277e-01    1.613151e+00   2.722305e-02
  7.902381e-01    1.616324e+00   2.720031e-02
  7.924486e-01    1.620328e+00   2.718353e-02
  7.946591e-01    1.617827e+00   2.711396e-02
  7.968695e-01    1.618785e+00   2.707350e-02
  7.990800e-01    1.610107e+00   2.695255e-02
  8.012904e-01    1.641783e+00   2.716931e-02
  8.035009e-01    1.641072e+00   2.711510e-02
  8.057113e-01    1.629772e+00   2.697485e-02
  8.079218e-01    1.624273e+00   2.688283e-02
  8.101323e-01    1.629568e+00   2.688090e-02
  8.123427e-01    1.640282e+00   2.692315e-02
  8.145532e-01    1.650347e+00   2.695941e-02
  8.167636e-01    1.650548e+00   2.691572e-02
  8.189741e-01    1.666743e+00   2.700235e-02
  8.211845e-01    1.672334e+00   2.700227e-02
  8.233950e-01    1.671200e+00   2.694923e-02
  8.256054e-01    1.629359e+00   2.656563e-02
  8.278159e-01    1.645634e+00   2.665390e-02
  8.300264e-01    1.667214e+00   2.678462e-02
  8.322368e-01    1.658790e+00   2.667349e-02
  8.344473e-01    1.649753e+00   2.655720e-02
  8.366577e-01    1.685369e+00   2.679918e-02
  8.388682e-01    1.630491e+00   2.631712e-02
  8.410786e-01    1.632918e+00   2.629470e-02
  8.432891e-01    1.653493e+00   2.641782e-02
  8.454996e-01    1.669641e+00   2.650451e-02
  8.477100e-01    1.666088e+00   2.643425e-02
  8.499205e-01    1.647251e+00   2.624313e-02
  8.521309e-01    1.693381e+00   2.656655e-02
  8.543414e-01    1.675675e+00   2.638608e-02
  8.565518e-01    1.634117e+00   2.601627e-02
  8.587623e-01    1.621388e+00   2.587437e-02
  8.609727e-01    1.638941e+00   2.597372e-02
  8.631832e-01    1.658613e+00   2.608885e-02
  8.653937e-01    1.641867e+00   2.591693e-02
  8.676041e-01    1.649796e+00   2.594023e-02
  8.698146e-01    1.643778e+00   2.585330e-02
  8.720250e-01    1.636080e+00   2.575338e-02
  8.742355e-01    1.627916e+00   2.564996e-02
  8.764459e-01    1.615551e+00   2.551335e-02
  8.786564e-01    1.638936e+00   2.565903e-02
  8.808669e-01    1.652957e+00   2.572951e-02
  8.830773e-01    1.638176e+00   2.557565e-02
  8.852878e-01    1.563792e+00   2.495078e-02
  8.874982e-01    1.603635e+00   2.522995e-02
  8.897087e-01    1.641771e+00   2.549003e-02
  8.919191e-01    1.650722e+00   2.552111e-02
  8.941296e-01    1.574924e+00   2.489128e-02
  8.963401e-01    1.571875e+00   2.483107e-02
  8.985505e-01    1.590935e+00   2.494429e-02
  9.007610e-01    1.622610e+00   2.515439e-02
  9.029714e-01    1.614847e+00   2.505815e-02
  9.051819e-01    1.603984e+00   2.493645e-02
  9.073923e-01    1.631011e+00   2.510873e-02
  9.096028e-01    1.611954e+00   2.492659e-02
  9.118132e-01    1.621340e+00   2.496257e-02
  9.140237e-01    1.599755e+00   2.475926e-02
  9.162342e-01    1.578887e+00   2.456288e-02
  9.184446e-01    1.639545e+00   2.499406e-02
  9.206551e-01    1.631328e+00   2.489544e-02
  9.228655e-01    1.607478e+00   2.467744e-02
  9.250760e-01    1.624545e+00   2.477250e-02
  9.272864e-01    1.628518e+00   2.476823e-02
  9.294969e-01    1.655013e+00   2.493252e-02
  9.317074e-01    1.651608e+00   2.487166e-02
  9.339178e-01    1.669178e+00   2.496945e-02
  9.361283e-01    1.657432e+00   2.484477e-02
  9.383387e-01    1.652141e+00   2.477133e-02
  9.405492e-01    1.651110e+00   2.472904e-02
  9.427596e-01    1.650696e+00   2.469032e-02
  9.449701e-01    1.670884e+00   2.480710e-02
  9.471805e-01    1.697704e+00   2.496999e-02
  9.493910e-01    1.688825e+00   2.487043e-02
  9.516015e-01    1.697187e+00   2.489710e-02
  9.538119e-01    1.708336e+00   2.494453e-02
  9.560224e-01    1.727735e+00   2.505043e-02
  9.582328e-01    1.766610e+00   2.529672e-02
  9.604433e-01    1.771799e+00   2.529798e-02
  9.626537e-01    1.753378e+00   2.513227e-02
  9.648642e-01    1.764607e+00   2.517810e-02
  9.670747e-01    1.784019e+00   2.528128e-02
  9.692851e-01    1.852368e+00   2.572677e-02
  9.714956e-01    1.845387e+00   2.564207e-02
  9.737060e-01    1.830631e+00   2.550576e-02
  9.759165e-01    1.862748e+00   2.569227e-02
  9.781269e-01    1.860849e+00   2.564557e-02
  9.803374e-01    1.825399e+00   2.536499e-02
  9.825478e-01    1.866844e+00   2.561748e-02
  9.847583e-01    1.827823e+00   2.531395e-02
  9.869688e-01    1.773465e+00   2.490131e-02
  9.891792e-01    1.746135e+00   2.467584e-02
  9.913897e-01    1.784761e+00   2.491360e-02
  9.936001e-01    1.748767e+00   2.462884e-02
  9.958106e-01    1.707950e+00   2.430663e-02
  9.980210e-01    1.679671e+00   2.407329e-02
  1.000231e+00    1.666939e+00   2.411324e-02
  1.002442e+00    1.655052e+00   2.415478e-02
  1.004652e+00    1.614029e+00   2.392009e-02
  1.006863e+00    1.602569e+00   2.388446e-02
  1.009073e+00    1.602014e+00   2.391688e-02
  1.011284e+00    1.584507e+00   2.381765e-02
  1.013494e+00    1.545437e+00   2.354550e-02
  1.015705e+00    1.542982e+00   2.354902e-02
  1.017915e+00    1.555092e+00   2.365753e-02
  1.020126e+00    1.569605e+00   2.378375e-02
  1.022336e+00    1.550256e+00   2.364833e-02
  1.024547e+00    1.565876e+00   2.377844e-02
  1.026757e+00    1.585701e+00   2.393698e-02
  1.028967e+00    1.573139e+00   2.384972e-02
  1.031178e+00    1.579770e+00   2.390618e-02
  1.033388e+00    1.607297e+00   2.411874e-02
  1.035599e+00    1.599069e+00   2.406043e-02
  1.037809e+00    1.670718e+00   2.459693e-02
  1.040020e+00    1.831256e+00   2.575300e-02
  1.042230e+00    1.769704e+00   2.531864e-02
  1.044441e+00    1.746241e+00   2.514995e-02
  1.046651e+00    1.980656e+00   2.678503e-02
  1.048862e+00    1.977480e+00   2.676276e-02
  1.051072e+00    1.740370e+00   2.510451e-02
  1.053282e+00    1.635111e+00   2.433247e-02
  1.055493e+00    1.586758e+00   2.396555e-02
  1.057703e+00    1.530974e+00   2.353898e-02
  1.059914e+00    1.539499e+00   2.360008e-02
  1.062124e+00    1.594011e+00   2.401005e-02
  1.064335e+00    1.769727e+00   2.529506e-02
  1.066545e+00    1.877388e+00   2.604644e-02
  1.068756e+00    1.709012e+00   2.484705e-02
  1.070966e+00    1.589241e+00   2.395373e-02
  1.073177e+00    1.512753e+00   2.336407e-02
  1.075387e+00    1.453983e+00   2.290050e-02
  1.077597e+00    1.481158e+00   2.310622e-02
  1.079808e+00    1.471596e+00   2.289846e-02
  1.082018e+00    1.430501e+00   2.238951e-02
  1.084229e+00    1.435174e+00   2.231693e-02
  1.086439e+00    1.457703e+00   2.240392e-02
  1.088650e+00    1.457866e+00   2.232942e-02
  1.090860e+00    1.454015e+00   2.223229e-02
  1.093071e+00    1.410010e+00   2.183198e-02
  1.095281e+00    1.412869e+00   2.179749e-02
  1.097492e+00    1.426737e+00   2.184965e-02
  1.099702e+00    1.432522e+00   2.184265e-02
  1.101912e+00    1.416421e+00   2.167111e-02
  1.104123e+00    1.399325e+00   2.149231e-02
  1.106333e+00    1.435053e+00   2.172049e-02
  1.108544e+00    1.443134e+00   2.173712e-02
  1.110754e+00    1.414268e+00   2.147579e-02
  1.112965e+00    1.408958e+00   2.139507e-02
  1.115175e+00    1.394516e+00   2.124435e-02
  1.117386e+00    1.395518e+00   2.121297e-02
  1.119596e+00    1.387553e+00   2.111482e-02
  1.121807e+00    1.380136e+00   2.101990e-02
  1.124017e+00    1.384811e+00   2.101910e-02
  1.126228e+00    1.400215e+00   2.109999e-02
  1.128438e+00    1.380157e+00   2.091185e-02
  1.130648e+00    1.372213e+00   2.081757e-02
  1.132859e+00    1.369097e+00   2.075990e-02
  1.135069e+00    1.375210e+00   2.077169e-02
  1.137280e+00    1.368112e+00   2.068528e-02
  1.139490e+00    1.380416e+00   2.074510e-02
  1.141701e+00    1.391712e+00   2.079661e-02
  1.143911e+00    1.374914e+00   2.063896e-02
  1.146122e+00    1.368653e+00   2.056004e-02
  1.148332e+00    1.379349e+00   2.060834e-02
  1.150543e+00    1.372161e+00   2.052381e-02
  1.152753e+00    1.385456e+00   2.059204e-02
  1.154963e+00    1.384207e+00   2.055160e-02
  1.157174e+00    1.375730e+00   2.045839e-02
  1.159384e+00    1.367888e+00   2.037019e-02
  1.161595e+00    1.366376e+00   2.032912e-02
  1.163805e+00    1.364416e+00   2.028533e-02
  1.166016e+00    1.353573e+00   2.017528e-02
  1.168226e+00    1.362803e+00   2.021503e-02
  1.170437e+00    1.366729e+00   2.021549e-02
  1.172647e+00    1.357248e+00   2.011645e-02
  1.174858e+00    1.376865e+00   2.023307e-02
  1.177068e+00    1.379485e+00   2.022390e-02
  1.179278e+00    1.371511e+00   2.013669e-02
  1.181489e+00    1.368285e+00   2.008587e-02
  1.183699e+00    1.411660e+00   2.037367e-02
  1.185910e+00    1.375842e+00   2.008558e-02
  1.188120e+00    1.376703e+00   2.006499e-02
  1.190331e+00    1.355930e+00   1.988625e-02
  1.192541e+00    1.389835e+00   2.010561e-02
  1.194752e+00    1.401727e+00   2.016392e-02
  1.196962e+00    1.393513e+00   2.007861e-02
  1.199173e+00    1.395128e+00   2.006332e-02
  1.201383e+00    1.346690e+00   1.968481e-02
  1.203593e+00    1.327695e+00   1.952088e-02
  1.205804e+00    1.313870e+00   1.939340e-02
  1.208014e+00    1.336176e+00   1.953062e-02
  1.210225e+00    1.333462e+00   1.948561e-02
  1.212435e+00    1.353083e+00   1.960362e-02
  1.214646e+00    1.341230e+00   1.949157e-02
  1.216856e+00    1.335831e+00   1.942693e-02
  1.219067e+00    1.362481e+00   1.959519e-02
  1.221277e+00    1.344414e+00   1.943988e-02
  1.223488e+00    1.335024e+00   1.934624e-02
  1.225698e+00    1.332689e+00   1.930260e-02
  1.227909e+00    1.348109e+00   1.938379e-02
  1.230119e+00    1.380575e+00   1.958359e-02
  1.232329e+00    1.367048e+00   1.945653e-02
  1.234540e+00    1.359868e+00   1.937495e-02
  1.236750e+00    1.360111e+00   1.934631e-02
  1.238961e+00    1.347637e+00   1.923044e-02
  1.241171e+00    1.347854e+00   1.920783e-02
  1.243382e+00    1.331257e+00   1.906585e-02
  1.245592e+00    1.331855e+00   1.904621e-02
  1.247803e+00    1.325420e+00   1.897668e-02
  1.250013e+00    1.348378e+00   1.911680e-02
  1.252224e+00    1.341998e+00   1.904836e-02
  1.254434e+00    1.335275e+00   1.897696e-02
  1.256644e+00    1.335528e+00   1.895567e-02
  1.258855e+00    1.339410e+00   1.896003e-02
  1.261065e+00    1.372557e+00   1.916963e-02
  1.263276e+00    1.354056e+00   1.901704e-02
  1.265486e+00    1.351284e+00   1.897465e-02
  1.267697e+00    1.362629e+00   1.903103e-02
  1.269907e+00    1.344642e+00   1.888235e-02
  1.272118e+00    1.367181e+00   1.901723e-02
  1.274328e+00    1.376524e+00   1.905914e-02
  1.276539e+00    1.344259e+00   1.881171e-02
  1.278749e+00    1.368690e+00   1.895944e-02
  1.280959e+00    1.331412e+00   1.867710e-02
  1.283170e+00    1.335115e+00   1.868073e-02
  1.285380e+00    1.346992e+00   1.874122e-02
  1.287591e+00    1.334692e+00   1.863354e-02
  1.289801e+00    1.355074e+00   1.875402e-02
  1.292012e+00    1.351871e+00   1.871473e-02
  1.294222e+00    1.367626e+00   1.880713e-02
  1.296433e+00    1.346057e+00   1.864268e-02
  1.298643e+00    1.331601e+00   1.852591e-02
  1.300854e+00    1.362125e+00   1.872056e-02
  1.303064e+00    1.364691e+00   1.871886e-02
  1.305274e+00    1.356991e+00   1.864449e-02
  1.307485e+00    1.349299e+00   1.857003e-02
  1.309695e+00    1.345682e+00   1.852291e-02
  1.311906e+00    1.381063e+00   1.874288e-02
  1.314116e+00    1.378829e+00   1.870671e-02
  1.316327e+00    1.349089e+00   1.848219e-02
  1.318537e+00    1.347016e+00   1.844611e-02
  1.320748e+00    1.345567e+00   1.841469e-02
  1.322958e+00    1.373700e+00   1.858547e-02
  1.325169e+00    1.368627e+00   1.852998e-02
  1.327379e+00    1.342190e+00   1.832840e-02
  1.329589e+00    1.343958e+00   1.831943e-02
  1.331800e+00    1.377184e+00   1.852358e-02
  1.334010e+00    1.389821e+00   1.858745e-02
  1.336221e+00    1.375960e+00   1.847255e-02
  1.338431e+00    1.376974e+00   1.845829e-02
  1.340642e+00    1.360565e+00   1.841238e-02
  1.342852e+00    1.374223e+00   1.860615e-02
  1.345063e+00    1.367812e+00   1.861251e-02
  1.347273e+00    1.350789e+00   1.853158e-02
  1.349484e+00    1.363482e+00   1.864626e-02
  1.351694e+00    1.379046e+00   1.877533e-02
  1.353905e+00    1.359493e+00   1.865983e-02
  1.356115e+00    1.336276e+00   1.851475e-02
  1.358325e+00    1.337170e+00   1.853421e-02
  1.360536e+00    1.327098e+00   1.847580e-02
  1.362746e+00    1.348956e+00   1.863688e-02
  1.364957e+00    1.344554e+00   1.861412e-02
  1.367167e+00    1.331441e+00   1.853023e-02
  1.369378e+00    1.333118e+00   1.854787e-02
  1.371588e+00    1.317398e+00   1.844330e-02
  1.373799e+00    1.303201e+00   1.834725e-02
  1.376009e+00    1.308612e+00   1.838867e-02
  1.378220e+00    1.297866e+00   1.831549e-02
  1.380430e+00    1.280228e+00   1.819329e-02
  1.382640e+00    1.282698e+00   1.821169e-02
  1.384851e+00    1.315044e+00   1.844078e-02
  1.387061e+00    1.294653e+00   1.829754e-02
  1.389272e+00    1.312335e+00   1.842227e-02
  1.391482e+00    1.317412e+00   1.845721e-02
  1.393693e+00    1.302905e+00   1.835441e-02
  1.395903e+00    1.304754e+00   1.836594e-02
  1.398114e+00    1.274336e+00   1.814922e-02
  1.400324e+00    1.276563e+00   1.816292e-02
  1.402535e+00    1.287933e+00   1.824131e-02
  1.404745e+00    1.292378e+00   1.827036e-02
  1.406955e+00    1.299466e+00   1.831772e-02
  1.409166e+00    1.277482e+00   1.815877e-02
  1.411376e+00    1.264380e+00   1.806231e-02
  1.413587e+00    1.275167e+00   1.813537e-02
  1.415797e+00    1.282884e+00   1.818660e-02
  1.418008e+00    1.265388e+00   1.802039e-02
  1.420218e+00    1.261486e+00   1.784334e-02
  1.422429e+00    1.260253e+00   1.774962e-02
  1.424639e+00    1.265016e+00   1.771859e-02
  1.426850e+00    1.265991e+00   1.767077e-02
  1.429060e+00    1.276851e+00   1.769731e-02
  1.431270e+00    1.275102e+00   1.764078e-02
  1.433481e+00    1.276904e+00   1.761216e-02
  1.435691e+00    1.274956e+00   1.756024e-02
  1.437902e+00    1.271406e+00   1.749927e-02
  1.440112e+00    1.290702e+00   1.759595e-02
  1.442323e+00    1.287236e+00   1.753904e-02
  1.444533e+00    1.271934e+00   1.740189e-02
  1.446744e+00    1.258209e+00   1.727678e-02
  1.448954e+00    1.266059e+00   1.730043e-02
  1.451165e+00    1.278588e+00   1.735596e-02
  1.453375e+00    1.275896e+00   1.730960e-02
  1.455586e+00    1.269171e+00   1.723574e-02
  1.457796e+00    1.277856e+00   1.726703e-02
  1.460006e+00    1.273659e+00   1.721135e-02
  1.462217e+00    1.264650e+00   1.712421e-02
  1.464427e+00    1.275327e+00   1.717068e-02
  1.466638e+00    1.269013e+00   1.710280e-02
  1.468848e+00    1.275135e+00   1.711861e-02
  1.471059e+00    1.267705e+00   1.704359e-02
  1.473269e+00    1.289579e+00   1.716543e-02
  1.475480e+00    1.278756e+00   1.706940e-02
  1.477690e+00    1.256231e+00   1.689466e-02
  1.479901e+00    1.274823e+00   1.699531e-02
  1.482111e+00    1.268376e+00   1.692896e-02
  1.484321e+00    1.273351e+00   1.693894e-02
  1.486532e+00    1.293610e+00   1.705060e-02
  1.488742e+00    1.260453e+00   1.680805e-02
  1.490953e+00    1.271978e+00   1.686205e-02
  1.493163e+00    1.239923e+00   1.662616e-02
  1.495374e+00    1.265362e+00   1.677432e-02
  1.497584e+00    1.262798e+00   1.673567e-02
  1.499795e+00    1.247094e+00   1.660974e-02
  1.502005e+00    1.257001e+00   1.665392e-02
  1.504216e+00    1.283633e+00   1.680819e-02
  1.506426e+00    1.258876e+00   1.662450e-02
  1.508636e+00    1.247855e+00   1.653119e-02
  1.510847e+00    1.258699e+00   1.658102e-02
  1.513057e+00    1.265786e+00   1.660245e-02
  1.515268e+00    1.271080e+00   1.661126e-02
  1.517478e+00    1.257181e+00   1.649501e-02
  1.519689e+00    1.254244e+00   1.645076e-02
  1.521899e+00    1.267965e+00   1.651726e-02
  1.524110e+00    1.270691e+00   1.651453e-02
  1.526320e+00    1.263519e+00   1.644818e-02
  1.528531e+00    1.267022e+00   1.645107e-02
  1.530741e+00    1.263854e+00   1.641125e-02
  1.532951e+00    1.261665e+00   1.637734e-02
  1.535162e+00    1.265284e+00   1.648797e-02
  1.537372e+00    1.261549e+00   1.653084e-02
  1.539583e+00    1.264796e+00   1.658657e-02
  1.541793e+00    1.235271e+00   1.639874e-02
  1.544004e+00    1.233739e+00   1.638884e-02
  1.546214e+00    1.244395e+00   1.645793e-02
  1.548425e+00    1.241088e+00   1.643634e-02
  1.550635e+00    1.208656e+00   1.622967e-02
  1.552846e+00    1.228151e+00   1.636964e-02
  1.555056e+00    1.261391e+00   1.654790e-02
  1.557266e+00    1.275495e+00   1.652836e-02
  1.559477e+00    1.278266e+00   1.648638e-02
  1.561687e+00    1.231321e+00   1.615033e-02
  1.563898e+00    1.231267e+00   1.613287e-02
  1.566108e+00    1.291487e+00   1.650642e-02
  1.568319e+00    1.328740e+00   1.672668e-02
  1.570529e+00    1.282110e+00   1.640506e-02
  1.572740e+00    1.273164e+00   1.631978e-02
  1.574950e+00    1.263638e+00   1.623210e-02
  1.577161e+00    1.272891e+00   1.626565e-02
  1.579371e+00    1.251429e+00   1.610423e-02
  1.581582e+00    1.224721e+00   1.591183e-02
  1.583792e+00    1.241553e+00   1.600279e-02
  1.586002e+00    1.245302e+00   1.600932e-02
  1.588213e+00    1.241122e+00   1.596521e-02
  1.590423e+00    1.239733e+00   1.593622e-02
  1.592634e+00    1.247962e+00   1.596739e-02
  1.594844e+00    1.223941e+00   1.579171e-02
  1.597055e+00    1.254433e+00   1.596665e-02
  1.599265e+00    1.238827e+00   1.584630e-02
  1.601476e+00    1.252731e+00   1.591459e-02
  1.603686e+00    1.246970e+00   1.585813e-02
  1.605897e+00    1.238135e+00   1.578170e-02
  1.608107e+00    1.226996e+00   1.569108e-02
  1.610317e+00    1.215059e+00   1.559543e-02
  1.612528e+00    1.226575e+00   1.565004e-02
  1.614738e+00    1.211655e+00   1.553577e-02
  1.616949e+00    1.222712e+00   1.558755e-02
  1.619159e+00    1.226749e+00   1.559450e-02
  1.621370e+00    1.217713e+00   1.551854e-02
  1.623580e+00    1.187763e+00   1.530836e-02
  1.625791e+00    1.173060e+00   1.519533e-02
  1.628001e+00    1.180814e+00   1.522738e-02
  1.630212e+00    1.163895e+00   1.510034e-02
  1.632422e+00    1.185708e+00   1.522330e-02
  1.634632e+00    1.161923e+00   1.505269e-02
  1.636843e+00    1.154135e+00   1.498479e-02
  1.639053e+00    1.140767e+00   1.488070e-02
  1.641264e+00    1.119943e+00   1.472755e-02
  1.643474e+00    1.125361e+00   1.474599e-02
  1.645685e+00    1.134993e+00   1.479248e-02
  1.647895e+00    1.132976e+00   1.476290e-02
  1.650106e+00    1.128920e+00   1.471961e-02
  1.652316e+00    1.128135e+00   1.469815e-02
  1.654527e+00    1.131796e+00   1.470539e-02
  1.656737e+00    1.128559e+00   1.466784e-02
  1.658947e+00    1.160099e+00   1.485490e-02
  1.661158e+00    1.176281e+00   1.494155e-02
  1.663368e+00    1.152670e+00   1.477458e-02
  1.665579e+00    1.171024e+00   1.487523e-02
  1.667789e+00    1.129650e+00   1.459377e-02
  1.670000e+00    1.101153e+00   1.439311e-02
  1.672210e+00    1.084153e+00   1.426587e-02
  1.674421e+00    1.078639e+00   1.421439e-02
  1.676631e+00    1.093152e+00   1.429390e-02
  1.678842e+00    1.102355e+00   1.433813e-02
  1.681052e+00    1.102474e+00   1.432348e-02
  1.683263e+00    1.068604e+00   1.408673e-02
  1.685473e+00    1.076854e+00   1.412592e-02
  1.687683e+00    1.054854e+00   1.396567e-02
  1.689894e+00    1.042536e+00   1.386839e-02
  1.692104e+00    1.056656e+00   1.394721e-02
  1.694315e+00    1.057077e+00   1.393558e-02
  1.696525e+00    1.061501e+00   1.394963e-02
  1.698736e+00    1.046595e+00   1.383664e-02
  1.700946e+00    1.054788e+00   1.387559e-02
  1.703157e+00    1.049514e+00   1.382628e-02
  1.705367e+00    1.032225e+00   1.369757e-02
  1.707578e+00    1.030857e+00   1.367405e-02
  1.709788e+00    1.020841e+00   1.359350e-02
  1.711998e+00    1.005515e+00   1.347634e-02
  1.714209e+00    1.009085e+00   1.348600e-02
  1.716419e+00    1.010322e+00   1.348018e-02
  1.718630e+00    1.005683e+00   1.343509e-02
  1.720840e+00    1.018144e+00   1.350396e-02
  1.723051e+00    1.024549e+00   1.353251e-02
  1.725261e+00    1.001935e+00   1.336779e-02
  1.727472e+00    9.849327e-01   1.323995e-02
  1.729682e+00    9.888665e-01   1.325307e-02
  1.731893e+00    9.773306e-01   1.316188e-02
  1.734103e+00    9.962552e-01   1.327498e-02
  1.736313e+00    1.001476e+00   1.329576e-02
  1.738524e+00    1.006833e+00   1.331738e-02
  1.740734e+00    9.997698e-01   1.325692e-02
  1.742945e+00    9.828408e-01   1.313081e-02
  1.745155e+00    9.863877e-01   1.314110e-02
  1.747366e+00    9.664470e-01   1.299392e-02
  1.749576e+00    9.777209e-01   1.305588e-02
  1.751787e+00    9.884194e-01   1.311372e-02
  1.753997e+00    9.718499e-01   1.299004e-02
  1.756208e+00    9.696698e-01   1.296227e-02
  1.758418e+00    9.853053e-01   1.305316e-02
  1.760628e+00    9.922272e-01   1.308543e-02
  1.762839e+00    9.691644e-01   1.291922e-02
  1.765049e+00    9.555338e-01   1.281496e-02
  1.767260e+00    9.507650e-01   1.277020e-02
  1.769470e+00    9.383540e-01   1.267370e-02
  1.771681e+00    9.355227e-01   1.264155e-02
  1.773891e+00    9.302673e-01   1.259308e-02
  1.776102e+00    9.179401e-01   1.249669e-02
  1.778312e+00    9.196847e-01   1.249600e-02
  1.780523e+00    9.176647e-01   1.246969e-02
  1.782733e+00    9.420114e-01   1.262132e-02
  1.784944e+00    9.286171e-01   1.251844e-02
  1.787154e+00    9.806315e-01   1.285134e-02
  1.789364e+00    1.078710e+00   1.346533e-02
  1.791575e+00    1.019783e+00   1.307924e-02
  1.793785e+00    9.518800e-01   1.262371e-02
  1.795996e+00    9.192282e-01   1.239277e-02
  1.798206e+00    9.464875e-01   1.256247e-02
  1.800417e+00    9.503785e-01   1.257535e-02
  1.802627e+00    9.413733e-01   1.250355e-02
  1.804838e+00    9.444450e-01   1.251157e-02
  1.807048e+00    9.592245e-01   1.259592e-02
  1.809259e+00    9.427997e-01   1.247375e-02
  1.811469e+00    9.392441e-01   1.243495e-02
  1.813679e+00    9.377831e-01   1.241001e-02
  1.815890e+00    9.561773e-01   1.251590e-02
  1.818100e+00    9.228802e-01   1.228075e-02
  1.820311e+00    9.012310e-01   1.212100e-02
  1.822521e+00    9.292302e-01   1.229266e-02
  1.824732e+00    9.149607e-01   1.218294e-02
  1.826942e+00    8.823571e-01   1.195157e-02
  1.829153e+00    8.883561e-01   1.198043e-02
  1.831363e+00    8.628821e-01   1.179553e-02
  1.833574e+00    8.567601e-01   1.174207e-02
  1.835784e+00    8.646685e-01   1.178482e-02
  1.837994e+00    8.653365e-01   1.177774e-02
  1.840205e+00    8.732454e-01   1.182028e-02
  1.842415e+00    8.600724e-01   1.171911e-02
  1.844626e+00    8.630055e-01   1.172756e-02
  1.846836e+00    8.696015e-01   1.176084e-02
  1.849047e+00    8.641435e-01   1.171229e-02
  1.851257e+00    8.625653e-01   1.169203e-02
  1.853468e+00    8.489159e-01   1.159040e-02
  1.855678e+00    8.665362e-01   1.170118e-02
  1.857889e+00    8.556182e-01   1.161872e-02
  1.860099e+00    8.671480e-01   1.168808e-02
  1.862309e+00    8.655734e-01   1.166891e-02
  1.864520e+00    8.605669e-01   1.162651e-02
  1.866730e+00    8.774952e-01   1.173080e-02
  1.868941e+00    8.616302e-01   1.161328e-02
  1.871151e+00    8.332827e-01   1.140937e-02
  1.873362e+00    8.298861e-01   1.137488e-02
  1.875572e+00    8.440944e-01   1.146093e-02
  1.877783e+00    8.351349e-01   1.138862e-02
  1.879993e+00    8.399023e-01   1.140995e-02
  1.882204e+00    8.422534e-01   1.141505e-02
  1.884414e+00    8.127862e-01   1.120271e-02
  1.886624e+00    8.436188e-01   1.140213e-02
  1.888835e+00    8.492022e-01   1.142881e-02
  1.891045e+00    8.166130e-01   1.119662e-02
  1.893256e+00    8.352617e-01   1.131266e-02
  1.895466e+00    8.378686e-01   1.131915e-02
  1.897677e+00    8.283027e-01   1.124346e-02
  1.899887e+00    8.458145e-01   1.135064e-02
  1.902098e+00    8.293834e-01   1.122903e-02
  1.904308e+00    8.237948e-01   1.118059e-02
  1.906519e+00    8.199786e-01   1.114388e-02
  1.908729e+00    8.056493e-01   1.103564e-02
  1.910940e+00    7.936979e-01   1.094257e-02
  1.913150e+00    8.103006e-01   1.104594e-02
  1.915360e+00    7.974782e-01   1.094776e-02
  1.917571e+00    7.969586e-01   1.093347e-02
  1.919781e+00    8.299137e-01   1.114652e-02
  1.921992e+00    8.004669e-01   1.093649e-02
  1.924202e+00    7.865032e-01   1.083011e-02
  1.926413e+00    8.055396e-01   1.095016e-02
  1.928623e+00    8.102050e-01   1.097133e-02
  1.930834e+00    8.058525e-01   1.093141e-02
  1.933044e+00    8.171214e-01   1.099688e-02
  1.935255e+00    8.056651e-01   1.090922e-02
  1.937465e+00    8.048691e-01   1.089346e-02
  1.939675e+00    8.012419e-01   1.085807e-02
  1.941886e+00    7.937852e-01   1.079722e-02
  1.944096e+00    7.900526e-01   1.076171e-02
  1.946307e+00    7.855917e-01   1.072104e-02
  1.948517e+00    7.848780e-01   1.070583e-02
  1.950728e+00    7.858809e-01   1.070251e-02
  1.952938e+00    7.848453e-01   1.068543e-02
  1.955149e+00    7.842944e-01   1.067154e-02
  1.957359e+00    7.877996e-01   1.068537e-02
  1.959570e+00    7.882436e-01   1.067755e-02
  1.961780e+00    7.869676e-01   1.065901e-02
  1.963990e+00    8.127280e-01   1.082183e-02
  1.966201e+00    8.032829e-01   1.074864e-02
  1.968411e+00    7.707931e-01   1.051897e-02
  1.970622e+00    7.816273e-01   1.058259e-02
  1.972832e+00    7.802972e-01   1.056366e-02
  1.975043e+00    7.821001e-01   1.056582e-02
  1.977253e+00    7.775750e-01   1.052534e-02
  1.979464e+00    7.453541e-01   1.029516e-02
  1.981674e+00    7.591880e-01   1.038015e-02
  1.983885e+00    7.596751e-01   1.037360e-02
  1.986095e+00    7.555709e-01   1.033600e-02
  1.988305e+00    7.735725e-01   1.044853e-02
  1.990516e+00    7.855562e-01   1.051920e-02
  1.992726e+00    7.768077e-01   1.045080e-02
  1.994937e+00    7.778485e-01   1.044767e-02
  1.997147e+00    7.894899e-01   1.051574e-02
  1.999358e+00    7.728080e-01   1.039421e-02
  2.001568e+00    7.724168e-01   1.038077e-02
  2.003779e+00    7.750661e-01   1.038662e-02
  2.005989e+00    7.602915e-01   1.027522e-02
  2.008200e+00    7.702269e-01   1.033060e-02
  2.010410e+00    7.751974e-01   1.035210e-02
  2.012621e+00    7.750512e-01   1.033937e-02
  2.014831e+00    7.661244e-01   1.026819e-02
  2.017041e+00    7.736621e-01   1.030815e-02
  2.019252e+00    7.761900e-01   1.031495e-02
  2.021462e+00    7.841417e-01   1.035802e-02
  2.023673e+00    7.759985e-01   1.029466e-02
  2.025883e+00    7.443315e-01   1.007300e-02
  2.028094e+00    7.652426e-01   1.020385e-02
  2.030304e+00    7.448959e-01   1.005788e-02
  2.032515e+00    7.425175e-01   1.003258e-02
  2.034725e+00    7.635134e-01   1.016399e-02
  2.036936e+00    7.553785e-01   1.010038e-02
  2.039146e+00    7.632307e-01   1.014312e-02
  2.041356e+00    7.579763e-01   1.009850e-02
  2.043567e+00    7.491642e-01   1.003037e-02
  2.045777e+00    7.455521e-01   9.996949e-03
  2.047988e+00    7.710580e-01   1.015707e-02
  2.050198e+00    7.516844e-01   1.002023e-02
  2.052409e+00    7.318744e-01   9.879763e-03
  2.054619e+00    7.333493e-01   9.882413e-03
  2.056830e+00    7.479528e-01   9.973166e-03
  2.059040e+00    7.590535e-01   1.003936e-02
  2.061251e+00    7.411583e-01   9.913107e-03
  2.063461e+00    7.422480e-01   9.912830e-03
  2.065671e+00    7.191861e-01   9.749074e-03
  2.067882e+00    7.349709e-01   9.846540e-03
  2.070092e+00    7.582017e-01   9.991688e-03
  2.072303e+00    7.653186e-01   1.002922e-02
  2.074513e+00    7.596317e-01   9.982497e-03
  2.076724e+00    7.546015e-01   9.939852e-03
  2.078934e+00    7.453380e-01   9.869638e-03
  2.081145e+00    7.385249e-01   9.815378e-03
  2.083355e+00    7.316527e-01   9.760475e-03
  2.085566e+00    7.453118e-01   9.842239e-03
  2.087776e+00    7.343616e-01   9.760193e-03
  2.089986e+00    7.392184e-01   9.783631e-03
  2.092197e+00    7.460454e-01   9.819687e-03
  2.094407e+00    7.453067e-01   9.805547e-03
  2.096618e+00    7.215935e-01   9.639502e-03
  2.098828e+00    6.958331e-01   9.456783e-03
  2.101039e+00    7.322297e-01   9.691985e-03
  2.103249e+00    7.354947e-01   9.704872e-03
  2.105460e+00    7.339122e-01   9.685400e-03
  2.107670e+00    7.397680e-01   9.715153e-03
  2.109881e+00    7.322485e-01   9.656471e-03
  2.112091e+00    7.109379e-01   9.506011e-03
  2.114301e+00    7.241626e-01   9.585227e-03
  2.116512e+00    7.318924e-01   9.627420e-03
  2.118722e+00    7.169169e-01   9.519619e-03
  2.120933e+00    7.248199e-01   9.563048e-03
  2.123143e+00    7.341164e-01   9.615187e-03
  2.125354e+00    7.172515e-01   9.495577e-03
  2.127564e+00    7.164050e-01   9.481232e-03
  2.129775e+00    7.207471e-01   9.501169e-03
  2.131985e+00    7.155427e-01   9.457733e-03
  2.134196e+00    7.151601e-01   9.446614e-03
  2.136406e+00    6.979107e-01   9.323339e-03
  2.138617e+00    6.987386e-01   9.320470e-03
  2.140827e+00    7.034920e-01   9.368123e-03
  2.143037e+00    6.938474e-01   9.348737e-03
  2.145248e+00    7.068604e-01   9.458000e-03
  2.147458e+00    7.169090e-01   9.540278e-03
  2.149669e+00    6.869283e-01   9.350383e-03
  2.151879e+00    6.938583e-01   9.406581e-03
  2.154090e+00    6.960131e-01   9.428475e-03
  2.156300e+00    7.027751e-01   9.480763e-03
  2.158511e+00    7.061313e-01   9.508716e-03
  2.160721e+00    7.163996e-01   9.582482e-03
  2.162932e+00    7.104189e-01   9.546177e-03
  2.165142e+00    6.991971e-01   9.473504e-03
  2.167352e+00    7.150472e-01   9.583225e-03
  2.169563e+00    6.927781e-01   9.434787e-03
  2.171773e+00    6.937537e-01   9.443851e-03
  2.173984e+00    7.063931e-01   9.530920e-03
  2.176194e+00    6.971800e-01   9.469783e-03
  2.178405e+00    6.868994e-01   9.400388e-03
  2.180615e+00    6.870856e-01   9.402333e-03
  2.182826e+00    6.907194e-01   9.427846e-03
  2.185036e+00    7.009386e-01   9.497380e-03
  2.187247e+00    6.974291e-01   9.473539e-03
  2.189457e+00    6.948813e-01   9.455799e-03
  2.191667e+00    6.990491e-01   9.483935e-03
  2.193878e+00    6.949039e-01   9.455215e-03
  2.196088e+00    6.809178e-01   9.358898e-03
  2.198299e+00    6.883574e-01   9.408778e-03
  2.200509e+00    6.804398e-01   9.353478e-03
  2.202720e+00    6.780339e-01   9.335763e-03
  2.204930e+00    6.892106e-01   9.411151e-03
  2.207141e+00    6.956338e-01   9.453773e-03
  2.209351e+00    6.729411e-01   9.296442e-03
  2.211562e+00    6.888618e-01   9.404099e-03
  2.213772e+00    7.045833e-01   9.454225e-03
  2.215982e+00    6.792200e-01   9.238189e-03
  2.218193e+00    6.785196e-01   9.203713e-03
  2.220403e+00    6.763317e-01   9.164254e-03
  2.222614e+00    7.046503e-01   9.332710e-03
  2.224824e+00    6.807639e-01   9.153700e-03
  2.227035e+00    6.806214e-01   9.135188e-03
  2.229245e+00    6.727354e-01   9.065129e-03
  2.231456e+00    6.762509e-01   9.073107e-03
  2.233666e+00    6.521994e-01   8.895441e-03
  2.235877e+00    6.570917e-01   8.914580e-03
  2.238087e+00    6.639394e-01   8.947518e-03
  2.240298e+00    6.712919e-01   8.983126e-03
  2.242508e+00    6.646183e-01   8.923278e-03
  2.244718e+00    6.581218e-01   8.863887e-03
  2.246929e+00    6.763793e-01   8.971475e-03
  2.249139e+00    6.718490e-01   8.928971e-03
  2.251350e+00    6.776077e-01   8.955345e-03
  2.253560e+00    6.766484e-01   8.937370e-03
  2.255771e+00    6.676261e-01   8.866142e-03
  2.257981e+00    6.629704e-01   8.824019e-03
  2.260192e+00    6.622010e-01   8.807813e-03
  2.262402e+00    6.479273e-01   8.701649e-03
  2.264613e+00    6.466833e-01   8.682592e-03
  2.266823e+00    6.556488e-01   8.732228e-03
  2.269033e+00    6.698330e-01   8.815732e-03
  2.271244e+00    6.810120e-01   8.878494e-03
  2.273454e+00    6.453532e-01   8.632770e-03
  2.275665e+00    6.736954e-01   8.809893e-03
  2.277875e+00    6.892890e-01   8.901142e-03
  2.280086e+00    6.875933e-01   8.879946e-03
  2.282296e+00    6.607666e-01   8.695586e-03
  2.284507e+00    6.584346e-01   8.670079e-03
  2.286717e+00    6.601426e-01   8.671848e-03
  2.288928e+00    6.504964e-01   8.598435e-03
  2.291138e+00    6.648041e-01   8.682988e-03
  2.293348e+00    6.589823e-01   8.635352e-03
  2.295559e+00    6.415631e-01   8.511224e-03
  2.297769e+00    6.499923e-01   8.557735e-03
  2.299980e+00    6.534408e-01   8.571075e-03
  2.302190e+00    6.488631e-01   8.531912e-03
  2.304401e+00    6.435556e-01   8.487682e-03
  2.306611e+00    6.321025e-01   8.402769e-03
  2.308822e+00    6.427658e-01   8.464994e-03
  2.311032e+00    6.548456e-01   8.537706e-03
  2.313243e+00    6.552244e-01   8.533882e-03
  2.315453e+00    6.683616e-01   8.611316e-03
  2.317663e+00    6.458902e-01   8.456222e-03
  2.319874e+00    6.473061e-01   8.456732e-03
  2.322084e+00    6.431171e-01   8.420381e-03
  2.324295e+00    6.482961e-01   8.445974e-03
  2.326505e+00    6.523962e-01   8.463540e-03
  2.328716e+00    6.407544e-01   8.379143e-03
  2.330926e+00    6.459846e-01   8.404460e-03
  2.333137e+00    6.387850e-01   8.349142e-03
  2.335347e+00    6.371347e-01   8.329507e-03
  2.337558e+00    6.399002e-01   8.339334e-03
  2.339768e+00    6.399730e-01   8.331243e-03
  2.341979e+00    6.475904e-01   8.372239e-03
  2.344189e+00    6.417588e-01   8.326058e-03
  2.346399e+00    6.460962e-01   8.345562e-03
  2.348610e+00    6.351376e-01   8.266060e-03
  2.350820e+00    6.319759e-01   8.237274e-03
  2.353031e+00    6.346581e-01   8.246456e-03
  2.355241e+00    6.303887e-01   8.210633e-03
  2.357452e+00    6.224721e-01   8.150567e-03
  2.359662e+00    6.299146e-01   8.190929e-03
  2.361873e+00    6.319892e-01   8.196157e-03
  2.364083e+00    6.384252e-01   8.229742e-03
  2.366294e+00    6.244037e-01   8.130789e-03
  2.368504e+00    6.345383e-01   8.188372e-03
  2.370714e+00    6.413492e-01   8.224044e-03
  2.372925e+00    6.369240e-01   8.187505e-03
  2.375135e+00    6.343772e-01   8.162985e-03
  2.377346e+00    6.321667e-01   8.140765e-03
  2.379556e+00    6.289091e-01   8.111819e-03
  2.381767e+00    6.181500e-01   8.034298e-03
  2.383977e+00    6.223421e-01   8.053535e-03
  2.386188e+00    6.236888e-01   8.054323e-03
  2.388398e+00    6.219577e-01   8.035139e-03
  2.390609e+00    6.372784e-01   8.125655e-03
  2.392819e+00    6.273277e-01   8.054134e-03
  2.395029e+00    6.258551e-01   8.036941e-03
  2.397240e+00    6.279894e-01   8.042691e-03
  2.399450e+00    6.095780e-01   7.916125e-03
  2.401661e+00    6.163516e-01   7.952283e-03
  2.403871e+00    6.106179e-01   7.907451e-03
  2.406082e+00    6.104856e-01   7.899154e-03
  2.408292e+00    6.121930e-01   7.902383e-03
  2.410503e+00    6.027298e-01   7.833614e-03
  2.412713e+00    6.052323e-01   7.842079e-03
  2.414924e+00    6.016690e-01   7.811500e-03
  2.417134e+00    5.969015e-01   7.772914e-03
  2.419344e+00    5.960024e-01   7.759676e-03
  2.421555e+00    5.933718e-01   7.735090e-03
  2.423765e+00    5.859413e-01   7.679197e-03
  2.425976e+00    5.903492e-01   7.700257e-03
  2.428186e+00    5.841078e-01   7.652340e-03
  2.430397e+00    5.925354e-01   7.699879e-03
  2.432607e+00    5.968332e-01   7.720476e-03
  2.434818e+00    5.948890e-01   7.700352e-03
  2.437028e+00    6.049032e-01   7.757674e-03
  2.439239e+00    6.014571e-01   7.727855e-03
  2.441449e+00    5.895106e-01   7.643529e-03
  2.443659e+00    5.877520e-01   7.624805e-03
  2.445870e+00    5.860063e-01   7.625665e-03
  2.448080e+00    5.854393e-01   7.656862e-03
  2.450291e+00    5.840257e-01   7.664319e-03
  2.452501e+00    5.711848e-01   7.590708e-03
  2.454712e+00    5.718502e-01   7.603541e-03
  2.456922e+00    5.625383e-01   7.547958e-03
  2.459133e+00    5.654123e-01   7.572626e-03
  2.461343e+00    5.733671e-01   7.630092e-03
  2.463554e+00    5.560644e-01   7.517538e-03
  2.465764e+00    5.570880e-01   7.527554e-03
  2.467975e+00    5.601004e-01   7.550183e-03
  2.470185e+00    5.465000e-01   7.460172e-03
  2.472395e+00    5.469181e-01   7.464233e-03
  2.474606e+00    5.558903e-01   7.526781e-03
  2.476816e+00    5.489507e-01   7.480386e-03
  2.479027e+00    5.454630e-01   7.457418e-03
  2.481237e+00    5.551746e-01   7.523810e-03
  2.483448e+00    5.419067e-01   7.433661e-03
  2.485658e+00    5.470000e-01   7.468355e-03
  2.487869e+00    5.382555e-01   7.408478e-03
  2.490079e+00    5.342683e-01   7.380455e-03
  2.492290e+00    5.357447e-01   7.390224e-03
  2.494500e+00    5.359386e-01   7.390823e-03
  2.496710e+00    5.421599e-01   7.432891e-03
  2.498921e+00    5.410524e-01   7.424319e-03
  2.501131e+00    5.345164e-01   7.378372e-03
  2.503342e+00    5.255042e-01   7.314659e-03
  2.505552e+00    5.370066e-01   7.393129e-03
  2.507763e+00    5.316134e-01   7.354506e-03
  2.509973e+00    5.153580e-01   7.239824e-03
  2.512184e+00    5.188588e-01   7.262753e-03
  2.514394e+00    5.212288e-01   7.270017e-03
  2.516605e+00    5.218596e-01   7.227560e-03
  2.518815e+00    5.397744e-01   7.321859e-03
  2.521025e+00    5.407116e-01   7.306969e-03
  2.523236e+00    5.281599e-01   7.203640e-03
  2.525446e+00    5.207958e-01   7.137695e-03
  2.527657e+00    5.237366e-01   7.143241e-03
  2.529867e+00    5.329281e-01   7.191362e-03
  2.532078e+00    5.334921e-01   7.180008e-03
  2.534288e+00    5.468911e-01   7.255437e-03
  2.536499e+00    5.333297e-01   7.152884e-03
  2.538709e+00    5.325068e-01   7.136285e-03
  2.540920e+00    5.183977e-01   7.030518e-03
  2.543130e+00    5.181777e-01   7.018729e-03
  2.545340e+00    5.186313e-01   7.011774e-03
  2.547551e+00    5.298157e-01   7.076956e-03
  2.549761e+00    5.206394e-01   7.005873e-03
  2.551972e+00    5.150008e-01   6.958511e-03
  2.554182e+00    5.199872e-01   6.982962e-03
  2.556393e+00    5.114933e-01   6.916685e-03
  2.558603e+00    5.200397e-01   6.965157e-03
  2.560814e+00    5.117764e-01   6.900955e-03
  2.563024e+00    5.274841e-01   6.997424e-03
  2.565235e+00    5.130830e-01   6.891794e-03
  2.567445e+00    5.171534e-01   6.909525e-03
  2.569656e+00    5.187851e-01   6.910670e-03
  2.571866e+00    5.149267e-01   6.875599e-03
  2.574076e+00    5.091109e-01   6.827467e-03
  2.576287e+00    5.048177e-01   6.790372e-03
  2.578497e+00    5.242906e-01   6.912181e-03
  2.580708e+00    5.205565e-01   6.879426e-03
  2.582918e+00    5.017775e-01   6.746524e-03
  2.585129e+00    5.111998e-01   6.801840e-03
  2.587339e+00    5.195778e-01   6.849626e-03
  2.589550e+00    5.201316e-01   6.845687e-03
  2.591760e+00    4.995411e-01   6.701181e-03
  2.593971e+00    5.155400e-01   6.800061e-03
  2.596181e+00    5.130726e-01   6.777573e-03
  2.598391e+00    5.095773e-01   6.749224e-03
  2.600602e+00    5.116279e-01   6.756911e-03
  2.602812e+00    5.103123e-01   6.740644e-03
  2.605023e+00    5.079235e-01   6.717688e-03
  2.607233e+00    5.110526e-01   6.731193e-03
  2.609444e+00    5.179200e-01   6.768958e-03
  2.611654e+00    5.137373e-01   6.734222e-03
  2.613865e+00    4.973603e-01   6.619022e-03
  2.616075e+00    5.054234e-01   6.665317e-03
  2.618286e+00    5.148199e-01   6.719945e-03
  2.620496e+00    5.195826e-01   6.744154e-03
  2.622706e+00    5.084352e-01   6.665671e-03
  2.624917e+00    4.977282e-01   6.589295e-03
  2.627127e+00    5.076046e-01   6.648581e-03
  2.629338e+00    4.981083e-01   6.580157e-03
  2.631548e+00    5.075475e-01   6.636019e-03
  2.633759e+00    4.951687e-01   6.547495e-03
  2.635969e+00    4.921579e-01   6.520947e-03
  2.638180e+00    5.051238e-01   6.599258e-03
  2.640390e+00    5.088452e-01   6.616882e-03
  2.642601e+00    5.020277e-01   6.565733e-03
  2.644811e+00    4.931645e-01   6.500496e-03
  2.647021e+00    5.132502e-01   6.624873e-03
  2.649232e+00    5.059823e-01   6.571077e-03
  2.651442e+00    5.081220e-01   6.578365e-03
  2.653653e+00    5.088843e-01   6.576460e-03
  2.655863e+00    5.021256e-01   6.525928e-03
  2.658074e+00    4.888967e-01   6.432843e-03
  2.660284e+00    4.841887e-01   6.395511e-03
  2.662495e+00    4.921767e-01   6.441333e-03
  2.664705e+00    4.933017e-01   6.442152e-03
  2.666916e+00    4.960672e-01   6.453714e-03
  2.669126e+00    5.035056e-01   6.495417e-03
  2.671337e+00    5.030967e-01   6.486162e-03
  2.673547e+00    4.939816e-01   6.420744e-03
  2.675757e+00    4.988902e-01   6.446106e-03
  2.677968e+00    4.963157e-01   6.422911e-03
  2.680178e+00    4.825019e-01   6.326567e-03
  2.682389e+00    4.778575e-01   6.289750e-03
  2.684599e+00    4.774341e-01   6.280875e-03
  2.686810e+00    4.829412e-01   6.310435e-03
  2.689020e+00    4.913638e-01   6.358953e-03
  2.691231e+00    4.922191e-01   6.358183e-03
  2.693441e+00    4.971304e-01   6.383634e-03
  2.695652e+00    5.013907e-01   6.404361e-03
  2.697862e+00    4.750930e-01   6.227883e-03
  2.700072e+00    4.916952e-01   6.329671e-03
  2.702283e+00    4.802577e-01   6.249467e-03
  2.704493e+00    4.866976e-01   6.284950e-03
  2.706704e+00    4.797568e-01   6.233626e-03
  2.708914e+00    4.793743e-01   6.225237e-03
  2.711125e+00    4.813666e-01   6.231939e-03
  2.713335e+00    4.959746e-01   6.319658e-03
  2.715546e+00    4.891649e-01   6.269653e-03
  2.717756e+00    4.801071e-01   6.205488e-03
  2.719967e+00    4.737388e-01   6.158055e-03
  2.722177e+00    4.793278e-01   6.188188e-03
  2.724387e+00    4.713770e-01   6.130647e-03
  2.726598e+00    4.784490e-01   6.170425e-03
  2.728808e+00    4.906141e-01   6.242210e-03
  2.731019e+00    4.936692e-01   6.255425e-03
  2.733229e+00    4.883478e-01   6.215812e-03
  2.735440e+00    4.662413e-01   6.067334e-03
  2.737650e+00    4.647883e-01   6.051957e-03
  2.739861e+00    4.762715e-01   6.120249e-03
  2.742071e+00    4.783594e-01   6.127932e-03
  2.744282e+00    4.749486e-01   6.099856e-03
  2.746492e+00    4.740516e-01   6.088099e-03
  2.748702e+00    4.853110e-01   6.154048e-03
  2.750913e+00    4.916769e-01   6.188441e-03
  2.753123e+00    4.949591e-01   6.202842e-03
  2.755334e+00    4.948058e-01   6.195737e-03
  2.757544e+00    4.907954e-01   6.164775e-03
  2.759755e+00    4.813507e-01   6.099284e-03
  2.761965e+00    4.771019e-01   6.066327e-03
  2.764176e+00    4.756541e-01   6.051174e-03
  2.766386e+00    4.739254e-01   6.034400e-03
  2.768597e+00    4.865293e-01   6.108203e-03
  2.770807e+00    4.804759e-01   6.064213e-03
  2.773017e+00    4.848830e-01   6.085956e-03
  2.775228e+00    4.861849e-01   6.088281e-03
  2.777438e+00    4.801447e-01   6.044547e-03
  2.779649e+00    4.831588e-01   6.057551e-03
  2.781859e+00    4.818051e-01   6.043273e-03
  2.784070e+00    4.888397e-01   6.081300e-03
  2.786280e+00    4.765141e-01   5.998380e-03
  2.788491e+00    4.888907e-01   6.069863e-03
  2.790701e+00    4.933988e-01   6.092048e-03
  2.792912e+00    4.815166e-01   6.012255e-03
  2.795122e+00    4.799124e-01   5.996461e-03
  2.797333e+00    4.824597e-01   6.006754e-03
  2.799543e+00    4.743113e-01   5.949974e-03
  2.801753e+00    4.844359e-01   6.007219e-03
  2.803964e+00    4.781062e-01   5.962176e-03
  2.806174e+00    4.682738e-01   5.894438e-03
  2.808385e+00    4.610178e-01   5.841909e-03
  2.810595e+00    4.726627e-01   5.908353e-03
  2.812806e+00    4.877851e-01   5.995438e-03
  2.815016e+00    4.714571e-01   5.889518e-03
  2.817227e+00    4.721638e-01   5.919790e-03
  2.819437e+00    4.682309e-01   5.906119e-03
  2.821648e+00    4.634863e-01   5.878372e-03
  2.823858e+00    4.625749e-01   5.877870e-03
  2.826068e+00    4.713014e-01   5.938002e-03
  2.828279e+00    4.836515e-01   6.019404e-03
  2.830489e+00    4.786734e-01   5.991724e-03
  2.832700e+00    4.742186e-01   5.966321e-03
  2.834910e+00    4.759058e-01   5.978996e-03
  2.837121e+00    4.753752e-01   5.977395e-03
  2.839331e+00    4.583803e-01   5.870787e-03
  2.841542e+00    4.705528e-01   5.949231e-03
  2.843752e+00    4.637608e-01   5.906925e-03
  2.845963e+00    4.724325e-01   5.962288e-03
  2.848173e+00    4.633286e-01   5.904650e-03
  2.850383e+00    4.667670e-01   5.926813e-03
  2.852594e+00    4.771690e-01   5.992401e-03
  2.854804e+00    4.579769e-01   5.870180e-03
  2.857015e+00    4.688498e-01   5.938985e-03
  2.859225e+00    4.694428e-01   5.942523e-03
  2.861436e+00    4.549131e-01   5.849164e-03
  2.863646e+00    4.618997e-01   5.893969e-03
  2.865857e+00    4.571544e-01   5.863932e-03
  2.868067e+00    4.651850e-01   5.915448e-03
  2.870278e+00    4.646425e-01   5.911634e-03
  2.872488e+00    4.599794e-01   5.880747e-03
  2.874698e+00    4.620930e-01   5.893199e-03
  2.876909e+00    4.646870e-01   5.908378e-03
  2.879119e+00    4.715431e-01   5.950174e-03
  2.881330e+00    4.603718e-01   5.877808e-03
  2.883540e+00    4.539490e-01   5.835283e-03
  2.885751e+00    4.730552e-01   5.955135e-03
  2.887961e+00    4.836375e-01   6.019470e-03
  2.890172e+00    4.601615e-01   5.869976e-03
  2.892382e+00    4.481018e-01   5.790728e-03
  2.894593e+00    4.659114e-01   5.902875e-03
  2.896803e+00    4.632196e-01   5.883808e-03
  2.899014e+00    4.650363e-01   5.893419e-03
  2.901224e+00    4.646568e-01   5.888993e-03
  2.903434e+00    4.616683e-01   5.868114e-03
  2.905645e+00    4.419522e-01   5.739243e-03
  2.907855e+00    4.544455e-01   5.817699e-03
  2.910066e+00    4.631106e-01   5.870820e-03
  2.912276e+00    4.660726e-01   5.887431e-03
  2.914487e+00    4.587571e-01   5.838578e-03
  2.916697e+00    4.639438e-01   5.869281e-03
  2.918908e+00    4.506604e-01   5.782637e-03
  2.921118e+00    4.515226e-01   5.785487e-03
  2.923329e+00    4.654987e-01   5.872007e-03
  2.925539e+00    4.735933e-01   5.920535e-03
  2.927749e+00    4.643121e-01   5.859902e-03
  2.929960e+00    4.598880e-01   5.829136e-03
  2.932170e+00    4.532628e-01   5.784678e-03
  2.934381e+00    4.564753e-01   5.802696e-03
  2.936591e+00    4.572799e-01   5.805225e-03
  2.938802e+00    4.515806e-01   5.766238e-03
  2.941012e+00    4.526997e-01   5.771069e-03
  2.943223e+00    4.413889e-01   5.695846e-03
  2.945433e+00    4.531027e-01   5.767207e-03
  2.947644e+00    4.537739e-01   5.767345e-03
  2.949854e+00    4.672212e-01   5.847856e-03
  2.952064e+00    4.600833e-01   5.798776e-03
  2.954275e+00    4.526248e-01   5.747183e-03
  2.956485e+00    4.505096e-01   5.729563e-03
  2.958696e+00    4.475449e-01   5.706352e-03
  2.960906e+00    4.508499e-01   5.723202e-03
  2.963117e+00    4.553451e-01   5.747193e-03
  2.965327e+00    4.591951e-01   5.767508e-03
  2.967538e+00    4.574990e-01   5.753923e-03
  2.969748e+00    4.518089e-01   5.715241e-03
  2.971959e+00    4.496821e-01   5.698621e-03
  2.974169e+00    4.630880e-01   5.780346e-03
  2.976379e+00    4.641556e-01   5.784052e-03
  2.978590e+00    4.679363e-01   5.804380e-03
  2.980800e+00    4.762343e-01   5.852764e-03
  2.983011e+00    4.534478e-01   5.708234e-03
  2.985221e+00    4.463750e-01   5.660400e-03
  2.987432e+00    4.485387e-01   5.671018e-03
  2.989642e+00    4.438729e-01   5.638849e-03
  2.991853e+00    4.450562e-01   5.643111e-03
  2.994063e+00    4.426008e-01   5.624656e-03
  2.996274e+00    4.525606e-01   5.684396e-03
  2.998484e+00    4.598218e-01   5.727108e-03
  3.000694e+00    4.581680e-01   5.713325e-03
  3.002905e+00    4.547237e-01   5.688892e-03
  3.005115e+00    4.460685e-01   5.631517e-03
  3.007326e+00    4.494717e-01   5.649812e-03
  3.009536e+00    4.496180e-01   5.647506e-03
  3.011747e+00    4.468103e-01   5.626923e-03
  3.013957e+00    4.561493e-01   5.682259e-03
  3.016168e+00    4.474975e-01   5.624872e-03
  3.018378e+00    4.490506e-01   5.631585e-03
  3.020589e+00    4.552894e-01   5.667356e-03
  3.022799e+00    4.595816e-01   5.690813e-03
  3.025010e+00    4.656450e-01   5.724961e-03
  3.027220e+00    4.458945e-01   5.599143e-03
  3.029430e+00    4.463499e-01   5.598760e-03
  3.031641e+00    4.671701e-01   5.724668e-03
  3.033851e+00    4.492974e-01   5.610589e-03
  3.036062e+00    4.567473e-01   5.654125e-03
  3.038272e+00    4.494648e-01   5.605300e-03
  3.040483e+00    4.505892e-01   5.609075e-03
  3.042693e+00    4.373311e-01   5.522745e-03
  3.044904e+00    4.437465e-01   5.559089e-03
  3.047114e+00    4.463392e-01   5.570534e-03
  3.049325e+00    4.556964e-01   5.624207e-03
  3.051535e+00    4.477287e-01   5.570444e-03
  3.053745e+00    4.503485e-01   5.581966e-03
  3.055956e+00    4.423713e-01   5.527786e-03
  3.058166e+00    4.422471e-01   5.522785e-03
  3.060377e+00    4.399949e-01   5.503962e-03
  3.062587e+00    4.446334e-01   5.528334e-03
  3.064798e+00    4.433118e-01   5.515866e-03
  3.067008e+00    4.562510e-01   5.591014e-03
  3.069219e+00    4.507735e-01   5.552862e-03
  3.071429e+00    4.535882e-01   5.566617e-03
  3.073640e+00    4.490556e-01   5.535431e-03
  3.075850e+00    4.507172e-01   5.542057e-03
  3.078060e+00    4.477086e-01   5.520427e-03
  3.080271e+00    4.526125e-01   5.547095e-03
  3.082481e+00    4.593415e-01   5.584682e-03
  3.084692e+00    4.525363e-01   5.539781e-03
  3.086902e+00    4.460983e-01   5.496989e-03
  3.089113e+00    4.449157e-01   5.486131e-03
  3.091323e+00    4.502817e-01   5.515734e-03
  3.093534e+00    4.589362e-01   5.565089e-03
  3.095744e+00    4.481367e-01   5.495836e-03
  3.097955e+00    4.502040e-01   5.504936e-03
  3.100165e+00    4.513417e-01   5.508548e-03
  3.102375e+00    4.403920e-01   5.437924e-03
  3.104586e+00    4.441467e-01   5.457560e-03
  3.106796e+00    4.376624e-01   5.414102e-03
  3.109007e+00    4.415575e-01   5.434941e-03
  3.111217e+00    4.452946e-01   5.454180e-03
  3.113428e+00    4.624393e-01   5.554729e-03
  3.115638e+00    4.500594e-01   5.476632e-03
  3.117849e+00    4.424036e-01   5.426124e-03
  3.120059e+00    4.419831e-01   5.420101e-03
  3.122270e+00    4.499463e-01   5.465426e-03
  3.124480e+00    4.485168e-01   5.453040e-03
  3.126691e+00    4.461576e-01   5.435115e-03
  3.128901e+00    4.426624e-01   5.410667e-03
  3.131111e+00    4.362340e-01   5.367433e-03
  3.133322e+00    4.313904e-01   5.334151e-03
  3.135532e+00    4.392024e-01   5.378843e-03
  3.137743e+00    4.504095e-01   5.443541e-03
  3.139953e+00    4.423671e-01   5.391048e-03
  3.142164e+00    4.358238e-01   5.362940e-03
  3.144374e+00    4.459852e-01   5.453623e-03
  3.146585e+00    4.295056e-01   5.366265e-03
  3.148795e+00    4.465427e-01   5.482475e-03
  3.151006e+00    4.451319e-01   5.482404e-03
  3.153216e+00    4.509718e-01   5.525445e-03
  3.155426e+00    4.504270e-01   5.528509e-03
  3.157637e+00    4.256967e-01   5.380013e-03
  3.159847e+00    4.363469e-01   5.451734e-03
  3.162058e+00    4.494911e-01   5.537722e-03
  3.164268e+00    4.527965e-01   5.562173e-03
  3.166479e+00    4.331132e-01   5.443573e-03
  3.168689e+00    4.374577e-01   5.474142e-03
  3.170900e+00    4.481868e-01   5.544070e-03
  3.173110e+00    4.584441e-01   5.610099e-03
  3.175321e+00    4.370907e-01   5.480380e-03
  3.177531e+00    4.353761e-01   5.472348e-03
  3.179741e+00    4.418620e-01   5.515041e-03
  3.181952e+00    4.431069e-01   5.524921e-03
  3.184162e+00    4.348979e-01   5.475705e-03
  3.186373e+00    4.288250e-01   5.438917e-03
  3.188583e+00    4.334755e-01   5.470087e-03
  3.190794e+00    4.382310e-01   5.501798e-03
  3.193004e+00    4.414468e-01   5.523175e-03
  3.195215e+00    4.406270e-01   5.519574e-03
  3.197425e+00    4.430820e-01   5.536138e-03
  3.199636e+00    4.426944e-01   5.532945e-03
  3.201846e+00    4.369639e-01   5.496414e-03
  3.204056e+00    4.322820e-01   5.467780e-03
  3.206267e+00    4.373391e-01   5.500501e-03
  3.208477e+00    4.372440e-01   5.500851e-03
  3.210688e+00    4.263107e-01   5.432471e-03
  3.212898e+00    4.303360e-01   5.458632e-03
  3.215109e+00    4.270604e-01   5.438573e-03
  3.217319e+00    4.304646e-01   5.460825e-03
  3.219530e+00    4.272888e-01   5.441053e-03
  3.221740e+00    4.249961e-01   5.426978e-03
  3.223951e+00    4.269191e-01   5.439716e-03
  3.226161e+00    4.259805e-01   5.433932e-03
  3.228372e+00    4.219979e-01   5.408970e-03
  3.230582e+00    4.339179e-01   5.484984e-03
  3.232792e+00    4.481005e-01   5.574132e-03
  3.235003e+00    4.287315e-01   5.452583e-03
  3.237213e+00    4.178433e-01   5.382992e-03
  3.239424e+00    4.261006e-01   5.435925e-03
  3.241634e+00    4.170223e-01   5.377827e-03
  3.243845e+00    4.121290e-01   5.346253e-03
  3.246055e+00    4.236741e-01   5.420335e-03
  3.248266e+00    4.218278e-01   5.408731e-03
  3.250476e+00    4.246102e-01   5.426217e-03
  3.252687e+00    4.236918e-01   5.420284e-03
  3.254897e+00    4.200985e-01   5.397122e-03
  3.257107e+00    4.297973e-01   5.458748e-03
  3.259318e+00    4.426993e-01   5.539854e-03
  3.261528e+00    4.290752e-01   5.453798e-03
  3.263739e+00    4.265858e-01   5.437389e-03
  3.265949e+00    4.210392e-01   5.401807e-03
  3.268160e+00    4.262359e-01   5.434617e-03
  3.270370e+00    4.344807e-01   5.486410e-03
  3.272581e+00    4.225439e-01   5.410268e-03
  3.274791e+00    4.267257e-01   5.436425e-03
  3.277002e+00    4.183771e-01   5.382426e-03
  3.279212e+00    4.237548e-01   5.416525e-03
  3.281422e+00    4.310966e-01   5.462657e-03
  3.283633e+00    4.265385e-01   5.433034e-03
  3.285843e+00    4.158293e-01   5.364065e-03
  3.288054e+00    4.127058e-01   5.342950e-03
  3.290264e+00    4.063424e-01   5.301292e-03
  3.292475e+00    4.169325e-01   5.369099e-03
  3.294685e+00    4.131630e-01   5.344133e-03
  3.296896e+00    4.265674e-01   5.429392e-03
  3.299106e+00    4.252661e-01   5.420541e-03
  3.301317e+00    4.251026e-01   5.418461e-03
  3.303527e+00    4.413467e-01   5.520559e-03
  3.305737e+00    4.263693e-01   5.425026e-03
  3.307948e+00    4.232777e-01   5.404647e-03
  3.310158e+00    4.170092e-01   5.363633e-03
  3.312369e+00    4.287396e-01   5.437664e-03
  3.314579e+00    4.216607e-01   5.391676e-03
  3.316790e+00    4.243414e-01   5.408077e-03
  3.319000e+00    4.188865e-01   5.372036e-03
  3.321211e+00    4.143245e-01   5.342090e-03
  3.323421e+00    4.273044e-01   5.423900e-03
  3.325632e+00    4.340492e-01   5.465642e-03
  3.327842e+00    4.264117e-01   5.416452e-03
  3.330052e+00    4.182767e-01   5.363428e-03
  3.332263e+00    4.325838e-01   5.453398e-03
  3.334473e+00    4.317746e-01   5.447341e-03
  3.336684e+00    4.224363e-01   5.386871e-03
  3.338894e+00    4.191831e-01   5.365218e-03
  3.341105e+00    4.428286e-01   5.513246e-03
  3.343315e+00    4.257969e-01   5.405045e-03
  3.345526e+00    4.101931e-01   5.304186e-03
  3.347736e+00    4.351227e-01   5.461541e-03
  3.349947e+00    4.261990e-01   5.404341e-03
  3.352157e+00    4.132368e-01   5.320327e-03
  3.354368e+00    4.264028e-01   5.403125e-03
  3.356578e+00    4.204624e-01   5.364337e-03
  3.358788e+00    4.119036e-01   5.308155e-03
  3.360999e+00    4.258095e-01   5.395729e-03
  3.363209e+00    4.207338e-01   5.362463e-03
  3.365420e+00    4.234968e-01   5.378528e-03
  3.367630e+00    4.095455e-01   5.288181e-03
  3.369841e+00    4.268684e-01   5.397405e-03
  3.372051e+00    4.305755e-01   5.418799e-03
  3.374262e+00    4.282002e-01   5.401351e-03
  3.376472e+00    4.165415e-01   5.324875e-03
  3.378683e+00    4.373471e-01   5.453647e-03
  3.380893e+00    4.243281e-01   5.369529e-03
  3.383103e+00    4.322243e-01   5.416496e-03
  3.385314e+00    4.091831e-01   5.267931e-03
  3.387524e+00    4.132661e-01   5.291415e-03
  3.389735e+00    4.156031e-01   5.303717e-03
  3.391945e+00    4.178671e-01   5.314447e-03
  3.394156e+00    4.184140e-01   5.313676e-03
  3.396366e+00    4.240849e-01   5.346119e-03
  3.398577e+00    4.112156e-01   5.261331e-03
  3.400787e+00    4.018973e-01   5.213152e-03
  3.402998e+00    4.163360e-01   5.344321e-03
  3.405208e+00    3.992404e-01   5.253955e-03
  3.407418e+00    3.926344e-01   5.225920e-03
  3.409629e+00    4.033355e-01   5.310663e-03
  3.411839e+00    3.927649e-01   5.252298e-03
  3.414050e+00    3.889827e-01   5.237808e-03
  3.416260e+00    3.930371e-01   5.274675e-03
  3.418471e+00    3.806915e-01   5.200414e-03
  3.420681e+00    3.955514e-01   5.309497e-03
  3.422892e+00    3.856279e-01   5.250406e-03
  3.425102e+00    3.901368e-01   5.288805e-03
  3.427313e+00    3.965096e-01   5.339120e-03
  3.429523e+00    3.810476e-01   5.241004e-03
  3.431733e+00    3.849266e-01   5.274233e-03
  3.433944e+00    3.818262e-01   5.259429e-03
  3.436154e+00    3.773046e-01   5.234399e-03
  3.438365e+00    3.881053e-01   5.314754e-03
  3.440575e+00    3.759479e-01   5.236743e-03
  3.442786e+00    3.802271e-01   5.272067e-03
  3.444996e+00    3.805707e-01   5.280016e-03
  3.447207e+00    3.664196e-01   5.186120e-03
  3.449417e+00    3.634241e-01   5.205244e-03
  3.451628e+00    3.572669e-01   5.189938e-03
  3.453838e+00    3.782558e-01   5.361673e-03
  3.456049e+00    3.719518e-01   5.340874e-03
  3.458259e+00    3.792769e-01   5.415528e-03
  3.460469e+00    3.675982e-01   5.351328e-03
  3.462680e+00    3.718803e-01   5.401592e-03
  3.464890e+00    3.494439e-01   5.253518e-03
  3.467101e+00    3.507148e-01   5.280103e-03
  3.469311e+00    3.774895e-01   5.494629e-03
  3.471522e+00    3.922968e-01   5.618186e-03
  3.473732e+00    3.823989e-01   5.562839e-03
  3.475943e+00    4.071913e-01   5.756544e-03
  3.478153e+00    3.940310e-01   5.678344e-03
  3.480364e+00    4.054981e-01   5.775730e-03
  3.482574e+00    4.239937e-01   5.921712e-03
  3.484784e+00    4.239761e-01   5.936715e-03
  3.486995e+00    4.164896e-01   5.899152e-03
  3.489205e+00    4.309640e-01   6.015592e-03
  3.491416e+00    4.433930e-01   6.116911e-03
  3.493626e+00    4.503637e-01   6.179662e-03
  3.495837e+00    4.677285e-01   6.312884e-03
  3.498047e+00    4.582610e-01   6.263368e-03
  3.500258e+00    4.718025e-01   6.370114e-03
  3.502468e+00    4.821669e-01   6.454610e-03
  3.504679e+00    4.583745e-01   6.307763e-03
  3.506889e+00    4.686320e-01   6.392454e-03
  3.509099e+00    4.861502e-01   6.525380e-03
  3.511310e+00    5.001742e-01   6.633685e-03
  3.513520e+00    5.116061e-01   6.723913e-03
  3.515731e+00    5.060035e-01   6.701671e-03
  3.517941e+00    5.053915e-01   6.712219e-03
  3.520152e+00    4.844689e-01   6.585944e-03
  3.522362e+00    5.114294e-01   6.781355e-03
  3.524573e+00    5.131949e-01   6.807451e-03
  3.526783e+00    5.181674e-01   6.853793e-03
  3.528994e+00    5.173941e-01   6.860926e-03
  3.531204e+00    5.333625e-01   6.978585e-03
  3.533414e+00    5.472267e-01   7.081041e-03
  3.535625e+00    5.380751e-01   7.034069e-03
  3.537835e+00    5.452554e-01   7.093097e-03
  3.540046e+00    5.381304e-01   7.055571e-03
  3.542256e+00    5.381142e-01   7.062995e-03
  3.544467e+00    5.545783e-01   7.177980e-03
  3.546677e+00    5.425237e-01   7.107197e-03
  3.548888e+00    5.316999e-01   7.043389e-03
  3.551098e+00    5.233693e-01   6.995196e-03
  3.553309e+00    5.428314e-01   7.132279e-03
  3.555519e+00    5.403313e-01   7.127167e-03
  3.557729e+00    5.477700e-01   7.187946e-03
  3.559940e+00    5.244547e-01   7.044702e-03
  3.562150e+00    5.379536e-01   7.146535e-03
  3.564361e+00    5.219809e-01   7.052777e-03
  3.566571e+00    5.368185e-01   7.166151e-03
  3.568782e+00    5.361599e-01   7.175899e-03
  3.570992e+00    5.337618e-01   7.173519e-03
  3.573203e+00    5.371340e-01   7.210341e-03
  3.575413e+00    5.341451e-01   7.203959e-03
  3.577624e+00    5.562943e-01   7.366210e-03
  3.579834e+00    5.550457e-01   7.372081e-03
  3.582045e+00    5.393692e-01   7.281312e-03
  3.584255e+00    5.223694e-01   7.179514e-03
  3.586465e+00    5.288680e-01   7.237860e-03
  3.588676e+00    5.301005e-01   7.260405e-03
  3.590886e+00    5.417595e-01   7.353607e-03
  3.593097e+00    5.361426e-01   7.329880e-03
  3.595307e+00    5.515233e-01   7.448420e-03
  3.597518e+00    5.484483e-01   7.441998e-03
  3.599728e+00    5.491712e-01   7.461168e-03
  3.601939e+00    5.461298e-01   7.454718e-03
  3.604149e+00    5.373202e-01   7.408741e-03
  3.606360e+00    5.479161e-01   7.495771e-03
  3.608570e+00    5.406715e-01   7.460258e-03
  3.610780e+00    5.431154e-01   7.488274e-03
  3.612991e+00    5.454527e-01   7.514450e-03
  3.615201e+00    5.417828e-01   7.499026e-03
  3.617412e+00    5.321053e-01   7.438973e-03
  3.619622e+00    5.347124e-01   7.463123e-03
  3.621833e+00    5.455257e-01   7.545016e-03
  3.624043e+00    5.463104e-01   7.560045e-03
  3.626254e+00    5.276447e-01   7.439393e-03
  3.628464e+00    5.603471e-01   7.677719e-03
  3.630675e+00    5.266801e-01   7.457560e-03
  3.632885e+00    5.308670e-01   7.501507e-03
  3.635095e+00    5.201484e-01   7.439607e-03
  3.637306e+00    5.301927e-01   7.525408e-03
  3.639516e+00    5.469458e-01   7.658110e-03
  3.641727e+00    5.350663e-01   7.589079e-03
  3.643937e+00    5.261232e-01   7.539850e-03
  3.646148e+00    5.486483e-01   7.714357e-03
  3.648358e+00    5.379468e-01   7.653700e-03
  3.650569e+00    5.408058e-01   7.688840e-03
  3.652779e+00    5.152002e-01   7.519181e-03
  3.654990e+00    5.081673e-01   7.482199e-03
  3.657200e+00    5.307701e-01   7.661603e-03
  3.659410e+00    5.553237e-01   7.852159e-03
  3.661621e+00    5.520860e-01   7.844628e-03
  3.663831e+00    5.101060e-01   7.555314e-03
  3.666042e+00    5.319769e-01   7.730688e-03
  3.668252e+00    5.604808e-01   7.950762e-03
  3.670463e+00    5.250489e-01   7.710542e-03
  3.672673e+00    5.424516e-01   7.852827e-03
  3.674884e+00    5.360598e-01   7.821935e-03
  3.677094e+00    5.410833e-01   7.874138e-03
  3.679305e+00    5.193686e-01   7.729945e-03
  3.681515e+00    5.154980e-01   7.716437e-03
  3.683726e+00    5.566628e-01   8.034831e-03
  3.685936e+00    5.643286e-01   8.106204e-03
  3.688146e+00    5.260583e-01   7.842291e-03
  3.690357e+00    5.292806e-01   7.882196e-03
  3.692567e+00    5.462261e-01   8.023783e-03
  3.694778e+00    5.473266e-01   8.048268e-03
  3.696988e+00    5.227489e-01   7.881423e-03
  3.699199e+00    5.166661e-01   7.851512e-03
  3.701409e+00    5.307360e-01   7.974151e-03
  3.703620e+00    5.339810e-01   8.014968e-03
  3.705830e+00    5.364212e-01   8.049844e-03
  3.708041e+00    5.212506e-01   7.951757e-03
  3.710251e+00    5.261756e-01   8.005964e-03
  3.712461e+00    5.256445e-01   8.018738e-03
  3.714672e+00    5.159524e-01   7.961092e-03
  3.716882e+00    5.295367e-01   8.082028e-03
  3.719093e+00    5.370385e-01   8.156545e-03
  3.721303e+00    5.150114e-01   8.004366e-03
  3.723514e+00    5.130478e-01   8.006264e-03
  3.725724e+00    5.083283e-01   7.986348e-03
  3.727935e+00    5.235414e-01   8.122500e-03
  3.730145e+00    5.374370e-01   8.247297e-03
  3.732356e+00    5.178648e-01   8.113281e-03
  3.734566e+00    5.225306e-01   8.167405e-03
  3.736776e+00    5.173740e-01   8.144795e-03
  3.738987e+00    5.332833e-01   8.287137e-03
  3.741197e+00    5.040550e-01   8.074719e-03
  3.743408e+00    5.185221e-01   8.207849e-03
  3.745618e+00    5.162638e-01   8.208414e-03
  3.747829e+00    5.120215e-01   8.192662e-03
  3.750039e+00    5.218491e-01   8.289501e-03
  3.752250e+00    5.137538e-01   8.243463e-03
  3.754460e+00    5.064331e-01   8.202984e-03
  3.756671e+00    5.248255e-01   8.369708e-03
  3.758881e+00    5.064966e-01   8.240852e-03
  3.761091e+00    5.218793e-01   8.384411e-03
  3.763302e+00    5.219883e-01   8.404684e-03
  3.765512e+00    5.076546e-01   8.307732e-03
  3.767723e+00    5.283574e-01   8.495157e-03
  3.769933e+00    5.225668e-01   8.468122e-03
  3.772144e+00    5.327760e-01   8.570575e-03
  3.774354e+00    5.122472e-01   8.423752e-03
  3.776565e+00    4.891464e-01   8.251222e-03
  3.778775e+00    5.068703e-01   8.419299e-03
  3.780986e+00    5.205627e-01   8.552941e-03
  3.783196e+00    5.081628e-01   8.470776e-03
  3.785407e+00    5.172113e-01   8.566594e-03
  3.787617e+00    5.107610e-01   8.533908e-03
  3.789827e+00    5.121494e-01   8.566222e-03
  3.792038e+00    5.260435e-01   8.703027e-03
  3.794248e+00    5.026769e-01   8.528695e-03
  3.796459e+00    4.936548e-01   8.472966e-03
  3.798669e+00    5.039128e-01   8.582056e-03
  3.800880e+00    5.078004e-01   8.636625e-03
  3.803090e+00    4.994137e-01   8.586884e-03
  3.805301e+00    4.853565e-01   8.486893e-03
  3.807511e+00    5.166814e-01   8.778841e-03
  3.809722e+00    5.101423e-01   8.745589e-03
  3.811932e+00    4.962893e-01   8.648210e-03
  3.814142e+00    5.234427e-01   8.905023e-03
  3.816353e+00    4.876010e-01   8.617341e-03
  3.818563e+00    4.973067e-01   8.725729e-03
  3.820774e+00    4.944311e-01   8.723570e-03
  3.822984e+00    4.926116e-01   8.730761e-03
  3.825195e+00    4.839802e-01   8.677271e-03
  3.827405e+00    4.811555e-01   8.675444e-03
  3.829616e+00    4.990827e-01   8.859654e-03
  3.831826e+00    4.813924e-01   8.725030e-03
  3.834037e+00    4.902096e-01   8.828888e-03
  3.836247e+00    4.867092e-01   8.821711e-03
  3.838457e+00    4.919051e-01   8.893626e-03
  3.840668e+00    5.122273e-01   9.101025e-03
  3.842878e+00    4.967756e-01   8.988322e-03
  3.845089e+00    4.883425e-01   8.937012e-03
  3.847299e+00    5.071471e-01   9.133612e-03
  3.849510e+00    4.841223e-01   8.949365e-03
  3.851720e+00    4.899397e-01   9.024364e-03
  3.853931e+00    4.879788e-01   9.025065e-03
  3.856141e+00    5.186552e-01   9.323927e-03
  3.858352e+00    5.036803e-01   9.207776e-03
  3.860562e+00    4.694834e-01   8.908548e-03
  3.862772e+00    4.782235e-01   9.010296e-03
  3.864983e+00    4.845526e-01   9.089265e-03
  3.867193e+00    4.706905e-01   8.977560e-03
  3.869404e+00    4.815204e-01   9.099898e-03
  3.871614e+00    4.925164e-01   9.223101e-03
  3.873825e+00    4.989608e-01   9.303719e-03
  3.876035e+00    4.963198e-01   9.299694e-03
  3.878246e+00    5.232164e-01   9.574950e-03
  3.880456e+00    4.690556e-01   9.094118e-03
  3.882667e+00    5.176506e-01   9.583661e-03
  3.884877e+00    5.028372e-01   9.475640e-03
  3.887087e+00    4.998485e-01   9.477579e-03
  3.889298e+00    4.946397e-01   9.458636e-03
  3.891508e+00    5.016733e-01   9.556402e-03
  3.893719e+00    4.860099e-01   9.436959e-03
  3.895929e+00    4.902007e-01   9.508959e-03
  3.898140e+00    5.005913e-01   9.641158e-03
  3.900350e+00    5.184333e-01   9.844613e-03
  3.902561e+00    4.933895e-01   9.636318e-03
  3.904771e+00    4.856903e-01   9.593502e-03
  3.906982e+00    4.934380e-01   9.703004e-03
  3.909192e+00    4.847540e-01   9.650589e-03
  3.911403e+00    4.784846e-01   9.621618e-03
  3.913613e+00    4.657945e-01   9.526594e-03
  3.915823e+00    4.989335e-01   9.894866e-03
  3.918034e+00    4.515214e-01   9.446928e-03
  3.920244e+00    5.039981e-01   1.001699e-02
  3.922455e+00    5.174850e-01   1.018738e-02
  3.924665e+00    5.039313e-01   1.009013e-02
  3.926876e+00    4.802733e-01   9.887153e-03
  3.929086e+00    4.961387e-01   1.008696e-02
  3.931297e+00    4.781437e-01   9.936680e-03
  3.933507e+00    4.917531e-01   1.010624e-02
  3.935718e+00    4.845717e-01   1.006077e-02
  3.937928e+00    4.817526e-01   1.006078e-02
  3.940138e+00    4.970553e-01   1.024891e-02
  3.942349e+00    4.948542e-01   1.025641e-02
  3.944559e+00    4.851955e-01   1.018566e-02
  3.946770e+00    4.845030e-01   1.020852e-02
  3.948980e+00    4.798916e-01   1.019034e-02
  3.951191e+00    4.896668e-01   1.032453e-02
  3.953401e+00    4.642067e-01   1.008322e-02
  3.955612e+00    4.672598e-01   1.014723e-02
  3.957822e+00    5.091515e-01   1.062483e-02
  3.960033e+00    5.108300e-01   1.067585e-02
  3.962243e+00    4.685874e-01   1.025714e-02
  3.964453e+00    4.768969e-01   1.038046e-02
  3.966664e+00    4.879095e-01   1.053305e-02
  3.968874e+00    5.148118e-01   1.084879e-02
  3.971085e+00    5.204803e-01   1.093114e-02
  3.973295e+00    5.058540e-01   1.079830e-02
  3.975506e+00    5.154571e-01   1.092262e-02
  3.977716e+00    5.112310e-01   1.090036e-02
  3.979927e+00    4.830200e-01   1.061740e-02
  3.982137e+00    5.138637e-01   1.097397e-02
  3.984348e+00    4.983391e-01   1.082989e-02
  3.986558e+00    5.280778e-01   1.117165e-02
  3.988768e+00    4.943337e-01   1.083201e-02
  3.990979e+00    4.913198e-01   1.082182e-02
  3.993189e+00    5.016519e-01   1.095847e-02
  3.995400e+00    5.260814e-01   1.124668e-02
  3.997610e+00    4.950992e-01   1.094062e-02
  3.999821e+00    4.871705e-01   1.089027e-02
  4.002031e+00    4.804127e-01   1.085268e-02
  4.004242e+00    4.913883e-01   1.101468e-02
  4.006452e+00    4.704630e-01   1.081647e-02
  4.008663e+00    4.812864e-01   1.097993e-02
  4.010873e+00    4.703264e-01   1.089357e-02
  4.013084e+00    5.097567e-01   1.138308e-02
  4.015294e+00    5.018983e-01   1.133679e-02
  4.017504e+00    4.990574e-01   1.134697e-02
  4.019715e+00    4.669805e-01   1.101809e-02
  4.021925e+00    4.681535e-01   1.107418e-02
  4.024136e+00    4.976942e-01   1.146249e-02
  4.026346e+00    4.952751e-01   1.147926e-02
  4.028557e+00    4.984050e-01   1.156043e-02
  4.030767e+00    4.722074e-01   1.129775e-02
  4.032978e+00    4.829588e-01   1.147174e-02
  4.035188e+00    4.916632e-01   1.162127e-02
  4.037399e+00    4.842043e-01   1.158033e-02
  4.039609e+00    4.823078e-01   1.160544e-02
  4.041819e+00    4.982560e-01   1.184515e-02
  4.044030e+00    4.872753e-01   1.176401e-02
  4.046240e+00    5.219700e-01   1.222755e-02
  4.048451e+00    5.078712e-01   1.211341e-02
  4.050661e+00    4.916135e-01   1.196994e-02
  4.052872e+00    4.647167e-01   1.168961e-02
  4.055082e+00    4.709338e-01   1.182041e-02
  4.057293e+00    4.588474e-01   1.172004e-02
  4.059503e+00    5.174536e-01   1.250262e-02
  4.061714e+00    5.011723e-01   1.236215e-02
  4.063924e+00    4.377684e-01   1.160775e-02
  4.066134e+00    4.617917e-01   1.197809e-02
  4.068345e+00    4.918177e-01   1.242101e-02
  4.070555e+00    4.446658e-01   1.186743e-02
  4.072766e+00    5.190957e-01   1.288546e-02
  4.074976e+00    4.486828e-01   1.203940e-02
  4.077187e+00    4.882284e-01   1.262120e-02
  4.079397e+00    4.697600e-01   1.244350e-02
  4.081608e+00    4.768856e-01   1.260254e-02
  4.083818e+00    4.714706e-01   1.259610e-02
  4.086029e+00    4.799862e-01   1.277626e-02
  4.088239e+00    4.927577e-01   1.301488e-02
  4.090449e+00    5.137233e-01   1.336107e-02
  4.092660e+00    4.947695e-01   1.318418e-02
  4.094870e+00    4.906822e-01   1.320278e-02
  4.097081e+00    4.726328e-01   1.302867e-02
  4.099291e+00    4.756719e-01   1.312443e-02
  4.101502e+00    4.834521e-01   1.328075e-02
  4.103712e+00    5.453071e-01   1.415735e-02
  4.105923e+00    5.097802e-01   1.374159e-02
  4.108133e+00    4.776114e-01   1.335201e-02
  4.110344e+00    4.394109e-01   1.285612e-02
  4.112554e+00    4.766274e-01   1.344205e-02
  4.114764e+00    4.715571e-01   1.342437e-02
  4.116975e+00    4.659213e-01   1.339643e-02
  4.119185e+00    4.623113e-01   1.339849e-02
  4.121396e+00    4.980529e-01   1.396433e-02
  4.123606e+00    4.967672e-01   1.400358e-02
  4.125817e+00    4.718747e-01   1.370520e-02
  4.128027e+00    4.986601e-01   1.414841e-02
  4.130238e+00    4.959295e-01   1.416995e-02
  4.132448e+00    4.651240e-01   1.378242e-02
  4.134659e+00    5.207942e-01   1.464657e-02
  4.136869e+00    4.952276e-01   1.434635e-02
  4.139080e+00    4.688970e-01   1.402265e-02
  4.141290e+00    4.723259e-01   1.413606e-02
  4.143500e+00    4.566170e-01   1.396319e-02
  4.145711e+00    4.907507e-01   1.454332e-02
  4.147921e+00    4.478973e-01   1.395763e-02
  4.150132e+00    4.780064e-01   1.448788e-02
  4.152342e+00    4.719540e-01   1.446555e-02
  4.154553e+00    4.514377e-01   1.421488e-02
  4.156763e+00    5.261483e-01   1.542204e-02
  4.158974e+00    5.226055e-01   1.544748e-02
  4.161184e+00    5.043781e-01   1.525087e-02
  4.163395e+00    5.300720e-01   1.571439e-02
  4.165605e+00    4.825495e-01   1.507139e-02
  4.167815e+00    4.698577e-01   1.494950e-02
  4.170026e+00    4.844850e-01   1.526028e-02
  4.172236e+00    4.872091e-01   1.538592e-02
  4.174447e+00    4.450895e-01   1.478575e-02
  4.176657e+00    5.226691e-01   1.611031e-02
  4.178868e+00    5.395584e-01   1.646116e-02
  4.181078e+00    4.708191e-01   1.546354e-02
  4.183289e+00    5.082750e-01   1.615866e-02
  4.185499e+00    4.820005e-01   1.582847e-02
  4.187710e+00    5.063052e-01   1.631765e-02
  4.189920e+00    4.736632e-01   1.587789e-02
  4.192130e+00    4.815294e-01   1.610700e-02
  4.194341e+00    4.718324e-01   1.604186e-02
  4.196551e+00    4.623147e-01   1.597960e-02
  4.198762e+00    5.092069e-01   1.687716e-02
  4.200972e+00    4.887072e-01   1.664081e-02
  4.203183e+00    4.514458e-01   1.609942e-02
  4.205393e+00    4.338488e-01   1.588744e-02
  4.207604e+00    4.867241e-01   1.694256e-02
  4.209814e+00    4.728610e-01   1.681416e-02
  4.212025e+00    4.140981e-01   1.584625e-02
  4.214235e+00    4.792636e-01   1.716820e-02
  4.216445e+00    4.992090e-01   1.764875e-02
  4.218656e+00    4.524224e-01   1.692710e-02
  4.220866e+00    5.021398e-01   1.796516e-02
  4.223077e+00    4.994010e-01   1.805381e-02
  4.225287e+00    4.871456e-01   1.797116e-02
  4.227498e+00    5.240552e-01   1.878568e-02
  4.229708e+00    4.813242e-01   1.815030e-02
  4.231919e+00    4.573867e-01   1.783902e-02
  4.234129e+00    4.782400e-01   1.839454e-02
  4.236340e+00    4.339520e-01   1.767176e-02
  4.238550e+00    4.649107e-01   1.845296e-02
  4.240761e+00    5.009384e-01   1.932370e-02
  4.242971e+00    4.931796e-01   1.934918e-02
  4.245181e+00    4.612479e-01   1.888821e-02
  4.247392e+00    4.843513e-01   1.953620e-02
  4.249602e+00    4.987227e-01   2.002086e-02
  4.251813e+00    5.144063e-01   2.053375e-02
  4.254023e+00    4.582090e-01   1.957479e-02
  4.256234e+00    5.197147e-01   2.107005e-02
  4.258444e+00    4.527915e-01   1.987265e-02
  4.260655e+00    4.684527e-01   2.043554e-02
  4.262865e+00    4.616842e-01   2.051725e-02
  4.265076e+00    4.267822e-01   1.995096e-02
  4.267286e+00    5.407566e-01   2.272380e-02
  4.269496e+00    4.871727e-01   2.183232e-02
  4.271707e+00    4.638099e-01   2.156484e-02
  4.273917e+00    4.196155e-01   2.077729e-02
  4.276128e+00    4.535210e-01   2.188694e-02
  4.278338e+00    5.730489e-01   2.493116e-02
  4.280549e+00    5.019337e-01   2.366816e-02
  4.282759e+00    4.682599e-01   2.318900e-02
  4.284970e+00    4.339866e-01   2.265446e-02
  4.287180e+00    5.079210e-01   2.480224e-02
  4.289391e+00    4.884854e-01   2.450518e-02
  4.291601e+00    4.810538e-01   2.451303e-02
  4.293811e+00    4.563062e-01   2.406039e-02
  4.296022e+00    4.888840e-01   2.510494e-02
  4.298232e+00    4.758549e-01   2.497457e-02
  4.300443e+00    4.576847e-01   2.469596e-02
  4.302653e+00    4.689853e-01   2.521533e-02
  4.304864e+00    5.142698e-01   2.663282e-02
  4.307074e+00    5.615287e-01   2.808059e-02
  4.309285e+00    5.229762e-01   2.734542e-02
  4.311495e+00    4.496541e-01   2.559316e-02
  4.313706e+00    5.874987e-01   2.952902e-02
  4.315916e+00    4.993304e-01   2.749177e-02
  4.318126e+00    4.346613e-01   2.590292e-02
  4.320337e+00    4.551444e-01   2.677437e-02
  4.322547e+00    5.469795e-01   2.966289e-02
  4.324758e+00    5.647192e-01   3.045318e-02
  4.326968e+00    5.827119e-01   3.128333e-02
  4.329179e+00    5.977103e-01   3.203248e-02
  4.331389e+00    4.982576e-01   2.958350e-02
  4.333600e+00    4.956968e-01   2.986014e-02
  4.335810e+00    4.738456e-01   2.954109e-02
  4.338021e+00    4.103245e-01   2.784220e-02
  4.340231e+00    4.465605e-01   2.940954e-02
  4.342442e+00    5.236835e-01   3.227553e-02
  4.344652e+00    4.178356e-01   2.922268e-02
  4.346862e+00    4.115366e-01   2.940536e-02
  4.349073e+00    5.392423e-01   3.415095e-02
  4.351283e+00    4.159207e-01   3.044104e-02
  4.353494e+00    3.812733e-01   2.959559e-02
  4.355704e+00    5.009782e-01   3.447079e-02
  4.357915e+00    4.331163e-01   3.258549e-02
  4.360125e+00    4.958578e-01   3.546000e-02
  4.362336e+00    4.275150e-01   3.352629e-02
  4.364546e+00    4.072207e-01   3.331699e-02
  4.366757e+00    3.705919e-01   3.241529e-02
  4.368967e+00    4.088775e-01   3.472836e-02
  4.371177e+00    3.508837e-01   3.285358e-02
  4.373388e+00    4.007472e-01   3.589638e-02
  4.375598e+00    4.329039e-01   3.816000e-02
  4.377809e+00    4.354360e-01   3.923978e-02
  4.380019e+00    3.967065e-01   3.839735e-02
  4.382230e+00    3.708480e-01   3.815871e-02
  4.384440e+00    4.496408e-01   4.322869e-02
  4.386651e+00    6.570135e-01   5.386403e-02
  4.388861e+00    4.833182e-01   4.775051e-02
  4.391072e+00    5.867354e-01   5.445879e-02
  4.393282e+00    4.667210e-01   5.045024e-02
  4.395492e+00    3.385418e-01   4.475301e-02
  4.397703e+00    2.625218e-01   4.121111e-02
  4.399913e+00    2.658990e-01   4.357379e-02
  4.402124e+00    2.740467e-01   4.674084e-02
  4.404334e+00    5.457610e-01   7.011801e-02
  4.406545e+00    3.206429e-01   5.774933e-02
  4.408755e+00    3.940665e-01   6.942496e-02
  4.410966e+00    6.303210e-01   9.718274e-02
  4.413176e+00    4.725973e-01   9.525599e-02
  4.415387e+00   -8.449960e-01            nan
  4.417597e+00   -1.782365e+00            nan
  4.419807e+00    8.396868e-01   3.292346e-01
