# == pyFAI calibration ==
# Distance Sample to Detector: 0.216 m
# PONI: 1.166e-01, 1.308e-01 m
# Rotations: 0.000000 0.000000 0.000000 rad
# 
# == Fit2d calibration ==
# Distance Sample-beamCenter: 216.000 mm
# Center: x=1744.293, y=1555.000 pix
# Tilt: 0.000 deg  TiltPlanRot: 0.000 deg
# 
# Detector Eiger 9M	 PixelSize= 7.500e-05, 7.500e-05 m
#    Detector has a mask: True 
#    Detector has a dark current: False 
#    detector has a flat field: False 
# 
# Wavelength: 9.8e-11 m
# Mask applied: from detector
# Dark current applied: False
# Flat field applied: False
# Polarization factor: None
# Normalization factor: 1.0
# 
# Headers of the input frame:
# {
# "_array_data.header_convention": "SLS_1.0",
# "_array_data.header_contents": "# Detector: Dectris Eiger 9M, S/N E-18-0102\r\n# Pixel_size 75e-6 m x 75e-6 m\r\n# Silicon sensor, thickness 0.000450 m\r\n# Exposure_time 0.024997 s\r\n# Exposure_period 0.025000 s\r\n# Count_cutoff 62318 counts\r\n# Wavelength 0.980106 A\r\n# Detector_distance 0.215992 m\r\n# Beam_xy (1555, 1744) pixels\r\n# Start_angle 0.000000 deg.\r\n# Angle_increment 0.000000 deg.",
# "Content-Type": "application/octet-stream;",
# "conversions": "x-CBF_BYTE_OFFSET",
# "Content-Transfer-Encoding": "BINARY",
# "X-Binary-Size": "10166592",
# "X-Binary-ID": "1",
# "X-Binary-Element-Type": "signed 32-bit integer",
# "X-Binary-Element-Byte-Order": "LITTLE_ENDIAN",
# "Content-MD5": "CGMNK/ietrCPDxB3sWu2YA==",
# "X-Binary-Number-of-Elements": "10166590",
# "X-Binary-Size-Fastest-Dimension": "3110",
# "X-Binary-Size-Second-Dimension": "3269",
# "X-Binary-Size-Padding": "4095"
# }
# --> H:/Proxima2a_2019-04-05/RAW_DATA/C5_gel17_position5/C5_mesh_1_data.cbf/C5_mesh_1_data.cbf000098.dat
#        q_A^-1              I           sigma 
  1.105228e-03    5.549250e-01   4.030919e-01
  3.315685e-03    8.898219e-01   3.103108e-01
  5.526141e-03    1.438209e+00   3.050585e-01
  7.736597e-03    1.341499e+00   2.488945e-01
  9.947054e-03    1.321711e+00   2.177934e-01
  1.215751e-02    1.360059e+00   1.997779e-01
  1.436797e-02    1.616636e+00   2.003466e-01
  1.657842e-02    1.664613e+00   1.892348e-01
  1.878888e-02    1.585191e+00   1.734620e-01
  2.099934e-02    1.343995e+00   1.511127e-01
  2.320979e-02    1.431030e+00   1.483055e-01
  2.542025e-02    1.539455e+00   1.469917e-01
  2.763070e-02    1.576645e+00   1.426781e-01
  2.984116e-02    1.377290e+00   1.283185e-01
  3.205162e-02    1.237352e+00   1.173635e-01
  3.426207e-02    1.209585e+00   1.122259e-01
  3.647253e-02    1.366295e+00   1.156011e-01
  3.868299e-02    1.544288e+00   1.193465e-01
  4.089344e-02    1.539768e+00   1.159066e-01
  4.310390e-02    1.371471e+00   1.065411e-01
  4.531436e-02    1.475710e+00   1.077870e-01
  4.752481e-02    1.674932e+00   1.121289e-01
  4.973527e-02    1.491489e+00   1.034337e-01
  5.194572e-02    1.396424e+00   9.792908e-02
  5.415618e-02    1.307270e+00   9.279433e-02
  5.636664e-02    1.326497e+00   9.162592e-02
  5.857709e-02    1.301583e+00   8.903288e-02
  6.078755e-02    1.478311e+00   9.314086e-02
  6.299801e-02    1.438910e+00   9.026375e-02
  6.520846e-02    1.541820e+00   9.183908e-02
  6.741892e-02    1.556291e+00   9.073926e-02
  6.962938e-02    1.459099e+00   8.645873e-02
  7.183983e-02    1.502628e+00   8.637694e-02
  7.405029e-02    1.466066e+00   8.403458e-02
  7.626074e-02    1.520662e+00   8.433478e-02
  7.847120e-02    1.458138e+00   8.140917e-02
  8.068166e-02    1.371017e+00   7.785021e-02
  8.289211e-02    1.471649e+00   7.957355e-02
  8.510257e-02    1.483370e+00   7.884499e-02
  8.731303e-02    1.486778e+00   7.792698e-02
  8.952348e-02    1.494850e+00   7.716963e-02
  9.173394e-02    1.459143e+00   7.531523e-02
  9.394439e-02    1.423155e+00   7.349800e-02
  9.615485e-02    1.466549e+00   7.374591e-02
  9.836531e-02    1.631567e+00   7.690327e-02
  1.005758e-01    1.621405e+00   7.581678e-02
  1.027862e-01    1.531483e+00   7.288598e-02
  1.049967e-01    1.465276e+00   7.053743e-02
  1.072071e-01    1.508687e+00   7.083213e-02
  1.094176e-01    1.597540e+00   7.214700e-02
  1.116280e-01    1.495360e+00   6.910551e-02
  1.138385e-01    1.593291e+00   7.063513e-02
  1.160490e-01    1.700012e+00   7.226334e-02
  1.182594e-01    1.619809e+00   6.987427e-02
  1.204699e-01    1.569386e+00   6.814366e-02
  1.226803e-01    1.547588e+00   6.705361e-02
  1.248908e-01    1.534951e+00   6.618487e-02
  1.271012e-01    1.608328e+00   6.715534e-02
  1.293117e-01    1.578788e+00   6.596380e-02
  1.315222e-01    1.587111e+00   6.557781e-02
  1.337326e-01    1.609046e+00   6.548018e-02
  1.359431e-01    1.590226e+00   6.513423e-02
  1.381535e-01    1.673173e+00   6.770816e-02
  1.403640e-01    1.604103e+00   6.658215e-02
  1.425744e-01    1.576679e+00   6.611601e-02
  1.447849e-01    1.554930e+00   6.567352e-02
  1.469953e-01    1.585574e+00   6.627599e-02
  1.492058e-01    1.616586e+00   6.684320e-02
  1.514163e-01    1.623357e+00   6.687184e-02
  1.536267e-01    1.502700e+00   6.421310e-02
  1.558372e-01    1.570584e+00   6.550250e-02
  1.580476e-01    1.686403e+00   6.771004e-02
  1.602581e-01    1.628027e+00   6.635883e-02
  1.624685e-01    1.701904e+00   6.766200e-02
  1.646790e-01    1.552912e+00   6.444689e-02
  1.668895e-01    1.627182e+00   6.577946e-02
  1.690999e-01    1.781604e+00   6.862331e-02
  1.713104e-01    1.801590e+00   6.879304e-02
  1.735208e-01    1.797621e+00   6.850352e-02
  1.757313e-01    1.769097e+00   6.774487e-02
  1.779417e-01    1.743448e+00   6.703265e-02
  1.801522e-01    1.834257e+00   6.853721e-02
  1.823626e-01    1.934766e+00   7.015562e-02
  1.845731e-01    1.888817e+00   6.909303e-02
  1.867836e-01    1.827611e+00   6.773496e-02
  1.889940e-01    1.932687e+00   6.942730e-02
  1.912045e-01    2.002977e+00   7.044251e-02
  1.934149e-01    1.931214e+00   6.893760e-02
  1.956254e-01    2.014553e+00   7.017709e-02
  1.978358e-01    2.126435e+00   7.185243e-02
  2.000463e-01    1.994676e+00   6.936013e-02
  2.022568e-01    2.019937e+00   6.956887e-02
  2.044672e-01    1.985822e+00   6.874258e-02
  2.066777e-01    1.890329e+00   6.684676e-02
  2.088881e-01    1.934242e+00   6.739753e-02
  2.110986e-01    2.042795e+00   6.902540e-02
  2.133090e-01    2.075338e+00   6.934690e-02
  2.155195e-01    1.970055e+00   6.734089e-02
  2.177300e-01    2.001960e+00   6.735066e-02
  2.199404e-01    1.994970e+00   6.546141e-02
  2.221509e-01    2.044662e+00   6.518345e-02
  2.243613e-01    2.075895e+00   6.484678e-02
  2.265718e-01    2.044555e+00   6.364611e-02
  2.287822e-01    2.039974e+00   6.294550e-02
  2.309927e-01    2.038192e+00   6.234482e-02
  2.332031e-01    2.136375e+00   6.328249e-02
  2.354136e-01    2.151604e+00   6.299295e-02
  2.376241e-01    2.125250e+00   6.212001e-02
  2.398345e-01    2.202669e+00   6.277332e-02
  2.420450e-01    2.086291e+00   6.065590e-02
  2.442554e-01    2.098377e+00   6.041224e-02
  2.464659e-01    2.113683e+00   6.022511e-02
  2.486763e-01    2.121423e+00   5.993867e-02
  2.508868e-01    2.216496e+00   6.088055e-02
  2.530973e-01    2.213856e+00   6.046708e-02
  2.553077e-01    2.158163e+00   5.933952e-02
  2.575182e-01    2.108244e+00   5.830222e-02
  2.597286e-01    2.139221e+00   5.838760e-02
  2.619391e-01    2.056637e+00   5.691990e-02
  2.641495e-01    2.039473e+00   5.636817e-02
  2.663600e-01    2.093925e+00   5.680159e-02
  2.685704e-01    2.149970e+00   5.724476e-02
  2.707809e-01    2.052358e+00   5.563329e-02
  2.729914e-01    2.042924e+00   5.521599e-02
  2.752018e-01    2.119753e+00   5.595194e-02
  2.774123e-01    2.003973e+00   5.412458e-02
  2.796227e-01    1.940107e+00   5.299170e-02
  2.818332e-01    2.028498e+00   5.391506e-02
  2.840436e-01    2.072524e+00   5.423284e-02
  2.862541e-01    2.094362e+00   5.425578e-02
  2.884646e-01    1.982194e+00   5.253237e-02
  2.906750e-01    2.058239e+00   5.327675e-02
  2.928855e-01    2.076371e+00   5.326296e-02
  2.950959e-01    1.998625e+00   5.201625e-02
  2.973064e-01    1.968810e+00   5.139478e-02
  2.995168e-01    1.964971e+00   5.111207e-02
  3.017273e-01    2.026415e+00   5.167624e-02
  3.039377e-01    1.969422e+00   5.072129e-02
  3.061482e-01    1.914064e+00   4.978703e-02
  3.083587e-01    1.885964e+00   4.920631e-02
  3.105691e-01    1.973621e+00   5.012183e-02
  3.127796e-01    1.928607e+00   4.933866e-02
  3.149900e-01    1.932211e+00   4.917895e-02
  3.172005e-01    1.985388e+00   4.964728e-02
  3.194109e-01    1.963584e+00   4.917006e-02
  3.216214e-01    2.006857e+00   4.950608e-02
  3.238319e-01    1.923427e+00   4.827411e-02
  3.260423e-01    1.932371e+00   4.819347e-02
  3.282528e-01    1.972992e+00   4.850353e-02
  3.304632e-01    1.922111e+00   4.768857e-02
  3.326737e-01    1.924310e+00   4.752965e-02
  3.348841e-01    1.903971e+00   4.709448e-02
  3.370946e-01    1.876841e+00   4.658181e-02
  3.393050e-01    1.875173e+00   4.638474e-02
  3.415155e-01    1.848667e+00   4.588257e-02
  3.437260e-01    1.869150e+00   4.596505e-02
  3.459364e-01    1.838045e+00   4.541238e-02
  3.481469e-01    1.884502e+00   4.581486e-02
  3.503573e-01    1.853918e+00   4.527603e-02
  3.525678e-01    1.822621e+00   4.473225e-02
  3.547782e-01    1.804806e+00   4.435221e-02
  3.569887e-01    1.888728e+00   4.521090e-02
  3.591992e-01    1.849292e+00   4.457814e-02
  3.614096e-01    1.839871e+00   4.431027e-02
  3.636201e-01    1.821041e+00   4.392804e-02
  3.658305e-01    1.816529e+00   4.372392e-02
  3.680410e-01    1.855832e+00   4.404239e-02
  3.702514e-01    1.850504e+00   4.383124e-02
  3.724619e-01    1.799434e+00   4.307499e-02
  3.746724e-01    1.792870e+00   4.285289e-02
  3.768828e-01    1.780740e+00   4.256397e-02
  3.790933e-01    1.817579e+00   4.286188e-02
  3.813037e-01    1.766142e+00   4.211279e-02
  3.835142e-01    1.769259e+00   4.201150e-02
  3.857246e-01    1.812911e+00   4.238897e-02
  3.879351e-01    1.780889e+00   4.187698e-02
  3.901455e-01    1.777468e+00   4.170351e-02
  3.923560e-01    1.750914e+00   4.125931e-02
  3.945665e-01    1.813397e+00   4.185586e-02
  3.967769e-01    1.819046e+00   4.178973e-02
  3.989874e-01    1.811898e+00   4.157732e-02
  4.011978e-01    1.769313e+00   4.095946e-02
  4.034083e-01    1.804505e+00   4.123782e-02
  4.056187e-01    1.762912e+00   4.063423e-02
  4.078292e-01    1.765077e+00   4.053613e-02
  4.100397e-01    1.785514e+00   4.064563e-02
  4.122501e-01    1.815307e+00   4.086074e-02
  4.144606e-01    1.774905e+00   4.028365e-02
  4.166710e-01    1.814871e+00   4.061355e-02
  4.188815e-01    1.828367e+00   4.064386e-02
  4.210919e-01    1.821702e+00   4.045083e-02
  4.233024e-01    1.802222e+00   4.011562e-02
  4.255128e-01    1.804975e+00   4.003020e-02
  4.277233e-01    1.847961e+00   4.038768e-02
  4.299338e-01    1.875819e+00   4.057388e-02
  4.321442e-01    1.823396e+00   3.988844e-02
  4.343547e-01    1.815912e+00   3.969397e-02
  4.365651e-01    1.780639e+00   3.919485e-02
  4.387756e-01    1.767623e+00   3.894201e-02
  4.409860e-01    1.745116e+00   3.858608e-02
  4.431965e-01    1.760286e+00   3.864628e-02
  4.454070e-01    1.751016e+00   3.843714e-02
  4.476174e-01    1.715405e+00   3.793983e-02
  4.498279e-01    1.764177e+00   3.837070e-02
  4.520383e-01    1.706332e+00   3.763285e-02
  4.542488e-01    1.723936e+00   3.772447e-02
  4.564592e-01    1.752672e+00   3.793554e-02
  4.586697e-01    1.683971e+00   3.708592e-02
  4.608801e-01    1.756623e+00   3.777599e-02
  4.630906e-01    1.774442e+00   3.786661e-02
  4.653011e-01    1.729264e+00   3.728314e-02
  4.675115e-01    1.713833e+00   3.701866e-02
  4.697220e-01    1.735899e+00   3.715867e-02
  4.719324e-01    1.781258e+00   3.754365e-02
  4.741429e-01    1.814723e+00   3.779704e-02
  4.763533e-01    1.783610e+00   3.737558e-02
  4.785638e-01    1.747276e+00   3.689736e-02
  4.807743e-01    1.727124e+00   3.659069e-02
  4.829847e-01    1.707554e+00   3.629086e-02
  4.851952e-01    1.700012e+00   3.611901e-02
  4.874056e-01    1.692597e+00   3.594926e-02
  4.896161e-01    1.692818e+00   3.586247e-02
  4.918265e-01    1.701769e+00   3.586785e-02
  4.940370e-01    1.676610e+00   3.551385e-02
  4.962475e-01    1.717696e+00   3.585756e-02
  4.984579e-01    1.697511e+00   3.555842e-02
  5.006684e-01    1.704992e+00   3.554979e-02
  5.028788e-01    1.759007e+00   3.602102e-02
  5.050893e-01    1.670146e+00   3.501404e-02
  5.072997e-01    1.644272e+00   3.465783e-02
  5.095102e-01    1.651895e+00   3.465488e-02
  5.117206e-01    1.680750e+00   3.487312e-02
  5.139311e-01    1.606271e+00   3.401104e-02
  5.161416e-01    1.579324e+00   3.364483e-02
  5.183520e-01    1.640969e+00   3.421365e-02
  5.205625e-01    1.691552e+00   3.465561e-02
  5.227729e-01    1.715737e+00   3.482107e-02
  5.249834e-01    1.680254e+00   3.437913e-02
  5.271938e-01    1.706415e+00   3.456488e-02
  5.294043e-01    1.723271e+00   3.465503e-02
  5.316148e-01    1.760842e+00   3.495051e-02
  5.338252e-01    1.764204e+00   3.490394e-02
  5.360357e-01    1.780053e+00   3.498053e-02
  5.382461e-01    1.773647e+00   3.483862e-02
  5.404566e-01    1.772029e+00   3.474347e-02
  5.426670e-01    1.783340e+00   3.477564e-02
  5.448775e-01    1.814218e+00   3.499705e-02
  5.470879e-01    1.780095e+00   3.458909e-02
  5.492984e-01    1.754238e+00   3.426057e-02
  5.515089e-01    1.774786e+00   3.438421e-02
  5.537193e-01    1.821890e+00   3.476078e-02
  5.559298e-01    1.782866e+00   3.431106e-02
  5.581402e-01    1.771666e+00   3.412837e-02
  5.603507e-01    1.801229e+00   3.433704e-02
  5.625611e-01    1.822129e+00   3.446074e-02
  5.647716e-01    1.782002e+00   3.400519e-02
  5.669821e-01    1.787785e+00   3.398687e-02
  5.691925e-01    1.804411e+00   3.407126e-02
  5.714030e-01    1.780083e+00   3.376867e-02
  5.736134e-01    1.707343e+00   3.300116e-02
  5.758239e-01    1.753264e+00   3.337065e-02
  5.780343e-01    1.740292e+00   3.317663e-02
  5.802448e-01    1.762020e+00   3.331323e-02
  5.824552e-01    1.653532e+00   3.220368e-02
  5.846657e-01    1.648897e+00   3.209145e-02
  5.868762e-01    1.701245e+00   3.252903e-02
  5.890866e-01    1.697320e+00   3.242407e-02
  5.912971e-01    1.705062e+00   3.243065e-02
  5.935075e-01    1.670771e+00   3.203655e-02
  5.957180e-01    1.690175e+00   3.215591e-02
  5.979284e-01    1.706719e+00   3.224697e-02
  6.001389e-01    1.610872e+00   3.126460e-02
  6.023494e-01    1.653852e+00   3.161461e-02
  6.045598e-01    1.678780e+00   3.178714e-02
  6.067703e-01    1.709140e+00   3.200878e-02
  6.089807e-01    1.701044e+00   3.186869e-02
  6.111912e-01    1.683780e+00   3.164323e-02
  6.134016e-01    1.712825e+00   3.185133e-02
  6.156121e-01    1.734530e+00   3.198881e-02
  6.178226e-01    1.723841e+00   3.182694e-02
  6.200330e-01    1.707601e+00   3.161420e-02
  6.222435e-01    1.708232e+00   3.155739e-02
  6.244539e-01    1.736296e+00   3.175325e-02
  6.266644e-01    1.777464e+00   3.206483e-02
  6.288748e-01    1.774762e+00   3.197809e-02
  6.310853e-01    1.746564e+00   3.166145e-02
  6.332957e-01    1.712022e+00   3.128627e-02
  6.355062e-01    1.736410e+00   3.144711e-02
  6.377167e-01    1.718827e+00   3.122745e-02
  6.399271e-01    1.677994e+00   3.079518e-02
  6.421376e-01    1.707666e+00   3.100696e-02
  6.443480e-01    1.705630e+00   3.092954e-02
  6.465585e-01    1.667872e+00   3.052731e-02
  6.487689e-01    1.687167e+00   3.064542e-02
  6.509794e-01    1.679402e+00   3.051713e-02
  6.531899e-01    1.647573e+00   3.016974e-02
  6.554003e-01    1.628219e+00   2.993561e-02
  6.576108e-01    1.643453e+00   3.001934e-02
  6.598212e-01    1.622651e+00   2.977333e-02
  6.620317e-01    1.587604e+00   2.939544e-02
  6.642421e-01    1.638741e+00   2.980985e-02
  6.664526e-01    1.671963e+00   3.005503e-02
  6.686630e-01    1.644706e+00   2.975394e-02
  6.708735e-01    1.596289e+00   2.925895e-02
  6.730840e-01    1.577101e+00   2.902952e-02
  6.752944e-01    1.623769e+00   2.940235e-02
  6.775049e-01    1.614419e+00   2.926434e-02
  6.797153e-01    1.637778e+00   2.942191e-02
  6.819258e-01    1.602361e+00   2.904958e-02
  6.841362e-01    1.635476e+00   2.929542e-02
  6.863467e-01    1.650651e+00   2.937832e-02
  6.885572e-01    1.618737e+00   2.904079e-02
  6.907676e-01    1.627566e+00   2.906770e-02
  6.929781e-01    1.597302e+00   2.874501e-02
  6.951885e-01    1.595587e+00   2.867869e-02
  6.973990e-01    1.632294e+00   2.895539e-02
  6.996094e-01    1.627750e+00   2.886422e-02
  7.018199e-01    1.609120e+00   2.864817e-02
  7.040303e-01    1.594697e+00   2.846941e-02
  7.062408e-01    1.581105e+00   2.829815e-02
  7.084513e-01    1.592368e+00   2.834938e-02
  7.106617e-01    1.582767e+00   2.821466e-02
  7.128722e-01    1.596907e+00   2.829138e-02
  7.150826e-01    1.600350e+00   2.827305e-02
  7.172931e-01    1.592791e+00   2.815758e-02
  7.195035e-01    1.576433e+00   2.796444e-02
  7.217140e-01    1.593065e+00   2.816134e-02
  7.239245e-01    1.553127e+00   2.803126e-02
  7.261349e-01    1.568444e+00   2.827755e-02
  7.283454e-01    1.562209e+00   2.829340e-02
  7.305558e-01    1.557107e+00   2.830086e-02
  7.327663e-01    1.603708e+00   2.876410e-02
  7.349767e-01    1.588982e+00   2.864821e-02
  7.371872e-01    1.533188e+00   2.812970e-02
  7.393976e-01    1.601197e+00   2.873242e-02
  7.416081e-01    1.625933e+00   2.893711e-02
  7.438186e-01    1.599129e+00   2.855215e-02
  7.460290e-01    1.590602e+00   2.818019e-02
  7.482395e-01    1.571198e+00   2.783681e-02
  7.504499e-01    1.559011e+00   2.759304e-02
  7.526604e-01    1.579639e+00   2.765824e-02
  7.548708e-01    1.587898e+00   2.764067e-02
  7.570813e-01    1.567387e+00   2.741071e-02
  7.592918e-01    1.599975e+00   2.765874e-02
  7.615022e-01    1.608184e+00   2.769544e-02
  7.637127e-01    1.564467e+00   2.728375e-02
  7.659231e-01    1.576551e+00   2.735688e-02
  7.681336e-01    1.586921e+00   2.741498e-02
  7.703440e-01    1.613238e+00   2.760977e-02
  7.725545e-01    1.571013e+00   2.721519e-02
  7.747650e-01    1.621826e+00   2.761305e-02
  7.769754e-01    1.604910e+00   2.741548e-02
  7.791859e-01    1.632083e+00   2.759215e-02
  7.813963e-01    1.586329e+00   2.714995e-02
  7.836068e-01    1.537736e+00   2.667964e-02
  7.858172e-01    1.565947e+00   2.687291e-02
  7.880277e-01    1.601153e+00   2.712161e-02
  7.902381e-01    1.652177e+00   2.750032e-02
  7.924486e-01    1.600168e+00   2.701389e-02
  7.946591e-01    1.622426e+00   2.715247e-02
  7.968695e-01    1.640416e+00   2.725377e-02
  7.990800e-01    1.655029e+00   2.732595e-02
  8.012904e-01    1.688529e+00   2.755339e-02
  8.035009e-01    1.677603e+00   2.741524e-02
  8.057113e-01    1.638817e+00   2.704960e-02
  8.079218e-01    1.666273e+00   2.722817e-02
  8.101323e-01    1.687151e+00   2.735171e-02
  8.123427e-01    1.709029e+00   2.748155e-02
  8.145532e-01    1.676357e+00   2.717104e-02
  8.167636e-01    1.654537e+00   2.694822e-02
  8.189741e-01    1.644328e+00   2.682019e-02
  8.211845e-01    1.609021e+00   2.648619e-02
  8.233950e-01    1.629714e+00   2.661262e-02
  8.256054e-01    1.673372e+00   2.692203e-02
  8.278159e-01    1.672788e+00   2.687290e-02
  8.300264e-01    1.648075e+00   2.663046e-02
  8.322368e-01    1.666549e+00   2.673579e-02
  8.344473e-01    1.640221e+00   2.648039e-02
  8.366577e-01    1.614823e+00   2.623230e-02
  8.388682e-01    1.615845e+00   2.619864e-02
  8.410786e-01    1.653100e+00   2.645670e-02
  8.432891e-01    1.667935e+00   2.653295e-02
  8.454996e-01    1.657912e+00   2.641123e-02
  8.477100e-01    1.680226e+00   2.654619e-02
  8.499205e-01    1.687992e+00   2.656567e-02
  8.521309e-01    1.686970e+00   2.651623e-02
  8.543414e-01    1.666742e+00   2.631564e-02
  8.565518e-01    1.659176e+00   2.621499e-02
  8.587623e-01    1.641469e+00   2.603411e-02
  8.609727e-01    1.674395e+00   2.625315e-02
  8.631832e-01    1.672124e+00   2.619489e-02
  8.653937e-01    1.660598e+00   2.606435e-02
  8.676041e-01    1.607363e+00   2.560447e-02
  8.698146e-01    1.583874e+00   2.537784e-02
  8.720250e-01    1.597754e+00   2.544994e-02
  8.742355e-01    1.606475e+00   2.548046e-02
  8.764459e-01    1.585969e+00   2.527870e-02
  8.786564e-01    1.577193e+00   2.517108e-02
  8.808669e-01    1.586328e+00   2.520560e-02
  8.830773e-01    1.604335e+00   2.531010e-02
  8.852878e-01    1.564488e+00   2.495633e-02
  8.874982e-01    1.585821e+00   2.508943e-02
  8.897087e-01    1.584961e+00   2.504515e-02
  8.919191e-01    1.581134e+00   2.497736e-02
  8.941296e-01    1.594823e+00   2.504802e-02
  8.963401e-01    1.600439e+00   2.505567e-02
  8.985505e-01    1.592496e+00   2.495652e-02
  9.007610e-01    1.601227e+00   2.498811e-02
  9.029714e-01    1.566035e+00   2.467653e-02
  9.051819e-01    1.558451e+00   2.457995e-02
  9.073923e-01    1.592789e+00   2.481279e-02
  9.096028e-01    1.611382e+00   2.492213e-02
  9.118132e-01    1.610600e+00   2.487977e-02
  9.140237e-01    1.620910e+00   2.492240e-02
  9.162342e-01    1.595786e+00   2.469399e-02
  9.184446e-01    1.588866e+00   2.460476e-02
  9.206551e-01    1.622101e+00   2.482491e-02
  9.228655e-01    1.611589e+00   2.470899e-02
  9.250760e-01    1.596176e+00   2.455526e-02
  9.272864e-01    1.576238e+00   2.436743e-02
  9.294969e-01    1.619818e+00   2.466597e-02
  9.317074e-01    1.606067e+00   2.452637e-02
  9.339178e-01    1.632740e+00   2.469541e-02
  9.361283e-01    1.643027e+00   2.473656e-02
  9.383387e-01    1.653758e+00   2.478347e-02
  9.405492e-01    1.622458e+00   2.451352e-02
  9.427596e-01    1.649129e+00   2.467860e-02
  9.449701e-01    1.653589e+00   2.467840e-02
  9.471805e-01    1.673392e+00   2.479054e-02
  9.493910e-01    1.698526e+00   2.494174e-02
  9.516015e-01    1.719204e+00   2.505808e-02
  9.538119e-01    1.753300e+00   2.527066e-02
  9.560224e-01    1.742256e+00   2.515551e-02
  9.582328e-01    1.702493e+00   2.483342e-02
  9.604433e-01    1.733265e+00   2.502136e-02
  9.626537e-01    1.754160e+00   2.513787e-02
  9.648642e-01    1.782952e+00   2.530863e-02
  9.670747e-01    1.790759e+00   2.532901e-02
  9.692851e-01    1.809903e+00   2.543017e-02
  9.714956e-01    1.853131e+00   2.569580e-02
  9.737060e-01    1.894103e+00   2.594417e-02
  9.759165e-01    1.882358e+00   2.582717e-02
  9.781269e-01    1.845711e+00   2.554105e-02
  9.803374e-01    1.835903e+00   2.543787e-02
  9.825478e-01    1.832972e+00   2.538403e-02
  9.847583e-01    1.836494e+00   2.537389e-02
  9.869688e-01    1.825461e+00   2.526371e-02
  9.891792e-01    1.791215e+00   2.499236e-02
  9.913897e-01    1.764178e+00   2.476953e-02
  9.936001e-01    1.815957e+00   2.509749e-02
  9.958106e-01    1.776018e+00   2.478628e-02
  9.980210e-01    1.683956e+00   2.410396e-02
  1.000231e+00    1.680708e+00   2.421263e-02
  1.002442e+00    1.653861e+00   2.414608e-02
  1.004652e+00    1.637145e+00   2.409077e-02
  1.006863e+00    1.623092e+00   2.403692e-02
  1.009073e+00    1.606278e+00   2.394870e-02
  1.011284e+00    1.590543e+00   2.386295e-02
  1.013494e+00    1.597052e+00   2.393545e-02
  1.015705e+00    1.616945e+00   2.410682e-02
  1.017915e+00    1.615130e+00   2.410991e-02
  1.020126e+00    1.571965e+00   2.380162e-02
  1.022336e+00    1.525232e+00   2.345672e-02
  1.024547e+00    1.512049e+00   2.336616e-02
  1.026757e+00    1.547120e+00   2.364398e-02
  1.028967e+00    1.538708e+00   2.358728e-02
  1.031178e+00    1.550133e+00   2.368088e-02
  1.033388e+00    1.533945e+00   2.356197e-02
  1.035599e+00    1.538685e+00   2.360178e-02
  1.037809e+00    1.549521e+00   2.368802e-02
  1.040020e+00    1.528467e+00   2.352783e-02
  1.042230e+00    1.499887e+00   2.330874e-02
  1.044441e+00    1.506809e+00   2.336224e-02
  1.046651e+00    1.511057e+00   2.339532e-02
  1.048862e+00    1.517913e+00   2.344753e-02
  1.051072e+00    1.526004e+00   2.350757e-02
  1.053282e+00    1.572097e+00   2.385897e-02
  1.055493e+00    1.586944e+00   2.396696e-02
  1.057703e+00    1.545316e+00   2.364897e-02
  1.059914e+00    1.616102e+00   2.418008e-02
  1.062124e+00    1.750651e+00   2.516211e-02
  1.064335e+00    1.750625e+00   2.515828e-02
  1.066545e+00    1.585892e+00   2.393914e-02
  1.068756e+00    1.489115e+00   2.319343e-02
  1.070966e+00    1.508313e+00   2.333586e-02
  1.073177e+00    1.460192e+00   2.295456e-02
  1.075387e+00    1.460525e+00   2.295196e-02
  1.077597e+00    1.445763e+00   2.282850e-02
  1.079808e+00    1.436675e+00   2.262513e-02
  1.082018e+00    1.418793e+00   2.229769e-02
  1.084229e+00    1.422781e+00   2.222038e-02
  1.086439e+00    1.423238e+00   2.213748e-02
  1.088650e+00    1.434305e+00   2.214824e-02
  1.090860e+00    1.412077e+00   2.190932e-02
  1.093071e+00    1.405943e+00   2.180046e-02
  1.095281e+00    1.421579e+00   2.186456e-02
  1.097492e+00    1.450257e+00   2.202902e-02
  1.099702e+00    1.452343e+00   2.199324e-02
  1.101912e+00    1.458434e+00   2.199016e-02
  1.104123e+00    1.427190e+00   2.170525e-02
  1.106333e+00    1.404095e+00   2.148494e-02
  1.108544e+00    1.421724e+00   2.157527e-02
  1.110754e+00    1.410837e+00   2.144972e-02
  1.112965e+00    1.409014e+00   2.139551e-02
  1.115175e+00    1.402231e+00   2.130303e-02
  1.117386e+00    1.399487e+00   2.124312e-02
  1.119596e+00    1.391215e+00   2.114265e-02
  1.121807e+00    1.393887e+00   2.112437e-02
  1.124017e+00    1.387703e+00   2.104104e-02
  1.126228e+00    1.408166e+00   2.115981e-02
  1.128438e+00    1.417847e+00   2.119545e-02
  1.130648e+00    1.374064e+00   2.083162e-02
  1.132859e+00    1.349744e+00   2.061266e-02
  1.135069e+00    1.348381e+00   2.056807e-02
  1.137280e+00    1.371013e+00   2.070720e-02
  1.139490e+00    1.359867e+00   2.059011e-02
  1.141701e+00    1.391366e+00   2.079402e-02
  1.143911e+00    1.389523e+00   2.074830e-02
  1.146122e+00    1.374243e+00   2.060200e-02
  1.148332e+00    1.354215e+00   2.041971e-02
  1.150543e+00    1.364012e+00   2.046277e-02
  1.152753e+00    1.369175e+00   2.047069e-02
  1.154963e+00    1.386172e+00   2.056617e-02
  1.157174e+00    1.402882e+00   2.065929e-02
  1.159384e+00    1.406024e+00   2.065218e-02
  1.161595e+00    1.413587e+00   2.067734e-02
  1.163805e+00    1.430855e+00   2.077333e-02
  1.166016e+00    1.442111e+00   2.082466e-02
  1.168226e+00    1.451624e+00   2.086341e-02
  1.170437e+00    1.417502e+00   2.058758e-02
  1.172647e+00    1.399400e+00   2.042644e-02
  1.174858e+00    1.386667e+00   2.030498e-02
  1.177068e+00    1.417885e+00   2.050344e-02
  1.179278e+00    1.456894e+00   2.075401e-02
  1.181489e+00    1.441568e+00   2.061677e-02
  1.183699e+00    1.423341e+00   2.045780e-02
  1.185910e+00    1.392606e+00   2.020758e-02
  1.188120e+00    1.368460e+00   2.000483e-02
  1.190331e+00    1.367471e+00   1.997069e-02
  1.192541e+00    1.386465e+00   2.008124e-02
  1.194752e+00    1.353166e+00   1.981156e-02
  1.196962e+00    1.361846e+00   1.984914e-02
  1.199173e+00    1.380352e+00   1.995678e-02
  1.201383e+00    1.353109e+00   1.973168e-02
  1.203593e+00    1.314767e+00   1.942562e-02
  1.205804e+00    1.328254e+00   1.949925e-02
  1.208014e+00    1.356008e+00   1.967504e-02
  1.210225e+00    1.365009e+00   1.971475e-02
  1.212435e+00    1.366832e+00   1.970297e-02
  1.214646e+00    1.376180e+00   1.974387e-02
  1.216856e+00    1.377508e+00   1.972766e-02
  1.219067e+00    1.373961e+00   1.967758e-02
  1.221277e+00    1.355158e+00   1.951739e-02
  1.223488e+00    1.349000e+00   1.944725e-02
  1.225698e+00    1.377279e+00   1.962286e-02
  1.227909e+00    1.356063e+00   1.944091e-02
  1.230119e+00    1.312813e+00   1.909696e-02
  1.232329e+00    1.339630e+00   1.926040e-02
  1.234540e+00    1.346272e+00   1.927786e-02
  1.236750e+00    1.338355e+00   1.919096e-02
  1.238961e+00    1.351856e+00   1.926052e-02
  1.241171e+00    1.357569e+00   1.927692e-02
  1.243382e+00    1.377483e+00   1.939403e-02
  1.245592e+00    1.436561e+00   1.978069e-02
  1.247803e+00    1.441328e+00   1.978907e-02
  1.250013e+00    1.402596e+00   1.949737e-02
  1.252224e+00    1.409740e+00   1.952319e-02
  1.254434e+00    1.404944e+00   1.946574e-02
  1.256644e+00    1.393201e+00   1.936064e-02
  1.258855e+00    1.381706e+00   1.925708e-02
  1.261065e+00    1.357690e+00   1.906553e-02
  1.263276e+00    1.358871e+00   1.905081e-02
  1.265486e+00    1.357189e+00   1.901607e-02
  1.267697e+00    1.357556e+00   1.899556e-02
  1.269907e+00    1.335470e+00   1.881785e-02
  1.272118e+00    1.355000e+00   1.893231e-02
  1.274328e+00    1.367409e+00   1.899594e-02
  1.276539e+00    1.357607e+00   1.890485e-02
  1.278749e+00    1.396951e+00   1.915418e-02
  1.280959e+00    1.411575e+00   1.923114e-02
  1.283170e+00    1.402375e+00   1.914550e-02
  1.285380e+00    1.386083e+00   1.901123e-02
  1.287591e+00    1.372389e+00   1.889485e-02
  1.289801e+00    1.370486e+00   1.886038e-02
  1.292012e+00    1.364316e+00   1.880068e-02
  1.294222e+00    1.329527e+00   1.854334e-02
  1.296433e+00    1.316380e+00   1.843600e-02
  1.298643e+00    1.351082e+00   1.866093e-02
  1.300854e+00    1.374287e+00   1.880396e-02
  1.303064e+00    1.385129e+00   1.885851e-02
  1.305274e+00    1.353912e+00   1.862333e-02
  1.307485e+00    1.353843e+00   1.860126e-02
  1.309695e+00    1.359340e+00   1.861667e-02
  1.311906e+00    1.388241e+00   1.879153e-02
  1.314116e+00    1.414637e+00   1.894804e-02
  1.316327e+00    1.425662e+00   1.899947e-02
  1.318537e+00    1.389666e+00   1.873588e-02
  1.320748e+00    1.372602e+00   1.859875e-02
  1.322958e+00    1.336764e+00   1.833393e-02
  1.325169e+00    1.345435e+00   1.837230e-02
  1.327379e+00    1.359483e+00   1.844607e-02
  1.329589e+00    1.368587e+00   1.848653e-02
  1.331800e+00    1.380282e+00   1.854442e-02
  1.334010e+00    1.355699e+00   1.835785e-02
  1.336221e+00    1.351995e+00   1.831098e-02
  1.338431e+00    1.353311e+00   1.829900e-02
  1.340642e+00    1.346462e+00   1.831672e-02
  1.342852e+00    1.362977e+00   1.852985e-02
  1.345063e+00    1.373719e+00   1.865266e-02
  1.347273e+00    1.331881e+00   1.840143e-02
  1.349484e+00    1.327578e+00   1.839912e-02
  1.351694e+00    1.309490e+00   1.829572e-02
  1.353905e+00    1.339134e+00   1.851955e-02
  1.356115e+00    1.357797e+00   1.866325e-02
  1.358325e+00    1.329568e+00   1.848146e-02
  1.360536e+00    1.335746e+00   1.853588e-02
  1.362746e+00    1.322096e+00   1.845043e-02
  1.364957e+00    1.332256e+00   1.852877e-02
  1.367167e+00    1.340283e+00   1.859166e-02
  1.369378e+00    1.334563e+00   1.855794e-02
  1.371588e+00    1.313179e+00   1.841374e-02
  1.373799e+00    1.324266e+00   1.849494e-02
  1.376009e+00    1.327027e+00   1.851759e-02
  1.378220e+00    1.340986e+00   1.861726e-02
  1.380430e+00    1.343023e+00   1.863413e-02
  1.382640e+00    1.312065e+00   1.841900e-02
  1.384851e+00    1.315689e+00   1.844531e-02
  1.387061e+00    1.297013e+00   1.831421e-02
  1.389272e+00    1.289705e+00   1.826276e-02
  1.391482e+00    1.281507e+00   1.820393e-02
  1.393693e+00    1.314840e+00   1.843828e-02
  1.395903e+00    1.293033e+00   1.828326e-02
  1.398114e+00    1.277894e+00   1.817453e-02
  1.400324e+00    1.264290e+00   1.807541e-02
  1.402535e+00    1.275116e+00   1.815031e-02
  1.404745e+00    1.266621e+00   1.808741e-02
  1.406955e+00    1.272061e+00   1.812351e-02
  1.409166e+00    1.268165e+00   1.809244e-02
  1.411376e+00    1.257422e+00   1.801253e-02
  1.413587e+00    1.266361e+00   1.807264e-02
  1.415797e+00    1.268083e+00   1.808138e-02
  1.418008e+00    1.281350e+00   1.813367e-02
  1.420218e+00    1.304142e+00   1.814251e-02
  1.422429e+00    1.281745e+00   1.790034e-02
  1.424639e+00    1.289022e+00   1.788591e-02
  1.426850e+00    1.289876e+00   1.783672e-02
  1.429060e+00    1.295304e+00   1.782472e-02
  1.431270e+00    1.301117e+00   1.781983e-02
  1.433481e+00    1.304154e+00   1.779911e-02
  1.435691e+00    1.267856e+00   1.751128e-02
  1.437902e+00    1.255528e+00   1.738968e-02
  1.440112e+00    1.251977e+00   1.732995e-02
  1.442323e+00    1.281669e+00   1.750106e-02
  1.444533e+00    1.293725e+00   1.755034e-02
  1.446744e+00    1.264362e+00   1.731897e-02
  1.448954e+00    1.266321e+00   1.730223e-02
  1.451165e+00    1.282834e+00   1.738476e-02
  1.453375e+00    1.277831e+00   1.732272e-02
  1.455586e+00    1.274510e+00   1.727195e-02
  1.457796e+00    1.277347e+00   1.726359e-02
  1.460006e+00    1.274058e+00   1.721405e-02
  1.462217e+00    1.268279e+00   1.714877e-02
  1.464427e+00    1.272998e+00   1.715498e-02
  1.466638e+00    1.277216e+00   1.715799e-02
  1.468848e+00    1.265360e+00   1.705287e-02
  1.471059e+00    1.292022e+00   1.720627e-02
  1.473269e+00    1.291591e+00   1.717882e-02
  1.475480e+00    1.261025e+00   1.695065e-02
  1.477690e+00    1.273560e+00   1.701076e-02
  1.479901e+00    1.273582e+00   1.698706e-02
  1.482111e+00    1.263966e+00   1.689950e-02
  1.484321e+00    1.268666e+00   1.690775e-02
  1.486532e+00    1.303491e+00   1.711559e-02
  1.488742e+00    1.280768e+00   1.694296e-02
  1.490953e+00    1.251598e+00   1.672643e-02
  1.493163e+00    1.250097e+00   1.669421e-02
  1.495374e+00    1.266390e+00   1.678115e-02
  1.497584e+00    1.232801e+00   1.653570e-02
  1.499795e+00    1.239879e+00   1.656163e-02
  1.502005e+00    1.253472e+00   1.663053e-02
  1.504216e+00    1.267626e+00   1.670306e-02
  1.506426e+00    1.262098e+00   1.664576e-02
  1.508636e+00    1.251544e+00   1.655561e-02
  1.510847e+00    1.261364e+00   1.659857e-02
  1.513057e+00    1.266948e+00   1.661007e-02
  1.515268e+00    1.272342e+00   1.661950e-02
  1.517478e+00    1.277061e+00   1.662491e-02
  1.519689e+00    1.259053e+00   1.648227e-02
  1.521899e+00    1.255722e+00   1.643732e-02
  1.524110e+00    1.263151e+00   1.646546e-02
  1.526320e+00    1.265679e+00   1.646223e-02
  1.528531e+00    1.269610e+00   1.646787e-02
  1.530741e+00    1.229722e+00   1.618813e-02
  1.532951e+00    1.276051e+00   1.647043e-02
  1.535162e+00    1.271860e+00   1.653077e-02
  1.537372e+00    1.270110e+00   1.658683e-02
  1.539583e+00    1.294527e+00   1.678038e-02
  1.541793e+00    1.283626e+00   1.671663e-02
  1.544004e+00    1.281053e+00   1.670012e-02
  1.546214e+00    1.302560e+00   1.683817e-02
  1.548425e+00    1.307228e+00   1.686862e-02
  1.550635e+00    1.276069e+00   1.667614e-02
  1.552846e+00    1.276214e+00   1.668688e-02
  1.555056e+00    1.247392e+00   1.645585e-02
  1.557266e+00    1.245241e+00   1.633115e-02
  1.559477e+00    1.251485e+00   1.631277e-02
  1.561687e+00    1.252996e+00   1.629183e-02
  1.563898e+00    1.253814e+00   1.627994e-02
  1.566108e+00    1.244842e+00   1.620562e-02
  1.568319e+00    1.271183e+00   1.636039e-02
  1.570529e+00    1.239037e+00   1.612714e-02
  1.572740e+00    1.232901e+00   1.605966e-02
  1.574950e+00    1.228930e+00   1.600763e-02
  1.577161e+00    1.230071e+00   1.598973e-02
  1.579371e+00    1.230187e+00   1.596695e-02
  1.581582e+00    1.250092e+00   1.607579e-02
  1.583792e+00    1.258632e+00   1.611250e-02
  1.586002e+00    1.248578e+00   1.603036e-02
  1.588213e+00    1.248373e+00   1.601177e-02
  1.590423e+00    1.264482e+00   1.609451e-02
  1.592634e+00    1.264656e+00   1.607382e-02
  1.594844e+00    1.264430e+00   1.605081e-02
  1.597055e+00    1.243992e+00   1.590005e-02
  1.599265e+00    1.230172e+00   1.579086e-02
  1.601476e+00    1.248675e+00   1.588879e-02
  1.603686e+00    1.263360e+00   1.596200e-02
  1.605897e+00    1.258273e+00   1.590953e-02
  1.608107e+00    1.258561e+00   1.589161e-02
  1.610317e+00    1.308277e+00   1.618258e-02
  1.612528e+00    1.364055e+00   1.650379e-02
  1.614738e+00    1.470822e+00   1.711680e-02
  1.616949e+00    1.493643e+00   1.722819e-02
  1.619159e+00    1.390003e+00   1.659981e-02
  1.621370e+00    1.275386e+00   1.588180e-02
  1.623580e+00    1.217746e+00   1.550039e-02
  1.625791e+00    1.176589e+00   1.521818e-02
  1.628001e+00    1.187984e+00   1.527352e-02
  1.630212e+00    1.176568e+00   1.518235e-02
  1.632422e+00    1.167371e+00   1.510513e-02
  1.634632e+00    1.146105e+00   1.494987e-02
  1.636843e+00    1.157292e+00   1.500526e-02
  1.639053e+00    1.163408e+00   1.502765e-02
  1.641264e+00    1.150722e+00   1.492853e-02
  1.643474e+00    1.190271e+00   1.516531e-02
  1.645685e+00    1.154999e+00   1.492229e-02
  1.647895e+00    1.147645e+00   1.485816e-02
  1.650106e+00    1.133848e+00   1.475170e-02
  1.652316e+00    1.135662e+00   1.474710e-02
  1.654527e+00    1.124177e+00   1.465581e-02
  1.656737e+00    1.115499e+00   1.458273e-02
  1.658947e+00    1.132875e+00   1.467956e-02
  1.661158e+00    1.123826e+00   1.460460e-02
  1.663368e+00    1.109588e+00   1.449584e-02
  1.665579e+00    1.109636e+00   1.448009e-02
  1.667789e+00    1.079883e+00   1.426867e-02
  1.670000e+00    1.117481e+00   1.449941e-02
  1.672210e+00    1.134734e+00   1.459485e-02
  1.674421e+00    1.196344e+00   1.496987e-02
  1.676631e+00    1.213594e+00   1.506076e-02
  1.678842e+00    1.164360e+00   1.473589e-02
  1.681052e+00    1.107833e+00   1.435823e-02
  1.683263e+00    1.100343e+00   1.429441e-02
  1.685473e+00    1.095736e+00   1.424922e-02
  1.687683e+00    1.086597e+00   1.417424e-02
  1.689894e+00    1.084002e+00   1.414149e-02
  1.692104e+00    1.105688e+00   1.426713e-02
  1.694315e+00    1.103505e+00   1.423832e-02
  1.696525e+00    1.073793e+00   1.403018e-02
  1.698736e+00    1.044364e+00   1.382187e-02
  1.700946e+00    1.061686e+00   1.392090e-02
  1.703157e+00    1.043061e+00   1.378371e-02
  1.705367e+00    1.030465e+00   1.368589e-02
  1.707578e+00    1.028295e+00   1.365703e-02
  1.709788e+00    1.018173e+00   1.357573e-02
  1.711998e+00    1.016814e+00   1.355184e-02
  1.714209e+00    1.028145e+00   1.361277e-02
  1.716419e+00    1.020518e+00   1.354802e-02
  1.718630e+00    1.001996e+00   1.341045e-02
  1.720840e+00    1.007130e+00   1.343072e-02
  1.723051e+00    1.010289e+00   1.343801e-02
  1.725261e+00    1.001264e+00   1.336331e-02
  1.727472e+00    9.979070e-01   1.332686e-02
  1.729682e+00    9.950942e-01   1.329474e-02
  1.731893e+00    1.006958e+00   1.335988e-02
  1.734103e+00    1.000047e+00   1.330023e-02
  1.736313e+00    1.005708e+00   1.332381e-02
  1.738524e+00    1.013739e+00   1.336299e-02
  1.740734e+00    1.008746e+00   1.331630e-02
  1.742945e+00    9.724380e-01   1.306115e-02
  1.745155e+00    9.677629e-01   1.301641e-02
  1.747366e+00    1.000631e+00   1.322174e-02
  1.749576e+00    9.689764e-01   1.299737e-02
  1.751787e+00    9.646189e-01   1.295489e-02
  1.753997e+00    9.683313e-01   1.296649e-02
  1.756208e+00    9.712291e-01   1.297270e-02
  1.758418e+00    9.675655e-01   1.293513e-02
  1.760628e+00    9.306052e-01   1.267259e-02
  1.762839e+00    9.503729e-01   1.279333e-02
  1.765049e+00    9.517642e-01   1.278968e-02
  1.767260e+00    9.315369e-01   1.264040e-02
  1.769470e+00    9.464430e-01   1.272821e-02
  1.771681e+00    9.355050e-01   1.264144e-02
  1.773891e+00    9.145336e-01   1.248612e-02
  1.776102e+00    9.200786e-01   1.251124e-02
  1.778312e+00    9.230905e-01   1.251911e-02
  1.780523e+00    9.273016e-01   1.253501e-02
  1.782733e+00    9.214969e-01   1.248314e-02
  1.784944e+00    9.252954e-01   1.249603e-02
  1.787154e+00    9.145485e-01   1.241084e-02
  1.789364e+00    9.156009e-01   1.240559e-02
  1.791575e+00    9.205310e-01   1.242645e-02
  1.793785e+00    9.236883e-01   1.243534e-02
  1.795996e+00    9.164379e-01   1.237395e-02
  1.798206e+00    9.224969e-01   1.240223e-02
  1.800417e+00    9.251848e-01   1.240757e-02
  1.802627e+00    9.207743e-01   1.236597e-02
  1.804838e+00    9.131669e-01   1.230266e-02
  1.807048e+00    9.628593e-01   1.261974e-02
  1.809259e+00    1.004277e+00   1.287400e-02
  1.811469e+00    9.492483e-01   1.250104e-02
  1.813679e+00    9.206190e-01   1.229591e-02
  1.815890e+00    9.313800e-01   1.235254e-02
  1.818100e+00    9.117705e-01   1.220660e-02
  1.820311e+00    9.256434e-01   1.228407e-02
  1.822521e+00    9.063964e-01   1.214072e-02
  1.824732e+00    8.934743e-01   1.203901e-02
  1.826942e+00    9.237385e-01   1.222861e-02
  1.829153e+00    9.811310e-01   1.259045e-02
  1.831363e+00    9.861257e-01   1.260979e-02
  1.833574e+00    9.651258e-01   1.246258e-02
  1.835784e+00    9.191218e-01   1.215026e-02
  1.837994e+00    8.862062e-01   1.191892e-02
  1.840205e+00    8.724058e-01   1.181460e-02
  1.842415e+00    8.692518e-01   1.178146e-02
  1.844626e+00    8.926111e-01   1.192702e-02
  1.846836e+00    8.818053e-01   1.184310e-02
  1.849047e+00    8.699940e-01   1.175187e-02
  1.851257e+00    8.476329e-01   1.159038e-02
  1.853468e+00    8.601634e-01   1.166693e-02
  1.855678e+00    8.707354e-01   1.172949e-02
  1.857889e+00    8.585868e-01   1.163887e-02
  1.860099e+00    8.601950e-01   1.164113e-02
  1.862309e+00    8.469017e-01   1.154236e-02
  1.864520e+00    8.504130e-01   1.155772e-02
  1.866730e+00    8.469558e-01   1.152486e-02
  1.868941e+00    8.438597e-01   1.149288e-02
  1.871151e+00    8.609852e-01   1.159747e-02
  1.873362e+00    8.282323e-01   1.136355e-02
  1.875572e+00    8.142820e-01   1.125672e-02
  1.877783e+00    8.605611e-01   1.156066e-02
  1.879993e+00    8.742432e-01   1.164088e-02
  1.882204e+00    8.416767e-01   1.141114e-02
  1.884414e+00    8.595499e-01   1.152046e-02
  1.886624e+00    8.568948e-01   1.149152e-02
  1.888835e+00    8.262694e-01   1.127342e-02
  1.891045e+00    8.583375e-01   1.147908e-02
  1.893256e+00    8.466749e-01   1.138972e-02
  1.895466e+00    8.335801e-01   1.129013e-02
  1.897677e+00    8.586898e-01   1.144784e-02
  1.899887e+00    8.474740e-01   1.136177e-02
  1.902098e+00    8.233529e-01   1.118814e-02
  1.904308e+00    8.283880e-01   1.121171e-02
  1.906519e+00    8.444329e-01   1.130883e-02
  1.908729e+00    8.317949e-01   1.121328e-02
  1.910940e+00    8.311559e-01   1.119780e-02
  1.913150e+00    8.432966e-01   1.126861e-02
  1.915360e+00    7.964503e-01   1.094071e-02
  1.917571e+00    8.062909e-01   1.099730e-02
  1.919781e+00    8.480438e-01   1.126759e-02
  1.921992e+00    8.448280e-01   1.123546e-02
  1.924202e+00    8.120149e-01   1.100438e-02
  1.926413e+00    8.039064e-01   1.093905e-02
  1.928623e+00    8.032165e-01   1.092390e-02
  1.930834e+00    8.075957e-01   1.094322e-02
  1.933044e+00    8.285510e-01   1.107353e-02
  1.935255e+00    8.311516e-01   1.108043e-02
  1.937465e+00    8.018816e-01   1.087323e-02
  1.939675e+00    7.909036e-01   1.078779e-02
  1.941886e+00    7.979905e-01   1.082578e-02
  1.944096e+00    7.916496e-01   1.077257e-02
  1.946307e+00    8.025646e-01   1.083624e-02
  1.948517e+00    8.099708e-01   1.087562e-02
  1.950728e+00    7.849537e-01   1.069620e-02
  1.952938e+00    7.907948e-01   1.072586e-02
  1.955149e+00    7.939422e-01   1.073696e-02
  1.957359e+00    8.002520e-01   1.076949e-02
  1.959570e+00    7.958995e-01   1.072928e-02
  1.961780e+00    7.905814e-01   1.068348e-02
  1.963990e+00    7.833308e-01   1.062430e-02
  1.966201e+00    8.023660e-01   1.074248e-02
  1.968411e+00    7.916762e-01   1.066053e-02
  1.970622e+00    7.869422e-01   1.061850e-02
  1.972832e+00    8.002095e-01   1.069759e-02
  1.975043e+00    7.885490e-01   1.060931e-02
  1.977253e+00    7.834563e-01   1.056505e-02
  1.979464e+00    7.892263e-01   1.059382e-02
  1.981674e+00    7.939768e-01   1.061531e-02
  1.983885e+00    7.898862e-01   1.057787e-02
  1.986095e+00    7.924141e-01   1.058499e-02
  1.988305e+00    7.874382e-01   1.054178e-02
  1.990516e+00    7.763381e-01   1.045729e-02
  1.992726e+00    8.089458e-01   1.066479e-02
  1.994937e+00    7.873649e-01   1.051139e-02
  1.997147e+00    7.799353e-01   1.045191e-02
  1.999358e+00    7.806666e-01   1.044693e-02
  2.001568e+00    7.916955e-01   1.050951e-02
  2.003779e+00    8.025256e-01   1.056902e-02
  2.005989e+00    7.884635e-01   1.046386e-02
  2.008200e+00    7.812953e-01   1.040457e-02
  2.010410e+00    7.735111e-01   1.034084e-02
  2.012621e+00    7.776242e-01   1.035651e-02
  2.014831e+00    7.886665e-01   1.041816e-02
  2.017041e+00    7.807796e-01   1.035545e-02
  2.019252e+00    7.619114e-01   1.021965e-02
  2.021462e+00    7.680507e-01   1.025120e-02
  2.023673e+00    7.662618e-01   1.022985e-02
  2.025883e+00    7.811267e-01   1.031897e-02
  2.028094e+00    7.740427e-01   1.026236e-02
  2.030304e+00    7.864790e-01   1.033477e-02
  2.032515e+00    7.858785e-01   1.032139e-02
  2.034725e+00    7.802835e-01   1.027501e-02
  2.036936e+00    7.825648e-01   1.028053e-02
  2.039146e+00    7.837544e-01   1.027860e-02
  2.041356e+00    7.642398e-01   1.014015e-02
  2.043567e+00    7.554746e-01   1.007252e-02
  2.045777e+00    7.594495e-01   1.008971e-02
  2.047988e+00    7.627524e-01   1.010220e-02
  2.050198e+00    7.325489e-01   9.891883e-03
  2.052409e+00    7.312832e-01   9.875753e-03
  2.054619e+00    7.592486e-01   1.005540e-02
  2.056830e+00    7.610464e-01   1.006009e-02
  2.059040e+00    7.557529e-01   1.001750e-02
  2.061251e+00    7.608879e-01   1.004418e-02
  2.063461e+00    7.558101e-01   1.000298e-02
  2.065671e+00    7.604500e-01   1.002483e-02
  2.067882e+00    7.554734e-01   9.982971e-03
  2.070092e+00    7.345402e-01   9.834557e-03
  2.072303e+00    7.445703e-01   9.892327e-03
  2.074513e+00    7.609227e-01   9.990972e-03
  2.076724e+00    7.567995e-01   9.954312e-03
  2.078934e+00    7.568083e-01   9.945301e-03
  2.081145e+00    7.235168e-01   9.715126e-03
  2.083355e+00    7.538858e-01   9.907650e-03
  2.085566e+00    7.975132e-01   1.018106e-02
  2.087776e+00    8.244951e-01   1.034181e-02
  2.089986e+00    8.681661e-01   1.060265e-02
  2.092197e+00    8.744345e-01   1.063112e-02
  2.094407e+00    8.196418e-01   1.028296e-02
  2.096618e+00    7.333719e-01   9.717855e-03
  2.098828e+00    7.364360e-01   9.728777e-03
  2.101039e+00    7.431297e-01   9.763869e-03
  2.103249e+00    7.147411e-01   9.566985e-03
  2.105460e+00    7.136546e-01   9.550789e-03
  2.107670e+00    7.176760e-01   9.568993e-03
  2.109881e+00    7.177413e-01   9.560314e-03
  2.112091e+00    7.313238e-01   9.641350e-03
  2.114301e+00    7.100144e-01   9.491140e-03
  2.116512e+00    7.160866e-01   9.522894e-03
  2.118722e+00    7.096556e-01   9.471278e-03
  2.120933e+00    7.286153e-01   9.588054e-03
  2.123143e+00    7.160908e-01   9.496412e-03
  2.125354e+00    7.016751e-01   9.391907e-03
  2.127564e+00    7.023934e-01   9.388059e-03
  2.129775e+00    6.985651e-01   9.353816e-03
  2.131985e+00    7.169729e-01   9.467173e-03
  2.134196e+00    7.217713e-01   9.490176e-03
  2.136406e+00    7.157282e-01   9.441597e-03
  2.138617e+00    7.271246e-01   9.507903e-03
  2.140827e+00    7.214978e-01   9.487257e-03
  2.143037e+00    7.337335e-01   9.613676e-03
  2.145248e+00    7.275941e-01   9.595721e-03
  2.147458e+00    7.303320e-01   9.629181e-03
  2.149669e+00    7.096398e-01   9.503691e-03
  2.151879e+00    6.949106e-01   9.413733e-03
  2.154090e+00    6.913491e-01   9.396821e-03
  2.156300e+00    7.075239e-01   9.512750e-03
  2.158511e+00    7.159877e-01   9.574848e-03
  2.160721e+00    7.109957e-01   9.546271e-03
  2.162932e+00    6.998215e-01   9.474711e-03
  2.165142e+00    7.079033e-01   9.532291e-03
  2.167352e+00    7.055789e-01   9.519570e-03
  2.169563e+00    7.103953e-01   9.553983e-03
  2.171773e+00    7.057834e-01   9.525393e-03
  2.173984e+00    6.948347e-01   9.452629e-03
  2.176194e+00    6.886718e-01   9.411816e-03
  2.178405e+00    7.042966e-01   9.518674e-03
  2.180615e+00    7.033136e-01   9.512728e-03
  2.182826e+00    7.045627e-01   9.521848e-03
  2.185036e+00    6.985728e-01   9.481357e-03
  2.187247e+00    6.862288e-01   9.397152e-03
  2.189457e+00    6.887265e-01   9.413835e-03
  2.191667e+00    6.889713e-01   9.415316e-03
  2.193878e+00    6.939441e-01   9.448696e-03
  2.196088e+00    6.803787e-01   9.355180e-03
  2.198299e+00    6.983888e-01   9.477085e-03
  2.200509e+00    6.859011e-01   9.390950e-03
  2.202720e+00    6.865810e-01   9.394405e-03
  2.204930e+00    6.809124e-01   9.354337e-03
  2.207141e+00    6.784714e-01   9.336433e-03
  2.209351e+00    6.795794e-01   9.342156e-03
  2.211562e+00    6.984956e-01   9.469642e-03
  2.213772e+00    6.936076e-01   9.380314e-03
  2.215982e+00    6.715219e-01   9.185661e-03
  2.218193e+00    6.821550e-01   9.228360e-03
  2.220403e+00    6.849979e-01   9.222763e-03
  2.222614e+00    6.864890e-01   9.211683e-03
  2.224824e+00    6.646031e-01   9.044391e-03
  2.227035e+00    6.569592e-01   8.974988e-03
  2.229245e+00    6.721335e-01   9.061059e-03
  2.231456e+00    6.729735e-01   9.051111e-03
  2.233666e+00    6.618629e-01   8.961071e-03
  2.235877e+00    6.734344e-01   9.024785e-03
  2.238087e+00    6.652184e-01   8.956122e-03
  2.240298e+00    6.604803e-01   8.910495e-03
  2.242508e+00    6.633021e-01   8.914440e-03
  2.244718e+00    6.795325e-01   9.006913e-03
  2.246929e+00    6.823063e-01   9.010696e-03
  2.249139e+00    6.755540e-01   8.953559e-03
  2.251350e+00    6.673051e-01   8.887013e-03
  2.253560e+00    6.674622e-01   8.876480e-03
  2.255771e+00    6.740652e-01   8.908794e-03
  2.257981e+00    6.758384e-01   8.909247e-03
  2.260192e+00    6.755313e-01   8.896013e-03
  2.262402e+00    6.768324e-01   8.893632e-03
  2.264613e+00    6.738557e-01   8.863113e-03
  2.266823e+00    6.715162e-01   8.837277e-03
  2.269033e+00    6.704127e-01   8.819566e-03
  2.271244e+00    6.674016e-01   8.789293e-03
  2.273454e+00    6.815920e-01   8.871834e-03
  2.275665e+00    7.206709e-01   9.111866e-03
  2.277875e+00    7.191246e-01   9.091751e-03
  2.280086e+00    6.836361e-01   8.854373e-03
  2.282296e+00    6.601078e-01   8.691232e-03
  2.284507e+00    6.773304e-01   8.793612e-03
  2.286717e+00    6.732903e-01   8.757788e-03
  2.288928e+00    6.581189e-01   8.648659e-03
  2.291138e+00    6.430971e-01   8.540085e-03
  2.293348e+00    6.450810e-01   8.543749e-03
  2.295559e+00    6.653666e-01   8.667690e-03
  2.297769e+00    6.405466e-01   8.495328e-03
  2.299980e+00    6.598081e-01   8.612733e-03
  2.302190e+00    6.555706e-01   8.575900e-03
  2.304401e+00    6.461002e-01   8.504441e-03
  2.306611e+00    6.588895e-01   8.578952e-03
  2.308822e+00    6.587383e-01   8.569542e-03
  2.311032e+00    6.529087e-01   8.525082e-03
  2.313243e+00    6.386402e-01   8.425184e-03
  2.315453e+00    6.575465e-01   8.541360e-03
  2.317663e+00    6.453432e-01   8.452630e-03
  2.319874e+00    6.448403e-01   8.440618e-03
  2.322084e+00    6.352459e-01   8.368704e-03
  2.324295e+00    6.329879e-01   8.345648e-03
  2.326505e+00    6.563191e-01   8.488941e-03
  2.328716e+00    6.524603e-01   8.455338e-03
  2.330926e+00    6.579739e-01   8.482093e-03
  2.333137e+00    6.396636e-01   8.354896e-03
  2.335347e+00    6.322604e-01   8.297576e-03
  2.337558e+00    6.463212e-01   8.381063e-03
  2.339768e+00    6.538868e-01   8.421323e-03
  2.341979e+00    6.417915e-01   8.334689e-03
  2.344189e+00    6.390731e-01   8.308603e-03
  2.346399e+00    6.371625e-01   8.287677e-03
  2.348610e+00    6.374248e-01   8.280912e-03
  2.350820e+00    6.302286e-01   8.225884e-03
  2.353031e+00    6.291038e-01   8.210288e-03
  2.355241e+00    6.418763e-01   8.285102e-03
  2.357452e+00    6.400532e-01   8.264863e-03
  2.359662e+00    6.396967e-01   8.254283e-03
  2.361873e+00    6.331378e-01   8.203615e-03
  2.364083e+00    6.284723e-01   8.165348e-03
  2.366294e+00    6.237671e-01   8.126633e-03
  2.368504e+00    6.251093e-01   8.127308e-03
  2.370714e+00    6.179624e-01   8.072717e-03
  2.372925e+00    6.092451e-01   8.007621e-03
  2.375135e+00    6.093840e-01   8.000570e-03
  2.377346e+00    6.190266e-01   8.055700e-03
  2.379556e+00    6.210763e-01   8.061153e-03
  2.381767e+00    6.259356e-01   8.084721e-03
  2.383977e+00    6.297784e-01   8.101523e-03
  2.386188e+00    6.247848e-01   8.061389e-03
  2.388398e+00    6.168353e-01   8.001997e-03
  2.390609e+00    6.100786e-01   7.950361e-03
  2.392819e+00    6.080989e-01   7.929732e-03
  2.395029e+00    6.152613e-01   7.968640e-03
  2.397240e+00    6.097669e-01   7.925124e-03
  2.399450e+00    6.324489e-01   8.063261e-03
  2.401661e+00    6.042854e-01   7.874075e-03
  2.403871e+00    5.887888e-01   7.764823e-03
  2.406082e+00    6.013629e-01   7.839895e-03
  2.408292e+00    6.215455e-01   7.962520e-03
  2.410503e+00    6.109655e-01   7.886954e-03
  2.412713e+00    6.128077e-01   7.891003e-03
  2.414924e+00    6.070633e-01   7.846435e-03
  2.417134e+00    6.091277e-01   7.852118e-03
  2.419344e+00    6.001819e-01   7.786836e-03
  2.421555e+00    6.039959e-01   7.804030e-03
  2.423765e+00    5.918068e-01   7.717535e-03
  2.425976e+00    5.916702e-01   7.708870e-03
  2.428186e+00    5.945058e-01   7.720146e-03
  2.430397e+00    5.990659e-01   7.742197e-03
  2.432607e+00    5.818366e-01   7.622860e-03
  2.434818e+00    5.997974e-01   7.732061e-03
  2.437028e+00    6.020380e-01   7.739278e-03
  2.439239e+00    5.911034e-01   7.661052e-03
  2.441449e+00    5.742174e-01   7.543735e-03
  2.443659e+00    5.792158e-01   7.569229e-03
  2.445870e+00    5.808302e-01   7.591910e-03
  2.448080e+00    5.877726e-01   7.672099e-03
  2.450291e+00    5.992445e-01   7.763541e-03
  2.452501e+00    5.628463e-01   7.535103e-03
  2.454712e+00    5.659284e-01   7.564064e-03
  2.456922e+00    5.647660e-01   7.562887e-03
  2.459133e+00    5.675883e-01   7.587189e-03
  2.461343e+00    5.608807e-01   7.546552e-03
  2.463554e+00    5.644717e-01   7.574143e-03
  2.465764e+00    5.541685e-01   7.507820e-03
  2.467975e+00    5.483717e-01   7.470693e-03
  2.470185e+00    5.646268e-01   7.582885e-03
  2.472395e+00    5.516244e-01   7.496297e-03
  2.474606e+00    5.342439e-01   7.378778e-03
  2.476816e+00    5.506651e-01   7.492044e-03
  2.479027e+00    5.563523e-01   7.531499e-03
  2.481237e+00    5.454972e-01   7.457955e-03
  2.483448e+00    5.322065e-01   7.366820e-03
  2.485658e+00    5.248699e-01   7.315737e-03
  2.487869e+00    5.333266e-01   7.374449e-03
  2.490079e+00    5.460892e-01   7.461673e-03
  2.492290e+00    5.256954e-01   7.320571e-03
  2.494500e+00    5.455657e-01   7.456908e-03
  2.496710e+00    5.418755e-01   7.430953e-03
  2.498921e+00    5.343168e-01   7.377957e-03
  2.501131e+00    5.349115e-01   7.381093e-03
  2.503342e+00    5.461741e-01   7.457122e-03
  2.505552e+00    5.476698e-01   7.466177e-03
  2.507763e+00    5.361406e-01   7.385753e-03
  2.509973e+00    5.444587e-01   7.441401e-03
  2.512184e+00    5.626100e-01   7.562766e-03
  2.514394e+00    5.545892e-01   7.499064e-03
  2.516605e+00    5.420925e-01   7.366342e-03
  2.518815e+00    5.421522e-01   7.337990e-03
  2.521025e+00    5.343829e-01   7.264074e-03
  2.523236e+00    5.565944e-01   7.394988e-03
  2.525446e+00    5.533318e-01   7.357292e-03
  2.527657e+00    5.290658e-01   7.179501e-03
  2.529867e+00    5.319107e-01   7.184490e-03
  2.532078e+00    5.370252e-01   7.203743e-03
  2.534288e+00    5.277879e-01   7.127597e-03
  2.536499e+00    5.306943e-01   7.135201e-03
  2.538709e+00    5.146624e-01   7.015689e-03
  2.540920e+00    5.185962e-01   7.031853e-03
  2.543130e+00    5.373335e-01   7.147286e-03
  2.545340e+00    5.210605e-01   7.028186e-03
  2.547551e+00    5.170796e-01   6.991394e-03
  2.549761e+00    5.207694e-01   7.006715e-03
  2.551972e+00    5.182184e-01   6.980238e-03
  2.554182e+00    5.221905e-01   6.997728e-03
  2.556393e+00    5.151979e-01   6.941687e-03
  2.558603e+00    5.185009e-01   6.954845e-03
  2.560814e+00    5.182368e-01   6.944386e-03
  2.563024e+00    5.270467e-01   6.994510e-03
  2.565235e+00    5.290640e-01   6.998296e-03
  2.567445e+00    5.184240e-01   6.918017e-03
  2.569656e+00    5.215238e-01   6.928891e-03
  2.571866e+00    5.094010e-01   6.838612e-03
  2.574076e+00    5.131074e-01   6.854190e-03
  2.576287e+00    5.246521e-01   6.922502e-03
  2.578497e+00    5.114192e-01   6.826820e-03
  2.580708e+00    5.059555e-01   6.782250e-03
  2.582918e+00    4.984182e-01   6.723907e-03
  2.585129e+00    5.124624e-01   6.810220e-03
  2.587339e+00    5.226090e-01   6.869594e-03
  2.589550e+00    5.235529e-01   6.868150e-03
  2.591760e+00    5.181842e-01   6.825077e-03
  2.593971e+00    5.187926e-01   6.821493e-03
  2.596181e+00    5.143357e-01   6.785889e-03
  2.598391e+00    5.230580e-01   6.837942e-03
  2.600602e+00    5.133718e-01   6.768399e-03
  2.602812e+00    5.113323e-01   6.747376e-03
  2.605023e+00    5.068086e-01   6.710324e-03
  2.607233e+00    5.076610e-01   6.708818e-03
  2.609444e+00    5.208654e-01   6.788176e-03
  2.611654e+00    5.121394e-01   6.723727e-03
  2.613865e+00    5.162549e-01   6.743584e-03
  2.616075e+00    5.111105e-01   6.702729e-03
  2.618286e+00    5.041116e-01   6.649692e-03
  2.620496e+00    4.955499e-01   6.586346e-03
  2.622706e+00    4.993929e-01   6.606105e-03
  2.624917e+00    5.191031e-01   6.729291e-03
  2.627127e+00    5.087304e-01   6.655967e-03
  2.629338e+00    5.108696e-01   6.663903e-03
  2.631548e+00    5.076985e-01   6.637016e-03
  2.633759e+00    5.044593e-01   6.608622e-03
  2.635969e+00    5.088868e-01   6.630848e-03
  2.638180e+00    5.002068e-01   6.567074e-03
  2.640390e+00    4.927571e-01   6.511434e-03
  2.642601e+00    5.028126e-01   6.570855e-03
  2.644811e+00    5.037141e-01   6.569652e-03
  2.647021e+00    5.049410e-01   6.571045e-03
  2.649232e+00    5.044239e-01   6.560944e-03
  2.651442e+00    4.954382e-01   6.495745e-03
  2.653653e+00    4.997615e-01   6.517244e-03
  2.655863e+00    4.983761e-01   6.501501e-03
  2.658074e+00    5.051377e-01   6.538816e-03
  2.660284e+00    4.936028e-01   6.457394e-03
  2.662495e+00    4.915853e-01   6.437470e-03
  2.664705e+00    4.906259e-01   6.424651e-03
  2.666916e+00    4.947994e-01   6.445464e-03
  2.669126e+00    4.904967e-01   6.410967e-03
  2.671337e+00    4.962572e-01   6.441913e-03
  2.673547e+00    4.935681e-01   6.418062e-03
  2.675757e+00    4.953413e-01   6.423126e-03
  2.677968e+00    4.922774e-01   6.396733e-03
  2.680178e+00    4.933056e-01   6.397003e-03
  2.682389e+00    5.026978e-01   6.451149e-03
  2.684599e+00    5.009331e-01   6.433589e-03
  2.686810e+00    4.992497e-01   6.416121e-03
  2.689020e+00    4.899811e-01   6.349995e-03
  2.691231e+00    4.844663e-01   6.307912e-03
  2.693441e+00    4.894373e-01   6.334062e-03
  2.695652e+00    4.900818e-01   6.331710e-03
  2.697862e+00    4.899734e-01   6.324656e-03
  2.700072e+00    4.958805e-01   6.356564e-03
  2.702283e+00    4.917214e-01   6.323606e-03
  2.704493e+00    4.979240e-01   6.357021e-03
  2.706704e+00    4.975489e-01   6.348160e-03
  2.708914e+00    5.012388e-01   6.365622e-03
  2.711125e+00    4.877964e-01   6.273445e-03
  2.713335e+00    4.781493e-01   6.205046e-03
  2.715546e+00    4.827927e-01   6.228676e-03
  2.717756e+00    4.885315e-01   6.259684e-03
  2.719967e+00    4.909500e-01   6.268929e-03
  2.722177e+00    4.916610e-01   6.267289e-03
  2.724387e+00    4.874445e-01   6.234259e-03
  2.726598e+00    4.667506e-01   6.094543e-03
  2.728808e+00    4.681413e-01   6.097557e-03
  2.731019e+00    4.832031e-01   6.188766e-03
  2.733229e+00    4.860252e-01   6.200994e-03
  2.735440e+00    4.815992e-01   6.166455e-03
  2.737650e+00    4.709672e-01   6.092058e-03
  2.739861e+00    4.875596e-01   6.192348e-03
  2.742071e+00    4.824461e-01   6.154061e-03
  2.744282e+00    4.751547e-01   6.101171e-03
  2.746492e+00    4.888900e-01   6.182640e-03
  2.748702e+00    4.905887e-01   6.187440e-03
  2.750913e+00    4.754498e-01   6.085457e-03
  2.753123e+00    4.865821e-01   6.150135e-03
  2.755334e+00    4.798858e-01   6.101604e-03
  2.757544e+00    4.861105e-01   6.135277e-03
  2.759755e+00    4.883969e-01   6.143759e-03
  2.761965e+00    4.853288e-01   6.118412e-03
  2.764176e+00    4.767822e-01   6.058341e-03
  2.766386e+00    4.825784e-01   6.089247e-03
  2.768597e+00    4.833794e-01   6.088402e-03
  2.770807e+00    4.788367e-01   6.053868e-03
  2.773017e+00    4.764810e-01   6.032990e-03
  2.775228e+00    4.906713e-01   6.116299e-03
  2.777438e+00    4.857190e-01   6.079539e-03
  2.779649e+00    4.849835e-01   6.068976e-03
  2.781859e+00    4.852535e-01   6.064868e-03
  2.784070e+00    4.806482e-01   6.030131e-03
  2.786280e+00    4.747100e-01   5.987010e-03
  2.788491e+00    4.836416e-01   6.037192e-03
  2.790701e+00    4.892195e-01   6.066198e-03
  2.792912e+00    4.733239e-01   5.960882e-03
  2.795122e+00    4.903985e-01   6.061613e-03
  2.797333e+00    4.899197e-01   6.053027e-03
  2.799543e+00    4.709904e-01   5.929105e-03
  2.801753e+00    4.714897e-01   5.926404e-03
  2.803964e+00    4.841771e-01   5.999895e-03
  2.806174e+00    4.861787e-01   6.006074e-03
  2.808385e+00    4.751988e-01   5.931076e-03
  2.810595e+00    4.770107e-01   5.935465e-03
  2.812806e+00    4.948821e-01   6.038905e-03
  2.815016e+00    4.732068e-01   5.900426e-03
  2.817227e+00    4.782837e-01   5.958036e-03
  2.819437e+00    4.699419e-01   5.916896e-03
  2.821648e+00    4.667586e-01   5.899088e-03
  2.823858e+00    4.689303e-01   5.918107e-03
  2.826068e+00    4.753999e-01   5.963778e-03
  2.828279e+00    4.716006e-01   5.943947e-03
  2.830489e+00    4.637169e-01   5.897363e-03
  2.832700e+00    4.604315e-01   5.878959e-03
  2.834910e+00    4.544975e-01   5.842967e-03
  2.837121e+00    4.687983e-01   5.935895e-03
  2.839331e+00    4.747844e-01   5.974900e-03
  2.841542e+00    4.712243e-01   5.953485e-03
  2.843752e+00    4.762125e-01   5.985691e-03
  2.845963e+00    4.790938e-01   6.004177e-03
  2.848173e+00    4.796202e-01   6.007564e-03
  2.850383e+00    4.801569e-01   6.011216e-03
  2.852594e+00    4.862637e-01   6.049245e-03
  2.854804e+00    4.793981e-01   6.005889e-03
  2.857015e+00    4.789452e-01   6.002599e-03
  2.859225e+00    4.749050e-01   5.976978e-03
  2.861436e+00    4.732417e-01   5.965851e-03
  2.863646e+00    4.621936e-01   5.895830e-03
  2.865857e+00    4.589802e-01   5.875646e-03
  2.868067e+00    4.610468e-01   5.889061e-03
  2.870278e+00    4.655015e-01   5.917107e-03
  2.872488e+00    4.747562e-01   5.974451e-03
  2.874698e+00    4.653652e-01   5.914030e-03
  2.876909e+00    4.844120e-01   6.032470e-03
  2.879119e+00    4.794764e-01   6.000022e-03
  2.881330e+00    4.762206e-01   5.978132e-03
  2.883540e+00    4.665907e-01   5.915973e-03
  2.885751e+00    4.699212e-01   5.935391e-03
  2.887961e+00    4.746534e-01   5.963292e-03
  2.890172e+00    4.690933e-01   5.926652e-03
  2.892382e+00    4.654061e-01   5.901486e-03
  2.894593e+00    4.780480e-01   5.979263e-03
  2.896803e+00    4.598491e-01   5.862372e-03
  2.899014e+00    4.625841e-01   5.877851e-03
  2.901224e+00    4.554897e-01   5.830632e-03
  2.903434e+00    4.470599e-01   5.774495e-03
  2.905645e+00    4.731339e-01   5.938259e-03
  2.907855e+00    4.576180e-01   5.837977e-03
  2.910066e+00    4.758778e-01   5.951190e-03
  2.912276e+00    4.735112e-01   5.934231e-03
  2.914487e+00    4.608688e-01   5.852011e-03
  2.916697e+00    4.608856e-01   5.849879e-03
  2.918908e+00    4.683186e-01   5.894846e-03
  2.921118e+00    4.614264e-01   5.848607e-03
  2.923329e+00    4.583675e-01   5.826868e-03
  2.925539e+00    4.439732e-01   5.732409e-03
  2.927749e+00    4.626384e-01   5.849304e-03
  2.929960e+00    4.578205e-01   5.816033e-03
  2.932170e+00    4.565797e-01   5.805790e-03
  2.934381e+00    4.633981e-01   5.846531e-03
  2.936591e+00    4.632883e-01   5.843251e-03
  2.938802e+00    4.421983e-01   5.706030e-03
  2.941012e+00    4.549337e-01   5.785262e-03
  2.943223e+00    4.576860e-01   5.800055e-03
  2.945433e+00    4.673747e-01   5.857327e-03
  2.947644e+00    4.585398e-01   5.797567e-03
  2.949854e+00    4.633614e-01   5.823649e-03
  2.952064e+00    4.642076e-01   5.824706e-03
  2.954275e+00    4.684908e-01   5.847038e-03
  2.956485e+00    4.677793e-01   5.838349e-03
  2.958696e+00    4.677049e-01   5.833460e-03
  2.960906e+00    4.655451e-01   5.815738e-03
  2.963117e+00    4.612998e-01   5.784646e-03
  2.965327e+00    4.632422e-01   5.792864e-03
  2.967538e+00    4.674927e-01   5.816430e-03
  2.969748e+00    4.649966e-01   5.798037e-03
  2.971959e+00    4.769385e-01   5.868791e-03
  2.974169e+00    4.839775e-01   5.909276e-03
  2.976379e+00    4.816920e-01   5.892316e-03
  2.978590e+00    4.713041e-01   5.825240e-03
  2.980800e+00    4.736388e-01   5.836789e-03
  2.983011e+00    4.555275e-01   5.721308e-03
  2.985221e+00    4.619579e-01   5.758344e-03
  2.987432e+00    4.663762e-01   5.782694e-03
  2.989642e+00    4.426053e-01   5.630797e-03
  2.991853e+00    4.619766e-01   5.749366e-03
  2.994063e+00    4.612887e-01   5.742183e-03
  2.996274e+00    4.609254e-01   5.736687e-03
  2.998484e+00    4.543611e-01   5.693012e-03
  3.000694e+00    4.552678e-01   5.695219e-03
  3.002905e+00    4.513284e-01   5.667598e-03
  3.005115e+00    4.600503e-01   5.719092e-03
  3.007326e+00    4.500461e-01   5.653436e-03
  3.009536e+00    4.613692e-01   5.720804e-03
  3.011747e+00    4.629205e-01   5.727491e-03
  3.013957e+00    4.477849e-01   5.629925e-03
  3.016168e+00    4.407819e-01   5.582500e-03
  3.018378e+00    4.457145e-01   5.610629e-03
  3.020589e+00    4.482760e-01   5.623534e-03
  3.022799e+00    4.489522e-01   5.624619e-03
  3.025010e+00    4.650746e-01   5.721443e-03
  3.027220e+00    4.536398e-01   5.647555e-03
  3.029430e+00    4.648512e-01   5.713627e-03
  3.031641e+00    4.579287e-01   5.667757e-03
  3.033851e+00    4.720686e-01   5.751017e-03
  3.036062e+00    4.587360e-01   5.666412e-03
  3.038272e+00    4.603855e-01   5.672989e-03
  3.040483e+00    4.507647e-01   5.610181e-03
  3.042693e+00    4.463678e-01   5.579490e-03
  3.044904e+00    4.455747e-01   5.570544e-03
  3.047114e+00    4.540756e-01   5.618596e-03
  3.049325e+00    4.562247e-01   5.627473e-03
  3.051535e+00    4.472294e-01   5.567333e-03
  3.053745e+00    4.577091e-01   5.627398e-03
  3.055956e+00    4.564998e-01   5.615360e-03
  3.058166e+00    4.529380e-01   5.589138e-03
  3.060377e+00    4.426933e-01   5.520838e-03
  3.062587e+00    4.430713e-01   5.518603e-03
  3.064798e+00    4.401024e-01   5.495860e-03
  3.067008e+00    4.563020e-01   5.591338e-03
  3.069219e+00    4.533859e-01   5.568912e-03
  3.071429e+00    4.586824e-01   5.597805e-03
  3.073640e+00    4.578103e-01   5.589108e-03
  3.075850e+00    4.530326e-01   5.556283e-03
  3.078060e+00    4.494671e-01   5.531271e-03
  3.080271e+00    4.383423e-01   5.458950e-03
  3.082481e+00    4.562997e-01   5.566145e-03
  3.084692e+00    4.592179e-01   5.580528e-03
  3.086902e+00    4.495715e-01   5.518348e-03
  3.089113e+00    4.456764e-01   5.490823e-03
  3.091323e+00    4.470847e-01   5.496123e-03
  3.093534e+00    4.503692e-01   5.512896e-03
  3.095744e+00    4.572021e-01   5.551147e-03
  3.097955e+00    4.399477e-01   5.441881e-03
  3.100165e+00    4.448370e-01   5.468706e-03
  3.102375e+00    4.422040e-01   5.449086e-03
  3.104586e+00    4.450901e-01   5.463361e-03
  3.106796e+00    4.529599e-01   5.507899e-03
  3.109007e+00    4.500671e-01   5.487065e-03
  3.111217e+00    4.415821e-01   5.431426e-03
  3.113428e+00    4.435769e-01   5.440244e-03
  3.115638e+00    4.503519e-01   5.478407e-03
  3.117849e+00    4.312110e-01   5.357057e-03
  3.120059e+00    4.521788e-01   5.482243e-03
  3.122270e+00    4.488891e-01   5.459002e-03
  3.124480e+00    4.400448e-01   5.401311e-03
  3.126691e+00    4.392574e-01   5.392902e-03
  3.128901e+00    4.493724e-01   5.451524e-03
  3.131111e+00    4.497246e-01   5.449777e-03
  3.133322e+00    4.505876e-01   5.451558e-03
  3.135532e+00    4.532553e-01   5.464221e-03
  3.137743e+00    4.421568e-01   5.393445e-03
  3.139953e+00    4.421675e-01   5.389816e-03
  3.142164e+00    4.524461e-01   5.464262e-03
  3.144374e+00    4.461650e-01   5.454726e-03
  3.146585e+00    4.374689e-01   5.415773e-03
  3.148795e+00    4.590140e-01   5.558519e-03
  3.151006e+00    4.443706e-01   5.477716e-03
  3.153216e+00    4.359755e-01   5.432809e-03
  3.155426e+00    4.243262e-01   5.365933e-03
  3.157637e+00    4.325400e-01   5.423067e-03
  3.159847e+00    4.511221e-01   5.543276e-03
  3.162058e+00    4.454841e-01   5.512987e-03
  3.164268e+00    4.469906e-01   5.526399e-03
  3.166479e+00    4.372262e-01   5.469355e-03
  3.168689e+00    4.406449e-01   5.494040e-03
  3.170900e+00    4.419042e-01   5.505085e-03
  3.173110e+00    4.382915e-01   5.485402e-03
  3.175321e+00    4.489205e-01   5.554042e-03
  3.177531e+00    4.372961e-01   5.484404e-03
  3.179741e+00    4.365287e-01   5.481650e-03
  3.181952e+00    4.399517e-01   5.505221e-03
  3.184162e+00    4.396373e-01   5.505448e-03
  3.186373e+00    4.383940e-01   5.499262e-03
  3.188583e+00    4.408465e-01   5.516425e-03
  3.190794e+00    4.324398e-01   5.465304e-03
  3.193004e+00    4.560440e-01   5.613754e-03
  3.195215e+00    4.389671e-01   5.509167e-03
  3.197425e+00    4.452539e-01   5.549691e-03
  3.199636e+00    4.410601e-01   5.522723e-03
  3.201846e+00    4.434677e-01   5.537159e-03
  3.204056e+00    4.414262e-01   5.525307e-03
  3.206267e+00    4.384520e-01   5.507508e-03
  3.208477e+00    4.427220e-01   5.535185e-03
  3.210688e+00    4.443587e-01   5.546286e-03
  3.212898e+00    4.323661e-01   5.471487e-03
  3.215109e+00    4.347237e-01   5.487144e-03
  3.217319e+00    4.302432e-01   5.459426e-03
  3.219530e+00    4.400822e-01   5.521907e-03
  3.221740e+00    4.261076e-01   5.434072e-03
  3.223951e+00    4.343934e-01   5.487126e-03
  3.226161e+00    4.442361e-01   5.549118e-03
  3.228372e+00    4.452744e-01   5.556173e-03
  3.230582e+00    4.270285e-01   5.441264e-03
  3.232792e+00    4.333940e-01   5.481902e-03
  3.235003e+00    4.351066e-01   5.492966e-03
  3.237213e+00    4.235288e-01   5.419496e-03
  3.239424e+00    4.255283e-01   5.432264e-03
  3.241634e+00    4.396477e-01   5.521790e-03
  3.243845e+00    4.183207e-01   5.386260e-03
  3.246055e+00    4.478166e-01   5.572631e-03
  3.248266e+00    4.325151e-01   5.476825e-03
  3.250476e+00    4.275315e-01   5.444850e-03
  3.252687e+00    4.244085e-01   5.424873e-03
  3.254897e+00    4.334978e-01   5.482501e-03
  3.257107e+00    4.409339e-01   5.529038e-03
  3.259318e+00    4.257233e-01   5.432592e-03
  3.261528e+00    4.165821e-01   5.373811e-03
  3.263739e+00    4.235203e-01   5.417812e-03
  3.265949e+00    4.261121e-01   5.434256e-03
  3.268160e+00    4.234836e-01   5.417043e-03
  3.270370e+00    4.194413e-01   5.390622e-03
  3.272581e+00    4.249005e-01   5.425320e-03
  3.274791e+00    4.304901e-01   5.460349e-03
  3.277002e+00    4.318604e-01   5.468470e-03
  3.279212e+00    4.260073e-01   5.430914e-03
  3.281422e+00    4.197351e-01   5.390196e-03
  3.283633e+00    4.286247e-01   5.446295e-03
  3.285843e+00    4.137627e-01   5.350722e-03
  3.288054e+00    4.194903e-01   5.386677e-03
  3.290264e+00    4.231618e-01   5.409895e-03
  3.292475e+00    4.166667e-01   5.367396e-03
  3.294685e+00    4.119616e-01   5.336361e-03
  3.296896e+00    4.114026e-01   5.331999e-03
  3.299106e+00    4.326378e-01   5.467313e-03
  3.301317e+00    4.371991e-01   5.495038e-03
  3.303527e+00    4.142019e-01   5.348096e-03
  3.305737e+00    4.278374e-01   5.434332e-03
  3.307948e+00    4.226550e-01   5.400678e-03
  3.310158e+00    4.313990e-01   5.455398e-03
  3.312369e+00    4.323613e-01   5.460574e-03
  3.314579e+00    4.210619e-01   5.387849e-03
  3.316790e+00    4.308935e-01   5.449671e-03
  3.319000e+00    4.305942e-01   5.446583e-03
  3.321211e+00    4.287859e-01   5.434512e-03
  3.323421e+00    4.195862e-01   5.374712e-03
  3.325632e+00    4.315500e-01   5.449879e-03
  3.327842e+00    4.354248e-01   5.473389e-03
  3.330052e+00    4.231633e-01   5.394676e-03
  3.332263e+00    4.359205e-01   5.474383e-03
  3.334473e+00    4.271860e-01   5.418320e-03
  3.336684e+00    4.280416e-01   5.422483e-03
  3.338894e+00    4.293279e-01   5.429775e-03
  3.341105e+00    4.187137e-01   5.361029e-03
  3.343315e+00    4.324522e-01   5.447103e-03
  3.345526e+00    4.195821e-01   5.364555e-03
  3.347736e+00    4.280611e-01   5.417037e-03
  3.349947e+00    4.332098e-01   5.448607e-03
  3.352157e+00    4.169876e-01   5.344430e-03
  3.354368e+00    4.283118e-01   5.415203e-03
  3.356578e+00    4.279680e-01   5.412005e-03
  3.358788e+00    4.166748e-01   5.338803e-03
  3.360999e+00    4.243630e-01   5.386559e-03
  3.363209e+00    4.148476e-01   5.324835e-03
  3.365420e+00    4.201102e-01   5.356953e-03
  3.367630e+00    4.216496e-01   5.365760e-03
  3.369841e+00    4.201779e-01   5.354956e-03
  3.372051e+00    4.123704e-01   5.302998e-03
  3.374262e+00    4.016217e-01   5.231058e-03
  3.376472e+00    3.964790e-01   5.195034e-03
  3.378683e+00    4.035331e-01   5.238603e-03
  3.380893e+00    4.255695e-01   5.377341e-03
  3.383103e+00    4.076937e-01   5.260546e-03
  3.385314e+00    4.208959e-01   5.342787e-03
  3.387524e+00    4.197418e-01   5.332727e-03
  3.389735e+00    4.159485e-01   5.305920e-03
  3.391945e+00    4.168487e-01   5.307967e-03
  3.394156e+00    4.183303e-01   5.313147e-03
  3.396366e+00    4.274866e-01   5.367517e-03
  3.398577e+00    4.075096e-01   5.237562e-03
  3.400787e+00    4.192759e-01   5.324667e-03
  3.402998e+00    4.012474e-01   5.246613e-03
  3.405208e+00    3.993466e-01   5.254622e-03
  3.407418e+00    3.961082e-01   5.249010e-03
  3.409629e+00    3.849648e-01   5.188316e-03
  3.411839e+00    3.850793e-01   5.200635e-03
  3.414050e+00    3.968016e-01   5.290199e-03
  3.416260e+00    3.862621e-01   5.229002e-03
  3.418471e+00    4.008472e-01   5.336308e-03
  3.420681e+00    4.096702e-01   5.403426e-03
  3.422892e+00    4.011171e-01   5.354801e-03
  3.425102e+00    3.909424e-01   5.294297e-03
  3.427313e+00    3.826156e-01   5.244735e-03
  3.429523e+00    3.956381e-01   5.340365e-03
  3.431733e+00    3.933670e-01   5.331787e-03
  3.433944e+00    3.889600e-01   5.308311e-03
  3.436154e+00    3.949073e-01   5.355094e-03
  3.438365e+00    3.946227e-01   5.359207e-03
  3.440575e+00    3.896751e-01   5.331496e-03
  3.442786e+00    3.855731e-01   5.309018e-03
  3.444996e+00    3.840109e-01   5.303792e-03
  3.447207e+00    3.805448e-01   5.285142e-03
  3.449417e+00    3.792374e-01   5.317295e-03
  3.451628e+00    3.674615e-01   5.263465e-03
  3.453838e+00    3.692496e-01   5.297455e-03
  3.456049e+00    3.742865e-01   5.357616e-03
  3.458259e+00    3.761297e-01   5.393019e-03
  3.460469e+00    3.641388e-01   5.326069e-03
  3.462680e+00    3.814865e-01   5.470918e-03
  3.464890e+00    3.783681e-01   5.466594e-03
  3.467101e+00    3.900995e-01   5.568696e-03
  3.469311e+00    3.888123e-01   5.576439e-03
  3.471522e+00    4.100386e-01   5.743808e-03
  3.473732e+00    3.924459e-01   5.635468e-03
  3.475943e+00    4.016702e-01   5.717388e-03
  3.478153e+00    4.129749e-01   5.813222e-03
  3.480364e+00    4.268090e-01   5.925558e-03
  3.482574e+00    4.215522e-01   5.904647e-03
  3.484784e+00    4.395609e-01   6.044824e-03
  3.486995e+00    4.393888e-01   6.059160e-03
  3.489205e+00    4.364798e-01   6.053990e-03
  3.491416e+00    4.252777e-01   5.990671e-03
  3.493626e+00    4.325552e-01   6.056240e-03
  3.495837e+00    4.404820e-01   6.126248e-03
  3.498047e+00    4.618593e-01   6.287902e-03
  3.500258e+00    4.529899e-01   6.241861e-03
  3.502468e+00    4.486136e-01   6.225945e-03
  3.504679e+00    4.764664e-01   6.431029e-03
  3.506889e+00    4.697397e-01   6.400006e-03
  3.509099e+00    4.936637e-01   6.575636e-03
  3.511310e+00    4.662499e-01   6.404771e-03
  3.513520e+00    4.901630e-01   6.581493e-03
  3.515731e+00    4.898048e-01   6.593521e-03
  3.517941e+00    5.024508e-01   6.692636e-03
  3.520152e+00    5.073352e-01   6.739601e-03
  3.522362e+00    5.081171e-01   6.759362e-03
  3.524573e+00    5.373461e-01   6.965769e-03
  3.526783e+00    5.244683e-01   6.895361e-03
  3.528994e+00    5.078426e-01   6.797296e-03
  3.531204e+00    5.190702e-01   6.884463e-03
  3.533414e+00    5.409954e-01   7.040586e-03
  3.535625e+00    5.556086e-01   7.147750e-03
  3.537835e+00    5.412537e-01   7.067026e-03
  3.540046e+00    5.336142e-01   7.025922e-03
  3.542256e+00    5.217001e-01   6.954420e-03
  3.544467e+00    5.377463e-01   7.068230e-03
  3.546677e+00    5.366699e-01   7.068739e-03
  3.548888e+00    5.385529e-01   7.088609e-03
  3.551098e+00    5.367127e-01   7.083824e-03
  3.553309e+00    5.429325e-01   7.132929e-03
  3.555519e+00    5.444563e-01   7.154362e-03
  3.557729e+00    5.274571e-01   7.053392e-03
  3.559940e+00    5.414771e-01   7.158122e-03
  3.562150e+00    5.292639e-01   7.088571e-03
  3.564361e+00    5.431277e-01   7.194221e-03
  3.566571e+00    5.253507e-01   7.089212e-03
  3.568782e+00    5.480509e-01   7.254974e-03
  3.570992e+00    5.576444e-01   7.332298e-03
  3.573203e+00    5.499971e-01   7.296138e-03
  3.575413e+00    5.348692e-01   7.208867e-03
  3.577624e+00    5.362799e-01   7.232506e-03
  3.579834e+00    5.355682e-01   7.241538e-03
  3.582045e+00    5.501197e-01   7.353520e-03
  3.584255e+00    5.318933e-01   7.244655e-03
  3.586465e+00    5.504432e-01   7.384029e-03
  3.588676e+00    5.397334e-01   7.326111e-03
  3.590886e+00    5.361833e-01   7.315636e-03
  3.593097e+00    5.374020e-01   7.338492e-03
  3.595307e+00    5.366364e-01   7.347204e-03
  3.597518e+00    5.377272e-01   7.368905e-03
  3.599728e+00    5.513512e-01   7.475963e-03
  3.601939e+00    5.361359e-01   7.386196e-03
  3.604149e+00    5.475674e-01   7.479043e-03
  3.606360e+00    5.546923e-01   7.541982e-03
  3.608570e+00    5.464125e-01   7.499772e-03
  3.610780e+00    5.346901e-01   7.429952e-03
  3.612991e+00    5.251918e-01   7.373593e-03
  3.615201e+00    5.222554e-01   7.362615e-03
  3.617412e+00    5.550913e-01   7.597932e-03
  3.619622e+00    5.624760e-01   7.654437e-03
  3.621833e+00    5.378765e-01   7.491940e-03
  3.624043e+00    5.589837e-01   7.647221e-03
  3.626254e+00    5.443810e-01   7.556460e-03
  3.628464e+00    5.398005e-01   7.535672e-03
  3.630675e+00    5.323022e-01   7.497210e-03
  3.632885e+00    5.331376e-01   7.517528e-03
  3.635095e+00    5.554487e-01   7.687937e-03
  3.637306e+00    5.302553e-01   7.525865e-03
  3.639516e+00    5.355243e-01   7.577731e-03
  3.641727e+00    5.477047e-01   7.678162e-03
  3.643937e+00    5.186122e-01   7.485849e-03
  3.646148e+00    5.499421e-01   7.723432e-03
  3.648358e+00    5.627983e-01   7.828514e-03
  3.650569e+00    5.538463e-01   7.780991e-03
  3.652779e+00    5.498476e-01   7.767864e-03
  3.654990e+00    5.600225e-01   7.854663e-03
  3.657200e+00    5.374500e-01   7.709754e-03
  3.659410e+00    5.209589e-01   7.605301e-03
  3.661621e+00    5.270457e-01   7.664679e-03
  3.663831e+00    5.271847e-01   7.680697e-03
  3.666042e+00    5.373095e-01   7.769374e-03
  3.668252e+00    5.276143e-01   7.714143e-03
  3.670463e+00    5.330502e-01   7.769054e-03
  3.672673e+00    5.256315e-01   7.730120e-03
  3.674884e+00    5.402896e-01   7.852697e-03
  3.677094e+00    5.464572e-01   7.913169e-03
  3.679305e+00    5.548006e-01   7.989230e-03
  3.681515e+00    5.276656e-01   7.807027e-03
  3.683726e+00    5.140116e-01   7.720916e-03
  3.685936e+00    5.242338e-01   7.812906e-03
  3.688146e+00    5.188574e-01   7.788416e-03
  3.690357e+00    5.045637e-01   7.695962e-03
  3.692567e+00    5.307460e-01   7.909275e-03
  3.694778e+00    5.162009e-01   7.816056e-03
  3.696988e+00    5.158718e-01   7.829394e-03
  3.699199e+00    5.284437e-01   7.940495e-03
  3.701409e+00    5.209631e-01   7.900415e-03
  3.703620e+00    5.245004e-01   7.943480e-03
  3.705830e+00    5.323259e-01   8.019049e-03
  3.708041e+00    5.180862e-01   7.927589e-03
  3.710251e+00    5.082859e-01   7.868683e-03
  3.712461e+00    5.219325e-01   7.990363e-03
  3.714672e+00    5.380182e-01   8.129528e-03
  3.716882e+00    5.352281e-01   8.125421e-03
  3.719093e+00    5.007038e-01   7.875776e-03
  3.721303e+00    5.196185e-01   8.040053e-03
  3.723514e+00    5.374548e-01   8.194515e-03
  3.725724e+00    5.040440e-01   7.952612e-03
  3.727935e+00    5.208654e-01   8.101746e-03
  3.730145e+00    5.110857e-01   8.042562e-03
  3.732356e+00    5.029202e-01   7.995345e-03
  3.734566e+00    5.185526e-01   8.136236e-03
  3.736776e+00    5.204629e-01   8.169094e-03
  3.738987e+00    5.199428e-01   8.182803e-03
  3.741197e+00    5.370226e-01   8.334580e-03
  3.743408e+00    5.202327e-01   8.221425e-03
  3.745618e+00    5.058230e-01   8.124974e-03
  3.747829e+00    5.133445e-01   8.203224e-03
  3.750039e+00    5.087947e-01   8.185145e-03
  3.752250e+00    5.102527e-01   8.215333e-03
  3.754460e+00    5.346771e-01   8.428624e-03
  3.756671e+00    5.143906e-01   8.286110e-03
  3.758881e+00    5.037402e-01   8.218392e-03
  3.761091e+00    5.110713e-01   8.297164e-03
  3.763302e+00    5.097557e-01   8.305602e-03
  3.765512e+00    5.165724e-01   8.380342e-03
  3.767723e+00    5.210322e-01   8.436113e-03
  3.769933e+00    5.196059e-01   8.444087e-03
  3.772144e+00    5.244392e-01   8.503228e-03
  3.774354e+00    5.182853e-01   8.473273e-03
  3.776565e+00    5.300561e-01   8.589298e-03
  3.778775e+00    5.148077e-01   8.485021e-03
  3.780986e+00    4.849418e-01   8.255130e-03
  3.783196e+00    5.190386e-01   8.560924e-03
  3.785407e+00    5.169182e-01   8.564155e-03
  3.787617e+00    5.182373e-01   8.596160e-03
  3.789827e+00    5.081268e-01   8.532543e-03
  3.792038e+00    5.067111e-01   8.541547e-03
  3.794248e+00    5.109022e-01   8.598180e-03
  3.796459e+00    4.982403e-01   8.512272e-03
  3.798669e+00    5.058953e-01   8.598879e-03
  3.800880e+00    4.939227e-01   8.517857e-03
  3.803090e+00    5.011601e-01   8.601841e-03
  3.805301e+00    4.902978e-01   8.530025e-03
  3.807511e+00    4.852419e-01   8.507514e-03
  3.809722e+00    5.227502e-01   8.853026e-03
  3.811932e+00    5.065870e-01   8.737422e-03
  3.814142e+00    5.163242e-01   8.844320e-03
  3.816353e+00    4.823150e-01   8.570495e-03
  3.818563e+00    5.034463e-01   8.779427e-03
  3.820774e+00    5.048631e-01   8.815055e-03
  3.822984e+00    5.030132e-01   8.822486e-03
  3.825195e+00    5.127789e-01   8.931698e-03
  3.827405e+00    5.087823e-01   8.921039e-03
  3.829616e+00    4.797443e-01   8.686327e-03
  3.831826e+00    4.847789e-01   8.755651e-03
  3.834037e+00    5.064881e-01   8.974248e-03
  3.836247e+00    4.857153e-01   8.812761e-03
  3.838457e+00    5.009840e-01   8.975298e-03
  3.840668e+00    5.273974e-01   9.234840e-03
  3.842878e+00    4.950130e-01   8.972348e-03
  3.845089e+00    4.789375e-01   8.850535e-03
  3.847299e+00    4.800319e-01   8.886122e-03
  3.849510e+00    4.800117e-01   8.911272e-03
  3.851720e+00    5.127040e-01   9.231579e-03
  3.853931e+00    4.832759e-01   8.981540e-03
  3.856141e+00    5.017427e-01   9.170597e-03
  3.858352e+00    5.254273e-01   9.404470e-03
  3.860562e+00    4.888561e-01   9.090487e-03
  3.862772e+00    5.203458e-01   9.398703e-03
  3.864983e+00    5.126415e-01   9.349003e-03
  3.867193e+00    4.963134e-01   9.218739e-03
  3.869404e+00    5.073262e-01   9.340500e-03
  3.871614e+00    4.929345e-01   9.227093e-03
  3.873825e+00    4.865240e-01   9.187021e-03
  3.876035e+00    4.853733e-01   9.196603e-03
  3.878246e+00    4.812190e-01   9.182628e-03
  3.880456e+00    4.666344e-01   9.070545e-03
  3.882667e+00    4.878010e-01   9.303314e-03
  3.884877e+00    4.856501e-01   9.312263e-03
  3.887087e+00    5.065640e-01   9.541080e-03
  3.889298e+00    4.815866e-01   9.332946e-03
  3.891508e+00    4.934593e-01   9.477888e-03
  3.893719e+00    4.978580e-01   9.551265e-03
  3.895929e+00    4.776300e-01   9.386250e-03
  3.898140e+00    4.820028e-01   9.460481e-03
  3.900350e+00    5.404834e-01   1.005169e-02
  3.902561e+00    5.243795e-01   9.934404e-03
  3.904771e+00    4.804744e-01   9.541808e-03
  3.906982e+00    5.203124e-01   9.963716e-03
  3.909192e+00    5.241353e-01   1.003493e-02
  3.911403e+00    5.421504e-01   1.024171e-02
  3.913613e+00    5.137331e-01   1.000489e-02
  3.915823e+00    5.108009e-01   1.001186e-02
  3.918034e+00    4.827927e-01   9.768582e-03
  3.920244e+00    4.952613e-01   9.929819e-03
  3.922455e+00    4.854947e-01   9.867514e-03
  3.924665e+00    4.948272e-01   9.998512e-03
  3.926876e+00    4.963669e-01   1.005149e-02
  3.929086e+00    5.008019e-01   1.013418e-02
  3.931297e+00    5.000626e-01   1.016192e-02
  3.933507e+00    4.699327e-01   9.879417e-03
  3.935718e+00    5.274561e-01   1.049659e-02
  3.937928e+00    5.230165e-01   1.048281e-02
  3.940138e+00    4.928994e-01   1.020597e-02
  3.942349e+00    5.055009e-01   1.036616e-02
  3.944559e+00    4.835269e-01   1.016812e-02
  3.946770e+00    4.996404e-01   1.036677e-02
  3.948980e+00    4.911443e-01   1.030910e-02
  3.951191e+00    5.043311e-01   1.047798e-02
  3.953401e+00    5.038123e-01   1.050449e-02
  3.955612e+00    5.227895e-01   1.073339e-02
  3.957822e+00    4.995518e-01   1.052416e-02
  3.960033e+00    4.693786e-01   1.023349e-02
  3.962243e+00    5.018963e-01   1.061540e-02
  3.964453e+00    4.726420e-01   1.033409e-02
  3.966664e+00    4.974090e-01   1.063512e-02
  3.968874e+00    4.754755e-01   1.042619e-02
  3.971085e+00    4.692304e-01   1.037897e-02
  3.973295e+00    4.477783e-01   1.015958e-02
  3.975506e+00    4.977954e-01   1.073384e-02
  3.977716e+00    4.955338e-01   1.073170e-02
  3.979927e+00    4.888676e-01   1.068141e-02
  3.982137e+00    4.616643e-01   1.040184e-02
  3.984348e+00    4.737415e-01   1.055915e-02
  3.986558e+00    5.005719e-01   1.087675e-02
  3.988768e+00    5.018435e-01   1.091401e-02
  3.990979e+00    4.756113e-01   1.064744e-02
  3.993189e+00    4.878628e-01   1.080680e-02
  3.995400e+00    5.114228e-01   1.108888e-02
  3.997610e+00    5.226950e-01   1.124131e-02
  3.999821e+00    5.221864e-01   1.127488e-02
  4.002031e+00    4.861559e-01   1.091738e-02
  4.004242e+00    4.730365e-01   1.080708e-02
  4.006452e+00    4.656976e-01   1.076151e-02
  4.008663e+00    4.863788e-01   1.103791e-02
  4.010873e+00    4.528921e-01   1.068983e-02
  4.013084e+00    4.792472e-01   1.103719e-02
  4.015294e+00    4.984609e-01   1.129776e-02
  4.017504e+00    4.619997e-01   1.091772e-02
  4.019715e+00    4.688050e-01   1.103949e-02
  4.021925e+00    4.909492e-01   1.134062e-02
  4.024136e+00    5.111935e-01   1.161691e-02
  4.026346e+00    4.828826e-01   1.133478e-02
  4.028557e+00    4.749058e-01   1.128461e-02
  4.030767e+00    5.097781e-01   1.173851e-02
  4.032978e+00    5.271749e-01   1.198540e-02
  4.035188e+00    4.860383e-01   1.155468e-02
  4.037399e+00    4.854917e-01   1.159574e-02
  4.039609e+00    4.992350e-01   1.180724e-02
  4.041819e+00    4.672243e-01   1.147041e-02
  4.044030e+00    4.601051e-01   1.143140e-02
  4.046240e+00    4.755804e-01   1.167150e-02
  4.048451e+00    4.559583e-01   1.147768e-02
  4.050661e+00    4.694305e-01   1.169663e-02
  4.052872e+00    4.581497e-01   1.160681e-02
  4.055082e+00    4.344878e-01   1.135379e-02
  4.057293e+00    4.785896e-01   1.196953e-02
  4.059503e+00    5.287351e-01   1.263824e-02
  4.061714e+00    4.896845e-01   1.221956e-02
  4.063924e+00    4.686864e-01   1.201066e-02
  4.066134e+00    4.897741e-01   1.233561e-02
  4.068345e+00    4.939086e-01   1.244735e-02
  4.070555e+00    4.997646e-01   1.258130e-02
  4.072766e+00    4.993768e-01   1.263825e-02
  4.074976e+00    4.869817e-01   1.254279e-02
  4.077187e+00    5.057054e-01   1.284517e-02
  4.079397e+00    4.609265e-01   1.232592e-02
  4.081608e+00    4.708548e-01   1.252270e-02
  4.083818e+00    4.820288e-01   1.273626e-02
  4.086029e+00    4.850538e-01   1.284358e-02
  4.088239e+00    4.666502e-01   1.266538e-02
  4.090449e+00    5.054782e-01   1.325329e-02
  4.092660e+00    4.714513e-01   1.286983e-02
  4.094870e+00    4.963808e-01   1.327913e-02
  4.097081e+00    4.979028e-01   1.337248e-02
  4.099291e+00    4.665307e-01   1.299784e-02
  4.101502e+00    5.012267e-01   1.352269e-02
  4.103712e+00    4.818583e-01   1.330823e-02
  4.105923e+00    4.927517e-01   1.351005e-02
  4.108133e+00    4.739729e-01   1.330099e-02
  4.110344e+00    5.018979e-01   1.373960e-02
  4.112554e+00    4.745633e-01   1.341327e-02
  4.114764e+00    4.806166e-01   1.355252e-02
  4.116975e+00    5.028402e-01   1.391694e-02
  4.119185e+00    5.018423e-01   1.395982e-02
  4.121396e+00    4.525733e-01   1.331156e-02
  4.123606e+00    4.651822e-01   1.355086e-02
  4.125817e+00    4.780403e-01   1.379459e-02
  4.128027e+00    5.120424e-01   1.433687e-02
  4.130238e+00    5.150847e-01   1.444103e-02
  4.132448e+00    4.691017e-01   1.384125e-02
  4.134659e+00    4.959553e-01   1.429299e-02
  4.136869e+00    4.970996e-01   1.437339e-02
  4.139080e+00    4.430937e-01   1.363140e-02
  4.141290e+00    4.880594e-01   1.436959e-02
  4.143500e+00    5.096236e-01   1.475146e-02
  4.145711e+00    4.894464e-01   1.452393e-02
  4.147921e+00    4.486887e-01   1.396987e-02
  4.150132e+00    4.855361e-01   1.460144e-02
  4.152342e+00    5.341179e-01   1.538886e-02
  4.154553e+00    4.625108e-01   1.438827e-02
  4.156763e+00    5.004123e-01   1.504030e-02
  4.158974e+00    4.569388e-01   1.444422e-02
  4.161184e+00    4.787398e-01   1.485820e-02
  4.163395e+00    5.166685e-01   1.551430e-02
  4.165605e+00    5.146179e-01   1.556420e-02
  4.167815e+00    4.688188e-01   1.493302e-02
  4.170026e+00    4.436245e-01   1.460262e-02
  4.172236e+00    4.440446e-01   1.468850e-02
  4.174447e+00    4.176655e-01   1.432304e-02
  4.176657e+00    5.129719e-01   1.596003e-02
  4.178868e+00    5.004131e-01   1.585278e-02
  4.181078e+00    4.678888e-01   1.541535e-02
  4.183289e+00    4.884716e-01   1.584090e-02
  4.185499e+00    4.658916e-01   1.556163e-02
  4.187710e+00    4.971986e-01   1.617036e-02
  4.189920e+00    4.605746e-01   1.565698e-02
  4.192130e+00    4.535375e-01   1.563176e-02
  4.194341e+00    4.842173e-01   1.625098e-02
  4.196551e+00    4.531967e-01   1.582141e-02
  4.198762e+00    5.065722e-01   1.683313e-02
  4.200972e+00    4.938051e-01   1.672756e-02
  4.203183e+00    4.148831e-01   1.543368e-02
  4.205393e+00    4.971920e-01   1.700769e-02
  4.207604e+00    4.742061e-01   1.672344e-02
  4.209814e+00    5.012141e-01   1.731076e-02
  4.212025e+00    4.922360e-01   1.727670e-02
  4.214235e+00    4.921546e-01   1.739765e-02
  4.216445e+00    5.024426e-01   1.770561e-02
  4.218656e+00    5.218196e-01   1.817917e-02
  4.220866e+00    5.456279e-01   1.872698e-02
  4.223077e+00    4.732586e-01   1.757506e-02
  4.225287e+00    4.167185e-01   1.662149e-02
  4.227498e+00    4.873257e-01   1.811516e-02
  4.229708e+00    5.376643e-01   1.918296e-02
  4.231919e+00    5.070792e-01   1.878313e-02
  4.234129e+00    5.390854e-01   1.952962e-02
  4.236340e+00    4.120327e-01   1.721993e-02
  4.238550e+00    4.514391e-01   1.818356e-02
  4.240761e+00    4.460967e-01   1.823530e-02
  4.242971e+00    5.229730e-01   1.992471e-02
  4.245181e+00    5.659655e-01   2.092279e-02
  4.247392e+00    5.042124e-01   1.993258e-02
  4.249602e+00    5.562574e-01   2.114413e-02
  4.251813e+00    4.747484e-01   1.972659e-02
  4.254023e+00    4.425012e-01   1.923651e-02
  4.256234e+00    4.960929e-01   2.058560e-02
  4.258444e+00    4.701420e-01   2.024971e-02
  4.260655e+00    4.888904e-01   2.087650e-02
  4.262865e+00    5.167667e-01   2.170672e-02
  4.265076e+00    4.823501e-01   2.121030e-02
  4.267286e+00    5.138633e-01   2.215141e-02
  4.269496e+00    4.566227e-01   2.113667e-02
  4.271707e+00    4.873194e-01   2.210447e-02
  4.273917e+00    4.994832e-01   2.266858e-02
  4.276128e+00    4.799755e-01   2.251633e-02
  4.278338e+00    4.569668e-01   2.226407e-02
  4.280549e+00    3.804350e-01   2.060524e-02
  4.282759e+00    4.566984e-01   2.290073e-02
  4.284970e+00    4.490804e-01   2.304472e-02
  4.287180e+00    4.321882e-01   2.287822e-02
  4.289391e+00    4.159510e-01   2.261304e-02
  4.291601e+00    4.689768e-01   2.420311e-02
  4.293811e+00    4.376628e-01   2.356374e-02
  4.296022e+00    4.152827e-01   2.313766e-02
  4.298232e+00    5.245639e-01   2.622197e-02
  4.300443e+00    4.836073e-01   2.538545e-02
  4.302653e+00    4.938385e-01   2.587497e-02
  4.304864e+00    4.223712e-01   2.413610e-02
  4.307074e+00    5.095872e-01   2.675002e-02
  4.309285e+00    5.057763e-01   2.689231e-02
  4.311495e+00    4.857495e-01   2.660012e-02
  4.313706e+00    5.055676e-01   2.739362e-02
  4.315916e+00    4.270570e-01   2.542363e-02
  4.318126e+00    4.330732e-01   2.585639e-02
  4.320337e+00    3.930484e-01   2.488073e-02
  4.322547e+00    4.767563e-01   2.769321e-02
  4.324758e+00    5.009255e-01   2.868175e-02
  4.326968e+00    5.327275e-01   2.991111e-02
  4.329179e+00    6.296809e-01   3.287780e-02
  4.331389e+00    5.716767e-01   3.168840e-02
  4.333600e+00    5.167644e-01   3.048728e-02
  4.335810e+00    5.205864e-01   3.096398e-02
  4.338021e+00    5.093977e-01   3.102234e-02
  4.340231e+00    5.106614e-01   3.144957e-02
  4.342442e+00    5.070564e-01   3.175951e-02
  4.344652e+00    4.533081e-01   3.043711e-02
  4.346862e+00    3.662049e-01   2.773923e-02
  4.349073e+00    5.272061e-01   3.376768e-02
  4.351283e+00    4.147463e-01   3.039850e-02
  4.353494e+00    4.907985e-01   3.357684e-02
  4.355704e+00    5.480703e-01   3.605596e-02
  4.357915e+00    4.961861e-01   3.487698e-02
  4.360125e+00    4.371065e-01   3.329404e-02
  4.362336e+00    3.566672e-01   3.062259e-02
  4.364546e+00    4.446202e-01   3.481200e-02
  4.366757e+00    5.257578e-01   3.861074e-02
  4.368967e+00    3.728482e-01   3.316188e-02
  4.371177e+00    4.514392e-01   3.726703e-02
  4.373388e+00    4.480791e-01   3.795636e-02
  4.375598e+00    4.770557e-01   4.005802e-02
  4.377809e+00    5.517322e-01   4.417019e-02
  4.380019e+00    5.510560e-01   4.525386e-02
  4.382230e+00    4.374351e-01   4.144708e-02
  4.384440e+00    1.701662e-01   2.659102e-02
  4.386651e+00    3.821297e-01   4.107696e-02
  4.388861e+00    5.794034e-01   5.228142e-02
  4.391072e+00    4.196898e-01   4.605620e-02
  4.393282e+00    6.681277e-01   6.036210e-02
  4.395492e+00    5.463533e-01   5.685218e-02
  4.397703e+00    4.303843e-01   5.276537e-02
  4.399913e+00    4.582076e-01   5.719949e-02
  4.402124e+00    4.117686e-01   5.730224e-02
  4.404334e+00    3.582171e-01   5.680349e-02
  4.406545e+00    2.426575e-01   5.023533e-02
  4.408755e+00    5.155794e-01   7.941125e-02
  4.410966e+00    4.215550e-01   7.947795e-02
  4.413176e+00    2.433437e-01   6.835300e-02
  4.415387e+00   -4.877777e-01            nan
  4.417597e+00   -1.620486e+00            nan
  4.419807e+00    1.431295e-01   1.358686e-01
