# == pyFAI calibration ==
# Distance Sample to Detector: 0.216 m
# PONI: 1.166e-01, 1.308e-01 m
# Rotations: 0.000000 0.000000 0.000000 rad
# 
# == Fit2d calibration ==
# Distance Sample-beamCenter: 216.000 mm
# Center: x=1744.293, y=1555.000 pix
# Tilt: 0.000 deg  TiltPlanRot: 0.000 deg
# 
# Detector Eiger 9M	 PixelSize= 7.500e-05, 7.500e-05 m
#    Detector has a mask: True 
#    Detector has a dark current: False 
#    detector has a flat field: False 
# 
# Wavelength: 9.8e-11 m
# Mask applied: from detector
# Dark current applied: False
# Flat field applied: False
# Polarization factor: None
# Normalization factor: 1.0
# 
# Headers of the input frame:
# {
# "_array_data.header_convention": "SLS_1.0",
# "_array_data.header_contents": "# Detector: Dectris Eiger 9M, S/N E-18-0102\r\n# Pixel_size 75e-6 m x 75e-6 m\r\n# Silicon sensor, thickness 0.000450 m\r\n# Exposure_time 0.024997 s\r\n# Exposure_period 0.025000 s\r\n# Count_cutoff 62318 counts\r\n# Wavelength 0.980106 A\r\n# Detector_distance 0.215992 m\r\n# Beam_xy (1555, 1744) pixels\r\n# Start_angle 0.000000 deg.\r\n# Angle_increment 0.000000 deg.",
# "Content-Type": "application/octet-stream;",
# "conversions": "x-CBF_BYTE_OFFSET",
# "Content-Transfer-Encoding": "BINARY",
# "X-Binary-Size": "10166608",
# "X-Binary-ID": "1",
# "X-Binary-Element-Type": "signed 32-bit integer",
# "X-Binary-Element-Byte-Order": "LITTLE_ENDIAN",
# "Content-MD5": "NadcRL/I6hCahGFbHkAG9g==",
# "X-Binary-Number-of-Elements": "10166590",
# "X-Binary-Size-Fastest-Dimension": "3110",
# "X-Binary-Size-Second-Dimension": "3269",
# "X-Binary-Size-Padding": "4095"
# }
# --> H:/Proxima2a_2019-04-05/RAW_DATA/C5_gel17_position5/C5_mesh_1_data.cbf/C5_mesh_1_data.cbf000005.dat
#        q_A^-1              I           sigma 
  1.105228e-03    2.103045e+00   7.847137e-01
  3.315685e-03    1.343277e+00   3.812661e-01
  5.526141e-03    1.149157e+00   2.726853e-01
  7.736597e-03    1.332876e+00   2.480933e-01
  9.947054e-03    1.023241e+00   1.916309e-01
  1.215751e-02    1.341151e+00   1.983843e-01
  1.436797e-02    1.178261e+00   1.710396e-01
  1.657842e-02    1.317220e+00   1.683346e-01
  1.878888e-02    1.467655e+00   1.669074e-01
  2.099934e-02    1.513906e+00   1.603805e-01
  2.320979e-02    1.615202e+00   1.575601e-01
  2.542025e-02    1.476512e+00   1.439554e-01
  2.763070e-02    1.377626e+00   1.333693e-01
  2.984116e-02    1.261266e+00   1.227947e-01
  3.205162e-02    1.547161e+00   1.312363e-01
  3.426207e-02    1.498090e+00   1.248946e-01
  3.647253e-02    1.345462e+00   1.147164e-01
  3.868299e-02    1.308047e+00   1.098392e-01
  4.089344e-02    1.303364e+00   1.066384e-01
  4.310390e-02    1.392434e+00   1.073522e-01
  4.531436e-02    1.374324e+00   1.040185e-01
  4.752481e-02    1.405042e+00   1.026984e-01
  4.973527e-02    1.392312e+00   9.993558e-02
  5.194572e-02    1.192973e+00   9.051453e-02
  5.415618e-02    1.179519e+00   8.814371e-02
  5.636664e-02    1.322450e+00   9.148601e-02
  5.857709e-02    1.408707e+00   9.262430e-02
  6.078755e-02    1.318593e+00   8.796557e-02
  6.299801e-02    1.313289e+00   8.623361e-02
  6.520846e-02    1.418520e+00   8.809038e-02
  6.741892e-02    1.437886e+00   8.721918e-02
  6.962938e-02    1.463243e+00   8.658140e-02
  7.183983e-02    1.500097e+00   8.630416e-02
  7.405029e-02    1.400345e+00   8.212940e-02
  7.626074e-02    1.459414e+00   8.261894e-02
  7.847120e-02    1.481084e+00   8.204721e-02
  8.068166e-02    1.563467e+00   8.313477e-02
  8.289211e-02    1.469737e+00   7.952187e-02
  8.510257e-02    1.405257e+00   7.674097e-02
  8.731303e-02    1.434350e+00   7.654066e-02
  8.952348e-02    1.479900e+00   7.678276e-02
  9.173394e-02    1.553022e+00   7.770029e-02
  9.394439e-02    1.487231e+00   7.513436e-02
  9.615485e-02    1.421306e+00   7.259950e-02
  9.836531e-02    1.405412e+00   7.137470e-02
  1.005758e-01    1.436108e+00   7.135312e-02
  1.027862e-01    1.496904e+00   7.205843e-02
  1.049967e-01    1.465419e+00   7.054090e-02
  1.072071e-01    1.416606e+00   6.863654e-02
  1.094176e-01    1.397034e+00   6.746769e-02
  1.116280e-01    1.529219e+00   6.988347e-02
  1.138385e-01    1.503732e+00   6.862124e-02
  1.160490e-01    1.596287e+00   7.002408e-02
  1.182594e-01    1.570183e+00   6.879557e-02
  1.204699e-01    1.473653e+00   6.603260e-02
  1.226803e-01    1.493070e+00   6.586193e-02
  1.248908e-01    1.496616e+00   6.535319e-02
  1.271012e-01    1.527671e+00   6.544978e-02
  1.293117e-01    1.513594e+00   6.458750e-02
  1.315222e-01    1.538966e+00   6.457547e-02
  1.337326e-01    1.616553e+00   6.563276e-02
  1.359431e-01    1.560802e+00   6.452882e-02
  1.381535e-01    1.546226e+00   6.508893e-02
  1.403640e-01    1.591857e+00   6.632749e-02
  1.425744e-01    1.603943e+00   6.668523e-02
  1.447849e-01    1.428217e+00   6.294074e-02
  1.469953e-01    1.541888e+00   6.535658e-02
  1.492058e-01    1.515624e+00   6.472225e-02
  1.514163e-01    1.488556e+00   6.403519e-02
  1.536267e-01    1.506497e+00   6.429415e-02
  1.558372e-01    1.559947e+00   6.528034e-02
  1.580476e-01    1.517896e+00   6.423822e-02
  1.602581e-01    1.562192e+00   6.500327e-02
  1.624685e-01    1.618312e+00   6.597941e-02
  1.646790e-01    1.593463e+00   6.528291e-02
  1.668895e-01    1.627073e+00   6.577727e-02
  1.690999e-01    1.627055e+00   6.557940e-02
  1.713104e-01    1.631889e+00   6.547292e-02
  1.735208e-01    1.747146e+00   6.753493e-02
  1.757313e-01    1.753165e+00   6.743912e-02
  1.779417e-01    1.861506e+00   6.926505e-02
  1.801522e-01    1.780478e+00   6.752504e-02
  1.823626e-01    1.836513e+00   6.835103e-02
  1.845731e-01    1.909312e+00   6.946687e-02
  1.867836e-01    1.929798e+00   6.960285e-02
  1.889940e-01    1.839604e+00   6.773480e-02
  1.912045e-01    1.912166e+00   6.882713e-02
  1.934149e-01    1.909696e+00   6.855245e-02
  1.956254e-01    1.940121e+00   6.886850e-02
  1.978358e-01    1.878072e+00   6.752607e-02
  2.000463e-01    1.960129e+00   6.875685e-02
  2.022568e-01    2.006399e+00   6.933533e-02
  2.044672e-01    1.932176e+00   6.780768e-02
  2.066777e-01    1.972201e+00   6.827903e-02
  2.088881e-01    1.953842e+00   6.773812e-02
  2.110986e-01    2.022384e+00   6.867973e-02
  2.133090e-01    1.880770e+00   6.601617e-02
  2.155195e-01    1.930604e+00   6.666319e-02
  2.177300e-01    1.954841e+00   6.655335e-02
  2.199404e-01    1.880102e+00   6.354888e-02
  2.221509e-01    1.868399e+00   6.231054e-02
  2.243613e-01    1.876384e+00   6.165192e-02
  2.265718e-01    1.996399e+00   6.289209e-02
  2.287822e-01    2.044281e+00   6.301192e-02
  2.309927e-01    2.046794e+00   6.247627e-02
  2.332031e-01    2.127893e+00   6.315673e-02
  2.354136e-01    2.225662e+00   6.406787e-02
  2.376241e-01    2.141531e+00   6.235752e-02
  2.398345e-01    2.124849e+00   6.165446e-02
  2.420450e-01    2.110904e+00   6.101264e-02
  2.442554e-01    2.115689e+00   6.066093e-02
  2.464659e-01    2.106890e+00   6.012828e-02
  2.486763e-01    2.063736e+00   5.911810e-02
  2.508868e-01    2.086016e+00   5.906143e-02
  2.530973e-01    2.096321e+00   5.884007e-02
  2.553077e-01    2.136529e+00   5.904133e-02
  2.575182e-01    2.042879e+00   5.739132e-02
  2.597286e-01    2.013144e+00   5.664090e-02
  2.619391e-01    2.048860e+00   5.681218e-02
  2.641495e-01    2.038458e+00   5.635413e-02
  2.663600e-01    2.061106e+00   5.635471e-02
  2.685704e-01    2.084256e+00   5.636312e-02
  2.707809e-01    2.032689e+00   5.536606e-02
  2.729914e-01    1.998155e+00   5.460764e-02
  2.752018e-01    1.956221e+00   5.375040e-02
  2.774123e-01    1.970546e+00   5.367124e-02
  2.796227e-01    1.990050e+00   5.366942e-02
  2.818332e-01    1.958657e+00   5.297880e-02
  2.840436e-01    1.993075e+00   5.318321e-02
  2.862541e-01    1.993405e+00   5.293192e-02
  2.884646e-01    2.001374e+00   5.278593e-02
  2.906750e-01    1.946564e+00   5.181127e-02
  2.928855e-01    1.855293e+00   5.034764e-02
  2.950959e-01    1.896967e+00   5.067608e-02
  2.973064e-01    1.965212e+00   5.134779e-02
  2.995168e-01    1.949558e+00   5.091123e-02
  3.017273e-01    1.953849e+00   5.074254e-02
  3.039377e-01    1.863642e+00   4.934033e-02
  3.061482e-01    1.874903e+00   4.927510e-02
  3.083587e-01    1.814696e+00   4.826764e-02
  3.105691e-01    1.866226e+00   4.873905e-02
  3.127796e-01    1.940253e+00   4.948741e-02
  3.149900e-01    1.860840e+00   4.826215e-02
  3.172005e-01    1.892634e+00   4.847367e-02
  3.194109e-01    1.846813e+00   4.768563e-02
  3.216214e-01    1.845137e+00   4.746950e-02
  3.238319e-01    1.851997e+00   4.736925e-02
  3.260423e-01    1.791848e+00   4.640807e-02
  3.282528e-01    1.832319e+00   4.674241e-02
  3.304632e-01    1.783777e+00   4.594045e-02
  3.326737e-01    1.786660e+00   4.579816e-02
  3.348841e-01    1.846932e+00   4.638368e-02
  3.370946e-01    1.873880e+00   4.654505e-02
  3.393050e-01    1.796624e+00   4.540284e-02
  3.415155e-01    1.776983e+00   4.498419e-02
  3.437260e-01    1.769081e+00   4.471771e-02
  3.459364e-01    1.770614e+00   4.457159e-02
  3.481469e-01    1.785754e+00   4.459836e-02
  3.503573e-01    1.722708e+00   4.364444e-02
  3.525678e-01    1.751751e+00   4.385396e-02
  3.547782e-01    1.784681e+00   4.410424e-02
  3.569887e-01    1.830297e+00   4.450608e-02
  3.591992e-01    1.795594e+00   4.392615e-02
  3.614096e-01    1.844211e+00   4.436250e-02
  3.636201e-01    1.786272e+00   4.350667e-02
  3.658305e-01    1.801690e+00   4.354494e-02
  3.680410e-01    1.778473e+00   4.311471e-02
  3.702514e-01    1.745405e+00   4.256834e-02
  3.724619e-01    1.748101e+00   4.245614e-02
  3.746724e-01    1.787755e+00   4.279172e-02
  3.768828e-01    1.761701e+00   4.233583e-02
  3.790933e-01    1.705929e+00   4.152455e-02
  3.813037e-01    1.751166e+00   4.193385e-02
  3.835142e-01    1.759022e+00   4.188979e-02
  3.857246e-01    1.757086e+00   4.173123e-02
  3.879351e-01    1.748410e+00   4.149335e-02
  3.901455e-01    1.673976e+00   4.047124e-02
  3.923560e-01    1.733125e+00   4.104916e-02
  3.945665e-01    1.719062e+00   4.075264e-02
  3.967769e-01    1.727459e+00   4.072410e-02
  3.989874e-01    1.744145e+00   4.079254e-02
  4.011978e-01    1.770580e+00   4.097413e-02
  4.034083e-01    1.739898e+00   4.049286e-02
  4.056187e-01    1.713274e+00   4.005808e-02
  4.078292e-01    1.736614e+00   4.020796e-02
  4.100397e-01    1.788153e+00   4.067567e-02
  4.122501e-01    1.724288e+00   3.982320e-02
  4.144606e-01    1.696477e+00   3.938359e-02
  4.166710e-01    1.746650e+00   3.984290e-02
  4.188815e-01    1.733589e+00   3.957641e-02
  4.210919e-01    1.765992e+00   3.982750e-02
  4.233024e-01    1.758628e+00   3.962747e-02
  4.255128e-01    1.774969e+00   3.969608e-02
  4.277233e-01    1.764122e+00   3.946089e-02
  4.299338e-01    1.742205e+00   3.910218e-02
  4.321442e-01    1.720887e+00   3.875098e-02
  4.343547e-01    1.760363e+00   3.908212e-02
  4.365651e-01    1.725392e+00   3.858202e-02
  4.387756e-01    1.744324e+00   3.868451e-02
  4.409860e-01    1.690976e+00   3.798283e-02
  4.431965e-01    1.702079e+00   3.800194e-02
  4.454070e-01    1.736251e+00   3.827474e-02
  4.476174e-01    1.711287e+00   3.789426e-02
  4.498279e-01    1.712299e+00   3.780232e-02
  4.520383e-01    1.726436e+00   3.785388e-02
  4.542488e-01    1.729572e+00   3.778610e-02
  4.564592e-01    1.654691e+00   3.685994e-02
  4.586697e-01    1.684177e+00   3.708817e-02
  4.608801e-01    1.691970e+00   3.707433e-02
  4.630906e-01    1.667514e+00   3.670795e-02
  4.653011e-01    1.698547e+00   3.695052e-02
  4.675115e-01    1.731584e+00   3.720988e-02
  4.697220e-01    1.659988e+00   3.633714e-02
  4.719324e-01    1.632180e+00   3.593827e-02
  4.741429e-01    1.683352e+00   3.640325e-02
  4.763533e-01    1.625185e+00   3.567709e-02
  4.785638e-01    1.608259e+00   3.539912e-02
  4.807743e-01    1.671396e+00   3.599548e-02
  4.829847e-01    1.713471e+00   3.635370e-02
  4.851952e-01    1.670542e+00   3.580457e-02
  4.874056e-01    1.681476e+00   3.583098e-02
  4.896161e-01    1.674478e+00   3.566767e-02
  4.918265e-01    1.678378e+00   3.562050e-02
  4.940370e-01    1.655043e+00   3.528469e-02
  4.962475e-01    1.637280e+00   3.500815e-02
  4.984579e-01    1.677738e+00   3.535071e-02
  5.006684e-01    1.609180e+00   3.453650e-02
  5.028788e-01    1.644130e+00   3.482492e-02
  5.050893e-01    1.679680e+00   3.511382e-02
  5.072997e-01    1.662334e+00   3.484766e-02
  5.095102e-01    1.683053e+00   3.498020e-02
  5.117206e-01    1.641564e+00   3.446421e-02
  5.139311e-01    1.622992e+00   3.418758e-02
  5.161416e-01    1.662682e+00   3.452132e-02
  5.183520e-01    1.634656e+00   3.414780e-02
  5.205625e-01    1.623600e+00   3.395240e-02
  5.227729e-01    1.604537e+00   3.367376e-02
  5.249834e-01    1.619606e+00   3.375297e-02
  5.271938e-01    1.685673e+00   3.435417e-02
  5.294043e-01    1.666581e+00   3.408023e-02
  5.316148e-01    1.763797e+00   3.497983e-02
  5.338252e-01    1.761316e+00   3.487536e-02
  5.360357e-01    1.738950e+00   3.457431e-02
  5.382461e-01    1.770317e+00   3.480589e-02
  5.404566e-01    1.709293e+00   3.412293e-02
  5.426670e-01    1.663152e+00   3.358336e-02
  5.448775e-01    1.752860e+00   3.440015e-02
  5.470879e-01    1.736368e+00   3.416161e-02
  5.492984e-01    1.718871e+00   3.391345e-02
  5.515089e-01    1.752426e+00   3.416694e-02
  5.537193e-01    1.766164e+00   3.422502e-02
  5.559298e-01    1.737498e+00   3.387170e-02
  5.581402e-01    1.745101e+00   3.387153e-02
  5.603507e-01    1.794487e+00   3.427273e-02
  5.625611e-01    1.727468e+00   3.355368e-02
  5.647716e-01    1.716712e+00   3.337640e-02
  5.669821e-01    1.709487e+00   3.323432e-02
  5.691925e-01    1.694700e+00   3.301923e-02
  5.714030e-01    1.663855e+00   3.264761e-02
  5.736134e-01    1.669229e+00   3.263073e-02
  5.758239e-01    1.730337e+00   3.315173e-02
  5.780343e-01    1.684041e+00   3.263607e-02
  5.802448e-01    1.635249e+00   3.209247e-02
  5.824552e-01    1.640939e+00   3.208081e-02
  5.846657e-01    1.616918e+00   3.177876e-02
  5.868762e-01    1.578051e+00   3.132913e-02
  5.890866e-01    1.562471e+00   3.110941e-02
  5.912971e-01    1.582919e+00   3.124747e-02
  5.935075e-01    1.582270e+00   3.117649e-02
  5.957180e-01    1.633149e+00   3.160879e-02
  5.979284e-01    1.620823e+00   3.142503e-02
  6.001389e-01    1.618244e+00   3.133605e-02
  6.023494e-01    1.638067e+00   3.146340e-02
  6.045598e-01    1.612013e+00   3.114862e-02
  6.067703e-01    1.617056e+00   3.113458e-02
  6.089807e-01    1.670494e+00   3.158120e-02
  6.111912e-01    1.675275e+00   3.156323e-02
  6.134016e-01    1.629233e+00   3.106439e-02
  6.156121e-01    1.664480e+00   3.133619e-02
  6.178226e-01    1.679507e+00   3.141502e-02
  6.200330e-01    1.660150e+00   3.117185e-02
  6.222435e-01    1.682013e+00   3.131427e-02
  6.244539e-01    1.721176e+00   3.161469e-02
  6.266644e-01    1.710603e+00   3.145598e-02
  6.288748e-01    1.640704e+00   3.074664e-02
  6.310853e-01    1.667914e+00   3.094035e-02
  6.332957e-01    1.686051e+00   3.104806e-02
  6.355062e-01    1.691362e+00   3.103652e-02
  6.377167e-01    1.654564e+00   3.063813e-02
  6.399271e-01    1.674320e+00   3.076145e-02
  6.421376e-01    1.668291e+00   3.064739e-02
  6.443480e-01    1.700000e+00   3.087843e-02
  6.465585e-01    1.703730e+00   3.085373e-02
  6.487689e-01    1.719649e+00   3.093901e-02
  6.509794e-01    1.672223e+00   3.045185e-02
  6.531899e-01    1.643541e+00   3.013280e-02
  6.554003e-01    1.578321e+00   2.947337e-02
  6.576108e-01    1.539246e+00   2.905202e-02
  6.598212e-01    1.602374e+00   2.958670e-02
  6.620317e-01    1.569042e+00   2.922311e-02
  6.642421e-01    1.584463e+00   2.931203e-02
  6.664526e-01    1.542402e+00   2.886707e-02
  6.686630e-01    1.570138e+00   2.907160e-02
  6.708735e-01    1.577125e+00   2.908278e-02
  6.730840e-01    1.562147e+00   2.889158e-02
  6.752944e-01    1.577857e+00   2.898367e-02
  6.775049e-01    1.591643e+00   2.905718e-02
  6.797153e-01    1.583101e+00   2.892662e-02
  6.819258e-01    1.555497e+00   2.862161e-02
  6.841362e-01    1.570485e+00   2.870745e-02
  6.863467e-01    1.578121e+00   2.872561e-02
  6.885572e-01    1.605602e+00   2.892273e-02
  6.907676e-01    1.563319e+00   2.848822e-02
  6.929781e-01    1.541800e+00   2.824118e-02
  6.951885e-01    1.523531e+00   2.802363e-02
  6.973990e-01    1.543216e+00   2.815423e-02
  6.996094e-01    1.572927e+00   2.837395e-02
  7.018199e-01    1.588141e+00   2.846081e-02
  7.040303e-01    1.584335e+00   2.837676e-02
  7.062408e-01    1.564094e+00   2.814551e-02
  7.084513e-01    1.590743e+00   2.833491e-02
  7.106617e-01    1.565227e+00   2.805790e-02
  7.128722e-01    1.576369e+00   2.810887e-02
  7.150826e-01    1.580846e+00   2.810024e-02
  7.172931e-01    1.564192e+00   2.790365e-02
  7.195035e-01    1.529669e+00   2.754656e-02
  7.217140e-01    1.546795e+00   2.774934e-02
  7.239245e-01    1.513603e+00   2.767230e-02
  7.261349e-01    1.549034e+00   2.810202e-02
  7.283454e-01    1.546431e+00   2.815017e-02
  7.305558e-01    1.540532e+00   2.814983e-02
  7.327663e-01    1.534614e+00   2.813765e-02
  7.349767e-01    1.523010e+00   2.804718e-02
  7.371872e-01    1.521188e+00   2.801940e-02
  7.393976e-01    1.565357e+00   2.840904e-02
  7.416081e-01    1.542488e+00   2.818478e-02
  7.438186e-01    1.553684e+00   2.814350e-02
  7.460290e-01    1.548868e+00   2.780806e-02
  7.482395e-01    1.483113e+00   2.704525e-02
  7.504499e-01    1.493364e+00   2.700582e-02
  7.526604e-01    1.553605e+00   2.742937e-02
  7.548708e-01    1.548963e+00   2.729969e-02
  7.570813e-01    1.513459e+00   2.693504e-02
  7.592918e-01    1.482832e+00   2.662697e-02
  7.615022e-01    1.500978e+00   2.675639e-02
  7.637127e-01    1.525634e+00   2.694299e-02
  7.659231e-01    1.529556e+00   2.694607e-02
  7.681336e-01    1.547411e+00   2.707155e-02
  7.703440e-01    1.544641e+00   2.701639e-02
  7.725545e-01    1.555024e+00   2.707633e-02
  7.747650e-01    1.645991e+00   2.781801e-02
  7.769754e-01    1.579825e+00   2.720040e-02
  7.791859e-01    1.570327e+00   2.706509e-02
  7.813963e-01    1.580798e+00   2.710255e-02
  7.836068e-01    1.602220e+00   2.723328e-02
  7.858172e-01    1.623145e+00   2.735929e-02
  7.880277e-01    1.614586e+00   2.723517e-02
  7.902381e-01    1.610307e+00   2.714961e-02
  7.924486e-01    1.657491e+00   2.749350e-02
  7.946591e-01    1.625770e+00   2.718045e-02
  7.968695e-01    1.624245e+00   2.711911e-02
  7.990800e-01    1.616204e+00   2.700355e-02
  8.012904e-01    1.615806e+00   2.695350e-02
  8.035009e-01    1.646371e+00   2.715885e-02
  8.057113e-01    1.606122e+00   2.677842e-02
  8.079218e-01    1.612811e+00   2.678780e-02
  8.101323e-01    1.627494e+00   2.686381e-02
  8.123427e-01    1.615717e+00   2.672076e-02
  8.145532e-01    1.639050e+00   2.686698e-02
  8.167636e-01    1.613989e+00   2.661597e-02
  8.189741e-01    1.640062e+00   2.678535e-02
  8.211845e-01    1.621495e+00   2.658867e-02
  8.233950e-01    1.590170e+00   2.628778e-02
  8.256054e-01    1.618923e+00   2.648041e-02
  8.278159e-01    1.592018e+00   2.621612e-02
  8.300264e-01    1.578168e+00   2.605952e-02
  8.322368e-01    1.639886e+00   2.652106e-02
  8.344473e-01    1.650899e+00   2.656644e-02
  8.366577e-01    1.630923e+00   2.636275e-02
  8.388682e-01    1.616378e+00   2.620297e-02
  8.410786e-01    1.618920e+00   2.618177e-02
  8.432891e-01    1.636969e+00   2.628548e-02
  8.454996e-01    1.636053e+00   2.623656e-02
  8.477100e-01    1.604048e+00   2.593743e-02
  8.499205e-01    1.620301e+00   2.602756e-02
  8.521309e-01    1.606810e+00   2.587857e-02
  8.543414e-01    1.603987e+00   2.581547e-02
  8.565518e-01    1.606548e+00   2.579587e-02
  8.587623e-01    1.620777e+00   2.586950e-02
  8.609727e-01    1.604722e+00   2.570114e-02
  8.631832e-01    1.626046e+00   2.583145e-02
  8.653937e-01    1.620526e+00   2.574794e-02
  8.676041e-01    1.581113e+00   2.539455e-02
  8.698146e-01    1.559454e+00   2.518145e-02
  8.720250e-01    1.557990e+00   2.513126e-02
  8.742355e-01    1.582149e+00   2.528680e-02
  8.764459e-01    1.570636e+00   2.515622e-02
  8.786564e-01    1.546600e+00   2.492575e-02
  8.808669e-01    1.556859e+00   2.497039e-02
  8.830773e-01    1.549930e+00   2.487724e-02
  8.852878e-01    1.564613e+00   2.495731e-02
  8.874982e-01    1.610658e+00   2.528514e-02
  8.897087e-01    1.588637e+00   2.507419e-02
  8.919191e-01    1.552038e+00   2.474648e-02
  8.941296e-01    1.554467e+00   2.472909e-02
  8.963401e-01    1.566890e+00   2.479164e-02
  8.985505e-01    1.584944e+00   2.489731e-02
  9.007610e-01    1.556296e+00   2.463500e-02
  9.029714e-01    1.583849e+00   2.481648e-02
  9.051819e-01    1.562754e+00   2.461388e-02
  9.073923e-01    1.573668e+00   2.466339e-02
  9.096028e-01    1.569107e+00   2.459305e-02
  9.118132e-01    1.588028e+00   2.470481e-02
  9.140237e-01    1.561551e+00   2.446182e-02
  9.162342e-01    1.563860e+00   2.444572e-02
  9.184446e-01    1.562659e+00   2.440098e-02
  9.206551e-01    1.597456e+00   2.463562e-02
  9.228655e-01    1.556499e+00   2.428298e-02
  9.250760e-01    1.591645e+00   2.452036e-02
  9.272864e-01    1.579538e+00   2.439294e-02
  9.294969e-01    1.600410e+00   2.451775e-02
  9.317074e-01    1.647016e+00   2.483706e-02
  9.339178e-01    1.620360e+00   2.460162e-02
  9.361283e-01    1.578123e+00   2.424306e-02
  9.383387e-01    1.578771e+00   2.421505e-02
  9.405492e-01    1.630503e+00   2.457421e-02
  9.427596e-01    1.643606e+00   2.463727e-02
  9.449701e-01    1.630526e+00   2.450567e-02
  9.471805e-01    1.656014e+00   2.466149e-02
  9.493910e-01    1.646768e+00   2.455880e-02
  9.516015e-01    1.639923e+00   2.447349e-02
  9.538119e-01    1.624765e+00   2.432676e-02
  9.560224e-01    1.660412e+00   2.455751e-02
  9.582328e-01    1.695176e+00   2.478000e-02
  9.604433e-01    1.706516e+00   2.482752e-02
  9.626537e-01    1.760542e+00   2.518357e-02
  9.648642e-01    1.758632e+00   2.513543e-02
  9.670747e-01    1.761611e+00   2.512202e-02
  9.692851e-01    1.730930e+00   2.486919e-02
  9.714956e-01    1.783790e+00   2.521045e-02
  9.737060e-01    1.795830e+00   2.526219e-02
  9.759165e-01    1.790484e+00   2.518898e-02
  9.781269e-01    1.809336e+00   2.528811e-02
  9.803374e-01    1.778270e+00   2.503541e-02
  9.825478e-01    1.771156e+00   2.495233e-02
  9.847583e-01    1.775514e+00   2.494908e-02
  9.869688e-01    1.751364e+00   2.474566e-02
  9.891792e-01    1.725661e+00   2.453075e-02
  9.913897e-01    1.757411e+00   2.472198e-02
  9.936001e-01    1.771697e+00   2.478977e-02
  9.958106e-01    1.718570e+00   2.438210e-02
  9.980210e-01    1.681571e+00   2.408687e-02
  1.000231e+00    1.714175e+00   2.445247e-02
  1.002442e+00    1.784577e+00   2.508217e-02
  1.004652e+00    1.662168e+00   2.427420e-02
  1.006863e+00    1.600548e+00   2.386941e-02
  1.009073e+00    1.597463e+00   2.388288e-02
  1.011284e+00    1.616765e+00   2.405887e-02
  1.013494e+00    1.568123e+00   2.371769e-02
  1.015705e+00    1.549752e+00   2.360063e-02
  1.017915e+00    1.535767e+00   2.351009e-02
  1.020126e+00    1.504773e+00   2.328737e-02
  1.022336e+00    1.505382e+00   2.330357e-02
  1.024547e+00    1.496524e+00   2.324591e-02
  1.026757e+00    1.496883e+00   2.325695e-02
  1.028967e+00    1.449885e+00   2.289637e-02
  1.031178e+00    1.466168e+00   2.303059e-02
  1.033388e+00    1.483324e+00   2.316993e-02
  1.035599e+00    1.474523e+00   2.310446e-02
  1.037809e+00    1.443884e+00   2.286632e-02
  1.040020e+00    1.452196e+00   2.293327e-02
  1.042230e+00    1.478868e+00   2.314484e-02
  1.044441e+00    1.473496e+00   2.310255e-02
  1.046651e+00    1.441787e+00   2.285279e-02
  1.048862e+00    1.485561e+00   2.319632e-02
  1.051072e+00    1.451862e+00   2.292942e-02
  1.053282e+00    1.414777e+00   2.263374e-02
  1.055493e+00    1.449451e+00   2.290517e-02
  1.057703e+00    1.449567e+00   2.290460e-02
  1.059914e+00    1.428569e+00   2.273394e-02
  1.062124e+00    1.414256e+00   2.261581e-02
  1.064335e+00    1.422696e+00   2.267983e-02
  1.066545e+00    1.426051e+00   2.270066e-02
  1.068756e+00    1.427308e+00   2.270701e-02
  1.070966e+00    1.419456e+00   2.263805e-02
  1.073177e+00    1.396752e+00   2.245038e-02
  1.075387e+00    1.405219e+00   2.251320e-02
  1.077597e+00    1.439760e+00   2.278103e-02
  1.079808e+00    1.428403e+00   2.255991e-02
  1.082018e+00    1.400059e+00   2.214999e-02
  1.084229e+00    1.415970e+00   2.216713e-02
  1.086439e+00    1.405486e+00   2.199899e-02
  1.088650e+00    1.407357e+00   2.193920e-02
  1.090860e+00    1.400292e+00   2.181769e-02
  1.093071e+00    1.425170e+00   2.194902e-02
  1.095281e+00    1.414835e+00   2.181266e-02
  1.097492e+00    1.409258e+00   2.171540e-02
  1.099702e+00    1.383086e+00   2.146246e-02
  1.101912e+00    1.362512e+00   2.125469e-02
  1.104123e+00    1.386277e+00   2.139187e-02
  1.106333e+00    1.386462e+00   2.134962e-02
  1.108544e+00    1.368260e+00   2.116571e-02
  1.110754e+00    1.400469e+00   2.137074e-02
  1.112965e+00    1.422731e+00   2.149940e-02
  1.115175e+00    1.405927e+00   2.133108e-02
  1.117386e+00    1.371572e+00   2.103020e-02
  1.119596e+00    1.366467e+00   2.095377e-02
  1.121807e+00    1.376530e+00   2.099240e-02
  1.124017e+00    1.395126e+00   2.109725e-02
  1.126228e+00    1.386550e+00   2.099678e-02
  1.128438e+00    1.366622e+00   2.080905e-02
  1.130648e+00    1.346413e+00   2.062094e-02
  1.132859e+00    1.353947e+00   2.064472e-02
  1.135069e+00    1.350281e+00   2.058256e-02
  1.137280e+00    1.358746e+00   2.061434e-02
  1.139490e+00    1.365869e+00   2.063550e-02
  1.141701e+00    1.343032e+00   2.042965e-02
  1.143911e+00    1.338108e+00   2.036084e-02
  1.146122e+00    1.343099e+00   2.036718e-02
  1.148332e+00    1.355101e+00   2.042640e-02
  1.150543e+00    1.334535e+00   2.024045e-02
  1.152753e+00    1.333873e+00   2.020507e-02
  1.154963e+00    1.324866e+00   2.010626e-02
  1.157174e+00    1.309900e+00   1.996291e-02
  1.159384e+00    1.313638e+00   1.996216e-02
  1.161595e+00    1.339786e+00   2.013034e-02
  1.163805e+00    1.350570e+00   2.018213e-02
  1.166016e+00    1.326187e+00   1.997015e-02
  1.168226e+00    1.308826e+00   1.981067e-02
  1.170437e+00    1.320452e+00   1.987029e-02
  1.172647e+00    1.318504e+00   1.982726e-02
  1.174858e+00    1.314376e+00   1.976861e-02
  1.177068e+00    1.319093e+00   1.977625e-02
  1.179278e+00    1.332552e+00   1.984862e-02
  1.181489e+00    1.348037e+00   1.993671e-02
  1.183699e+00    1.351106e+00   1.993192e-02
  1.185910e+00    1.325770e+00   1.971670e-02
  1.188120e+00    1.337801e+00   1.977944e-02
  1.190331e+00    1.338618e+00   1.975891e-02
  1.192541e+00    1.341653e+00   1.975404e-02
  1.194752e+00    1.313341e+00   1.951785e-02
  1.196962e+00    1.332466e+00   1.963388e-02
  1.199173e+00    1.332195e+00   1.960557e-02
  1.201383e+00    1.330355e+00   1.956504e-02
  1.203593e+00    1.337022e+00   1.958934e-02
  1.205804e+00    1.316499e+00   1.941280e-02
  1.208014e+00    1.328392e+00   1.947365e-02
  1.210225e+00    1.332138e+00   1.947594e-02
  1.212435e+00    1.329920e+00   1.943512e-02
  1.214646e+00    1.320953e+00   1.934365e-02
  1.216856e+00    1.325375e+00   1.935076e-02
  1.219067e+00    1.314929e+00   1.925022e-02
  1.221277e+00    1.313794e+00   1.921720e-02
  1.223488e+00    1.325778e+00   1.927914e-02
  1.225698e+00    1.341824e+00   1.936864e-02
  1.227909e+00    1.342512e+00   1.934351e-02
  1.230119e+00    1.355697e+00   1.940635e-02
  1.232329e+00    1.349251e+00   1.932946e-02
  1.234540e+00    1.345778e+00   1.927431e-02
  1.236750e+00    1.341456e+00   1.921317e-02
  1.238961e+00    1.356047e+00   1.929035e-02
  1.241171e+00    1.371411e+00   1.937494e-02
  1.243382e+00    1.374780e+00   1.937501e-02
  1.245592e+00    1.393158e+00   1.947959e-02
  1.247803e+00    1.363814e+00   1.924961e-02
  1.250013e+00    1.325757e+00   1.895577e-02
  1.252224e+00    1.340707e+00   1.903917e-02
  1.254434e+00    1.371116e+00   1.922996e-02
  1.256644e+00    1.414502e+00   1.950806e-02
  1.258855e+00    1.394402e+00   1.934536e-02
  1.261065e+00    1.351226e+00   1.902010e-02
  1.263276e+00    1.361725e+00   1.907079e-02
  1.265486e+00    1.398328e+00   1.930213e-02
  1.267697e+00    1.389958e+00   1.922092e-02
  1.269907e+00    1.397910e+00   1.925273e-02
  1.272118e+00    1.363627e+00   1.899251e-02
  1.274328e+00    1.371529e+00   1.902452e-02
  1.276539e+00    1.397883e+00   1.918325e-02
  1.278749e+00    1.389346e+00   1.910195e-02
  1.280959e+00    1.491137e+00   1.976564e-02
  1.283170e+00    1.637077e+00   2.068562e-02
  1.285380e+00    1.534468e+00   2.000304e-02
  1.287591e+00    1.400678e+00   1.908861e-02
  1.289801e+00    1.369455e+00   1.885330e-02
  1.292012e+00    1.337188e+00   1.861282e-02
  1.294222e+00    1.368217e+00   1.881118e-02
  1.296433e+00    1.386152e+00   1.891828e-02
  1.298643e+00    1.359656e+00   1.872007e-02
  1.300854e+00    1.349334e+00   1.863246e-02
  1.303064e+00    1.345025e+00   1.858350e-02
  1.305274e+00    1.344697e+00   1.855984e-02
  1.307485e+00    1.354878e+00   1.860837e-02
  1.309695e+00    1.366887e+00   1.866829e-02
  1.311906e+00    1.375404e+00   1.870445e-02
  1.314116e+00    1.352145e+00   1.852482e-02
  1.316327e+00    1.372575e+00   1.864236e-02
  1.318537e+00    1.370350e+00   1.860520e-02
  1.320748e+00    1.388976e+00   1.870935e-02
  1.322958e+00    1.406603e+00   1.880674e-02
  1.325169e+00    1.418121e+00   1.886206e-02
  1.327379e+00    1.396047e+00   1.869250e-02
  1.329589e+00    1.374745e+00   1.852809e-02
  1.331800e+00    1.373865e+00   1.850127e-02
  1.334010e+00    1.383467e+00   1.854489e-02
  1.336221e+00    1.377232e+00   1.848109e-02
  1.338431e+00    1.378393e+00   1.846780e-02
  1.340642e+00    1.336769e+00   1.825067e-02
  1.342852e+00    1.323603e+00   1.826025e-02
  1.345063e+00    1.345254e+00   1.845838e-02
  1.347273e+00    1.351172e+00   1.853421e-02
  1.349484e+00    1.340380e+00   1.848762e-02
  1.351694e+00    1.339014e+00   1.850081e-02
  1.353905e+00    1.351827e+00   1.860712e-02
  1.356115e+00    1.357530e+00   1.866141e-02
  1.358325e+00    1.349385e+00   1.861867e-02
  1.360536e+00    1.374003e+00   1.879944e-02
  1.362746e+00    1.385767e+00   1.888947e-02
  1.364957e+00    1.360761e+00   1.872596e-02
  1.367167e+00    1.359516e+00   1.872457e-02
  1.369378e+00    1.370986e+00   1.880946e-02
  1.371588e+00    1.360407e+00   1.874194e-02
  1.373799e+00    1.367598e+00   1.879509e-02
  1.376009e+00    1.358237e+00   1.873411e-02
  1.378220e+00    1.325040e+00   1.850623e-02
  1.380430e+00    1.367430e+00   1.880266e-02
  1.382640e+00    1.461731e+00   1.944112e-02
  1.384851e+00    1.515112e+00   1.979390e-02
  1.387061e+00    1.469782e+00   1.949589e-02
  1.389272e+00    1.399911e+00   1.902705e-02
  1.391482e+00    1.341577e+00   1.862572e-02
  1.393693e+00    1.337322e+00   1.859526e-02
  1.395903e+00    1.337015e+00   1.859159e-02
  1.398114e+00    1.306679e+00   1.837810e-02
  1.400324e+00    1.292974e+00   1.827930e-02
  1.402535e+00    1.285683e+00   1.822538e-02
  1.404745e+00    1.255056e+00   1.800465e-02
  1.406955e+00    1.255264e+00   1.800345e-02
  1.409166e+00    1.263589e+00   1.805977e-02
  1.411376e+00    1.262392e+00   1.804809e-02
  1.413587e+00    1.250681e+00   1.796041e-02
  1.415797e+00    1.232236e+00   1.782400e-02
  1.418008e+00    1.255656e+00   1.795093e-02
  1.420218e+00    1.239451e+00   1.768683e-02
  1.422429e+00    1.241485e+00   1.761696e-02
  1.424639e+00    1.254638e+00   1.764574e-02
  1.426850e+00    1.273394e+00   1.772239e-02
  1.429060e+00    1.256035e+00   1.755246e-02
  1.431270e+00    1.271194e+00   1.761371e-02
  1.433481e+00    1.274091e+00   1.759277e-02
  1.435691e+00    1.276359e+00   1.756988e-02
  1.437902e+00    1.306865e+00   1.774163e-02
  1.440112e+00    1.281894e+00   1.753580e-02
  1.442323e+00    1.278098e+00   1.747668e-02
  1.444533e+00    1.266965e+00   1.736788e-02
  1.446744e+00    1.243050e+00   1.717238e-02
  1.448954e+00    1.262494e+00   1.727607e-02
  1.451165e+00    1.274982e+00   1.733147e-02
  1.453375e+00    1.281208e+00   1.734559e-02
  1.455586e+00    1.262335e+00   1.718926e-02
  1.457796e+00    1.269110e+00   1.720784e-02
  1.460006e+00    1.250526e+00   1.705433e-02
  1.462217e+00    1.262881e+00   1.711222e-02
  1.464427e+00    1.263258e+00   1.708924e-02
  1.466638e+00    1.267107e+00   1.708995e-02
  1.468848e+00    1.269371e+00   1.707988e-02
  1.471059e+00    1.255968e+00   1.696451e-02
  1.473269e+00    1.236272e+00   1.680690e-02
  1.475480e+00    1.273098e+00   1.703158e-02
  1.477690e+00    1.264689e+00   1.695144e-02
  1.479901e+00    1.258055e+00   1.688319e-02
  1.482111e+00    1.247810e+00   1.679114e-02
  1.484321e+00    1.254851e+00   1.681546e-02
  1.486532e+00    1.226185e+00   1.660031e-02
  1.488742e+00    1.228176e+00   1.659144e-02
  1.490953e+00    1.228862e+00   1.657381e-02
  1.493163e+00    1.237197e+00   1.660785e-02
  1.495374e+00    1.251663e+00   1.668327e-02
  1.497584e+00    1.255556e+00   1.668761e-02
  1.499795e+00    1.256077e+00   1.666947e-02
  1.502005e+00    1.224408e+00   1.643660e-02
  1.504216e+00    1.226897e+00   1.643252e-02
  1.506426e+00    1.229337e+00   1.642829e-02
  1.508636e+00    1.210708e+00   1.628328e-02
  1.510847e+00    1.236570e+00   1.643461e-02
  1.513057e+00    1.244317e+00   1.646106e-02
  1.515268e+00    1.233059e+00   1.636093e-02
  1.517478e+00    1.231972e+00   1.632878e-02
  1.519689e+00    1.239010e+00   1.635056e-02
  1.521899e+00    1.243511e+00   1.635720e-02
  1.524110e+00    1.285229e+00   1.660872e-02
  1.526320e+00    1.287769e+00   1.660528e-02
  1.528531e+00    1.231325e+00   1.621768e-02
  1.530741e+00    1.243702e+00   1.627988e-02
  1.532951e+00    1.217036e+00   1.608510e-02
  1.535162e+00    1.205815e+00   1.609583e-02
  1.537372e+00    1.215492e+00   1.622628e-02
  1.539583e+00    1.222988e+00   1.631013e-02
  1.541793e+00    1.224785e+00   1.632898e-02
  1.544004e+00    1.213502e+00   1.625386e-02
  1.546214e+00    1.214906e+00   1.626178e-02
  1.548425e+00    1.211038e+00   1.623611e-02
  1.550635e+00    1.197626e+00   1.615546e-02
  1.552846e+00    1.210429e+00   1.625110e-02
  1.555056e+00    1.208581e+00   1.619782e-02
  1.557266e+00    1.205612e+00   1.606920e-02
  1.559477e+00    1.183629e+00   1.586436e-02
  1.561687e+00    1.210523e+00   1.601333e-02
  1.563898e+00    1.215936e+00   1.603214e-02
  1.566108e+00    1.245986e+00   1.621306e-02
  1.568319e+00    1.241276e+00   1.616679e-02
  1.570529e+00    1.241108e+00   1.614061e-02
  1.572740e+00    1.248586e+00   1.616148e-02
  1.574950e+00    1.254106e+00   1.617076e-02
  1.577161e+00    1.230735e+00   1.599406e-02
  1.579371e+00    1.256883e+00   1.613924e-02
  1.581582e+00    1.289419e+00   1.632671e-02
  1.583792e+00    1.270085e+00   1.618564e-02
  1.586002e+00    1.230212e+00   1.591205e-02
  1.588213e+00    1.206243e+00   1.573926e-02
  1.590423e+00    1.226264e+00   1.584944e-02
  1.592634e+00    1.212749e+00   1.574049e-02
  1.594844e+00    1.224228e+00   1.579357e-02
  1.597055e+00    1.244277e+00   1.590186e-02
  1.599265e+00    1.261650e+00   1.599161e-02
  1.601476e+00    1.252207e+00   1.591126e-02
  1.603686e+00    1.245054e+00   1.584594e-02
  1.605897e+00    1.262557e+00   1.593657e-02
  1.608107e+00    1.273600e+00   1.598629e-02
  1.610317e+00    1.323516e+00   1.627655e-02
  1.612528e+00    1.380403e+00   1.660241e-02
  1.614738e+00    1.413847e+00   1.678204e-02
  1.616949e+00    1.376781e+00   1.654050e-02
  1.619159e+00    1.280376e+00   1.593174e-02
  1.621370e+00    1.246171e+00   1.569882e-02
  1.623580e+00    1.215994e+00   1.548922e-02
  1.625791e+00    1.194849e+00   1.533581e-02
  1.628001e+00    1.182002e+00   1.523503e-02
  1.630212e+00    1.165510e+00   1.511083e-02
  1.632422e+00    1.142263e+00   1.494180e-02
  1.634632e+00    1.152187e+00   1.498948e-02
  1.636843e+00    1.164856e+00   1.505422e-02
  1.639053e+00    1.138582e+00   1.486646e-02
  1.641264e+00    1.134743e+00   1.482452e-02
  1.643474e+00    1.137484e+00   1.482521e-02
  1.645685e+00    1.137727e+00   1.481029e-02
  1.647895e+00    1.110359e+00   1.461481e-02
  1.650106e+00    1.098444e+00   1.451958e-02
  1.652316e+00    1.099520e+00   1.451053e-02
  1.654527e+00    1.120952e+00   1.463477e-02
  1.656737e+00    1.125631e+00   1.464880e-02
  1.658947e+00    1.130700e+00   1.466548e-02
  1.661158e+00    1.116177e+00   1.455481e-02
  1.663368e+00    1.108217e+00   1.448688e-02
  1.665579e+00    1.092210e+00   1.436595e-02
  1.667789e+00    1.095082e+00   1.436872e-02
  1.670000e+00    1.095211e+00   1.435421e-02
  1.672210e+00    1.082084e+00   1.425224e-02
  1.674421e+00    1.071605e+00   1.416798e-02
  1.676631e+00    1.053885e+00   1.403483e-02
  1.678842e+00    1.060922e+00   1.406609e-02
  1.681052e+00    1.062545e+00   1.406169e-02
  1.683263e+00    1.065895e+00   1.406887e-02
  1.685473e+00    1.078445e+00   1.413635e-02
  1.687683e+00    1.062384e+00   1.401542e-02
  1.689894e+00    1.054265e+00   1.394619e-02
  1.692104e+00    1.047357e+00   1.388570e-02
  1.694315e+00    1.047826e+00   1.387447e-02
  1.696525e+00    1.066935e+00   1.398527e-02
  1.698736e+00    1.093749e+00   1.414490e-02
  1.700946e+00    1.057722e+00   1.389489e-02
  1.703157e+00    1.046995e+00   1.380968e-02
  1.705367e+00    1.034687e+00   1.371389e-02
  1.707578e+00    1.025810e+00   1.364052e-02
  1.709788e+00    1.043134e+00   1.374112e-02
  1.711998e+00    1.014615e+00   1.353718e-02
  1.714209e+00    9.924712e-01   1.337453e-02
  1.716419e+00    1.023023e+00   1.356461e-02
  1.718630e+00    1.190527e+00   1.461765e-02
  1.720840e+00    1.260558e+00   1.502586e-02
  1.723051e+00    1.052882e+00   1.371840e-02
  1.725261e+00    9.828349e-01   1.323977e-02
  1.727472e+00    9.671024e-01   1.311956e-02
  1.729682e+00    9.686605e-01   1.311696e-02
  1.731893e+00    9.815652e-01   1.319035e-02
  1.734103e+00    9.591734e-01   1.302561e-02
  1.736313e+00    9.583073e-01   1.300602e-02
  1.738524e+00    9.698464e-01   1.307050e-02
  1.740734e+00    9.578062e-01   1.297570e-02
  1.742945e+00    9.501904e-01   1.291087e-02
  1.745155e+00    9.574521e-01   1.294690e-02
  1.747366e+00    9.519431e-01   1.289606e-02
  1.749576e+00    9.472488e-01   1.285081e-02
  1.751787e+00    9.431725e-01   1.281008e-02
  1.753997e+00    9.201800e-01   1.263999e-02
  1.756208e+00    9.375883e-01   1.274604e-02
  1.758418e+00    9.122499e-01   1.255995e-02
  1.760628e+00    9.210837e-01   1.260757e-02
  1.762839e+00    9.080927e-01   1.250555e-02
  1.765049e+00    9.107206e-01   1.251084e-02
  1.767260e+00    9.069048e-01   1.247218e-02
  1.769470e+00    9.132174e-01   1.250279e-02
  1.771681e+00    9.105825e-01   1.247191e-02
  1.773891e+00    9.157681e-01   1.249454e-02
  1.776102e+00    9.171165e-01   1.249109e-02
  1.778312e+00    9.254464e-01   1.253507e-02
  1.780523e+00    9.007134e-01   1.235400e-02
  1.782733e+00    8.943117e-01   1.229763e-02
  1.784944e+00    8.825213e-01   1.220378e-02
  1.787154e+00    8.961371e-01   1.228527e-02
  1.789364e+00    8.980346e-01   1.228602e-02
  1.791575e+00    8.911338e-01   1.222643e-02
  1.793785e+00    8.774835e-01   1.212033e-02
  1.795996e+00    8.786647e-01   1.211625e-02
  1.798206e+00    8.957419e-01   1.222107e-02
  1.800417e+00    8.918700e-01   1.218212e-02
  1.802627e+00    8.730489e-01   1.204125e-02
  1.804838e+00    8.663749e-01   1.198331e-02
  1.807048e+00    8.757453e-01   1.203534e-02
  1.809259e+00    9.030179e-01   1.220772e-02
  1.811469e+00    9.222594e-01   1.232201e-02
  1.813679e+00    8.841885e-01   1.205019e-02
  1.815890e+00    8.719593e-01   1.195201e-02
  1.818100e+00    8.521204e-01   1.180055e-02
  1.820311e+00    8.740817e-01   1.193701e-02
  1.822521e+00    8.673028e-01   1.187602e-02
  1.824732e+00    8.434154e-01   1.169689e-02
  1.826942e+00    8.534691e-01   1.175432e-02
  1.829153e+00    8.331980e-01   1.160252e-02
  1.831363e+00    8.419292e-01   1.165143e-02
  1.833574e+00    8.486917e-01   1.168665e-02
  1.835784e+00    8.459976e-01   1.165690e-02
  1.837994e+00    8.612279e-01   1.174973e-02
  1.840205e+00    8.889201e-01   1.192589e-02
  1.842415e+00    8.832794e-01   1.187616e-02
  1.844626e+00    8.587118e-01   1.169835e-02
  1.846836e+00    8.545316e-01   1.165851e-02
  1.849047e+00    8.496141e-01   1.161341e-02
  1.851257e+00    8.489739e-01   1.159954e-02
  1.853468e+00    8.230078e-01   1.141220e-02
  1.855678e+00    8.233200e-01   1.140563e-02
  1.857889e+00    8.565340e-01   1.162495e-02
  1.860099e+00    8.228803e-01   1.138584e-02
  1.862309e+00    8.265051e-01   1.140252e-02
  1.864520e+00    8.250180e-01   1.138383e-02
  1.866730e+00    8.503353e-01   1.154782e-02
  1.868941e+00    8.451849e-01   1.150193e-02
  1.871151e+00    8.111194e-01   1.125660e-02
  1.873362e+00    8.392190e-01   1.143866e-02
  1.875572e+00    8.204834e-01   1.129952e-02
  1.877783e+00    7.954752e-01   1.111491e-02
  1.879993e+00    8.110555e-01   1.121228e-02
  1.882204e+00    8.345701e-01   1.136285e-02
  1.884414e+00    8.162385e-01   1.122648e-02
  1.886624e+00    8.154649e-01   1.121027e-02
  1.888835e+00    8.024727e-01   1.110990e-02
  1.891045e+00    8.157196e-01   1.119048e-02
  1.893256e+00    8.147668e-01   1.117303e-02
  1.895466e+00    8.144335e-01   1.115971e-02
  1.897677e+00    8.311958e-01   1.126308e-02
  1.899887e+00    8.369198e-01   1.129080e-02
  1.902098e+00    8.363515e-01   1.127609e-02
  1.904308e+00    8.266373e-01   1.119986e-02
  1.906519e+00    8.240590e-01   1.117158e-02
  1.908729e+00    8.341839e-01   1.122936e-02
  1.910940e+00    8.250916e-01   1.115689e-02
  1.913150e+00    8.102466e-01   1.104558e-02
  1.915360e+00    8.184368e-01   1.109067e-02
  1.917571e+00    8.080952e-01   1.100962e-02
  1.919781e+00    7.941225e-01   1.090351e-02
  1.921992e+00    7.741303e-01   1.075507e-02
  1.924202e+00    7.908103e-01   1.085971e-02
  1.926413e+00    8.007692e-01   1.091769e-02
  1.928623e+00    7.977363e-01   1.088657e-02
  1.930834e+00    7.859054e-01   1.079528e-02
  1.933044e+00    8.019601e-01   1.089438e-02
  1.935255e+00    7.938368e-01   1.082885e-02
  1.937465e+00    7.868937e-01   1.077112e-02
  1.939675e+00    7.786452e-01   1.070388e-02
  1.941886e+00    7.738572e-01   1.066081e-02
  1.944096e+00    8.045837e-01   1.086021e-02
  1.946307e+00    8.066778e-01   1.086398e-02
  1.948517e+00    7.911336e-01   1.074841e-02
  1.950728e+00    7.818106e-01   1.067476e-02
  1.952938e+00    7.826042e-01   1.067018e-02
  1.955149e+00    7.719933e-01   1.058752e-02
  1.957359e+00    7.869747e-01   1.067976e-02
  1.959570e+00    7.800368e-01   1.062184e-02
  1.961780e+00    7.574320e-01   1.045709e-02
  1.963990e+00    7.782810e-01   1.059000e-02
  1.966201e+00    7.734850e-01   1.054738e-02
  1.968411e+00    8.156072e-01   1.082041e-02
  1.970622e+00    8.570613e-01   1.108150e-02
  1.972832e+00    7.977362e-01   1.068108e-02
  1.975043e+00    7.891508e-01   1.061334e-02
  1.977253e+00    8.080868e-01   1.072985e-02
  1.979464e+00    7.885125e-01   1.058903e-02
  1.981674e+00    7.841119e-01   1.054917e-02
  1.983885e+00    7.793288e-01   1.050694e-02
  1.986095e+00    7.730164e-01   1.045464e-02
  1.988305e+00    7.646829e-01   1.038835e-02
  1.990516e+00    7.625920e-01   1.036429e-02
  1.992726e+00    7.857385e-01   1.051070e-02
  1.994937e+00    7.894613e-01   1.052537e-02
  1.997147e+00    7.867675e-01   1.049759e-02
  1.999358e+00    7.779682e-01   1.042886e-02
  2.001568e+00    7.694030e-01   1.036050e-02
  2.003779e+00    7.583432e-01   1.027397e-02
  2.005989e+00    7.562557e-01   1.024790e-02
  2.008200e+00    7.643689e-01   1.029125e-02
  2.010410e+00    7.638326e-01   1.027593e-02
  2.012621e+00    7.692809e-01   1.030081e-02
  2.014831e+00    7.432168e-01   1.011351e-02
  2.017041e+00    7.634882e-01   1.024015e-02
  2.019252e+00    7.622560e-01   1.022194e-02
  2.021462e+00    7.518445e-01   1.014248e-02
  2.023673e+00    7.403185e-01   1.005519e-02
  2.025883e+00    7.299054e-01   9.974913e-03
  2.028094e+00    7.414086e-01   1.004368e-02
  2.030304e+00    7.642170e-01   1.018746e-02
  2.032515e+00    7.481159e-01   1.007037e-02
  2.034725e+00    7.551249e-01   1.010800e-02
  2.036936e+00    7.487153e-01   1.005573e-02
  2.039146e+00    7.382181e-01   9.975545e-03
  2.041356e+00    7.418875e-01   9.990746e-03
  2.043567e+00    7.486944e-01   1.002721e-02
  2.045777e+00    7.590782e-01   1.008724e-02
  2.047988e+00    7.403996e-01   9.953086e-03
  2.050198e+00    7.395303e-01   9.938885e-03
  2.052409e+00    7.294948e-01   9.863680e-03
  2.054619e+00    7.303488e-01   9.862184e-03
  2.056830e+00    7.246544e-01   9.816623e-03
  2.059040e+00    7.142596e-01   9.738620e-03
  2.061251e+00    7.301185e-01   9.838991e-03
  2.063461e+00    7.289516e-01   9.823639e-03
  2.065671e+00    7.282750e-01   9.810472e-03
  2.067882e+00    7.447664e-01   9.911951e-03
  2.070092e+00    7.449124e-01   9.903747e-03
  2.072303e+00    7.456303e-01   9.899388e-03
  2.074513e+00    7.198157e-01   9.717355e-03
  2.076724e+00    7.263865e-01   9.752248e-03
  2.078934e+00    7.361806e-01   9.808815e-03
  2.081145e+00    7.295578e-01   9.755606e-03
  2.083355e+00    7.287122e-01   9.740845e-03
  2.085566e+00    7.297324e-01   9.738821e-03
  2.087776e+00    7.388504e-01   9.789986e-03
  2.089986e+00    7.268750e-01   9.701605e-03
  2.092197e+00    7.263070e-01   9.688915e-03
  2.094407e+00    7.257326e-01   9.675933e-03
  2.096618e+00    7.174553e-01   9.611799e-03
  2.098828e+00    7.112162e-01   9.560755e-03
  2.101039e+00    7.126408e-01   9.561475e-03
  2.103249e+00    6.978450e-01   9.453223e-03
  2.105460e+00    6.995313e-01   9.455815e-03
  2.107670e+00    7.050415e-01   9.484387e-03
  2.109881e+00    7.071369e-01   9.489431e-03
  2.112091e+00    7.106854e-01   9.504324e-03
  2.114301e+00    7.002557e-01   9.425697e-03
  2.116512e+00    7.088480e-01   9.474631e-03
  2.118722e+00    7.094318e-01   9.469797e-03
  2.120933e+00    7.036190e-01   9.422155e-03
  2.123143e+00    7.003069e-01   9.391171e-03
  2.125354e+00    6.941334e-01   9.341284e-03
  2.127564e+00    6.766426e-01   9.214369e-03
  2.129775e+00    6.939952e-01   9.323162e-03
  2.131985e+00    7.004651e-01   9.357569e-03
  2.134196e+00    6.818303e-01   9.223858e-03
  2.136406e+00    6.882618e-01   9.258656e-03
  2.138617e+00    6.923643e-01   9.277862e-03
  2.140827e+00    6.838692e-01   9.236553e-03
  2.143037e+00    6.748059e-01   9.219559e-03
  2.145248e+00    6.952422e-01   9.379943e-03
  2.147458e+00    7.059003e-01   9.466751e-03
  2.149669e+00    6.811420e-01   9.310921e-03
  2.151879e+00    6.915643e-01   9.391016e-03
  2.154090e+00    6.962026e-01   9.429759e-03
  2.156300e+00    6.992986e-01   9.457281e-03
  2.158511e+00    7.048720e-01   9.500246e-03
  2.160721e+00    6.848640e-01   9.369199e-03
  2.162932e+00    6.830897e-01   9.360762e-03
  2.165142e+00    6.757317e-01   9.313183e-03
  2.167352e+00    6.587856e-01   9.198488e-03
  2.169563e+00    6.877323e-01   9.400338e-03
  2.171773e+00    6.924725e-01   9.435138e-03
  2.173984e+00    6.733704e-01   9.305491e-03
  2.176194e+00    6.729528e-01   9.303779e-03
  2.178405e+00    6.844959e-01   9.383920e-03
  2.180615e+00    6.695468e-01   9.281565e-03
  2.182826e+00    6.538227e-01   9.172593e-03
  2.185036e+00    6.710761e-01   9.292860e-03
  2.187247e+00    7.057806e-01   9.530066e-03
  2.189457e+00    7.042018e-01   9.519010e-03
  2.191667e+00    7.128399e-01   9.577033e-03
  2.193878e+00    6.935748e-01   9.446174e-03
  2.196088e+00    6.666167e-01   9.260096e-03
  2.198299e+00    6.756517e-01   9.321546e-03
  2.200509e+00    6.831840e-01   9.372298e-03
  2.202720e+00    6.873416e-01   9.399632e-03
  2.204930e+00    6.637825e-01   9.235925e-03
  2.207141e+00    6.699219e-01   9.277396e-03
  2.209351e+00    7.008450e-01   9.487206e-03
  2.211562e+00    6.945666e-01   9.442977e-03
  2.213772e+00    6.975117e-01   9.406664e-03
  2.215982e+00    6.736129e-01   9.199979e-03
  2.218193e+00    6.697674e-01   9.144164e-03
  2.220403e+00    6.764948e-01   9.165354e-03
  2.222614e+00    6.815416e-01   9.178427e-03
  2.224824e+00    6.553634e-01   8.981297e-03
  2.227035e+00    6.525202e-01   8.944611e-03
  2.229245e+00    6.684365e-01   9.036118e-03
  2.231456e+00    6.702355e-01   9.032656e-03
  2.233666e+00    6.778693e-01   9.068793e-03
  2.235877e+00    6.627125e-01   8.952656e-03
  2.238087e+00    6.542442e-01   8.881943e-03
  2.240298e+00    6.599417e-01   8.906854e-03
  2.242508e+00    6.694416e-01   8.955601e-03
  2.244718e+00    6.569416e-01   8.855935e-03
  2.246929e+00    6.631945e-01   8.883614e-03
  2.249139e+00    6.577665e-01   8.834888e-03
  2.251350e+00    6.634747e-01   8.861471e-03
  2.253560e+00    6.443053e-01   8.721136e-03
  2.255771e+00    6.635034e-01   8.838734e-03
  2.257981e+00    6.545448e-01   8.767772e-03
  2.260192e+00    6.591542e-01   8.787518e-03
  2.262402e+00    6.448048e-01   8.680651e-03
  2.264613e+00    6.465516e-01   8.681716e-03
  2.266823e+00    6.453505e-01   8.663376e-03
  2.269033e+00    6.454132e-01   8.653554e-03
  2.271244e+00    6.607178e-01   8.745180e-03
  2.273454e+00    6.665832e-01   8.773614e-03
  2.275665e+00    6.837235e-01   8.875226e-03
  2.277875e+00    6.762633e-01   8.816652e-03
  2.280086e+00    6.590130e-01   8.693432e-03
  2.282296e+00    6.553354e-01   8.659771e-03
  2.284507e+00    6.465632e-01   8.591564e-03
  2.286717e+00    6.515683e-01   8.615346e-03
  2.288928e+00    6.462105e-01   8.570060e-03
  2.291138e+00    6.376834e-01   8.504042e-03
  2.293348e+00    6.546281e-01   8.606757e-03
  2.295559e+00    6.327161e-01   8.452361e-03
  2.297769e+00    6.214797e-01   8.367924e-03
  2.299980e+00    6.479480e-01   8.534968e-03
  2.302190e+00    6.373882e-01   8.456131e-03
  2.304401e+00    6.294172e-01   8.393938e-03
  2.306611e+00    6.443660e-01   8.483860e-03
  2.308822e+00    6.535164e-01   8.535512e-03
  2.311032e+00    6.559760e-01   8.545072e-03
  2.313243e+00    6.396646e-01   8.431956e-03
  2.315453e+00    6.337130e-01   8.385139e-03
  2.317663e+00    6.432406e-01   8.438846e-03
  2.319874e+00    6.278953e-01   8.328975e-03
  2.322084e+00    6.321886e-01   8.348540e-03
  2.324295e+00    6.318439e-01   8.338104e-03
  2.326505e+00    6.340798e-01   8.343892e-03
  2.328716e+00    6.348816e-01   8.340639e-03
  2.330926e+00    6.392681e-01   8.360675e-03
  2.333137e+00    6.294136e-01   8.287659e-03
  2.335347e+00    6.185547e-01   8.207177e-03
  2.337558e+00    6.021963e-01   8.089917e-03
  2.339768e+00    6.238526e-01   8.225637e-03
  2.341979e+00    6.147341e-01   8.157094e-03
  2.344189e+00    6.367386e-01   8.293408e-03
  2.346399e+00    6.288850e-01   8.233686e-03
  2.348610e+00    6.024073e-01   8.050241e-03
  2.350820e+00    6.228732e-01   8.177731e-03
  2.353031e+00    6.215289e-01   8.160716e-03
  2.355241e+00    6.182835e-01   8.131413e-03
  2.357452e+00    6.211641e-01   8.141998e-03
  2.359662e+00    6.263458e-01   8.167681e-03
  2.361873e+00    6.303655e-01   8.185634e-03
  2.364083e+00    6.320571e-01   8.188583e-03
  2.366294e+00    6.333256e-01   8.188685e-03
  2.368504e+00    6.129673e-01   8.047989e-03
  2.370714e+00    6.115838e-01   8.030941e-03
  2.372925e+00    6.172633e-01   8.060144e-03
  2.375135e+00    6.097873e-01   8.003212e-03
  2.377346e+00    6.220787e-01   8.075550e-03
  2.379556e+00    6.172656e-01   8.036376e-03
  2.381767e+00    6.199575e-01   8.046024e-03
  2.383977e+00    6.134611e-01   7.995884e-03
  2.386188e+00    5.967053e-01   7.878156e-03
  2.388398e+00    6.062340e-01   7.932926e-03
  2.390609e+00    6.025473e-01   7.901150e-03
  2.392819e+00    5.925108e-01   7.827422e-03
  2.395029e+00    6.004839e-01   7.872364e-03
  2.397240e+00    5.967296e-01   7.839954e-03
  2.399450e+00    6.088769e-01   7.911569e-03
  2.401661e+00    6.043240e-01   7.874305e-03
  2.403871e+00    5.991086e-01   7.832581e-03
  2.406082e+00    5.893353e-01   7.761122e-03
  2.408292e+00    5.969138e-01   7.803134e-03
  2.410503e+00    6.037436e-01   7.840200e-03
  2.412713e+00    5.922863e-01   7.757763e-03
  2.414924e+00    5.823634e-01   7.685152e-03
  2.417134e+00    5.968707e-01   7.772694e-03
  2.419344e+00    5.836886e-01   7.679120e-03
  2.421555e+00    5.784062e-01   7.636919e-03
  2.423765e+00    5.809620e-01   7.646479e-03
  2.425976e+00    5.843565e-01   7.661089e-03
  2.428186e+00    5.910242e-01   7.697501e-03
  2.430397e+00    5.936425e-01   7.707079e-03
  2.432607e+00    5.733865e-01   7.567307e-03
  2.434818e+00    5.833571e-01   7.625354e-03
  2.437028e+00    5.768938e-01   7.575949e-03
  2.439239e+00    5.808790e-01   7.594491e-03
  2.441449e+00    5.733024e-01   7.537729e-03
  2.443659e+00    5.704440e-01   7.511686e-03
  2.445870e+00    5.753311e-01   7.555892e-03
  2.448080e+00    5.705679e-01   7.558986e-03
  2.450291e+00    5.728096e-01   7.590370e-03
  2.452501e+00    5.516483e-01   7.459757e-03
  2.454712e+00    5.714518e-01   7.600891e-03
  2.456922e+00    5.604709e-01   7.534075e-03
  2.459133e+00    5.592252e-01   7.531088e-03
  2.461343e+00    5.461217e-01   7.446612e-03
  2.463554e+00    5.426484e-01   7.426281e-03
  2.465764e+00    5.516024e-01   7.490400e-03
  2.467975e+00    5.500146e-01   7.481895e-03
  2.470185e+00    5.442916e-01   7.445090e-03
  2.472395e+00    5.276124e-01   7.331319e-03
  2.474606e+00    5.250905e-01   7.315288e-03
  2.476816e+00    5.317019e-01   7.361918e-03
  2.479027e+00    5.453787e-01   7.456843e-03
  2.481237e+00    5.480145e-01   7.475132e-03
  2.483448e+00    5.428851e-01   7.440377e-03
  2.485658e+00    5.292627e-01   7.346279e-03
  2.487869e+00    5.273090e-01   7.332747e-03
  2.490079e+00    5.253048e-01   7.318281e-03
  2.492290e+00    5.475227e-01   7.471006e-03
  2.494500e+00    5.480128e-01   7.473617e-03
  2.496710e+00    5.364746e-01   7.393833e-03
  2.498921e+00    5.181545e-01   7.265514e-03
  2.501131e+00    5.186037e-01   7.267714e-03
  2.503342e+00    5.179316e-01   7.261770e-03
  2.505552e+00    5.191068e-01   7.268874e-03
  2.507763e+00    4.948315e-01   7.095532e-03
  2.509973e+00    5.082786e-01   7.189899e-03
  2.512184e+00    5.160404e-01   7.243004e-03
  2.514394e+00    5.207332e-01   7.266555e-03
  2.516605e+00    5.228695e-01   7.234554e-03
  2.518815e+00    5.077359e-01   7.101260e-03
  2.521025e+00    5.171087e-01   7.145698e-03
  2.523236e+00    5.182223e-01   7.135544e-03
  2.525446e+00    5.120561e-01   7.077551e-03
  2.527657e+00    5.127448e-01   7.067889e-03
  2.529867e+00    5.128474e-01   7.054583e-03
  2.532078e+00    5.085526e-01   7.010176e-03
  2.534288e+00    5.084464e-01   6.995763e-03
  2.536499e+00    5.198749e-01   7.062097e-03
  2.538709e+00    5.100335e-01   6.984059e-03
  2.540920e+00    5.099329e-01   6.972890e-03
  2.543130e+00    5.076246e-01   6.946888e-03
  2.545340e+00    5.021733e-01   6.899621e-03
  2.547551e+00    4.981638e-01   6.862327e-03
  2.549761e+00    4.987766e-01   6.857180e-03
  2.551972e+00    4.963028e-01   6.831025e-03
  2.554182e+00    5.138313e-01   6.941502e-03
  2.556393e+00    5.135732e-01   6.930732e-03
  2.558603e+00    5.044426e-01   6.859916e-03
  2.560814e+00    5.014515e-01   6.831002e-03
  2.563024e+00    4.982455e-01   6.800713e-03
  2.565235e+00    5.124899e-01   6.887798e-03
  2.567445e+00    5.159562e-01   6.901529e-03
  2.569656e+00    5.061833e-01   6.826233e-03
  2.571866e+00    4.985523e-01   6.765388e-03
  2.574076e+00    5.059243e-01   6.806049e-03
  2.576287e+00    5.191881e-01   6.886354e-03
  2.578497e+00    5.149254e-01   6.850182e-03
  2.580708e+00    5.084127e-01   6.798698e-03
  2.582918e+00    4.926369e-01   6.684813e-03
  2.585129e+00    4.861569e-01   6.633129e-03
  2.587339e+00    4.963766e-01   6.694962e-03
  2.589550e+00    4.922816e-01   6.659884e-03
  2.591760e+00    4.990212e-01   6.697679e-03
  2.593971e+00    4.904353e-01   6.632449e-03
  2.596181e+00    4.924267e-01   6.639787e-03
  2.598391e+00    5.084155e-01   6.741538e-03
  2.600602e+00    4.998439e-01   6.678635e-03
  2.602812e+00    4.921607e-01   6.619686e-03
  2.605023e+00    5.018216e-01   6.677207e-03
  2.607233e+00    4.946819e-01   6.622516e-03
  2.609444e+00    4.932706e-01   6.605919e-03
  2.611654e+00    4.869427e-01   6.556248e-03
  2.613865e+00    4.943983e-01   6.599276e-03
  2.616075e+00    4.991046e-01   6.623528e-03
  2.618286e+00    4.962797e-01   6.597831e-03
  2.620496e+00    5.083640e-01   6.670951e-03
  2.622706e+00    4.885975e-01   6.534342e-03
  2.624917e+00    4.858514e-01   6.510199e-03
  2.627127e+00    4.933736e-01   6.554723e-03
  2.629338e+00    4.848068e-01   6.491710e-03
  2.631548e+00    4.971360e-01   6.567589e-03
  2.633759e+00    4.991178e-01   6.573557e-03
  2.635969e+00    4.831499e-01   6.461002e-03
  2.638180e+00    4.696209e-01   6.363122e-03
  2.640390e+00    4.786102e-01   6.417284e-03
  2.642601e+00    4.866419e-01   6.464327e-03
  2.644811e+00    5.045055e-01   6.574797e-03
  2.647021e+00    5.120065e-01   6.616869e-03
  2.649232e+00    5.152231e-01   6.630778e-03
  2.651442e+00    5.320177e-01   6.731281e-03
  2.653653e+00    5.082263e-01   6.572219e-03
  2.655863e+00    4.808002e-01   6.385851e-03
  2.658074e+00    4.815119e-01   6.384060e-03
  2.660284e+00    4.914110e-01   6.443027e-03
  2.662495e+00    4.968674e-01   6.471972e-03
  2.664705e+00    4.875709e-01   6.404616e-03
  2.666916e+00    4.860805e-01   6.388428e-03
  2.669126e+00    4.874681e-01   6.391140e-03
  2.671337e+00    4.827358e-01   6.353549e-03
  2.673547e+00    4.739282e-01   6.289073e-03
  2.675757e+00    4.760461e-01   6.296793e-03
  2.677968e+00    4.832759e-01   6.337958e-03
  2.680178e+00    4.828977e-01   6.329162e-03
  2.682389e+00    4.772530e-01   6.285771e-03
  2.684599e+00    4.686767e-01   6.223004e-03
  2.686810e+00    4.677403e-01   6.210349e-03
  2.689020e+00    4.733693e-01   6.241411e-03
  2.691231e+00    4.906301e-01   6.347914e-03
  2.693441e+00    4.728378e-01   6.225723e-03
  2.695652e+00    4.741434e-01   6.227899e-03
  2.697862e+00    4.732123e-01   6.215546e-03
  2.700072e+00    4.773152e-01   6.236422e-03
  2.702283e+00    4.868565e-01   6.292249e-03
  2.704493e+00    4.785976e-01   6.232443e-03
  2.706704e+00    4.802900e-01   6.237082e-03
  2.708914e+00    4.816642e-01   6.240085e-03
  2.711125e+00    4.895684e-01   6.284812e-03
  2.713335e+00    4.862839e-01   6.257613e-03
  2.715546e+00    4.817759e-01   6.222124e-03
  2.717756e+00    4.833311e-01   6.226278e-03
  2.719967e+00    4.746949e-01   6.164277e-03
  2.722177e+00    4.680360e-01   6.114865e-03
  2.724387e+00    4.793327e-01   6.182143e-03
  2.726598e+00    4.916717e-01   6.255119e-03
  2.728808e+00    4.812127e-01   6.182116e-03
  2.731019e+00    4.751598e-01   6.137049e-03
  2.733229e+00    4.807374e-01   6.167167e-03
  2.735440e+00    4.766082e-01   6.134422e-03
  2.737650e+00    4.675559e-01   6.069954e-03
  2.739861e+00    4.672705e-01   6.062144e-03
  2.742071e+00    4.672767e-01   6.056522e-03
  2.744282e+00    4.656788e-01   6.040041e-03
  2.746492e+00    4.682389e-01   6.050648e-03
  2.748702e+00    4.801170e-01   6.121043e-03
  2.750913e+00    4.697198e-01   6.048667e-03
  2.753123e+00    4.609311e-01   5.985852e-03
  2.755334e+00    4.671815e-01   6.020277e-03
  2.757544e+00    4.733676e-01   6.054348e-03
  2.759755e+00    4.612190e-01   5.970363e-03
  2.761965e+00    4.677856e-01   6.006813e-03
  2.764176e+00    4.677958e-01   6.000974e-03
  2.766386e+00    4.663671e-01   5.986079e-03
  2.768597e+00    4.720217e-01   6.016468e-03
  2.770807e+00    4.636958e-01   5.957370e-03
  2.773017e+00    4.827485e-01   6.072543e-03
  2.775228e+00    4.642522e-01   5.949379e-03
  2.777438e+00    4.655036e-01   5.951660e-03
  2.779649e+00    4.703133e-01   5.976492e-03
  2.781859e+00    4.608153e-01   5.910167e-03
  2.784070e+00    4.754636e-01   5.997516e-03
  2.786280e+00    4.733045e-01   5.978152e-03
  2.788491e+00    4.688411e-01   5.944101e-03
  2.790701e+00    4.583914e-01   5.871959e-03
  2.792912e+00    4.681297e-01   5.928067e-03
  2.795122e+00    4.767152e-01   5.976460e-03
  2.797333e+00    4.769745e-01   5.972521e-03
  2.799543e+00    4.557641e-01   5.832476e-03
  2.801753e+00    4.650931e-01   5.886077e-03
  2.803964e+00    4.617855e-01   5.859514e-03
  2.806174e+00    4.604665e-01   5.845094e-03
  2.808385e+00    4.596728e-01   5.833376e-03
  2.810595e+00    4.557486e-01   5.801690e-03
  2.812806e+00    4.682042e-01   5.873862e-03
  2.815016e+00    4.756068e-01   5.915372e-03
  2.817227e+00    4.712840e-01   5.914275e-03
  2.819437e+00    4.762332e-01   5.956369e-03
  2.821648e+00    4.577507e-01   5.841890e-03
  2.823858e+00    4.647089e-01   5.891415e-03
  2.826068e+00    4.516813e-01   5.813105e-03
  2.828279e+00    4.589266e-01   5.863525e-03
  2.830489e+00    4.615874e-01   5.883802e-03
  2.832700e+00    4.687631e-01   5.931905e-03
  2.834910e+00    4.653814e-01   5.912520e-03
  2.837121e+00    4.636325e-01   5.903111e-03
  2.839331e+00    4.590012e-01   5.874750e-03
  2.841542e+00    4.661036e-01   5.921040e-03
  2.843752e+00    4.668148e-01   5.926346e-03
  2.845963e+00    4.574375e-01   5.866911e-03
  2.848173e+00    4.505602e-01   5.822718e-03
  2.850383e+00    4.596477e-01   5.881440e-03
  2.852594e+00    4.501634e-01   5.820372e-03
  2.854804e+00    4.496332e-01   5.816433e-03
  2.857015e+00    4.727560e-01   5.963698e-03
  2.859225e+00    4.568109e-01   5.862007e-03
  2.861436e+00    4.646371e-01   5.911367e-03
  2.863646e+00    4.496500e-01   5.815274e-03
  2.865857e+00    4.663607e-01   5.922684e-03
  2.868067e+00    4.596199e-01   5.879959e-03
  2.870278e+00    4.591520e-01   5.876610e-03
  2.872488e+00    4.423841e-01   5.767180e-03
  2.874698e+00    4.320650e-01   5.698503e-03
  2.876909e+00    4.493532e-01   5.810080e-03
  2.879119e+00    4.458049e-01   5.785510e-03
  2.881330e+00    4.444392e-01   5.775187e-03
  2.883540e+00    4.458896e-01   5.783255e-03
  2.885751e+00    4.546381e-01   5.838069e-03
  2.887961e+00    4.540802e-01   5.832629e-03
  2.890172e+00    4.587624e-01   5.861023e-03
  2.892382e+00    4.464633e-01   5.780154e-03
  2.894593e+00    4.486990e-01   5.792801e-03
  2.896803e+00    4.545329e-01   5.828387e-03
  2.899014e+00    4.429297e-01   5.751626e-03
  2.901224e+00    4.506880e-01   5.799814e-03
  2.903434e+00    4.471824e-01   5.775295e-03
  2.905645e+00    4.414096e-01   5.735719e-03
  2.907855e+00    4.601806e-01   5.854290e-03
  2.910066e+00    4.574587e-01   5.834899e-03
  2.912276e+00    4.455738e-01   5.756497e-03
  2.914487e+00    4.570036e-01   5.827417e-03
  2.916697e+00    4.373984e-01   5.698884e-03
  2.918908e+00    4.410579e-01   5.720703e-03
  2.921118e+00    4.513121e-01   5.784138e-03
  2.923329e+00    4.461969e-01   5.748997e-03
  2.925539e+00    4.430818e-01   5.726638e-03
  2.927749e+00    4.584500e-01   5.822784e-03
  2.929960e+00    4.504338e-01   5.768915e-03
  2.932170e+00    4.410943e-01   5.706503e-03
  2.934381e+00    4.424800e-01   5.713035e-03
  2.936591e+00    4.452509e-01   5.728371e-03
  2.938802e+00    4.477438e-01   5.741689e-03
  2.941012e+00    4.621892e-01   5.831222e-03
  2.943223e+00    4.529022e-01   5.769654e-03
  2.945433e+00    4.555752e-01   5.782929e-03
  2.947644e+00    4.423410e-01   5.694243e-03
  2.949854e+00    4.414670e-01   5.684398e-03
  2.952064e+00    4.449261e-01   5.702449e-03
  2.954275e+00    4.561421e-01   5.769465e-03
  2.956485e+00    4.484300e-01   5.716338e-03
  2.958696e+00    4.491600e-01   5.716628e-03
  2.960906e+00    4.374494e-01   5.637515e-03
  2.963117e+00    4.488329e-01   5.705934e-03
  2.965327e+00    4.407752e-01   5.650657e-03
  2.967538e+00    4.469093e-01   5.686943e-03
  2.969748e+00    4.387816e-01   5.632221e-03
  2.971959e+00    4.572491e-01   5.746382e-03
  2.974169e+00    4.435170e-01   5.656894e-03
  2.976379e+00    4.274002e-01   5.550324e-03
  2.978590e+00    4.327231e-01   5.581715e-03
  2.980800e+00    4.327387e-01   5.579086e-03
  2.983011e+00    4.427232e-01   5.640313e-03
  2.985221e+00    4.357300e-01   5.592507e-03
  2.987432e+00    4.361317e-01   5.592033e-03
  2.989642e+00    4.500525e-01   5.677955e-03
  2.991853e+00    4.654406e-01   5.770903e-03
  2.994063e+00    4.523374e-01   5.686182e-03
  2.996274e+00    4.450673e-01   5.637161e-03
  2.998484e+00    4.329793e-01   5.557440e-03
  3.000694e+00    4.377753e-01   5.584730e-03
  3.002905e+00    4.404114e-01   5.598630e-03
  3.005115e+00    4.404288e-01   5.595802e-03
  3.007326e+00    4.371434e-01   5.571804e-03
  3.009536e+00    4.464449e-01   5.627526e-03
  3.011747e+00    4.382119e-01   5.572536e-03
  3.013957e+00    4.536723e-01   5.666806e-03
  3.016168e+00    4.455942e-01   5.612887e-03
  3.018378e+00    4.447099e-01   5.604308e-03
  3.020589e+00    4.400910e-01   5.571966e-03
  3.022799e+00    4.394763e-01   5.564940e-03
  3.025010e+00    4.484578e-01   5.618299e-03
  3.027220e+00    4.510942e-01   5.631698e-03
  3.029430e+00    4.501501e-01   5.622547e-03
  3.031641e+00    4.508470e-01   5.623769e-03
  3.033851e+00    4.443423e-01   5.579569e-03
  3.036062e+00    4.458041e-01   5.585977e-03
  3.038272e+00    4.380326e-01   5.533546e-03
  3.040483e+00    4.406267e-01   5.546729e-03
  3.042693e+00    4.434333e-01   5.561120e-03
  3.044904e+00    4.440191e-01   5.560821e-03
  3.047114e+00    4.388796e-01   5.523775e-03
  3.049325e+00    4.397102e-01   5.524681e-03
  3.051535e+00    4.408311e-01   5.527375e-03
  3.053745e+00    4.373828e-01   5.501019e-03
  3.055956e+00    4.470003e-01   5.556623e-03
  3.058166e+00    4.444997e-01   5.536826e-03
  3.060377e+00    4.427709e-01   5.521314e-03
  3.062587e+00    4.541048e-01   5.586883e-03
  3.064798e+00    4.473966e-01   5.541238e-03
  3.067008e+00    4.270482e-01   5.409139e-03
  3.069219e+00    4.373158e-01   5.469323e-03
  3.071429e+00    4.504311e-01   5.547227e-03
  3.073640e+00    4.330444e-01   5.435847e-03
  3.075850e+00    4.411193e-01   5.482730e-03
  3.078060e+00    4.408934e-01   5.478247e-03
  3.080271e+00    4.447941e-01   5.498974e-03
  3.082481e+00    4.452038e-01   5.498078e-03
  3.084692e+00    4.384081e-01   5.452609e-03
  3.086902e+00    4.396516e-01   5.457121e-03
  3.089113e+00    4.419340e-01   5.467733e-03
  3.091323e+00    4.269138e-01   5.370709e-03
  3.093534e+00    4.287902e-01   5.379199e-03
  3.095744e+00    4.410468e-01   5.452180e-03
  3.097955e+00    4.434076e-01   5.463229e-03
  3.100165e+00    4.365382e-01   5.417456e-03
  3.102375e+00    4.335023e-01   5.395221e-03
  3.104586e+00    4.378468e-01   5.418718e-03
  3.106796e+00    4.413171e-01   5.436656e-03
  3.109007e+00    4.380318e-01   5.413203e-03
  3.111217e+00    4.398886e-01   5.420982e-03
  3.113428e+00    4.400207e-01   5.418412e-03
  3.115638e+00    4.351431e-01   5.385103e-03
  3.117849e+00    4.194872e-01   5.283725e-03
  3.120059e+00    4.279002e-01   5.333041e-03
  3.122270e+00    4.247944e-01   5.310480e-03
  3.124480e+00    4.276908e-01   5.324928e-03
  3.126691e+00    4.433467e-01   5.417960e-03
  3.128901e+00    4.299623e-01   5.332490e-03
  3.131111e+00    4.399682e-01   5.390347e-03
  3.133322e+00    4.314392e-01   5.334451e-03
  3.135532e+00    4.507987e-01   5.449388e-03
  3.137743e+00    4.426796e-01   5.396634e-03
  3.139953e+00    4.438044e-01   5.399800e-03
  3.142164e+00    4.202111e-01   5.266010e-03
  3.144374e+00    4.296836e-01   5.353020e-03
  3.146585e+00    4.427708e-01   5.448502e-03
  3.148795e+00    4.271287e-01   5.361995e-03
  3.151006e+00    4.221646e-01   5.339087e-03
  3.153216e+00    4.253698e-01   5.366318e-03
  3.155426e+00    4.222488e-01   5.352776e-03
  3.157637e+00    4.376326e-01   5.454898e-03
  3.159847e+00    4.252997e-01   5.382309e-03
  3.162058e+00    4.276990e-01   5.401810e-03
  3.164268e+00    4.294170e-01   5.416674e-03
  3.166479e+00    4.126088e-01   5.313150e-03
  3.168689e+00    4.268926e-01   5.407622e-03
  3.170900e+00    4.368643e-01   5.473605e-03
  3.173110e+00    4.287909e-01   5.425638e-03
  3.175321e+00    4.185643e-01   5.362965e-03
  3.177531e+00    4.281870e-01   5.426975e-03
  3.179741e+00    4.454393e-01   5.537304e-03
  3.181952e+00    4.439299e-01   5.530069e-03
  3.184162e+00    4.236317e-01   5.404312e-03
  3.186373e+00    4.241960e-01   5.409467e-03
  3.188583e+00    4.316243e-01   5.458419e-03
  3.190794e+00    4.159952e-01   5.360385e-03
  3.193004e+00    4.310962e-01   5.458054e-03
  3.195215e+00    4.207011e-01   5.393321e-03
  3.197425e+00    4.291083e-01   5.448145e-03
  3.199636e+00    4.338285e-01   5.477259e-03
  3.201846e+00    4.134327e-01   5.346383e-03
  3.204056e+00    4.268087e-01   5.433032e-03
  3.206267e+00    4.416458e-01   5.527522e-03
  3.208477e+00    4.295723e-01   5.452376e-03
  3.210688e+00    4.323425e-01   5.470772e-03
  3.212898e+00    4.205943e-01   5.396508e-03
  3.215109e+00    4.208739e-01   5.399002e-03
  3.217319e+00    4.345112e-01   5.486455e-03
  3.219530e+00    4.126151e-01   5.346805e-03
  3.221740e+00    4.282390e-01   5.447639e-03
  3.223951e+00    4.198673e-01   5.394615e-03
  3.226161e+00    4.148245e-01   5.362293e-03
  3.228372e+00    4.233333e-01   5.417533e-03
  3.230582e+00    4.128684e-01   5.350295e-03
  3.232792e+00    4.176147e-01   5.381174e-03
  3.235003e+00    4.166040e-01   5.374909e-03
  3.237213e+00    4.213547e-01   5.405567e-03
  3.239424e+00    4.225401e-01   5.413154e-03
  3.241634e+00    4.237480e-01   5.421021e-03
  3.243845e+00    4.188138e-01   5.389432e-03
  3.246055e+00    4.289299e-01   5.453865e-03
  3.248266e+00    4.189299e-01   5.390104e-03
  3.250476e+00    4.132749e-01   5.353318e-03
  3.252687e+00    4.161124e-01   5.371577e-03
  3.254897e+00    4.002670e-01   5.268201e-03
  3.257107e+00    4.154762e-01   5.367020e-03
  3.259318e+00    4.264431e-01   5.437192e-03
  3.261528e+00    4.182752e-01   5.384726e-03
  3.263739e+00    4.229581e-01   5.414210e-03
  3.265949e+00    4.196014e-01   5.392585e-03
  3.268160e+00    4.074780e-01   5.313691e-03
  3.270370e+00    3.984109e-01   5.253755e-03
  3.272581e+00    4.059867e-01   5.303178e-03
  3.274791e+00    4.147630e-01   5.359684e-03
  3.277002e+00    4.207187e-01   5.397472e-03
  3.279212e+00    4.150220e-01   5.360414e-03
  3.281422e+00    4.260110e-01   5.430350e-03
  3.283633e+00    4.280922e-01   5.442912e-03
  3.285843e+00    4.246409e-01   5.420591e-03
  3.288054e+00    4.267196e-01   5.432904e-03
  3.290264e+00    4.060853e-01   5.299638e-03
  3.292475e+00    4.074622e-01   5.307747e-03
  3.294685e+00    4.262869e-01   5.428358e-03
  3.296896e+00    4.190609e-01   5.381424e-03
  3.299106e+00    4.032586e-01   5.278415e-03
  3.301317e+00    4.121538e-01   5.335295e-03
  3.303527e+00    4.241890e-01   5.412185e-03
  3.305737e+00    4.193227e-01   5.380001e-03
  3.307948e+00    4.176100e-01   5.368348e-03
  3.310158e+00    4.113582e-01   5.327175e-03
  3.312369e+00    4.004322e-01   5.255089e-03
  3.314579e+00    4.115365e-01   5.326535e-03
  3.316790e+00    4.248957e-01   5.411616e-03
  3.319000e+00    4.133817e-01   5.336608e-03
  3.321211e+00    4.053261e-01   5.283756e-03
  3.323421e+00    4.304485e-01   5.443831e-03
  3.325632e+00    4.220900e-01   5.389849e-03
  3.327842e+00    4.131027e-01   5.331212e-03
  3.330052e+00    4.189040e-01   5.367488e-03
  3.332263e+00    3.940707e-01   5.204967e-03
  3.334473e+00    4.049353e-01   5.275331e-03
  3.336684e+00    4.054098e-01   5.277172e-03
  3.338894e+00    4.140887e-01   5.332535e-03
  3.341105e+00    4.214290e-01   5.378376e-03
  3.343315e+00    4.241178e-01   5.394367e-03
  3.345526e+00    4.163124e-01   5.343605e-03
  3.347736e+00    4.268437e-01   5.409343e-03
  3.349947e+00    4.159975e-01   5.339246e-03
  3.352157e+00    4.192682e-01   5.359035e-03
  3.354368e+00    4.232593e-01   5.383161e-03
  3.356578e+00    4.270467e-01   5.406182e-03
  3.358788e+00    4.098511e-01   5.294908e-03
  3.360999e+00    3.980727e-01   5.217049e-03
  3.363209e+00    4.041720e-01   5.255859e-03
  3.365420e+00    4.212720e-01   5.364370e-03
  3.367630e+00    4.070111e-01   5.271790e-03
  3.369841e+00    4.129351e-01   5.308587e-03
  3.372051e+00    4.055755e-01   5.259146e-03
  3.374262e+00    4.135282e-01   5.307994e-03
  3.376472e+00    4.049464e-01   5.250244e-03
  3.378683e+00    3.964794e-01   5.192612e-03
  3.380893e+00    3.929209e-01   5.166980e-03
  3.383103e+00    3.976536e-01   5.195357e-03
  3.385314e+00    4.009480e-01   5.214651e-03
  3.387524e+00    3.962497e-01   5.181322e-03
  3.389735e+00    4.092132e-01   5.262794e-03
  3.391945e+00    4.001029e-01   5.200251e-03
  3.394156e+00    4.117790e-01   5.271388e-03
  3.396366e+00    3.999067e-01   5.191479e-03
  3.398577e+00    4.056589e-01   5.225657e-03
  3.400787e+00    3.985756e-01   5.191561e-03
  3.402998e+00    3.940544e-01   5.199361e-03
  3.405208e+00    3.808497e-01   5.131511e-03
  3.407418e+00    3.946588e-01   5.239374e-03
  3.409629e+00    3.914893e-01   5.232097e-03
  3.411839e+00    3.803711e-01   5.168759e-03
  3.414050e+00    3.934845e-01   5.268029e-03
  3.416260e+00    3.953803e-01   5.290369e-03
  3.418471e+00    3.953417e-01   5.299534e-03
  3.420681e+00    3.808612e-01   5.209986e-03
  3.422892e+00    3.675495e-01   5.125858e-03
  3.425102e+00    3.682987e-01   5.138672e-03
  3.427313e+00    3.525108e-01   5.034185e-03
  3.429523e+00    3.614497e-01   5.104408e-03
  3.431733e+00    3.865916e-01   5.285647e-03
  3.433944e+00    3.779238e-01   5.232491e-03
  3.436154e+00    3.667682e-01   5.160762e-03
  3.438365e+00    3.836080e-01   5.283887e-03
  3.440575e+00    3.805348e-01   5.268600e-03
  3.442786e+00    3.703863e-01   5.203411e-03
  3.444996e+00    3.677423e-01   5.190230e-03
  3.447207e+00    3.532593e-01   5.092147e-03
  3.449417e+00    3.667380e-01   5.228913e-03
  3.451628e+00    3.610338e-01   5.217233e-03
  3.453838e+00    3.655961e-01   5.271193e-03
  3.456049e+00    3.692603e-01   5.321525e-03
  3.458259e+00    3.429182e-01   5.149432e-03
  3.460469e+00    3.424700e-01   5.165159e-03
  3.462680e+00    3.553904e-01   5.280472e-03
  3.464890e+00    3.701077e-01   5.406590e-03
  3.467101e+00    3.711551e-01   5.431793e-03
  3.469311e+00    3.881024e-01   5.571361e-03
  3.471522e+00    3.806662e-01   5.534262e-03
  3.473732e+00    3.712018e-01   5.480816e-03
  3.475943e+00    3.843544e-01   5.592787e-03
  3.478153e+00    3.765065e-01   5.550631e-03
  3.480364e+00    4.000036e-01   5.736454e-03
  3.482574e+00    4.131147e-01   5.845252e-03
  3.484784e+00    4.157014e-01   5.878465e-03
  3.486995e+00    4.364913e-01   6.039157e-03
  3.489205e+00    4.204529e-01   5.941800e-03
  3.491416e+00    4.337749e-01   6.050200e-03
  3.493626e+00    4.438978e-01   6.135148e-03
  3.495837e+00    4.458326e-01   6.163345e-03
  3.498047e+00    4.454691e-01   6.175342e-03
  3.500258e+00    4.388714e-01   6.143796e-03
  3.502468e+00    4.388910e-01   6.158116e-03
  3.504679e+00    4.611473e-01   6.326828e-03
  3.506889e+00    4.598970e-01   6.332574e-03
  3.509099e+00    4.651679e-01   6.383030e-03
  3.511310e+00    4.782283e-01   6.486516e-03
  3.513520e+00    4.779361e-01   6.498890e-03
  3.515731e+00    4.890790e-01   6.588633e-03
  3.517941e+00    4.745207e-01   6.503988e-03
  3.520152e+00    4.809793e-01   6.562182e-03
  3.522362e+00    4.926054e-01   6.655387e-03
  3.524573e+00    5.074869e-01   6.769487e-03
  3.526783e+00    5.105058e-01   6.802921e-03
  3.528994e+00    5.165381e-01   6.855251e-03
  3.531204e+00    5.065703e-01   6.801065e-03
  3.533414e+00    5.246087e-01   6.933145e-03
  3.535625e+00    5.467119e-01   7.090291e-03
  3.537835e+00    5.295059e-01   6.989926e-03
  3.540046e+00    5.252467e-01   6.970591e-03
  3.542256e+00    5.374928e-01   7.058909e-03
  3.544467e+00    5.427604e-01   7.101113e-03
  3.546677e+00    5.228791e-01   6.977305e-03
  3.548888e+00    5.313042e-01   7.040755e-03
  3.551098e+00    5.310155e-01   7.046130e-03
  3.553309e+00    5.208038e-01   6.986067e-03
  3.555519e+00    5.252750e-01   7.027172e-03
  3.557729e+00    5.429951e-01   7.156519e-03
  3.559940e+00    5.343096e-01   7.110611e-03
  3.562150e+00    5.252866e-01   7.061894e-03
  3.564361e+00    5.288641e-01   7.099124e-03
  3.566571e+00    5.391176e-01   7.181471e-03
  3.568782e+00    5.428647e-01   7.220626e-03
  3.570992e+00    5.357468e-01   7.186853e-03
  3.573203e+00    5.338085e-01   7.187971e-03
  3.575413e+00    5.247996e-01   7.140688e-03
  3.577624e+00    5.379190e-01   7.243539e-03
  3.579834e+00    5.326914e-01   7.222073e-03
  3.582045e+00    5.291431e-01   7.211980e-03
  3.584255e+00    5.091970e-01   7.088405e-03
  3.586465e+00    5.117011e-01   7.119421e-03
  3.588676e+00    5.219753e-01   7.204545e-03
  3.590886e+00    5.381802e-01   7.329283e-03
  3.593097e+00    5.273505e-01   7.269531e-03
  3.595307e+00    5.115793e-01   7.173634e-03
  3.597518e+00    5.265878e-01   7.292172e-03
  3.599728e+00    5.233616e-01   7.283761e-03
  3.601939e+00    5.172579e-01   7.254967e-03
  3.604149e+00    5.109396e-01   7.224595e-03
  3.606360e+00    5.178811e-01   7.287420e-03
  3.608570e+00    5.097940e-01   7.244106e-03
  3.610780e+00    5.348334e-01   7.430926e-03
  3.612991e+00    5.420172e-01   7.490774e-03
  3.615201e+00    5.268916e-01   7.395222e-03
  3.617412e+00    5.215195e-01   7.364628e-03
  3.619622e+00    5.277063e-01   7.414056e-03
  3.621833e+00    5.237777e-01   7.393070e-03
  3.624043e+00    5.383285e-01   7.504639e-03
  3.626254e+00    5.123029e-01   7.330456e-03
  3.628464e+00    5.337337e-01   7.493156e-03
  3.630675e+00    5.257867e-01   7.451213e-03
  3.632885e+00    5.482035e-01   7.623012e-03
  3.635095e+00    5.316662e-01   7.521539e-03
  3.637306e+00    5.204797e-01   7.456183e-03
  3.639516e+00    5.126939e-01   7.414448e-03
  3.641727e+00    5.271231e-01   7.532505e-03
  3.643937e+00    5.238214e-01   7.523324e-03
  3.646148e+00    5.464096e-01   7.698622e-03
  3.648358e+00    5.395502e-01   7.665089e-03
  3.650569e+00    5.300073e-01   7.611717e-03
  3.652779e+00    5.123003e-01   7.497951e-03
  3.654990e+00    5.140479e-01   7.525379e-03
  3.657200e+00    5.164800e-01   7.557796e-03
  3.659410e+00    5.350015e-01   7.707118e-03
  3.661621e+00    5.209993e-01   7.620590e-03
  3.663831e+00    5.163141e-01   7.601121e-03
  3.666042e+00    5.296396e-01   7.713700e-03
  3.668252e+00    5.229549e-01   7.680041e-03
  3.670463e+00    5.041200e-01   7.555266e-03
  3.672673e+00    5.218949e-01   7.702582e-03
  3.674884e+00    5.093721e-01   7.624754e-03
  3.677094e+00    5.045205e-01   7.603440e-03
  3.679305e+00    5.122687e-01   7.676920e-03
  3.681515e+00    5.093937e-01   7.670642e-03
  3.683726e+00    5.164591e-01   7.739239e-03
  3.685936e+00    5.255418e-01   7.822661e-03
  3.688146e+00    5.114140e-01   7.732360e-03
  3.690357e+00    5.012811e-01   7.670886e-03
  3.692567e+00    4.972822e-01   7.655896e-03
  3.694778e+00    5.111627e-01   7.777794e-03
  3.696988e+00    5.156528e-01   7.827723e-03
  3.699199e+00    5.179420e-01   7.861231e-03
  3.701409e+00    5.132361e-01   7.841568e-03
  3.703620e+00    5.273227e-01   7.964858e-03
  3.705830e+00    5.090293e-01   7.841616e-03
  3.708041e+00    5.132127e-01   7.890181e-03
  3.710251e+00    5.148565e-01   7.919429e-03
  3.712461e+00    5.042037e-01   7.853441e-03
  3.714672e+00    5.308255e-01   8.075024e-03
  3.716882e+00    5.234392e-01   8.035415e-03
  3.719093e+00    4.934449e-01   7.818451e-03
  3.721303e+00    5.103770e-01   7.968279e-03
  3.723514e+00    5.115967e-01   7.994928e-03
  3.725724e+00    5.155727e-01   8.043071e-03
  3.727935e+00    4.979204e-01   7.921278e-03
  3.730145e+00    4.960622e-01   7.923438e-03
  3.732356e+00    5.194482e-01   8.125675e-03
  3.734566e+00    5.015085e-01   8.001430e-03
  3.736776e+00    4.872102e-01   7.903848e-03
  3.738987e+00    4.835679e-01   7.891390e-03
  3.741197e+00    5.208125e-01   8.207805e-03
  3.743408e+00    5.055417e-01   8.104492e-03
  3.745618e+00    5.043168e-01   8.112844e-03
  3.747829e+00    5.069637e-01   8.152099e-03
  3.750039e+00    5.192023e-01   8.268461e-03
  3.752250e+00    4.909213e-01   8.058204e-03
  3.754460e+00    4.976494e-01   8.131537e-03
  3.756671e+00    4.940520e-01   8.120628e-03
  3.758881e+00    5.101994e-01   8.270902e-03
  3.761091e+00    5.218900e-01   8.384545e-03
  3.763302e+00    4.866964e-01   8.115572e-03
  3.765512e+00    5.235876e-01   8.437054e-03
  3.767723e+00    5.081846e-01   8.331452e-03
  3.769933e+00    4.847615e-01   8.156065e-03
  3.772144e+00    4.791072e-01   8.127409e-03
  3.774354e+00    5.078502e-01   8.387521e-03
  3.776565e+00    5.124784e-01   8.445645e-03
  3.778775e+00    4.910983e-01   8.287363e-03
  3.780986e+00    4.938234e-01   8.330341e-03
  3.783196e+00    4.938619e-01   8.350762e-03
  3.785407e+00    5.164716e-01   8.560448e-03
  3.787617e+00    5.014300e-01   8.455589e-03
  3.789827e+00    4.876767e-01   8.359078e-03
  3.792038e+00    4.923854e-01   8.419964e-03
  3.794248e+00    4.711481e-01   8.256912e-03
  3.796459e+00    4.822305e-01   8.374367e-03
  3.798669e+00    4.941801e-01   8.498725e-03
  3.800880e+00    5.101577e-01   8.656677e-03
  3.803090e+00    5.173165e-01   8.739395e-03
  3.805301e+00    4.925867e-01   8.549918e-03
  3.807511e+00    4.918195e-01   8.565025e-03
  3.809722e+00    4.957846e-01   8.621656e-03
  3.811932e+00    4.884439e-01   8.579554e-03
  3.814142e+00    4.842851e-01   8.565485e-03
  3.816353e+00    5.068913e-01   8.786116e-03
  3.818563e+00    4.999101e-01   8.748582e-03
  3.820774e+00    5.014774e-01   8.785479e-03
  3.822984e+00    5.110227e-01   8.892395e-03
  3.825195e+00    5.055508e-01   8.868522e-03
  3.827405e+00    5.090549e-01   8.923436e-03
  3.829616e+00    4.838906e-01   8.723810e-03
  3.831826e+00    4.813160e-01   8.724296e-03
  3.834037e+00    4.718976e-01   8.662408e-03
  3.836247e+00    4.817076e-01   8.776280e-03
  3.838457e+00    4.680601e-01   8.675421e-03
  3.840668e+00    4.966300e-01   8.961393e-03
  3.842878e+00    4.910239e-01   8.936089e-03
  3.845089e+00    4.827263e-01   8.885518e-03
  3.847299e+00    4.928648e-01   9.004068e-03
  3.849510e+00    4.677323e-01   8.796577e-03
  3.851720e+00    4.996721e-01   9.113491e-03
  3.853931e+00    4.865852e-01   9.012265e-03
  3.856141e+00    4.881490e-01   9.045518e-03
  3.858352e+00    4.865284e-01   9.049656e-03
  3.860562e+00    4.883979e-01   9.086203e-03
  3.862772e+00    4.885604e-01   9.107150e-03
  3.864983e+00    4.952867e-01   9.189412e-03
  3.867193e+00    4.785040e-01   9.051789e-03
  3.869404e+00    4.826527e-01   9.110562e-03
  3.871614e+00    4.739742e-01   9.047843e-03
  3.873825e+00    4.871365e-01   9.192826e-03
  3.876035e+00    4.669054e-01   9.019924e-03
  3.878246e+00    4.925712e-01   9.290285e-03
  3.880456e+00    4.658027e-01   9.062531e-03
  3.882667e+00    4.845818e-01   9.272481e-03
  3.884877e+00    4.903470e-01   9.357247e-03
  3.887087e+00    4.869831e-01   9.354834e-03
  3.889298e+00    4.903466e-01   9.417458e-03
  3.891508e+00    4.954325e-01   9.496834e-03
  3.893719e+00    4.992828e-01   9.564888e-03
  3.895929e+00    5.051799e-01   9.653125e-03
  3.898140e+00    4.988843e-01   9.624816e-03
  3.900350e+00    4.891604e-01   9.562578e-03
  3.902561e+00    4.684385e-01   9.389491e-03
  3.904771e+00    4.912126e-01   9.647858e-03
  3.906982e+00    4.667895e-01   9.437359e-03
  3.909192e+00    4.942380e-01   9.744539e-03
  3.911403e+00    4.716446e-01   9.552612e-03
  3.913613e+00    4.904534e-01   9.775483e-03
  3.915823e+00    4.696276e-01   9.599967e-03
  3.918034e+00    4.635619e-01   9.571964e-03
  3.920244e+00    4.733773e-01   9.708004e-03
  3.922455e+00    4.807884e-01   9.819499e-03
  3.924665e+00    4.803760e-01   9.851504e-03
  3.926876e+00    4.654959e-01   9.733828e-03
  3.929086e+00    5.080184e-01   1.020694e-02
  3.931297e+00    4.709943e-01   9.862199e-03
  3.933507e+00    4.688065e-01   9.867575e-03
  3.935718e+00    4.988732e-01   1.020820e-02
  3.937928e+00    4.686212e-01   9.922763e-03
  3.940138e+00    4.747216e-01   1.001600e-02
  3.942349e+00    4.884599e-01   1.018980e-02
  3.944559e+00    4.811880e-01   1.014359e-02
  3.946770e+00    4.644814e-01   9.995352e-03
  3.948980e+00    4.642926e-01   1.002335e-02
  3.951191e+00    4.642216e-01   1.005261e-02
  3.953401e+00    4.980597e-01   1.044443e-02
  3.955612e+00    4.638062e-01   1.010974e-02
  3.957822e+00    4.914517e-01   1.043848e-02
  3.960033e+00    4.909928e-01   1.046651e-02
  3.962243e+00    4.712249e-01   1.028592e-02
  3.964453e+00    4.664509e-01   1.026609e-02
  3.966664e+00    5.024204e-01   1.068865e-02
  3.968874e+00    4.748324e-01   1.041905e-02
  3.971085e+00    4.479424e-01   1.014086e-02
  3.973295e+00    4.651541e-01   1.035474e-02
  3.975506e+00    4.814330e-01   1.055600e-02
  3.977716e+00    4.950363e-01   1.072625e-02
  3.979927e+00    4.952557e-01   1.075104e-02
  3.982137e+00    4.799874e-01   1.060613e-02
  3.984348e+00    4.970846e-01   1.081623e-02
  3.986558e+00    4.665536e-01   1.050073e-02
  3.988768e+00    4.775047e-01   1.064599e-02
  3.990979e+00    4.829525e-01   1.072927e-02
  3.993189e+00    4.722592e-01   1.063260e-02
  3.995400e+00    5.049314e-01   1.101825e-02
  3.997610e+00    5.104435e-01   1.110891e-02
  3.999821e+00    4.659296e-01   1.065019e-02
  4.002031e+00    4.574772e-01   1.059045e-02
  4.004242e+00    4.805375e-01   1.089243e-02
  4.006452e+00    4.929437e-01   1.107175e-02
  4.008663e+00    4.935008e-01   1.111847e-02
  4.010873e+00    4.632372e-01   1.081120e-02
  4.013084e+00    4.899437e-01   1.115969e-02
  4.015294e+00    4.734685e-01   1.101091e-02
  4.017504e+00    4.934244e-01   1.128286e-02
  4.019715e+00    4.579320e-01   1.091083e-02
  4.021925e+00    4.593159e-01   1.096916e-02
  4.024136e+00    4.916686e-01   1.139282e-02
  4.026346e+00    4.766354e-01   1.126123e-02
  4.028557e+00    4.666678e-01   1.118632e-02
  4.030767e+00    4.760211e-01   1.134323e-02
  4.032978e+00    4.721911e-01   1.134312e-02
  4.035188e+00    4.555763e-01   1.118671e-02
  4.037399e+00    4.716606e-01   1.142938e-02
  4.039609e+00    4.923861e-01   1.172605e-02
  4.041819e+00    4.564799e-01   1.133774e-02
  4.044030e+00    4.581875e-01   1.140752e-02
  4.046240e+00    4.703623e-01   1.160727e-02
  4.048451e+00    4.747349e-01   1.171159e-02
  4.050661e+00    4.581008e-01   1.155476e-02
  4.052872e+00    4.232787e-01   1.115624e-02
  4.055082e+00    4.218021e-01   1.118686e-02
  4.057293e+00    4.450828e-01   1.154288e-02
  4.059503e+00    4.446564e-01   1.158996e-02
  4.061714e+00    4.195601e-01   1.131081e-02
  4.063924e+00    4.059964e-01   1.117864e-02
  4.066134e+00    4.376554e-01   1.166073e-02
  4.068345e+00    4.557233e-01   1.195648e-02
  4.070555e+00    4.672990e-01   1.216570e-02
  4.072766e+00    5.057157e-01   1.271828e-02
  4.074976e+00    4.667332e-01   1.227933e-02
  4.077187e+00    4.417014e-01   1.200466e-02
  4.079397e+00    4.662019e-01   1.239633e-02
  4.081608e+00    4.464949e-01   1.219442e-02
  4.083818e+00    4.785475e-01   1.269011e-02
  4.086029e+00    4.359543e-01   1.217635e-02
  4.088239e+00    4.399945e-01   1.229828e-02
  4.090449e+00    4.968464e-01   1.313962e-02
  4.092660e+00    4.667837e-01   1.280601e-02
  4.094870e+00    4.889966e-01   1.317993e-02
  4.097081e+00    4.659756e-01   1.293662e-02
  4.099291e+00    4.484699e-01   1.274368e-02
  4.101502e+00    4.851467e-01   1.330413e-02
  4.103712e+00    4.974592e-01   1.352184e-02
  4.105923e+00    4.535620e-01   1.296172e-02
  4.108133e+00    4.727176e-01   1.328350e-02
  4.110344e+00    4.805201e-01   1.344383e-02
  4.112554e+00    4.566450e-01   1.315748e-02
  4.114764e+00    4.928454e-01   1.372389e-02
  4.116975e+00    5.093110e-01   1.400636e-02
  4.119185e+00    4.891112e-01   1.378142e-02
  4.121396e+00    4.675498e-01   1.353003e-02
  4.123606e+00    4.353761e-01   1.310972e-02
  4.125817e+00    4.438536e-01   1.329207e-02
  4.128027e+00    4.444509e-01   1.335720e-02
  4.130238e+00    4.616048e-01   1.367082e-02
  4.132448e+00    4.653037e-01   1.378496e-02
  4.134659e+00    4.626510e-01   1.380486e-02
  4.136869e+00    4.747004e-01   1.404587e-02
  4.139080e+00    4.583297e-01   1.386368e-02
  4.141290e+00    4.874136e-01   1.436019e-02
  4.143500e+00    4.826269e-01   1.435541e-02
  4.145711e+00    4.447236e-01   1.384451e-02
  4.147921e+00    4.655688e-01   1.423019e-02
  4.150132e+00    4.946119e-01   1.473739e-02
  4.152342e+00    4.443383e-01   1.403605e-02
  4.154553e+00    4.381351e-01   1.400386e-02
  4.156763e+00    4.521693e-01   1.429692e-02
  4.158974e+00    4.706920e-01   1.466004e-02
  4.161184e+00    4.636505e-01   1.462224e-02
  4.163395e+00    4.919059e-01   1.513802e-02
  4.165605e+00    4.635226e-01   1.477120e-02
  4.167815e+00    4.869483e-01   1.521902e-02
  4.170026e+00    4.841764e-01   1.525539e-02
  4.172236e+00    4.305163e-01   1.446318e-02
  4.174447e+00    4.611072e-01   1.504940e-02
  4.176657e+00    4.853368e-01   1.552441e-02
  4.178868e+00    5.079496e-01   1.597155e-02
  4.181078e+00    5.329396e-01   1.645203e-02
  4.183289e+00    4.515115e-01   1.522990e-02
  4.185499e+00    4.581659e-01   1.543212e-02
  4.187710e+00    4.546188e-01   1.546220e-02
  4.189920e+00    4.501658e-01   1.547914e-02
  4.192130e+00    4.500520e-01   1.557172e-02
  4.194341e+00    4.652878e-01   1.593026e-02
  4.196551e+00    4.699665e-01   1.611120e-02
  4.198762e+00    5.119262e-01   1.692206e-02
  4.200972e+00    4.667948e-01   1.626346e-02
  4.203183e+00    4.418485e-01   1.592728e-02
  4.205393e+00    5.028962e-01   1.710500e-02
  4.207604e+00    5.206683e-01   1.752338e-02
  4.209814e+00    5.317082e-01   1.782999e-02
  4.212025e+00    4.036992e-01   1.564589e-02
  4.214235e+00    4.900776e-01   1.736072e-02
  4.216445e+00    4.801907e-01   1.730925e-02
  4.218656e+00    4.829947e-01   1.748964e-02
  4.220866e+00    4.849752e-01   1.765534e-02
  4.223077e+00    4.780786e-01   1.766448e-02
  4.225287e+00    4.610301e-01   1.748267e-02
  4.227498e+00    4.980352e-01   1.831332e-02
  4.229708e+00    4.820866e-01   1.816458e-02
  4.231919e+00    4.999971e-01   1.865158e-02
  4.234129e+00    4.313871e-01   1.747031e-02
  4.236340e+00    4.601833e-01   1.819816e-02
  4.238550e+00    4.620135e-01   1.839527e-02
  4.240761e+00    4.496219e-01   1.830747e-02
  4.242971e+00    4.228168e-01   1.791548e-02
  4.245181e+00    4.985833e-01   1.963765e-02
  4.247392e+00    4.833576e-01   1.951633e-02
  4.249602e+00    4.758495e-01   1.955643e-02
  4.251813e+00    4.342384e-01   1.886597e-02
  4.254023e+00    4.068225e-01   1.844449e-02
  4.256234e+00    4.665966e-01   1.996440e-02
  4.258444e+00    4.919306e-01   2.071324e-02
  4.260655e+00    5.156372e-01   2.144009e-02
  4.262865e+00    5.032538e-01   2.142129e-02
  4.265076e+00    4.591442e-01   2.069380e-02
  4.267286e+00    4.773073e-01   2.134904e-02
  4.269496e+00    4.107154e-01   2.004624e-02
  4.271707e+00    4.778240e-01   2.188821e-02
  4.273917e+00    4.365608e-01   2.119273e-02
  4.276128e+00    4.942755e-01   2.284944e-02
  4.278338e+00    5.182269e-01   2.370876e-02
  4.280549e+00    5.547705e-01   2.488280e-02
  4.282759e+00    4.316036e-01   2.226261e-02
  4.284970e+00    4.480977e-01   2.301999e-02
  4.287180e+00    4.290883e-01   2.279594e-02
  4.289391e+00    5.859939e-01   2.683967e-02
  4.291601e+00    5.777321e-01   2.686352e-02
  4.293811e+00    4.123049e-01   2.287121e-02
  4.296022e+00    4.214318e-01   2.330769e-02
  4.298232e+00    4.877563e-01   2.528589e-02
  4.300443e+00    4.795048e-01   2.527775e-02
  4.302653e+00    4.248418e-01   2.399950e-02
  4.304864e+00    4.764766e-01   2.563594e-02
  4.307074e+00    4.634035e-01   2.550907e-02
  4.309285e+00    3.866938e-01   2.351399e-02
  4.311495e+00    4.337744e-01   2.513728e-02
  4.313706e+00    3.994710e-01   2.434929e-02
  4.315916e+00    4.634550e-01   2.648522e-02
  4.318126e+00    4.722693e-01   2.700073e-02
  4.320337e+00    3.603170e-01   2.382259e-02
  4.322547e+00    5.006890e-01   2.837988e-02
  4.324758e+00    4.128596e-01   2.603888e-02
  4.326968e+00    4.134784e-01   2.635145e-02
  4.329179e+00    4.930483e-01   2.909326e-02
  4.331389e+00    5.886192e-01   3.215436e-02
  4.333600e+00    5.343414e-01   3.100174e-02
  4.335810e+00    4.716502e-01   2.947292e-02
  4.338021e+00    4.889374e-01   3.039247e-02
  4.340231e+00    3.716342e-01   2.682960e-02
  4.342442e+00    4.004427e-01   2.822271e-02
  4.344652e+00    3.644950e-01   2.729370e-02
  4.346862e+00    2.949463e-01   2.489430e-02
  4.349073e+00    5.400710e-01   3.417752e-02
  4.351283e+00    4.230290e-01   3.069892e-02
  4.353494e+00    4.303411e-01   3.144332e-02
  4.355704e+00    4.446743e-01   3.247561e-02
  4.357915e+00    4.223420e-01   3.217820e-02
  4.360125e+00    4.084904e-01   3.218512e-02
  4.362336e+00    4.493903e-01   3.437375e-02
  4.364546e+00    5.137285e-01   3.742092e-02
  4.366757e+00    3.827072e-01   3.294116e-02
  4.368967e+00    3.951422e-01   3.413906e-02
  4.371177e+00    4.425474e-01   3.689751e-02
  4.373388e+00    5.606849e-01   4.245923e-02
  4.375598e+00    4.827782e-01   4.029866e-02
  4.377809e+00    3.869507e-01   3.699142e-02
  4.380019e+00    4.015396e-01   3.862914e-02
  4.382230e+00    5.387996e-01   4.599633e-02
  4.384440e+00    4.229164e-01   4.192378e-02
  4.386651e+00    3.837020e-01   4.116443e-02
  4.388861e+00    3.315684e-01   3.954901e-02
  4.391072e+00    4.870404e-01   4.961607e-02
  4.393282e+00    3.720318e-01   4.504213e-02
  4.395492e+00    4.458660e-01   5.135738e-02
  4.397703e+00    3.768624e-01   4.937638e-02
  4.399913e+00    3.462279e-01   4.972216e-02
  4.402124e+00    3.263030e-01   5.100615e-02
  4.404334e+00    2.830417e-01   5.049538e-02
  4.406545e+00    3.895810e-01   6.365185e-02
  4.408755e+00    2.296377e-01   5.300023e-02
  4.410966e+00    2.250500e-01   5.806525e-02
  4.413176e+00    3.953515e-01   8.712034e-02
  4.415387e+00   -5.974088e-01            nan
  4.417597e+00   -1.767852e+00            nan
  4.419807e+00   -3.766224e-01            nan
