# == pyFAI calibration ==
# Distance Sample to Detector: 0.216 m
# PONI: 1.166e-01, 1.308e-01 m
# Rotations: 0.000000 0.000000 0.000000 rad
# 
# == Fit2d calibration ==
# Distance Sample-beamCenter: 216.000 mm
# Center: x=1744.293, y=1555.000 pix
# Tilt: 0.000 deg  TiltPlanRot: 0.000 deg
# 
# Detector Eiger 9M	 PixelSize= 7.500e-05, 7.500e-05 m
#    Detector has a mask: True 
#    Detector has a dark current: False 
#    detector has a flat field: False 
# 
# Wavelength: 9.8e-11 m
# Mask applied: from detector
# Dark current applied: False
# Flat field applied: False
# Polarization factor: None
# Normalization factor: 1.0
# 
# Headers of the input frame:
# {
# "_array_data.header_convention": "SLS_1.0",
# "_array_data.header_contents": "# Detector: Dectris Eiger 9M, S/N E-18-0102\r\n# Pixel_size 75e-6 m x 75e-6 m\r\n# Silicon sensor, thickness 0.000450 m\r\n# Exposure_time 0.024997 s\r\n# Exposure_period 0.025000 s\r\n# Count_cutoff 62318 counts\r\n# Wavelength 0.980106 A\r\n# Detector_distance 0.215992 m\r\n# Beam_xy (1555, 1744) pixels\r\n# Start_angle 0.000000 deg.\r\n# Angle_increment 0.000000 deg.",
# "Content-Type": "application/octet-stream;",
# "conversions": "x-CBF_BYTE_OFFSET",
# "Content-Transfer-Encoding": "BINARY",
# "X-Binary-Size": "10166622",
# "X-Binary-ID": "1",
# "X-Binary-Element-Type": "signed 32-bit integer",
# "X-Binary-Element-Byte-Order": "LITTLE_ENDIAN",
# "Content-MD5": "bYpDacRHu6BOe+Z8UELSLw==",
# "X-Binary-Number-of-Elements": "10166590",
# "X-Binary-Size-Fastest-Dimension": "3110",
# "X-Binary-Size-Second-Dimension": "3269",
# "X-Binary-Size-Padding": "4095"
# }
# --> H:/Proxima2a_2019-04-05/RAW_DATA/C5_gel17_position5/C5_mesh_1_data.cbf/C5_mesh_1_data.cbf000088.dat
#        q_A^-1              I           sigma 
  1.105228e-03    7.910774e-01   4.812784e-01
  3.315685e-03    1.259749e+00   3.692219e-01
  5.526141e-03    1.545058e+00   3.161874e-01
  7.736597e-03    1.439021e+00   2.577827e-01
  9.947054e-03    1.582659e+00   2.383253e-01
  1.215751e-02    1.483150e+00   2.086225e-01
  1.436797e-02    1.140328e+00   1.682638e-01
  1.657842e-02    1.483750e+00   1.786589e-01
  1.878888e-02    1.378146e+00   1.617377e-01
  2.099934e-02    1.139007e+00   1.391122e-01
  2.320979e-02    1.391729e+00   1.462548e-01
  2.542025e-02    1.337559e+00   1.370143e-01
  2.763070e-02    1.415270e+00   1.351792e-01
  2.984116e-02    1.513475e+00   1.345130e-01
  3.205162e-02    1.480294e+00   1.283690e-01
  3.426207e-02    1.561524e+00   1.275114e-01
  3.647253e-02    1.501609e+00   1.211904e-01
  3.868299e-02    1.372603e+00   1.125170e-01
  4.089344e-02    1.607517e+00   1.184291e-01
  4.310390e-02    1.344665e+00   1.054948e-01
  4.531436e-02    1.396528e+00   1.048554e-01
  4.752481e-02    1.427358e+00   1.035107e-01
  4.973527e-02    1.471765e+00   1.027475e-01
  5.194572e-02    1.395604e+00   9.790032e-02
  5.415618e-02    1.505234e+00   9.957279e-02
  5.636664e-02    1.466768e+00   9.634872e-02
  5.857709e-02    1.410443e+00   9.268135e-02
  6.078755e-02    1.450812e+00   9.227050e-02
  6.299801e-02    1.411100e+00   8.938720e-02
  6.520846e-02    1.353015e+00   8.603242e-02
  6.741892e-02    1.385191e+00   8.560608e-02
  6.962938e-02    1.447262e+00   8.610731e-02
  7.183983e-02    1.463377e+00   8.524131e-02
  7.405029e-02    1.494635e+00   8.484942e-02
  7.626074e-02    1.412064e+00   8.126762e-02
  7.847120e-02    1.461835e+00   8.151231e-02
  8.068166e-02    1.395855e+00   7.855223e-02
  8.289211e-02    1.388503e+00   7.729297e-02
  8.510257e-02    1.433724e+00   7.751437e-02
  8.731303e-02    1.410844e+00   7.591092e-02
  8.952348e-02    1.386788e+00   7.432803e-02
  9.173394e-02    1.506777e+00   7.653467e-02
  9.394439e-02    1.539617e+00   7.644615e-02
  9.615485e-02    1.622247e+00   7.756187e-02
  9.836531e-02    1.458271e+00   7.270455e-02
  1.005758e-01    1.512437e+00   7.322476e-02
  1.027862e-01    1.525781e+00   7.275019e-02
  1.049967e-01    1.502792e+00   7.143471e-02
  1.072071e-01    1.472475e+00   6.997693e-02
  1.094176e-01    1.445892e+00   6.863733e-02
  1.116280e-01    1.470832e+00   6.853639e-02
  1.138385e-01    1.589596e+00   7.055318e-02
  1.160490e-01    1.550776e+00   6.901868e-02
  1.182594e-01    1.521852e+00   6.772850e-02
  1.204699e-01    1.589666e+00   6.858253e-02
  1.226803e-01    1.582120e+00   6.779756e-02
  1.248908e-01    1.548300e+00   6.647205e-02
  1.271012e-01    1.516889e+00   6.521842e-02
  1.293117e-01    1.577659e+00   6.594019e-02
  1.315222e-01    1.555187e+00   6.491493e-02
  1.337326e-01    1.566024e+00   6.459884e-02
  1.359431e-01    1.627909e+00   6.590143e-02
  1.381535e-01    1.608490e+00   6.638650e-02
  1.403640e-01    1.602579e+00   6.655052e-02
  1.425744e-01    1.538682e+00   6.531446e-02
  1.447849e-01    1.470204e+00   6.385924e-02
  1.469953e-01    1.477797e+00   6.398383e-02
  1.492058e-01    1.550734e+00   6.546761e-02
  1.514163e-01    1.616898e+00   6.673865e-02
  1.536267e-01    1.661634e+00   6.752350e-02
  1.558372e-01    1.682960e+00   6.780543e-02
  1.580476e-01    1.578315e+00   6.550422e-02
  1.602581e-01    1.539736e+00   6.453438e-02
  1.624685e-01    1.615504e+00   6.592213e-02
  1.646790e-01    1.580544e+00   6.501773e-02
  1.668895e-01    1.631768e+00   6.587210e-02
  1.690999e-01    1.728625e+00   6.759533e-02
  1.713104e-01    1.753491e+00   6.786847e-02
  1.735208e-01    1.774054e+00   6.805298e-02
  1.757313e-01    1.832825e+00   6.895425e-02
  1.779417e-01    1.861068e+00   6.925689e-02
  1.801522e-01    1.768917e+00   6.730545e-02
  1.823626e-01    1.859532e+00   6.877808e-02
  1.845731e-01    1.933421e+00   6.990404e-02
  1.867836e-01    1.957901e+00   7.010780e-02
  1.889940e-01    2.018152e+00   7.094578e-02
  1.912045e-01    1.961614e+00   6.971137e-02
  1.934149e-01    2.018388e+00   7.047631e-02
  1.956254e-01    2.020633e+00   7.028294e-02
  1.978358e-01    1.995120e+00   6.959850e-02
  2.000463e-01    1.933294e+00   6.828459e-02
  2.022568e-01    1.951899e+00   6.838717e-02
  2.044672e-01    2.014058e+00   6.922953e-02
  2.066777e-01    2.059672e+00   6.977678e-02
  2.088881e-01    1.964949e+00   6.793042e-02
  2.110986e-01    1.895341e+00   6.648756e-02
  2.133090e-01    1.888575e+00   6.615301e-02
  2.155195e-01    2.034370e+00   6.843125e-02
  2.177300e-01    1.884809e+00   6.535036e-02
  2.199404e-01    1.915920e+00   6.415135e-02
  2.221509e-01    1.903661e+00   6.289577e-02
  2.243613e-01    1.926377e+00   6.246783e-02
  2.265718e-01    2.099408e+00   6.449420e-02
  2.287822e-01    2.132376e+00   6.435530e-02
  2.309927e-01    2.062278e+00   6.271213e-02
  2.332031e-01    2.077947e+00   6.241113e-02
  2.354136e-01    2.147949e+00   6.293938e-02
  2.376241e-01    2.230330e+00   6.363723e-02
  2.398345e-01    2.058048e+00   6.067758e-02
  2.420450e-01    2.130606e+00   6.129669e-02
  2.442554e-01    2.129594e+00   6.085996e-02
  2.464659e-01    2.149906e+00   6.073897e-02
  2.486763e-01    2.082228e+00   5.938238e-02
  2.508868e-01    2.119348e+00   5.953142e-02
  2.530973e-01    2.152621e+00   5.962495e-02
  2.553077e-01    2.074220e+00   5.817406e-02
  2.575182e-01    2.043315e+00   5.739743e-02
  2.597286e-01    2.015290e+00   5.667108e-02
  2.619391e-01    2.063994e+00   5.702161e-02
  2.641495e-01    2.057861e+00   5.662171e-02
  2.663600e-01    1.993237e+00   5.541911e-02
  2.685704e-01    1.973507e+00   5.484522e-02
  2.707809e-01    2.035043e+00   5.539809e-02
  2.729914e-01    2.056436e+00   5.539833e-02
  2.752018e-01    1.983345e+00   5.412173e-02
  2.774123e-01    2.014088e+00   5.426098e-02
  2.796227e-01    2.072105e+00   5.476471e-02
  2.818332e-01    1.964251e+00   5.305441e-02
  2.840436e-01    1.984982e+00   5.307512e-02
  2.862541e-01    1.960645e+00   5.249519e-02
  2.884646e-01    1.946520e+00   5.205749e-02
  2.906750e-01    2.067138e+00   5.339180e-02
  2.928855e-01    1.967328e+00   5.184554e-02
  2.950959e-01    1.873200e+00   5.035765e-02
  2.973064e-01    1.893954e+00   5.040826e-02
  2.995168e-01    1.937061e+00   5.074779e-02
  3.017273e-01    1.952571e+00   5.072593e-02
  3.039377e-01    1.874491e+00   4.948375e-02
  3.061482e-01    1.918400e+00   4.984337e-02
  3.083587e-01    1.941478e+00   4.992525e-02
  3.105691e-01    1.932965e+00   4.960290e-02
  3.127796e-01    1.937117e+00   4.944738e-02
  3.149900e-01    1.906329e+00   4.884848e-02
  3.172005e-01    1.901484e+00   4.858688e-02
  3.194109e-01    1.882895e+00   4.814920e-02
  3.216214e-01    1.900187e+00   4.817244e-02
  3.238319e-01    1.875758e+00   4.767214e-02
  3.260423e-01    1.830398e+00   4.690465e-02
  3.282528e-01    1.815670e+00   4.652957e-02
  3.304632e-01    1.835431e+00   4.660086e-02
  3.326737e-01    1.830088e+00   4.635143e-02
  3.348841e-01    1.820750e+00   4.605374e-02
  3.370946e-01    1.814161e+00   4.579737e-02
  3.393050e-01    1.857720e+00   4.616837e-02
  3.415155e-01    1.812595e+00   4.543273e-02
  3.437260e-01    1.816293e+00   4.531047e-02
  3.459364e-01    1.877974e+00   4.590299e-02
  3.481469e-01    1.828269e+00   4.512614e-02
  3.503573e-01    1.852878e+00   4.526333e-02
  3.525678e-01    1.836011e+00   4.489627e-02
  3.547782e-01    1.802654e+00   4.432578e-02
  3.569887e-01    1.870017e+00   4.498639e-02
  3.591992e-01    1.867374e+00   4.479556e-02
  3.614096e-01    1.859028e+00   4.454035e-02
  3.636201e-01    1.823833e+00   4.396171e-02
  3.658305e-01    1.749849e+00   4.291392e-02
  3.680410e-01    1.764216e+00   4.294153e-02
  3.702514e-01    1.797502e+00   4.319897e-02
  3.724619e-01    1.754651e+00   4.253561e-02
  3.746724e-01    1.759062e+00   4.244694e-02
  3.768828e-01    1.783832e+00   4.260091e-02
  3.790933e-01    1.750380e+00   4.206207e-02
  3.813037e-01    1.821776e+00   4.277091e-02
  3.835142e-01    1.809251e+00   4.248366e-02
  3.857246e-01    1.765963e+00   4.183652e-02
  3.879351e-01    1.751290e+00   4.152749e-02
  3.901455e-01    1.796794e+00   4.192962e-02
  3.923560e-01    1.782306e+00   4.162751e-02
  3.945665e-01    1.786544e+00   4.154482e-02
  3.967769e-01    1.763069e+00   4.114169e-02
  3.989874e-01    1.780764e+00   4.121857e-02
  4.011978e-01    1.744385e+00   4.066990e-02
  4.034083e-01    1.794238e+00   4.112031e-02
  4.056187e-01    1.771814e+00   4.073671e-02
  4.078292e-01    1.756727e+00   4.044012e-02
  4.100397e-01    1.793411e+00   4.073543e-02
  4.122501e-01    1.798358e+00   4.066952e-02
  4.144606e-01    1.792212e+00   4.047959e-02
  4.166710e-01    1.772807e+00   4.014013e-02
  4.188815e-01    1.798642e+00   4.031212e-02
  4.210919e-01    1.783158e+00   4.002061e-02
  4.233024e-01    1.779681e+00   3.986396e-02
  4.255128e-01    1.733837e+00   3.923344e-02
  4.277233e-01    1.791578e+00   3.976677e-02
  4.299338e-01    1.823995e+00   4.000949e-02
  4.321442e-01    1.789185e+00   3.951249e-02
  4.343547e-01    1.734646e+00   3.879558e-02
  4.365651e-01    1.766455e+00   3.903843e-02
  4.387756e-01    1.731733e+00   3.854463e-02
  4.409860e-01    1.771607e+00   3.887784e-02
  4.431965e-01    1.755139e+00   3.858974e-02
  4.454070e-01    1.766127e+00   3.860264e-02
  4.476174e-01    1.726407e+00   3.806130e-02
  4.498279e-01    1.699462e+00   3.766036e-02
  4.520383e-01    1.692850e+00   3.748389e-02
  4.542488e-01    1.702929e+00   3.749391e-02
  4.564592e-01    1.768616e+00   3.810770e-02
  4.586697e-01    1.727694e+00   3.756429e-02
  4.608801e-01    1.709964e+00   3.727094e-02
  4.630906e-01    1.721865e+00   3.730138e-02
  4.653011e-01    1.737722e+00   3.737420e-02
  4.675115e-01    1.746984e+00   3.737499e-02
  4.697220e-01    1.712334e+00   3.690560e-02
  4.719324e-01    1.709442e+00   3.677904e-02
  4.741429e-01    1.687839e+00   3.645173e-02
  4.763533e-01    1.672255e+00   3.619005e-02
  4.785638e-01    1.701350e+00   3.640922e-02
  4.807743e-01    1.730718e+00   3.662872e-02
  4.829847e-01    1.726318e+00   3.648974e-02
  4.851952e-01    1.665676e+00   3.575238e-02
  4.874056e-01    1.681509e+00   3.583133e-02
  4.896161e-01    1.666128e+00   3.557864e-02
  4.918265e-01    1.679406e+00   3.563139e-02
  4.940370e-01    1.693550e+00   3.569280e-02
  4.962475e-01    1.724349e+00   3.592695e-02
  4.984579e-01    1.721884e+00   3.581278e-02
  5.006684e-01    1.706770e+00   3.556835e-02
  5.028788e-01    1.639141e+00   3.477207e-02
  5.050893e-01    1.642353e+00   3.472146e-02
  5.072997e-01    1.670869e+00   3.493701e-02
  5.095102e-01    1.636047e+00   3.448825e-02
  5.117206e-01    1.641514e+00   3.446367e-02
  5.139311e-01    1.607695e+00   3.402609e-02
  5.161416e-01    1.636738e+00   3.425093e-02
  5.183520e-01    1.644015e+00   3.424540e-02
  5.205625e-01    1.616828e+00   3.388152e-02
  5.227729e-01    1.655688e+00   3.420627e-02
  5.249834e-01    1.680126e+00   3.437782e-02
  5.271938e-01    1.633055e+00   3.381375e-02
  5.294043e-01    1.704999e+00   3.447079e-02
  5.316148e-01    1.711431e+00   3.445669e-02
  5.338252e-01    1.739143e+00   3.465513e-02
  5.360357e-01    1.764832e+00   3.483067e-02
  5.382461e-01    1.732582e+00   3.443294e-02
  5.404566e-01    1.760574e+00   3.463100e-02
  5.426670e-01    1.670722e+00   3.365971e-02
  5.448775e-01    1.731788e+00   3.419275e-02
  5.470879e-01    1.769286e+00   3.448389e-02
  5.492984e-01    1.783835e+00   3.454838e-02
  5.515089e-01    1.760783e+00   3.424831e-02
  5.537193e-01    1.784681e+00   3.440397e-02
  5.559298e-01    1.831339e+00   3.477434e-02
  5.581402e-01    1.823167e+00   3.462088e-02
  5.603507e-01    1.788759e+00   3.421798e-02
  5.625611e-01    1.778482e+00   3.404550e-02
  5.647716e-01    1.780410e+00   3.398998e-02
  5.669821e-01    1.795651e+00   3.406157e-02
  5.691925e-01    1.763132e+00   3.367930e-02
  5.714030e-01    1.720829e+00   3.320188e-02
  5.736134e-01    1.730533e+00   3.322452e-02
  5.758239e-01    1.669890e+00   3.256756e-02
  5.780343e-01    1.676430e+00   3.256220e-02
  5.802448e-01    1.651242e+00   3.224904e-02
  5.824552e-01    1.667274e+00   3.233720e-02
  5.846657e-01    1.663218e+00   3.223053e-02
  5.868762e-01    1.641676e+00   3.195446e-02
  5.890866e-01    1.606771e+00   3.154734e-02
  5.912971e-01    1.623014e+00   3.164073e-02
  5.935075e-01    1.649715e+00   3.183402e-02
  5.957180e-01    1.655845e+00   3.182768e-02
  5.979284e-01    1.633848e+00   3.155102e-02
  6.001389e-01    1.627162e+00   3.142230e-02
  6.023494e-01    1.622636e+00   3.131484e-02
  6.045598e-01    1.641904e+00   3.143609e-02
  6.067703e-01    1.633195e+00   3.128955e-02
  6.089807e-01    1.639821e+00   3.128993e-02
  6.111912e-01    1.641764e+00   3.124593e-02
  6.134016e-01    1.678376e+00   3.152942e-02
  6.156121e-01    1.665773e+00   3.134836e-02
  6.178226e-01    1.706443e+00   3.166593e-02
  6.200330e-01    1.691631e+00   3.146601e-02
  6.222435e-01    1.691928e+00   3.140643e-02
  6.244539e-01    1.684351e+00   3.127469e-02
  6.266644e-01    1.721750e+00   3.155828e-02
  6.288748e-01    1.733733e+00   3.160629e-02
  6.310853e-01    1.758079e+00   3.176564e-02
  6.332957e-01    1.710595e+00   3.127323e-02
  6.355062e-01    1.686980e+00   3.099627e-02
  6.377167e-01    1.717830e+00   3.121838e-02
  6.399271e-01    1.723946e+00   3.121400e-02
  6.421376e-01    1.720639e+00   3.112453e-02
  6.443480e-01    1.694352e+00   3.082709e-02
  6.465585e-01    1.723349e+00   3.103086e-02
  6.487689e-01    1.683545e+00   3.061251e-02
  6.509794e-01    1.647867e+00   3.022927e-02
  6.531899e-01    1.654336e+00   3.023159e-02
  6.554003e-01    1.640916e+00   3.005212e-02
  6.576108e-01    1.581889e+00   2.945171e-02
  6.598212e-01    1.564229e+00   2.923244e-02
  6.620317e-01    1.584616e+00   2.936777e-02
  6.642421e-01    1.586200e+00   2.932808e-02
  6.664526e-01    1.629748e+00   2.967318e-02
  6.686630e-01    1.651250e+00   2.981307e-02
  6.708735e-01    1.565633e+00   2.897664e-02
  6.730840e-01    1.574797e+00   2.900831e-02
  6.752944e-01    1.620958e+00   2.937688e-02
  6.775049e-01    1.631145e+00   2.941554e-02
  6.797153e-01    1.613384e+00   2.920199e-02
  6.819258e-01    1.595308e+00   2.898556e-02
  6.841362e-01    1.602851e+00   2.900176e-02
  6.863467e-01    1.603023e+00   2.895137e-02
  6.885572e-01    1.585928e+00   2.874498e-02
  6.907676e-01    1.605011e+00   2.886559e-02
  6.929781e-01    1.616741e+00   2.891938e-02
  6.951885e-01    1.598249e+00   2.870259e-02
  6.973990e-01    1.621923e+00   2.886327e-02
  6.996094e-01    1.576808e+00   2.840896e-02
  7.018199e-01    1.519519e+00   2.783914e-02
  7.040303e-01    1.560962e+00   2.816664e-02
  7.062408e-01    1.579927e+00   2.828762e-02
  7.084513e-01    1.564738e+00   2.810235e-02
  7.106617e-01    1.556560e+00   2.798010e-02
  7.128722e-01    1.551740e+00   2.788841e-02
  7.150826e-01    1.605581e+00   2.831920e-02
  7.172931e-01    1.633711e+00   2.851699e-02
  7.195035e-01    1.551874e+00   2.774577e-02
  7.217140e-01    1.566263e+00   2.792342e-02
  7.239245e-01    1.545684e+00   2.796403e-02
  7.261349e-01    1.558301e+00   2.818595e-02
  7.283454e-01    1.600483e+00   2.863790e-02
  7.305558e-01    1.570002e+00   2.841780e-02
  7.327663e-01    1.553082e+00   2.830645e-02
  7.349767e-01    1.616780e+00   2.889768e-02
  7.371872e-01    1.595901e+00   2.869925e-02
  7.393976e-01    1.566170e+00   2.841643e-02
  7.416081e-01    1.562362e+00   2.836576e-02
  7.438186e-01    1.544983e+00   2.806460e-02
  7.460290e-01    1.536563e+00   2.769736e-02
  7.482395e-01    1.572265e+00   2.784624e-02
  7.504499e-01    1.582416e+00   2.779939e-02
  7.526604e-01    1.571357e+00   2.758565e-02
  7.548708e-01    1.544791e+00   2.726290e-02
  7.570813e-01    1.569871e+00   2.743242e-02
  7.592918e-01    1.560180e+00   2.731261e-02
  7.615022e-01    1.550434e+00   2.719361e-02
  7.637127e-01    1.566443e+00   2.730097e-02
  7.659231e-01    1.533642e+00   2.698202e-02
  7.681336e-01    1.563926e+00   2.721563e-02
  7.703440e-01    1.553794e+00   2.709632e-02
  7.725545e-01    1.521106e+00   2.677943e-02
  7.747650e-01    1.609164e+00   2.750504e-02
  7.769754e-01    1.577377e+00   2.717931e-02
  7.791859e-01    1.564245e+00   2.701262e-02
  7.813963e-01    1.578902e+00   2.708630e-02
  7.836068e-01    1.580136e+00   2.704494e-02
  7.858172e-01    1.599918e+00   2.716284e-02
  7.880277e-01    1.576570e+00   2.691262e-02
  7.902381e-01    1.596915e+00   2.703649e-02
  7.924486e-01    1.616465e+00   2.715111e-02
  7.946591e-01    1.569585e+00   2.670668e-02
  7.968695e-01    1.567133e+00   2.663804e-02
  7.990800e-01    1.622040e+00   2.705225e-02
  8.012904e-01    1.613744e+00   2.693631e-02
  8.035009e-01    1.618155e+00   2.692511e-02
  8.057113e-01    1.618873e+00   2.688451e-02
  8.079218e-01    1.644495e+00   2.704966e-02
  8.101323e-01    1.605696e+00   2.668330e-02
  8.123427e-01    1.613916e+00   2.670587e-02
  8.145532e-01    1.633535e+00   2.682174e-02
  8.167636e-01    1.630526e+00   2.675197e-02
  8.189741e-01    1.636556e+00   2.675671e-02
  8.211845e-01    1.657991e+00   2.688623e-02
  8.233950e-01    1.624327e+00   2.656861e-02
  8.256054e-01    1.632716e+00   2.659296e-02
  8.278159e-01    1.631008e+00   2.653521e-02
  8.300264e-01    1.607587e+00   2.630130e-02
  8.322368e-01    1.620566e+00   2.636437e-02
  8.344473e-01    1.651762e+00   2.657337e-02
  8.366577e-01    1.644943e+00   2.647581e-02
  8.388682e-01    1.675248e+00   2.667586e-02
  8.410786e-01    1.686228e+00   2.672051e-02
  8.432891e-01    1.650675e+00   2.639530e-02
  8.454996e-01    1.669813e+00   2.650586e-02
  8.477100e-01    1.658142e+00   2.637114e-02
  8.499205e-01    1.676327e+00   2.647373e-02
  8.521309e-01    1.708046e+00   2.668134e-02
  8.543414e-01    1.662308e+00   2.628062e-02
  8.565518e-01    1.609293e+00   2.581790e-02
  8.587623e-01    1.594944e+00   2.566250e-02
  8.609727e-01    1.626825e+00   2.587754e-02
  8.631832e-01    1.624325e+00   2.581779e-02
  8.653937e-01    1.604138e+00   2.561741e-02
  8.676041e-01    1.619379e+00   2.570000e-02
  8.698146e-01    1.579438e+00   2.534229e-02
  8.720250e-01    1.576609e+00   2.528098e-02
  8.742355e-01    1.569932e+00   2.518900e-02
  8.764459e-01    1.568632e+00   2.514014e-02
  8.786564e-01    1.565908e+00   2.508088e-02
  8.808669e-01    1.552156e+00   2.493263e-02
  8.830773e-01    1.596890e+00   2.525130e-02
  8.852878e-01    1.599542e+00   2.523437e-02
  8.874982e-01    1.577909e+00   2.502677e-02
  8.897087e-01    1.584830e+00   2.504411e-02
  8.919191e-01    1.606034e+00   2.517327e-02
  8.941296e-01    1.636156e+00   2.537053e-02
  8.963401e-01    1.616160e+00   2.517844e-02
  8.985505e-01    1.627024e+00   2.522562e-02
  9.007610e-01    1.601529e+00   2.499047e-02
  9.029714e-01    1.563584e+00   2.465719e-02
  9.051819e-01    1.593122e+00   2.485188e-02
  9.073923e-01    1.595742e+00   2.483578e-02
  9.096028e-01    1.585615e+00   2.472210e-02
  9.118132e-01    1.553884e+00   2.443777e-02
  9.140237e-01    1.571512e+00   2.453969e-02
  9.162342e-01    1.615964e+00   2.484962e-02
  9.184446e-01    1.610028e+00   2.476807e-02
  9.206551e-01    1.604624e+00   2.469083e-02
  9.228655e-01    1.567379e+00   2.436772e-02
  9.250760e-01    1.569373e+00   2.434821e-02
  9.272864e-01    1.602777e+00   2.457170e-02
  9.294969e-01    1.624179e+00   2.469918e-02
  9.317074e-01    1.584070e+00   2.435783e-02
  9.339178e-01    1.589830e+00   2.436875e-02
  9.361283e-01    1.600340e+00   2.441310e-02
  9.383387e-01    1.635350e+00   2.464515e-02
  9.405492e-01    1.640215e+00   2.464730e-02
  9.427596e-01    1.636771e+00   2.458597e-02
  9.449701e-01    1.662659e+00   2.474596e-02
  9.471805e-01    1.666344e+00   2.473830e-02
  9.493910e-01    1.648835e+00   2.457421e-02
  9.516015e-01    1.653877e+00   2.457738e-02
  9.538119e-01    1.683904e+00   2.476552e-02
  9.560224e-01    1.676792e+00   2.467836e-02
  9.582328e-01    1.712959e+00   2.490963e-02
  9.604433e-01    1.726374e+00   2.497157e-02
  9.626537e-01    1.749164e+00   2.510206e-02
  9.648642e-01    1.790759e+00   2.536397e-02
  9.670747e-01    1.808653e+00   2.545523e-02
  9.692851e-01    1.888808e+00   2.597858e-02
  9.714956e-01    1.994764e+00   2.665967e-02
  9.737060e-01    1.966798e+00   2.643738e-02
  9.759165e-01    1.878898e+00   2.580341e-02
  9.781269e-01    1.874850e+00   2.574188e-02
  9.803374e-01    1.821434e+00   2.533743e-02
  9.825478e-01    1.801724e+00   2.516672e-02
  9.847583e-01    1.824614e+00   2.529169e-02
  9.869688e-01    1.806206e+00   2.513012e-02
  9.891792e-01    1.798017e+00   2.503974e-02
  9.913897e-01    1.787698e+00   2.493412e-02
  9.936001e-01    1.740650e+00   2.457159e-02
  9.958106e-01    1.741200e+00   2.454210e-02
  9.980210e-01    1.711323e+00   2.429904e-02
  1.000231e+00    1.674861e+00   2.417048e-02
  1.002442e+00    1.659096e+00   2.418427e-02
  1.004652e+00    1.645693e+00   2.415358e-02
  1.006863e+00    1.622038e+00   2.402912e-02
  1.009073e+00    1.582752e+00   2.377267e-02
  1.011284e+00    1.571685e+00   2.372107e-02
  1.013494e+00    1.548975e+00   2.357244e-02
  1.015705e+00    1.528528e+00   2.343847e-02
  1.017915e+00    1.517561e+00   2.337031e-02
  1.020126e+00    1.539760e+00   2.355655e-02
  1.022336e+00    1.527207e+00   2.347188e-02
  1.024547e+00    1.527705e+00   2.348684e-02
  1.026757e+00    1.527567e+00   2.349410e-02
  1.028967e+00    1.497342e+00   2.326807e-02
  1.031178e+00    1.571842e+00   2.384608e-02
  1.033388e+00    1.691418e+00   2.474185e-02
  1.035599e+00    1.599351e+00   2.406259e-02
  1.037809e+00    1.561992e+00   2.378315e-02
  1.040020e+00    1.589577e+00   2.399353e-02
  1.042230e+00    1.584365e+00   2.395616e-02
  1.044441e+00    1.558190e+00   2.375724e-02
  1.046651e+00    1.511296e+00   2.339717e-02
  1.048862e+00    1.505517e+00   2.335160e-02
  1.051072e+00    1.486915e+00   2.320455e-02
  1.053282e+00    1.471940e+00   2.308646e-02
  1.055493e+00    1.457456e+00   2.296835e-02
  1.057703e+00    1.457147e+00   2.296442e-02
  1.059914e+00    1.434424e+00   2.278047e-02
  1.062124e+00    1.462307e+00   2.299679e-02
  1.064335e+00    1.461933e+00   2.299043e-02
  1.066545e+00    1.485486e+00   2.316890e-02
  1.068756e+00    1.450008e+00   2.288687e-02
  1.070966e+00    1.441458e+00   2.281281e-02
  1.073177e+00    1.429458e+00   2.271172e-02
  1.075387e+00    1.425046e+00   2.267146e-02
  1.077597e+00    1.450691e+00   2.286736e-02
  1.079808e+00    1.483230e+00   2.298876e-02
  1.082018e+00    1.528372e+00   2.314273e-02
  1.084229e+00    1.746389e+00   2.461787e-02
  1.086439e+00    2.578470e+00   2.979667e-02
  1.088650e+00    2.649340e+00   3.010156e-02
  1.090860e+00    2.087301e+00   2.663756e-02
  1.093071e+00    1.676788e+00   2.380797e-02
  1.095281e+00    1.518266e+00   2.259591e-02
  1.097492e+00    1.480530e+00   2.225774e-02
  1.099702e+00    1.514807e+00   2.246121e-02
  1.101912e+00    1.600032e+00   2.303290e-02
  1.104123e+00    1.617026e+00   2.310376e-02
  1.106333e+00    1.531373e+00   2.243762e-02
  1.108544e+00    1.479570e+00   2.200982e-02
  1.110754e+00    1.458821e+00   2.181143e-02
  1.112965e+00    1.448677e+00   2.169455e-02
  1.115175e+00    1.438517e+00   2.157690e-02
  1.117386e+00    1.429335e+00   2.146847e-02
  1.119596e+00    1.391092e+00   2.114174e-02
  1.121807e+00    1.380042e+00   2.101918e-02
  1.124017e+00    1.406730e+00   2.118480e-02
  1.126228e+00    1.386225e+00   2.099433e-02
  1.128438e+00    1.378895e+00   2.090227e-02
  1.130648e+00    1.396904e+00   2.100403e-02
  1.132859e+00    1.383064e+00   2.086554e-02
  1.135069e+00    1.382341e+00   2.082547e-02
  1.137280e+00    1.395493e+00   2.089125e-02
  1.139490e+00    1.360465e+00   2.059465e-02
  1.141701e+00    1.339866e+00   2.040556e-02
  1.143911e+00    1.346387e+00   2.042372e-02
  1.146122e+00    1.369265e+00   2.056463e-02
  1.148332e+00    1.371487e+00   2.054953e-02
  1.150543e+00    1.332833e+00   2.022755e-02
  1.152753e+00    1.370822e+00   2.048298e-02
  1.154963e+00    1.404980e+00   2.070524e-02
  1.157174e+00    1.380234e+00   2.049185e-02
  1.159384e+00    1.371924e+00   2.040022e-02
  1.161595e+00    1.362576e+00   2.030084e-02
  1.163805e+00    1.332461e+00   2.004638e-02
  1.166016e+00    1.345327e+00   2.011372e-02
  1.168226e+00    1.371372e+00   2.027850e-02
  1.170437e+00    1.375272e+00   2.027857e-02
  1.172647e+00    1.376212e+00   2.025650e-02
  1.174858e+00    1.427725e+00   2.060336e-02
  1.177068e+00    1.466762e+00   2.085385e-02
  1.179278e+00    1.442827e+00   2.065359e-02
  1.181489e+00    1.412665e+00   2.040905e-02
  1.183699e+00    1.358885e+00   1.998921e-02
  1.185910e+00    1.346296e+00   1.986875e-02
  1.188120e+00    1.339301e+00   1.979055e-02
  1.190331e+00    1.330662e+00   1.970007e-02
  1.192541e+00    1.378605e+00   2.002422e-02
  1.194752e+00    1.336473e+00   1.968900e-02
  1.196962e+00    1.327492e+00   1.959719e-02
  1.199173e+00    1.334640e+00   1.962355e-02
  1.201383e+00    1.320674e+00   1.949375e-02
  1.203593e+00    1.325788e+00   1.950684e-02
  1.205804e+00    1.351092e+00   1.966620e-02
  1.208014e+00    1.323903e+00   1.944073e-02
  1.210225e+00    1.331338e+00   1.947007e-02
  1.212435e+00    1.328315e+00   1.942339e-02
  1.214646e+00    1.333800e+00   1.943749e-02
  1.216856e+00    1.358499e+00   1.959107e-02
  1.219067e+00    1.386230e+00   1.976522e-02
  1.221277e+00    1.403406e+00   1.986179e-02
  1.223488e+00    1.350369e+00   1.945713e-02
  1.225698e+00    1.352933e+00   1.944866e-02
  1.227909e+00    1.341328e+00   1.933498e-02
  1.230119e+00    1.349373e+00   1.936103e-02
  1.232329e+00    1.390379e+00   1.962183e-02
  1.234540e+00    1.392005e+00   1.960256e-02
  1.236750e+00    1.394118e+00   1.958665e-02
  1.238961e+00    1.448858e+00   1.993955e-02
  1.241171e+00    1.478712e+00   2.011865e-02
  1.243382e+00    1.430210e+00   1.976175e-02
  1.245592e+00    1.395602e+00   1.949671e-02
  1.247803e+00    1.321055e+00   1.894542e-02
  1.250013e+00    1.356284e+00   1.917276e-02
  1.252224e+00    1.346491e+00   1.908021e-02
  1.254434e+00    1.335251e+00   1.897680e-02
  1.256644e+00    1.339159e+00   1.898142e-02
  1.258855e+00    1.326770e+00   1.887036e-02
  1.261065e+00    1.329638e+00   1.886754e-02
  1.263276e+00    1.348765e+00   1.897982e-02
  1.265486e+00    1.362265e+00   1.905161e-02
  1.267697e+00    1.337414e+00   1.885413e-02
  1.269907e+00    1.309829e+00   1.863631e-02
  1.272118e+00    1.350930e+00   1.890385e-02
  1.274328e+00    1.352708e+00   1.889355e-02
  1.276539e+00    1.334308e+00   1.874196e-02
  1.278749e+00    1.343069e+00   1.878113e-02
  1.280959e+00    1.360219e+00   1.887807e-02
  1.283170e+00    1.355805e+00   1.882493e-02
  1.285380e+00    1.341310e+00   1.870166e-02
  1.287591e+00    1.341917e+00   1.868392e-02
  1.289801e+00    1.325168e+00   1.854592e-02
  1.292012e+00    1.349497e+00   1.869830e-02
  1.294222e+00    1.345268e+00   1.865277e-02
  1.296433e+00    1.346294e+00   1.864430e-02
  1.298643e+00    1.364621e+00   1.875420e-02
  1.300854e+00    1.369297e+00   1.876979e-02
  1.303064e+00    1.336291e+00   1.852308e-02
  1.305274e+00    1.336291e+00   1.850172e-02
  1.307485e+00    1.358591e+00   1.863385e-02
  1.309695e+00    1.359228e+00   1.861591e-02
  1.311906e+00    1.358720e+00   1.859067e-02
  1.314116e+00    1.331096e+00   1.838006e-02
  1.316327e+00    1.326884e+00   1.832946e-02
  1.318537e+00    1.329944e+00   1.832884e-02
  1.320748e+00    1.340417e+00   1.837940e-02
  1.322958e+00    1.351344e+00   1.843365e-02
  1.325169e+00    1.334687e+00   1.829876e-02
  1.327379e+00    1.383613e+00   1.860905e-02
  1.329589e+00    1.377463e+00   1.854640e-02
  1.331800e+00    1.349413e+00   1.833588e-02
  1.334010e+00    1.363101e+00   1.840789e-02
  1.336221e+00    1.375795e+00   1.847145e-02
  1.338431e+00    1.346505e+00   1.825294e-02
  1.340642e+00    1.351491e+00   1.835088e-02
  1.342852e+00    1.342783e+00   1.839207e-02
  1.345063e+00    1.336149e+00   1.839583e-02
  1.347273e+00    1.338066e+00   1.844409e-02
  1.349484e+00    1.357297e+00   1.860393e-02
  1.351694e+00    1.306008e+00   1.827137e-02
  1.353905e+00    1.341815e+00   1.853808e-02
  1.356115e+00    1.343773e+00   1.856663e-02
  1.358325e+00    1.337208e+00   1.853447e-02
  1.360536e+00    1.351724e+00   1.864642e-02
  1.362746e+00    1.344767e+00   1.860795e-02
  1.364957e+00    1.305541e+00   1.834209e-02
  1.367167e+00    1.316071e+00   1.842295e-02
  1.369378e+00    1.328772e+00   1.851762e-02
  1.371588e+00    1.307977e+00   1.837722e-02
  1.373799e+00    1.329246e+00   1.852968e-02
  1.376009e+00    1.306804e+00   1.837598e-02
  1.378220e+00    1.285787e+00   1.823007e-02
  1.380430e+00    1.307592e+00   1.838668e-02
  1.382640e+00    1.296799e+00   1.831154e-02
  1.384851e+00    1.303285e+00   1.835815e-02
  1.387061e+00    1.292937e+00   1.828542e-02
  1.389272e+00    1.290343e+00   1.826726e-02
  1.391482e+00    1.310906e+00   1.841157e-02
  1.393693e+00    1.268653e+00   1.811156e-02
  1.395903e+00    1.254195e+00   1.800657e-02
  1.398114e+00    1.264796e+00   1.808113e-02
  1.400324e+00    1.275332e+00   1.815417e-02
  1.402535e+00    1.263845e+00   1.806992e-02
  1.404745e+00    1.289966e+00   1.825332e-02
  1.406955e+00    1.279612e+00   1.817723e-02
  1.409166e+00    1.253109e+00   1.798471e-02
  1.411376e+00    1.237123e+00   1.786656e-02
  1.413587e+00    1.247920e+00   1.794055e-02
  1.415797e+00    1.255230e+00   1.798953e-02
  1.418008e+00    1.235401e+00   1.780557e-02
  1.420218e+00    1.242006e+00   1.770503e-02
  1.422429e+00    1.248345e+00   1.766557e-02
  1.424639e+00    1.251783e+00   1.762567e-02
  1.426850e+00    1.222992e+00   1.736809e-02
  1.429060e+00    1.267278e+00   1.763083e-02
  1.431270e+00    1.284258e+00   1.770401e-02
  1.433481e+00    1.261488e+00   1.750554e-02
  1.435691e+00    1.270617e+00   1.753032e-02
  1.437902e+00    1.254888e+00   1.738526e-02
  1.440112e+00    1.248517e+00   1.730599e-02
  1.442323e+00    1.263605e+00   1.737731e-02
  1.444533e+00    1.255461e+00   1.728885e-02
  1.446744e+00    1.265089e+00   1.732394e-02
  1.448954e+00    1.254531e+00   1.722150e-02
  1.451165e+00    1.245931e+00   1.713290e-02
  1.453375e+00    1.251706e+00   1.714469e-02
  1.455586e+00    1.259148e+00   1.716755e-02
  1.457796e+00    1.267056e+00   1.719391e-02
  1.460006e+00    1.261420e+00   1.712845e-02
  1.462217e+00    1.273623e+00   1.718485e-02
  1.464427e+00    1.259249e+00   1.706211e-02
  1.466638e+00    1.252077e+00   1.698829e-02
  1.468848e+00    1.257963e+00   1.700294e-02
  1.471059e+00    1.292037e+00   1.720637e-02
  1.473269e+00    1.287744e+00   1.715320e-02
  1.475480e+00    1.254965e+00   1.690988e-02
  1.477690e+00    1.242155e+00   1.679973e-02
  1.479901e+00    1.255067e+00   1.686311e-02
  1.482111e+00    1.272884e+00   1.695900e-02
  1.484321e+00    1.281831e+00   1.699526e-02
  1.486532e+00    1.262308e+00   1.684305e-02
  1.488742e+00    1.263519e+00   1.682848e-02
  1.490953e+00    1.251089e+00   1.672303e-02
  1.493163e+00    1.275637e+00   1.686388e-02
  1.495374e+00    1.290892e+00   1.694270e-02
  1.497584e+00    1.256516e+00   1.669400e-02
  1.499795e+00    1.237819e+00   1.654786e-02
  1.502005e+00    1.257610e+00   1.665796e-02
  1.504216e+00    1.257282e+00   1.663477e-02
  1.506426e+00    1.253650e+00   1.658995e-02
  1.508636e+00    1.235836e+00   1.645139e-02
  1.510847e+00    1.240237e+00   1.645897e-02
  1.513057e+00    1.252006e+00   1.651185e-02
  1.515268e+00    1.245703e+00   1.644460e-02
  1.517478e+00    1.237196e+00   1.636336e-02
  1.519689e+00    1.262736e+00   1.650635e-02
  1.521899e+00    1.249305e+00   1.639528e-02
  1.524110e+00    1.238694e+00   1.630528e-02
  1.526320e+00    1.256161e+00   1.640021e-02
  1.528531e+00    1.279439e+00   1.653148e-02
  1.530741e+00    1.275920e+00   1.648941e-02
  1.532951e+00    1.252321e+00   1.631659e-02
  1.535162e+00    1.263337e+00   1.647527e-02
  1.537372e+00    1.208344e+00   1.617853e-02
  1.539583e+00    1.206699e+00   1.620115e-02
  1.541793e+00    1.204773e+00   1.619502e-02
  1.544004e+00    1.221729e+00   1.630886e-02
  1.546214e+00    1.240273e+00   1.643066e-02
  1.548425e+00    1.247112e+00   1.647616e-02
  1.550635e+00    1.238388e+00   1.642809e-02
  1.552846e+00    1.239421e+00   1.644457e-02
  1.555056e+00    1.231732e+00   1.635223e-02
  1.557266e+00    1.213353e+00   1.612070e-02
  1.559477e+00    1.223573e+00   1.612983e-02
  1.561687e+00    1.228258e+00   1.613021e-02
  1.563898e+00    1.237743e+00   1.617526e-02
  1.566108e+00    1.231627e+00   1.611938e-02
  1.568319e+00    1.228128e+00   1.608094e-02
  1.570529e+00    1.251489e+00   1.620795e-02
  1.572740e+00    1.240964e+00   1.611209e-02
  1.574950e+00    1.246904e+00   1.612425e-02
  1.577161e+00    1.269134e+00   1.624163e-02
  1.579371e+00    1.263413e+00   1.618114e-02
  1.581582e+00    1.237898e+00   1.599721e-02
  1.583792e+00    1.252430e+00   1.607272e-02
  1.586002e+00    1.252411e+00   1.605496e-02
  1.588213e+00    1.227224e+00   1.587556e-02
  1.590423e+00    1.233458e+00   1.589585e-02
  1.592634e+00    1.228042e+00   1.583943e-02
  1.594844e+00    1.249885e+00   1.595821e-02
  1.597055e+00    1.206475e+00   1.565846e-02
  1.599265e+00    1.209274e+00   1.565615e-02
  1.601476e+00    1.228192e+00   1.575793e-02
  1.603686e+00    1.226020e+00   1.572435e-02
  1.605897e+00    1.231384e+00   1.573861e-02
  1.608107e+00    1.219837e+00   1.564523e-02
  1.610317e+00    1.215828e+00   1.560036e-02
  1.612528e+00    1.197551e+00   1.546377e-02
  1.614738e+00    1.203368e+00   1.548255e-02
  1.616949e+00    1.194348e+00   1.540568e-02
  1.619159e+00    1.231668e+00   1.562575e-02
  1.621370e+00    1.183947e+00   1.530187e-02
  1.623580e+00    1.185459e+00   1.529349e-02
  1.625791e+00    1.188097e+00   1.529241e-02
  1.628001e+00    1.178333e+00   1.521137e-02
  1.630212e+00    1.153477e+00   1.503263e-02
  1.632422e+00    1.153058e+00   1.501223e-02
  1.634632e+00    1.173442e+00   1.512711e-02
  1.636843e+00    1.165511e+00   1.505847e-02
  1.639053e+00    1.141711e+00   1.488686e-02
  1.641264e+00    1.158411e+00   1.497832e-02
  1.643474e+00    1.161737e+00   1.498244e-02
  1.645685e+00    1.138456e+00   1.481503e-02
  1.647895e+00    1.139987e+00   1.480850e-02
  1.650106e+00    1.126261e+00   1.470228e-02
  1.652316e+00    1.120647e+00   1.464929e-02
  1.654527e+00    1.115352e+00   1.459817e-02
  1.656737e+00    1.105607e+00   1.451792e-02
  1.658947e+00    1.153909e+00   1.481521e-02
  1.661158e+00    1.215682e+00   1.518971e-02
  1.663368e+00    1.168981e+00   1.487877e-02
  1.665579e+00    1.119868e+00   1.454670e-02
  1.667789e+00    1.117491e+00   1.451500e-02
  1.670000e+00    1.112271e+00   1.446558e-02
  1.672210e+00    1.106779e+00   1.441396e-02
  1.674421e+00    1.098113e+00   1.434212e-02
  1.676631e+00    1.116866e+00   1.444811e-02
  1.678842e+00    1.072880e+00   1.414516e-02
  1.681052e+00    1.090226e+00   1.424367e-02
  1.683263e+00    1.071081e+00   1.410307e-02
  1.685473e+00    1.072598e+00   1.409796e-02
  1.687683e+00    1.103910e+00   1.428669e-02
  1.689894e+00    1.119785e+00   1.437302e-02
  1.692104e+00    1.140812e+00   1.449195e-02
  1.694315e+00    1.209628e+00   1.490725e-02
  1.696525e+00    1.209566e+00   1.489078e-02
  1.698736e+00    1.111151e+00   1.425700e-02
  1.700946e+00    1.102475e+00   1.418578e-02
  1.703157e+00    1.092971e+00   1.410963e-02
  1.705367e+00    1.066465e+00   1.392289e-02
  1.707578e+00    1.066629e+00   1.390927e-02
  1.709788e+00    1.053540e+00   1.380950e-02
  1.711998e+00    1.053629e+00   1.379498e-02
  1.714209e+00    1.054882e+00   1.378864e-02
  1.716419e+00    1.045105e+00   1.371025e-02
  1.718630e+00    1.036106e+00   1.363681e-02
  1.720840e+00    1.003455e+00   1.340620e-02
  1.723051e+00    9.852414e-01   1.327038e-02
  1.725261e+00    1.025501e+00   1.352408e-02
  1.727472e+00    1.003168e+00   1.336195e-02
  1.729682e+00    9.950085e-01   1.329416e-02
  1.731893e+00    1.007982e+00   1.336667e-02
  1.734103e+00    1.004773e+00   1.333163e-02
  1.736313e+00    9.930536e-01   1.323972e-02
  1.738524e+00    9.899936e-01   1.320557e-02
  1.740734e+00    9.712744e-01   1.306661e-02
  1.742945e+00    9.882612e-01   1.316698e-02
  1.745155e+00    9.777433e-01   1.308337e-02
  1.747366e+00    9.916767e-01   1.316244e-02
  1.749576e+00    9.890611e-01   1.313137e-02
  1.751787e+00    9.717470e-01   1.300268e-02
  1.753997e+00    9.640561e-01   1.293783e-02
  1.756208e+00    9.595338e-01   1.289436e-02
  1.758418e+00    9.674133e-01   1.293410e-02
  1.760628e+00    9.775604e-01   1.298835e-02
  1.762839e+00    9.888464e-01   1.304973e-02
  1.765049e+00    9.728115e-01   1.293032e-02
  1.767260e+00    9.583001e-01   1.282070e-02
  1.769470e+00    9.912021e-01   1.302569e-02
  1.771681e+00    1.006889e+00   1.311486e-02
  1.773891e+00    1.012738e+00   1.313943e-02
  1.776102e+00    9.941871e-01   1.300535e-02
  1.778312e+00    1.029522e+00   1.322112e-02
  1.780523e+00    1.144590e+00   1.392637e-02
  1.782733e+00    1.095454e+00   1.361053e-02
  1.784944e+00    1.012600e+00   1.307228e-02
  1.787154e+00    9.625358e-01   1.273229e-02
  1.789364e+00    9.470588e-01   1.261691e-02
  1.791575e+00    9.336666e-01   1.251481e-02
  1.793785e+00    9.376726e-01   1.252911e-02
  1.795996e+00    9.425987e-01   1.254932e-02
  1.798206e+00    9.504685e-01   1.258887e-02
  1.800417e+00    9.403895e-01   1.250911e-02
  1.802627e+00    9.245752e-01   1.239146e-02
  1.804838e+00    9.477696e-01   1.253358e-02
  1.807048e+00    1.028547e+00   1.304310e-02
  1.809259e+00    1.046186e+00   1.313988e-02
  1.811469e+00    1.004735e+00   1.286121e-02
  1.813679e+00    9.352703e-01   1.239338e-02
  1.815890e+00    9.001642e-01   1.214380e-02
  1.818100e+00    8.826988e-01   1.201040e-02
  1.820311e+00    8.879703e-01   1.203150e-02
  1.822521e+00    8.725939e-01   1.191217e-02
  1.824732e+00    8.657078e-01   1.185048e-02
  1.826942e+00    8.616973e-01   1.181083e-02
  1.829153e+00    8.780904e-01   1.191100e-02
  1.831363e+00    8.678352e-01   1.182932e-02
  1.833574e+00    8.983995e-01   1.202402e-02
  1.835784e+00    9.012296e-01   1.203140e-02
  1.837994e+00    9.021660e-01   1.202577e-02
  1.840205e+00    8.850118e-01   1.189965e-02
  1.842415e+00    8.608555e-01   1.172444e-02
  1.844626e+00    8.597664e-01   1.170552e-02
  1.846836e+00    8.615793e-01   1.170647e-02
  1.849047e+00    8.622069e-01   1.169915e-02
  1.851257e+00    8.500040e-01   1.160658e-02
  1.853468e+00    8.562948e-01   1.164067e-02
  1.855678e+00    8.450428e-01   1.155515e-02
  1.857889e+00    8.698167e-01   1.171472e-02
  1.860099e+00    8.616311e-01   1.165086e-02
  1.862309e+00    8.522742e-01   1.157890e-02
  1.864520e+00    8.777768e-01   1.174220e-02
  1.866730e+00    8.467925e-01   1.152375e-02
  1.868941e+00    8.569101e-01   1.158141e-02
  1.871151e+00    8.660306e-01   1.163140e-02
  1.873362e+00    8.420131e-01   1.145768e-02
  1.875572e+00    8.630387e-01   1.158883e-02
  1.877783e+00    8.480362e-01   1.147625e-02
  1.879993e+00    8.433056e-01   1.143305e-02
  1.882204e+00    8.536260e-01   1.149184e-02
  1.884414e+00    8.424216e-01   1.140512e-02
  1.886624e+00    8.575723e-01   1.149605e-02
  1.888835e+00    8.422858e-01   1.138217e-02
  1.891045e+00    8.288376e-01   1.128010e-02
  1.893256e+00    8.270078e-01   1.125666e-02
  1.895466e+00    8.167214e-01   1.117539e-02
  1.897677e+00    8.265172e-01   1.123132e-02
  1.899887e+00    8.543303e-01   1.140764e-02
  1.902098e+00    8.293076e-01   1.122853e-02
  1.904308e+00    8.096575e-01   1.108423e-02
  1.906519e+00    8.244995e-01   1.117455e-02
  1.908729e+00    8.406603e-01   1.127288e-02
  1.910940e+00    8.208510e-01   1.112818e-02
  1.913150e+00    8.141464e-01   1.107213e-02
  1.915360e+00    8.001433e-01   1.096603e-02
  1.917571e+00    7.870562e-01   1.086536e-02
  1.919781e+00    7.982174e-01   1.093157e-02
  1.921992e+00    8.160191e-01   1.104221e-02
  1.924202e+00    7.963960e-01   1.089801e-02
  1.926413e+00    8.294917e-01   1.111176e-02
  1.928623e+00    8.085914e-01   1.096040e-02
  1.930834e+00    8.009903e-01   1.089838e-02
  1.933044e+00    8.047393e-01   1.091325e-02
  1.935255e+00    7.977192e-01   1.085530e-02
  1.937465e+00    8.055476e-01   1.089803e-02
  1.939675e+00    7.940872e-01   1.080950e-02
  1.941886e+00    7.783830e-01   1.069195e-02
  1.944096e+00    7.953606e-01   1.079779e-02
  1.946307e+00    7.884123e-01   1.074027e-02
  1.948517e+00    7.887779e-01   1.073239e-02
  1.950728e+00    8.142391e-01   1.089388e-02
  1.952938e+00    7.961074e-01   1.076185e-02
  1.955149e+00    7.842042e-01   1.067092e-02
  1.957359e+00    7.951229e-01   1.073492e-02
  1.959570e+00    7.803446e-01   1.062392e-02
  1.961780e+00    7.778437e-01   1.059705e-02
  1.963990e+00    8.030574e-01   1.075725e-02
  1.966201e+00    8.023174e-01   1.074215e-02
  1.968411e+00    7.896754e-01   1.064705e-02
  1.970622e+00    7.873135e-01   1.062101e-02
  1.972832e+00    7.698861e-01   1.049295e-02
  1.975043e+00    7.892429e-01   1.061396e-02
  1.977253e+00    8.022245e-01   1.069086e-02
  1.979464e+00    8.046610e-01   1.069690e-02
  1.981674e+00    7.852714e-01   1.055698e-02
  1.983885e+00    7.720041e-01   1.045744e-02
  1.986095e+00    7.731223e-01   1.045535e-02
  1.988305e+00    7.784155e-01   1.048120e-02
  1.990516e+00    7.967767e-01   1.059406e-02
  1.992726e+00    7.991748e-01   1.060018e-02
  1.994937e+00    8.027080e-01   1.061331e-02
  1.997147e+00    7.842109e-01   1.048052e-02
  1.999358e+00    7.839095e-01   1.046860e-02
  2.001568e+00    7.828744e-01   1.045081e-02
  2.003779e+00    7.854768e-01   1.045613e-02
  2.005989e+00    7.895495e-01   1.047107e-02
  2.008200e+00    7.916154e-01   1.047306e-02
  2.010410e+00    7.836344e-01   1.040829e-02
  2.012621e+00    7.823213e-01   1.038774e-02
  2.014831e+00    7.527703e-01   1.017832e-02
  2.017041e+00    7.435048e-01   1.010524e-02
  2.019252e+00    7.611183e-01   1.021431e-02
  2.021462e+00    7.524049e-01   1.014625e-02
  2.023673e+00    7.675415e-01   1.023839e-02
  2.025883e+00    7.606258e-01   1.018266e-02
  2.028094e+00    7.580517e-01   1.015580e-02
  2.030304e+00    7.607738e-01   1.016449e-02
  2.032515e+00    7.642344e-01   1.017825e-02
  2.034725e+00    7.503422e-01   1.007595e-02
  2.036936e+00    7.458391e-01   1.003641e-02
  2.039146e+00    7.330708e-01   9.940694e-03
  2.041356e+00    7.577673e-01   1.009710e-02
  2.043567e+00    7.475260e-01   1.001940e-02
  2.045777e+00    7.491079e-01   1.002077e-02
  2.047988e+00    7.545413e-01   1.004769e-02
  2.050198e+00    7.573825e-01   1.005812e-02
  2.052409e+00    7.880803e-01   1.025209e-02
  2.054619e+00    7.849392e-01   1.022413e-02
  2.056830e+00    7.884890e-01   1.023986e-02
  2.059040e+00    7.651145e-01   1.007938e-02
  2.061251e+00    7.518164e-01   9.984110e-03
  2.063461e+00    7.709010e-01   1.010235e-02
  2.065671e+00    7.536658e-01   9.980030e-03
  2.067882e+00    7.533897e-01   9.969182e-03
  2.070092e+00    7.474505e-01   9.920592e-03
  2.072303e+00    7.559921e-01   9.967936e-03
  2.074513e+00    7.612727e-01   9.993253e-03
  2.076724e+00    7.554526e-01   9.945468e-03
  2.078934e+00    7.401150e-01   9.834993e-03
  2.081145e+00    7.484577e-01   9.881157e-03
  2.083355e+00    7.473305e-01   9.864503e-03
  2.085566e+00    7.667827e-01   9.982996e-03
  2.087776e+00    7.620091e-01   9.942223e-03
  2.089986e+00    7.581517e-01   9.908126e-03
  2.092197e+00    7.651778e-01   9.944802e-03
  2.094407e+00    7.583292e-01   9.890846e-03
  2.096618e+00    7.484744e-01   9.817379e-03
  2.098828e+00    7.497154e-01   9.816121e-03
  2.101039e+00    7.470911e-01   9.789850e-03
  2.103249e+00    7.267485e-01   9.647018e-03
  2.105460e+00    7.290623e-01   9.653334e-03
  2.107670e+00    7.210421e-01   9.591412e-03
  2.109881e+00    7.191362e-01   9.569613e-03
  2.112091e+00    7.146260e-01   9.530634e-03
  2.114301e+00    7.346606e-01   9.654465e-03
  2.116512e+00    7.107102e-01   9.487075e-03
  2.118722e+00    7.290593e-01   9.599898e-03
  2.120933e+00    7.348357e-01   9.628882e-03
  2.123143e+00    7.393972e-01   9.649717e-03
  2.125354e+00    7.361504e-01   9.619861e-03
  2.127564e+00    7.155999e-01   9.475909e-03
  2.129775e+00    7.265593e-01   9.539393e-03
  2.131985e+00    7.233756e-01   9.509359e-03
  2.134196e+00    7.360792e-01   9.583780e-03
  2.136406e+00    7.284580e-01   9.525183e-03
  2.138617e+00    7.123049e-01   9.410534e-03
  2.140827e+00    7.006089e-01   9.348906e-03
  2.143037e+00    6.999657e-01   9.389862e-03
  2.145248e+00    7.005203e-01   9.415491e-03
  2.147458e+00    7.132078e-01   9.515608e-03
  2.149669e+00    7.043727e-01   9.468369e-03
  2.151879e+00    7.034138e-01   9.471132e-03
  2.154090e+00    7.091320e-01   9.516907e-03
  2.156300e+00    7.102594e-01   9.531138e-03
  2.158511e+00    6.855874e-01   9.369369e-03
  2.160721e+00    7.036979e-01   9.497150e-03
  2.162932e+00    6.953983e-01   9.444723e-03
  2.165142e+00    6.999361e-01   9.478498e-03
  2.167352e+00    7.078302e-01   9.534745e-03
  2.169563e+00    6.958766e-01   9.455852e-03
  2.171773e+00    6.999287e-01   9.485795e-03
  2.173984e+00    6.905119e-01   9.423187e-03
  2.176194e+00    6.906666e-01   9.425425e-03
  2.178405e+00    6.843875e-01   9.383190e-03
  2.180615e+00    6.839797e-01   9.381057e-03
  2.182826e+00    6.853763e-01   9.391318e-03
  2.185036e+00    6.999277e-01   9.490524e-03
  2.187247e+00    7.084889e-01   9.548352e-03
  2.189457e+00    6.981038e-01   9.477710e-03
  2.191667e+00    6.892328e-01   9.417118e-03
  2.193878e+00    6.802386e-01   9.354911e-03
  2.196088e+00    6.610031e-01   9.221031e-03
  2.198299e+00    6.641949e-01   9.242170e-03
  2.200509e+00    6.769166e-01   9.329224e-03
  2.202720e+00    6.642890e-01   9.240662e-03
  2.204930e+00    6.744972e-01   9.310137e-03
  2.207141e+00    6.887895e-01   9.407163e-03
  2.209351e+00    6.807863e-01   9.350445e-03
  2.211562e+00    6.853164e-01   9.379903e-03
  2.213772e+00    6.603162e-01   9.152416e-03
  2.215982e+00    6.704128e-01   9.178078e-03
  2.218193e+00    6.729497e-01   9.165866e-03
  2.220403e+00    6.778976e-01   9.174867e-03
  2.222614e+00    6.596377e-01   9.029711e-03
  2.224824e+00    6.740956e-01   9.108745e-03
  2.227035e+00    6.780130e-01   9.117663e-03
  2.229245e+00    6.609015e-01   8.985062e-03
  2.231456e+00    6.433814e-01   8.849867e-03
  2.233666e+00    6.572940e-01   8.930088e-03
  2.235877e+00    6.628379e-01   8.953489e-03
  2.238087e+00    6.585689e-01   8.911249e-03
  2.240298e+00    6.716872e-01   8.985776e-03
  2.242508e+00    6.658537e-01   8.931565e-03
  2.244718e+00    6.797994e-01   9.008678e-03
  2.246929e+00    6.668226e-01   8.907891e-03
  2.249139e+00    6.498545e-01   8.781596e-03
  2.251350e+00    6.426901e-01   8.721563e-03
  2.253560e+00    6.559048e-01   8.799285e-03
  2.255771e+00    6.547092e-01   8.779965e-03
  2.257981e+00    6.512858e-01   8.745910e-03
  2.260192e+00    6.652309e-01   8.827924e-03
  2.262402e+00    6.583940e-01   8.771655e-03
  2.264613e+00    6.612666e-01   8.779941e-03
  2.266823e+00    6.689528e-01   8.820374e-03
  2.269033e+00    6.665073e-01   8.793851e-03
  2.271244e+00    6.659793e-01   8.779923e-03
  2.273454e+00    6.797688e-01   8.859973e-03
  2.275665e+00    6.436542e-01   8.611256e-03
  2.277875e+00    6.638913e-01   8.735601e-03
  2.280086e+00    6.576967e-01   8.684758e-03
  2.282296e+00    6.455205e-01   8.594671e-03
  2.284507e+00    6.626096e-01   8.697515e-03
  2.286717e+00    6.613469e-01   8.679765e-03
  2.288928e+00    6.484907e-01   8.585175e-03
  2.291138e+00    6.347770e-01   8.484637e-03
  2.293348e+00    6.632234e-01   8.663071e-03
  2.295559e+00    6.667872e-01   8.676927e-03
  2.297769e+00    6.469111e-01   8.537439e-03
  2.299980e+00    6.567510e-01   8.592755e-03
  2.302190e+00    6.480295e-01   8.526433e-03
  2.304401e+00    6.482939e-01   8.518857e-03
  2.306611e+00    6.628417e-01   8.604655e-03
  2.308822e+00    6.495928e-01   8.509842e-03
  2.311032e+00    6.513289e-01   8.514758e-03
  2.313243e+00    6.542777e-01   8.527708e-03
  2.315453e+00    6.451545e-01   8.460500e-03
  2.317663e+00    6.491183e-01   8.477310e-03
  2.319874e+00    6.521943e-01   8.488619e-03
  2.322084e+00    6.367025e-01   8.378282e-03
  2.324295e+00    6.428020e-01   8.410102e-03
  2.326505e+00    6.406291e-01   8.386867e-03
  2.328716e+00    6.340038e-01   8.334891e-03
  2.330926e+00    6.435396e-01   8.388533e-03
  2.333137e+00    6.457995e-01   8.394860e-03
  2.335347e+00    6.253294e-01   8.251986e-03
  2.337558e+00    6.386606e-01   8.331246e-03
  2.339768e+00    6.378717e-01   8.317551e-03
  2.341979e+00    6.386690e-01   8.314381e-03
  2.344189e+00    6.358569e-01   8.287671e-03
  2.346399e+00    6.307628e-01   8.245953e-03
  2.348610e+00    6.344307e-01   8.261435e-03
  2.350820e+00    6.357232e-01   8.261674e-03
  2.353031e+00    6.167430e-01   8.129233e-03
  2.355241e+00    6.239619e-01   8.168667e-03
  2.357452e+00    6.423960e-01   8.279962e-03
  2.359662e+00    6.339518e-01   8.217150e-03
  2.361873e+00    6.230059e-01   8.137705e-03
  2.364083e+00    6.297744e-01   8.173797e-03
  2.366294e+00    6.261188e-01   8.141938e-03
  2.368504e+00    6.283723e-01   8.148501e-03
  2.370714e+00    6.218790e-01   8.098242e-03
  2.372925e+00    6.335936e-01   8.166067e-03
  2.375135e+00    6.227887e-01   8.088095e-03
  2.377346e+00    6.276960e-01   8.111915e-03
  2.379556e+00    6.201357e-01   8.055052e-03
  2.381767e+00    6.033042e-01   7.937221e-03
  2.383977e+00    6.188365e-01   8.030833e-03
  2.386188e+00    6.151415e-01   7.998928e-03
  2.388398e+00    6.170481e-01   8.003365e-03
  2.390609e+00    6.238396e-01   8.039529e-03
  2.392819e+00    6.151213e-01   7.975396e-03
  2.395029e+00    6.158009e-01   7.972116e-03
  2.397240e+00    6.280840e-01   8.043292e-03
  2.399450e+00    5.992475e-01   7.848775e-03
  2.401661e+00    6.047920e-01   7.877346e-03
  2.403871e+00    6.024610e-01   7.854461e-03
  2.406082e+00    6.025875e-01   7.847891e-03
  2.408292e+00    5.956218e-01   7.794710e-03
  2.410503e+00    5.909574e-01   7.756735e-03
  2.412713e+00    5.853435e-01   7.712150e-03
  2.414924e+00    5.847922e-01   7.701159e-03
  2.417134e+00    6.035554e-01   7.816114e-03
  2.419344e+00    5.900592e-01   7.720892e-03
  2.421555e+00    6.065174e-01   7.820297e-03
  2.423765e+00    6.051916e-01   7.804304e-03
  2.425976e+00    6.103649e-01   7.829733e-03
  2.428186e+00    5.916324e-01   7.701468e-03
  2.430397e+00    5.939408e-01   7.709008e-03
  2.432607e+00    5.978743e-01   7.727206e-03
  2.434818e+00    5.861233e-01   7.643403e-03
  2.437028e+00    6.073840e-01   7.773561e-03
  2.439239e+00    6.116505e-01   7.793056e-03
  2.441449e+00    5.900427e-01   7.646999e-03
  2.443659e+00    5.683308e-01   7.497766e-03
  2.445870e+00    5.795606e-01   7.583603e-03
  2.448080e+00    5.786161e-01   7.612119e-03
  2.450291e+00    5.833007e-01   7.659546e-03
  2.452501e+00    5.769278e-01   7.628782e-03
  2.454712e+00    5.674169e-01   7.574010e-03
  2.456922e+00    5.753859e-01   7.633659e-03
  2.459133e+00    5.709345e-01   7.609516e-03
  2.461343e+00    5.608741e-01   7.546525e-03
  2.463554e+00    5.613541e-01   7.553189e-03
  2.465764e+00    5.618410e-01   7.559610e-03
  2.467975e+00    5.744252e-01   7.646104e-03
  2.470185e+00    5.697525e-01   7.617231e-03
  2.472395e+00    5.739182e-01   7.646269e-03
  2.474606e+00    5.686060e-01   7.612376e-03
  2.476816e+00    5.596848e-01   7.553168e-03
  2.479027e+00    5.620469e-01   7.569954e-03
  2.481237e+00    5.360094e-01   7.392802e-03
  2.483448e+00    5.437882e-01   7.446536e-03
  2.485658e+00    5.531281e-01   7.510085e-03
  2.487869e+00    5.477878e-01   7.473786e-03
  2.490079e+00    5.272658e-01   7.331937e-03
  2.492290e+00    5.440125e-01   7.447018e-03
  2.494500e+00    5.418667e-01   7.431585e-03
  2.496710e+00    5.362700e-01   7.392427e-03
  2.498921e+00    5.236041e-01   7.303623e-03
  2.501131e+00    5.111055e-01   7.214981e-03
  2.503342e+00    5.226945e-01   7.295067e-03
  2.505552e+00    5.362273e-01   7.387769e-03
  2.507763e+00    5.304680e-01   7.346586e-03
  2.509973e+00    5.281298e-01   7.328960e-03
  2.512184e+00    5.397598e-01   7.407598e-03
  2.514394e+00    5.307365e-01   7.336019e-03
  2.516605e+00    5.341557e-01   7.312216e-03
  2.518815e+00    5.249711e-01   7.220773e-03
  2.521025e+00    5.161774e-01   7.139282e-03
  2.523236e+00    5.163496e-01   7.122623e-03
  2.525446e+00    5.358229e-01   7.239935e-03
  2.527657e+00    5.310845e-01   7.193183e-03
  2.529867e+00    5.128384e-01   7.054525e-03
  2.532078e+00    5.262432e-01   7.131054e-03
  2.534288e+00    5.243389e-01   7.104274e-03
  2.536499e+00    5.282996e-01   7.119062e-03
  2.538709e+00    5.438511e-01   7.211896e-03
  2.540920e+00    5.264034e-01   7.084605e-03
  2.543130e+00    5.217307e-01   7.042748e-03
  2.545340e+00    5.119947e-01   6.966774e-03
  2.547551e+00    5.146146e-01   6.974700e-03
  2.549761e+00    5.277486e-01   7.053519e-03
  2.551972e+00    5.205010e-01   6.995585e-03
  2.554182e+00    5.117943e-01   6.927734e-03
  2.556393e+00    5.215561e-01   6.984382e-03
  2.558603e+00    5.183912e-01   6.954112e-03
  2.560814e+00    5.077785e-01   6.873964e-03
  2.563024e+00    5.172960e-01   6.929501e-03
  2.565235e+00    5.349774e-01   7.037286e-03
  2.567445e+00    5.343380e-01   7.023403e-03
  2.569656e+00    5.252166e-01   6.953381e-03
  2.571866e+00    5.090405e-01   6.836192e-03
  2.574076e+00    5.130604e-01   6.853870e-03
  2.576287e+00    5.362817e-01   6.998801e-03
  2.578497e+00    5.169169e-01   6.863424e-03
  2.580708e+00    5.058199e-01   6.781335e-03
  2.582918e+00    5.103081e-01   6.803634e-03
  2.585129e+00    5.106707e-01   6.798322e-03
  2.587339e+00    4.916759e-01   6.663195e-03
  2.589550e+00    4.902115e-01   6.645856e-03
  2.591760e+00    5.090632e-01   6.764735e-03
  2.593971e+00    4.961273e-01   6.670827e-03
  2.596181e+00    4.995949e-01   6.687939e-03
  2.598391e+00    4.991291e-01   6.679701e-03
  2.600602e+00    5.027009e-01   6.697673e-03
  2.602812e+00    5.138685e-01   6.764091e-03
  2.605023e+00    5.220766e-01   6.810644e-03
  2.607233e+00    5.148467e-01   6.756138e-03
  2.609444e+00    5.051593e-01   6.685064e-03
  2.611654e+00    5.042804e-01   6.671930e-03
  2.613865e+00    4.949242e-01   6.602798e-03
  2.616075e+00    5.162197e-01   6.736133e-03
  2.618286e+00    5.084575e-01   6.678291e-03
  2.620496e+00    5.052096e-01   6.650229e-03
  2.622706e+00    5.117967e-01   6.687652e-03
  2.624917e+00    5.157644e-01   6.707614e-03
  2.627127e+00    5.238878e-01   6.754386e-03
  2.629338e+00    5.131603e-01   6.678846e-03
  2.631548e+00    5.059258e-01   6.625402e-03
  2.633759e+00    5.014829e-01   6.589120e-03
  2.635969e+00    5.047429e-01   6.603773e-03
  2.638180e+00    5.138749e-01   6.656197e-03
  2.640390e+00    5.021478e-01   6.573186e-03
  2.642601e+00    4.983859e-01   6.541871e-03
  2.644811e+00    5.060276e-01   6.584728e-03
  2.647021e+00    4.836595e-01   6.431091e-03
  2.649232e+00    4.926345e-01   6.483796e-03
  2.651442e+00    5.057532e-01   6.563025e-03
  2.653653e+00    4.966412e-01   6.496864e-03
  2.655863e+00    4.982143e-01   6.500449e-03
  2.658074e+00    5.043433e-01   6.533679e-03
  2.660284e+00    4.853875e-01   6.403420e-03
  2.662495e+00    5.036995e-01   6.516296e-03
  2.664705e+00    4.941422e-01   6.447653e-03
  2.666916e+00    4.854656e-01   6.384378e-03
  2.669126e+00    4.911367e-01   6.415145e-03
  2.671337e+00    4.922799e-01   6.416047e-03
  2.673547e+00    4.756913e-01   6.300763e-03
  2.675757e+00    4.942826e-01   6.416252e-03
  2.677968e+00    5.039308e-01   6.471993e-03
  2.680178e+00    4.996835e-01   6.438221e-03
  2.682389e+00    4.976744e-01   6.418847e-03
  2.684599e+00    4.873485e-01   6.345754e-03
  2.686810e+00    4.923471e-01   6.371601e-03
  2.689020e+00    5.018201e-01   6.426249e-03
  2.691231e+00    4.850936e-01   6.312010e-03
  2.693441e+00    4.827520e-01   6.290648e-03
  2.695652e+00    4.857551e-01   6.303687e-03
  2.697862e+00    4.862601e-01   6.300657e-03
  2.700072e+00    4.841276e-01   6.280785e-03
  2.702283e+00    4.923605e-01   6.327712e-03
  2.704493e+00    4.794280e-01   6.237842e-03
  2.706704e+00    4.839128e-01   6.260566e-03
  2.708914e+00    4.845701e-01   6.258884e-03
  2.711125e+00    4.771618e-01   6.204670e-03
  2.713335e+00    4.760128e-01   6.191177e-03
  2.715546e+00    4.779669e-01   6.197468e-03
  2.717756e+00    4.946155e-01   6.298532e-03
  2.719967e+00    4.909245e-01   6.268777e-03
  2.722177e+00    4.747663e-01   6.158674e-03
  2.724387e+00    4.786486e-01   6.177738e-03
  2.726598e+00    4.799538e-01   6.180132e-03
  2.728808e+00    4.892240e-01   6.233361e-03
  2.731019e+00    4.798759e-01   6.167421e-03
  2.733229e+00    4.798903e-01   6.161733e-03
  2.735440e+00    4.873707e-01   6.203290e-03
  2.737650e+00    4.867676e-01   6.193411e-03
  2.739861e+00    4.763945e-01   6.121036e-03
  2.742071e+00    4.992084e-01   6.260045e-03
  2.744282e+00    5.006225e-01   6.262547e-03
  2.746492e+00    4.927672e-01   6.207125e-03
  2.748702e+00    4.794182e-01   6.116589e-03
  2.750913e+00    4.703978e-01   6.053036e-03
  2.753123e+00    4.890555e-01   6.165741e-03
  2.755334e+00    4.774784e-01   6.086298e-03
  2.757544e+00    4.729520e-01   6.051659e-03
  2.759755e+00    4.848793e-01   6.121597e-03
  2.761965e+00    4.819326e-01   6.096960e-03
  2.764176e+00    4.754549e-01   6.049912e-03
  2.766386e+00    4.779606e-01   6.060025e-03
  2.768597e+00    4.893071e-01   6.125627e-03
  2.770807e+00    4.912967e-01   6.132117e-03
  2.773017e+00    4.819008e-01   6.067219e-03
  2.775228e+00    4.775440e-01   6.033944e-03
  2.777438e+00    4.769897e-01   6.024639e-03
  2.779649e+00    4.782608e-01   6.026770e-03
  2.781859e+00    4.915616e-01   6.104148e-03
  2.784070e+00    4.754109e-01   5.997202e-03
  2.786280e+00    4.666372e-01   5.935890e-03
  2.788491e+00    4.810359e-01   6.020902e-03
  2.790701e+00    4.846292e-01   6.037676e-03
  2.792912e+00    4.706993e-01   5.944323e-03
  2.795122e+00    4.813493e-01   6.005435e-03
  2.797333e+00    4.708352e-01   5.933959e-03
  2.799543e+00    4.672620e-01   5.905580e-03
  2.801753e+00    4.746480e-01   5.946227e-03
  2.803964e+00    4.728914e-01   5.929563e-03
  2.806174e+00    4.664503e-01   5.882957e-03
  2.808385e+00    4.574213e-01   5.819071e-03
  2.810595e+00    4.740534e-01   5.917036e-03
  2.812806e+00    4.885290e-01   6.000005e-03
  2.815016e+00    4.718211e-01   5.891792e-03
  2.817227e+00    4.651561e-01   5.875704e-03
  2.819437e+00    4.696555e-01   5.915082e-03
  2.821648e+00    4.566406e-01   5.834806e-03
  2.823858e+00    4.662275e-01   5.901022e-03
  2.826068e+00    4.670466e-01   5.911164e-03
  2.828279e+00    4.697217e-01   5.932083e-03
  2.830489e+00    4.689353e-01   5.930455e-03
  2.832700e+00    4.570515e-01   5.857336e-03
  2.834910e+00    4.689890e-01   5.935383e-03
  2.837121e+00    4.767835e-01   5.986244e-03
  2.839331e+00    4.724288e-01   5.960053e-03
  2.841542e+00    4.663581e-01   5.922674e-03
  2.843752e+00    4.610173e-01   5.889417e-03
  2.845963e+00    4.712409e-01   5.954774e-03
  2.848173e+00    4.744742e-01   5.975232e-03
  2.850383e+00    4.829354e-01   6.028596e-03
  2.852594e+00    4.684718e-01   5.937550e-03
  2.854804e+00    4.615290e-01   5.892890e-03
  2.857015e+00    4.652792e-01   5.916344e-03
  2.859225e+00    4.619766e-01   5.895060e-03
  2.861436e+00    4.609087e-01   5.887596e-03
  2.863646e+00    4.568844e-01   5.861861e-03
  2.865857e+00    4.688194e-01   5.938286e-03
  2.868067e+00    4.712959e-01   5.954169e-03
  2.870278e+00    4.513974e-01   5.826778e-03
  2.872488e+00    4.619719e-01   5.893457e-03
  2.874698e+00    4.645580e-01   5.908899e-03
  2.876909e+00    4.655065e-01   5.913588e-03
  2.879119e+00    4.702356e-01   5.941920e-03
  2.881330e+00    4.557064e-01   5.847949e-03
  2.883540e+00    4.674540e-01   5.921436e-03
  2.885751e+00    4.718051e-01   5.947289e-03
  2.887961e+00    4.731121e-01   5.953595e-03
  2.890172e+00    4.556593e-01   5.841182e-03
  2.892382e+00    4.506867e-01   5.807412e-03
  2.894593e+00    4.533590e-01   5.822816e-03
  2.896803e+00    4.558080e-01   5.836546e-03
  2.899014e+00    4.668426e-01   5.904839e-03
  2.901224e+00    4.656217e-01   5.895128e-03
  2.903434e+00    4.532598e-01   5.814417e-03
  2.905645e+00    4.591842e-01   5.850049e-03
  2.907855e+00    4.588526e-01   5.845854e-03
  2.910066e+00    4.535027e-01   5.809592e-03
  2.912276e+00    4.527563e-01   5.802728e-03
  2.914487e+00    4.616845e-01   5.857176e-03
  2.916697e+00    4.589344e-01   5.837489e-03
  2.918908e+00    4.489487e-01   5.771667e-03
  2.921118e+00    4.541065e-01   5.802003e-03
  2.923329e+00    4.662648e-01   5.876850e-03
  2.925539e+00    4.603757e-01   5.837336e-03
  2.927749e+00    4.698371e-01   5.894653e-03
  2.929960e+00    4.567179e-01   5.809016e-03
  2.932170e+00    4.497543e-01   5.762247e-03
  2.934381e+00    4.676273e-01   5.873130e-03
  2.936591e+00    4.619114e-01   5.834564e-03
  2.938802e+00    4.558108e-01   5.793196e-03
  2.941012e+00    4.509360e-01   5.759788e-03
  2.943223e+00    4.632732e-01   5.835345e-03
  2.945433e+00    4.513818e-01   5.756262e-03
  2.947644e+00    4.572342e-01   5.789282e-03
  2.949854e+00    4.634087e-01   5.823962e-03
  2.952064e+00    4.494060e-01   5.731091e-03
  2.954275e+00    4.421958e-01   5.680596e-03
  2.956485e+00    4.414588e-01   5.671706e-03
  2.958696e+00    4.543050e-01   5.749284e-03
  2.960906e+00    4.575873e-01   5.765810e-03
  2.963117e+00    4.667456e-01   5.818690e-03
  2.965327e+00    4.526634e-01   5.726351e-03
  2.967538e+00    4.567669e-01   5.749317e-03
  2.969748e+00    4.524842e-01   5.719487e-03
  2.971959e+00    4.738682e-01   5.849878e-03
  2.974169e+00    4.623797e-01   5.775928e-03
  2.976379e+00    4.562858e-01   5.734817e-03
  2.978590e+00    4.686262e-01   5.808654e-03
  2.980800e+00    4.656468e-01   5.787330e-03
  2.983011e+00    4.676892e-01   5.797178e-03
  2.985221e+00    4.707125e-01   5.812665e-03
  2.987432e+00    4.600926e-01   5.743589e-03
  2.989642e+00    4.621448e-01   5.753742e-03
  2.991853e+00    4.658118e-01   5.773198e-03
  2.994063e+00    4.589464e-01   5.727571e-03
  2.996274e+00    4.567071e-01   5.710395e-03
  2.998484e+00    4.571454e-01   5.710414e-03
  3.000694e+00    4.649116e-01   5.755217e-03
  3.002905e+00    4.607262e-01   5.726315e-03
  3.005115e+00    4.480120e-01   5.643764e-03
  3.007326e+00    4.502596e-01   5.654777e-03
  3.009536e+00    4.421723e-01   5.600536e-03
  3.011747e+00    4.570971e-01   5.691343e-03
  3.013957e+00    4.577002e-01   5.691907e-03
  3.016168e+00    4.537397e-01   5.663958e-03
  3.018378e+00    4.554873e-01   5.671814e-03
  3.020589e+00    4.461073e-01   5.609917e-03
  3.022799e+00    4.605823e-01   5.697002e-03
  3.025010e+00    4.556122e-01   5.662948e-03
  3.027220e+00    4.594845e-01   5.683817e-03
  3.029430e+00    4.647819e-01   5.713200e-03
  3.031641e+00    4.571560e-01   5.662985e-03
  3.033851e+00    4.434297e-01   5.573836e-03
  3.036062e+00    4.583690e-01   5.664140e-03
  3.038272e+00    4.605268e-01   5.673862e-03
  3.040483e+00    4.550000e-01   5.636460e-03
  3.042693e+00    4.621789e-01   5.677458e-03
  3.044904e+00    4.570448e-01   5.641789e-03
  3.047114e+00    4.457653e-01   5.566958e-03
  3.049325e+00    4.453313e-01   5.559871e-03
  3.051535e+00    4.513002e-01   5.592615e-03
  3.053745e+00    4.468475e-01   5.560232e-03
  3.055956e+00    4.457326e-01   5.548744e-03
  3.058166e+00    4.589207e-01   5.625908e-03
  3.060377e+00    4.665097e-01   5.667413e-03
  3.062587e+00    4.536760e-01   5.584240e-03
  3.064798e+00    4.542563e-01   5.583560e-03
  3.067008e+00    4.354911e-01   5.462341e-03
  3.069219e+00    4.590601e-01   5.603646e-03
  3.071429e+00    4.576411e-01   5.591445e-03
  3.073640e+00    4.611787e-01   5.609638e-03
  3.075850e+00    4.706070e-01   5.663012e-03
  3.078060e+00    4.705880e-01   5.659739e-03
  3.080271e+00    4.620996e-01   5.604926e-03
  3.082481e+00    4.707755e-01   5.653776e-03
  3.084692e+00    4.513399e-01   5.532441e-03
  3.086902e+00    4.634234e-01   5.602716e-03
  3.089113e+00    4.594091e-01   5.574779e-03
  3.091323e+00    4.475805e-01   5.499175e-03
  3.093534e+00    4.524548e-01   5.525631e-03
  3.095744e+00    4.564257e-01   5.546444e-03
  3.097955e+00    4.356733e-01   5.415378e-03
  3.100165e+00    4.342470e-01   5.403209e-03
  3.102375e+00    4.472826e-01   5.480297e-03
  3.104586e+00    4.424680e-01   5.447247e-03
  3.106796e+00    4.348021e-01   5.396377e-03
  3.109007e+00    4.522148e-01   5.500131e-03
  3.111217e+00    4.402670e-01   5.423315e-03
  3.113428e+00    4.423972e-01   5.433031e-03
  3.115638e+00    4.434891e-01   5.436494e-03
  3.117849e+00    4.447250e-01   5.440342e-03
  3.120059e+00    4.411826e-01   5.415184e-03
  3.122270e+00    4.497947e-01   5.464511e-03
  3.124480e+00    4.486815e-01   5.454043e-03
  3.126691e+00    4.434476e-01   5.418588e-03
  3.128901e+00    4.314444e-01   5.341662e-03
  3.131111e+00    4.413935e-01   5.399074e-03
  3.133322e+00    4.477433e-01   5.434313e-03
  3.135532e+00    4.420083e-01   5.396002e-03
  3.137743e+00    4.496212e-01   5.438770e-03
  3.139953e+00    4.453223e-01   5.409015e-03
  3.142164e+00    4.561648e-01   5.486675e-03
  3.144374e+00    4.401805e-01   5.418017e-03
  3.146585e+00    4.494163e-01   5.489221e-03
  3.148795e+00    4.420848e-01   5.455075e-03
  3.151006e+00    4.332548e-01   5.408755e-03
  3.153216e+00    4.501708e-01   5.520539e-03
  3.155426e+00    4.466152e-01   5.505052e-03
  3.157637e+00    4.479982e-01   5.519133e-03
  3.159847e+00    4.511309e-01   5.543336e-03
  3.162058e+00    4.333503e-01   5.437400e-03
  3.164268e+00    4.237521e-01   5.380823e-03
  3.166479e+00    4.536808e-01   5.571295e-03
  3.168689e+00    4.556128e-01   5.586591e-03
  3.170900e+00    4.450944e-01   5.524916e-03
  3.173110e+00    4.481498e-01   5.546765e-03
  3.175321e+00    4.360820e-01   5.474044e-03
  3.177531e+00    4.411416e-01   5.508458e-03
  3.179741e+00    4.315123e-01   5.450080e-03
  3.181952e+00    4.347653e-01   5.472664e-03
  3.184162e+00    4.370837e-01   5.489439e-03
  3.186373e+00    4.387015e-01   5.501191e-03
  3.188583e+00    4.370056e-01   5.492334e-03
  3.190794e+00    4.402250e-01   5.514293e-03
  3.193004e+00    4.266595e-01   5.429898e-03
  3.195215e+00    4.195251e-01   5.385778e-03
  3.197425e+00    4.335403e-01   5.476191e-03
  3.199636e+00    4.399133e-01   5.515559e-03
  3.201846e+00    4.387411e-01   5.507571e-03
  3.204056e+00    4.349792e-01   5.484800e-03
  3.206267e+00    4.435337e-01   5.539334e-03
  3.208477e+00    4.321833e-01   5.468920e-03
  3.210688e+00    4.266286e-01   5.434494e-03
  3.212898e+00    4.245989e-01   5.422130e-03
  3.215109e+00    4.264611e-01   5.434741e-03
  3.217319e+00    4.300308e-01   5.458097e-03
  3.219530e+00    4.258364e-01   5.431776e-03
  3.221740e+00    4.262733e-01   5.435143e-03
  3.223951e+00    4.251866e-01   5.428670e-03
  3.226161e+00    4.272543e-01   5.442019e-03
  3.228372e+00    4.346048e-01   5.489208e-03
  3.230582e+00    4.071724e-01   5.313248e-03
  3.232792e+00    4.370809e-01   5.505159e-03
  3.235003e+00    4.363888e-01   5.501046e-03
  3.237213e+00    4.280235e-01   5.448193e-03
  3.239424e+00    4.193868e-01   5.392912e-03
  3.241634e+00    4.237005e-01   5.420724e-03
  3.243845e+00    4.271426e-01   5.442743e-03
  3.246055e+00    4.377616e-01   5.509721e-03
  3.248266e+00    4.293863e-01   5.456976e-03
  3.250476e+00    4.167687e-01   5.375907e-03
  3.252687e+00    4.132720e-01   5.353196e-03
  3.254897e+00    4.176393e-01   5.381304e-03
  3.257107e+00    4.158169e-01   5.369248e-03
  3.259318e+00    4.279297e-01   5.446635e-03
  3.261528e+00    4.268108e-01   5.439385e-03
  3.263739e+00    4.405948e-01   5.525950e-03
  3.265949e+00    4.329441e-01   5.477641e-03
  3.268160e+00    4.213337e-01   5.403297e-03
  3.270370e+00    4.143207e-01   5.357603e-03
  3.272581e+00    4.210832e-01   5.400891e-03
  3.274791e+00    4.310034e-01   5.463610e-03
  3.277002e+00    4.248192e-01   5.423706e-03
  3.279212e+00    4.158000e-01   5.365451e-03
  3.281422e+00    4.332876e-01   5.476523e-03
  3.283633e+00    4.140693e-01   5.353040e-03
  3.285843e+00    4.176885e-01   5.376033e-03
  3.288054e+00    4.195621e-01   5.387143e-03
  3.290264e+00    4.245795e-01   5.418954e-03
  3.292475e+00    4.176644e-01   5.373792e-03
  3.294685e+00    4.242925e-01   5.415660e-03
  3.296896e+00    4.198026e-01   5.386160e-03
  3.299106e+00    4.153330e-01   5.356861e-03
  3.301317e+00    4.264325e-01   5.426949e-03
  3.303527e+00    4.244203e-01   5.413653e-03
  3.305737e+00    4.182462e-01   5.373080e-03
  3.307948e+00    4.378731e-01   5.497035e-03
  3.310158e+00    4.383436e-01   5.499134e-03
  3.312369e+00    4.292718e-01   5.441041e-03
  3.314579e+00    4.235446e-01   5.403691e-03
  3.316790e+00    4.255615e-01   5.415857e-03
  3.319000e+00    4.270068e-01   5.423839e-03
  3.321211e+00    4.372038e-01   5.487594e-03
  3.323421e+00    4.346652e-01   5.470433e-03
  3.325632e+00    4.207534e-01   5.381293e-03
  3.327842e+00    4.349670e-01   5.470488e-03
  3.330052e+00    4.263089e-01   5.414727e-03
  3.332263e+00    4.182252e-01   5.362102e-03
  3.334473e+00    4.180174e-01   5.359885e-03
  3.336684e+00    4.138802e-01   5.332003e-03
  3.338894e+00    4.253292e-01   5.404440e-03
  3.341105e+00    4.161860e-01   5.344809e-03
  3.343315e+00    4.290828e-01   5.425855e-03
  3.345526e+00    4.220489e-01   5.380285e-03
  3.347736e+00    4.154276e-01   5.336524e-03
  3.349947e+00    4.254215e-01   5.399390e-03
  3.352157e+00    4.215402e-01   5.373531e-03
  3.354368e+00    4.318580e-01   5.437571e-03
  3.356578e+00    4.252952e-01   5.395091e-03
  3.358788e+00    4.169590e-01   5.340609e-03
  3.360999e+00    4.267841e-01   5.401920e-03
  3.363209e+00    4.103195e-01   5.295691e-03
  3.365420e+00    4.081963e-01   5.280463e-03
  3.367630e+00    4.111120e-01   5.298281e-03
  3.369841e+00    3.978244e-01   5.210582e-03
  3.372051e+00    4.082704e-01   5.276548e-03
  3.374262e+00    4.184444e-01   5.339467e-03
  3.376472e+00    4.190775e-01   5.341060e-03
  3.378683e+00    4.059955e-01   5.254561e-03
  3.380893e+00    4.047047e-01   5.243880e-03
  3.383103e+00    4.062876e-01   5.251455e-03
  3.385314e+00    4.217078e-01   5.347931e-03
  3.387524e+00    4.194635e-01   5.330958e-03
  3.389735e+00    4.218908e-01   5.343684e-03
  3.391945e+00    4.210322e-01   5.334544e-03
  3.394156e+00    4.089945e-01   5.253529e-03
  3.396366e+00    4.175784e-01   5.304940e-03
  3.398577e+00    4.110608e-01   5.260338e-03
  3.400787e+00    4.108492e-01   5.270889e-03
  3.402998e+00    4.030392e-01   5.258299e-03
  3.405208e+00    4.052029e-01   5.293029e-03
  3.407418e+00    4.076956e-01   5.325220e-03
  3.409629e+00    4.148268e-01   5.385781e-03
  3.411839e+00    3.874323e-01   5.216518e-03
  3.414050e+00    4.048994e-01   5.343896e-03
  3.416260e+00    3.957768e-01   5.293027e-03
  3.418471e+00    3.771898e-01   5.176464e-03
  3.420681e+00    3.751226e-01   5.170549e-03
  3.422892e+00    3.844711e-01   5.242517e-03
  3.425102e+00    3.854009e-01   5.256639e-03
  3.427313e+00    3.827105e-01   5.245384e-03
  3.429523e+00    3.865170e-01   5.278463e-03
  3.431733e+00    3.892578e-01   5.303838e-03
  3.433944e+00    3.726467e-01   5.195830e-03
  3.436154e+00    3.763646e-01   5.227869e-03
  3.438365e+00    3.691369e-01   5.183251e-03
  3.440575e+00    3.590704e-01   5.117849e-03
  3.442786e+00    3.779626e-01   5.256339e-03
  3.444996e+00    3.879800e-01   5.331149e-03
  3.447207e+00    3.573432e-01   5.121508e-03
  3.449417e+00    3.662708e-01   5.225587e-03
  3.451628e+00    3.646838e-01   5.243526e-03
  3.453838e+00    3.729158e-01   5.323695e-03
  3.456049e+00    3.697527e-01   5.325075e-03
  3.458259e+00    3.600497e-01   5.276476e-03
  3.460469e+00    3.628185e-01   5.316399e-03
  3.462680e+00    3.705433e-01   5.391881e-03
  3.464890e+00    3.755687e-01   5.446337e-03
  3.467101e+00    3.722861e-01   5.440069e-03
  3.469311e+00    3.984437e-01   5.645065e-03
  3.471522e+00    3.896933e-01   5.599512e-03
  3.473732e+00    3.901056e-01   5.618633e-03
  3.475943e+00    3.987844e-01   5.696811e-03
  3.478153e+00    4.162738e-01   5.836398e-03
  3.480364e+00    4.189694e-01   5.870893e-03
  3.482574e+00    4.055354e-01   5.791387e-03
  3.484784e+00    4.123725e-01   5.854899e-03
  3.486995e+00    4.286066e-01   5.984355e-03
  3.489205e+00    4.303055e-01   6.010997e-03
  3.491416e+00    4.411576e-01   6.101470e-03
  3.493626e+00    4.516900e-01   6.188774e-03
  3.495837e+00    4.454540e-01   6.160728e-03
  3.498047e+00    4.443686e-01   6.167711e-03
  3.500258e+00    4.578818e-01   6.275436e-03
  3.502468e+00    4.656507e-01   6.343074e-03
  3.504679e+00    4.595681e-01   6.315975e-03
  3.506889e+00    4.650594e-01   6.368037e-03
  3.509099e+00    4.595871e-01   6.344634e-03
  3.511310e+00    4.700638e-01   6.430907e-03
  3.513520e+00    4.720607e-01   6.458818e-03
  3.515731e+00    4.928879e-01   6.614233e-03
  3.517941e+00    5.002122e-01   6.677718e-03
  3.520152e+00    4.959832e-01   6.663762e-03
  3.522362e+00    5.053133e-01   6.740701e-03
  3.524573e+00    5.166765e-01   6.830489e-03
  3.526783e+00    5.166404e-01   6.843677e-03
  3.528994e+00    5.260404e-01   6.918027e-03
  3.531204e+00    5.199625e-01   6.890361e-03
  3.533414e+00    5.354280e-01   7.004293e-03
  3.535625e+00    5.353588e-01   7.016275e-03
  3.537835e+00    5.542855e-01   7.151595e-03
  3.540046e+00    5.291978e-01   6.996790e-03
  3.542256e+00    5.110487e-01   6.883087e-03
  3.544467e+00    5.363128e-01   7.058762e-03
  3.546677e+00    5.617926e-01   7.232294e-03
  3.548888e+00    5.596477e-01   7.226138e-03
  3.551098e+00    5.417199e-01   7.116763e-03
  3.553309e+00    5.271604e-01   7.028599e-03
  3.555519e+00    5.323972e-01   7.074636e-03
  3.557729e+00    5.516120e-01   7.213101e-03
  3.559940e+00    5.461646e-01   7.189038e-03
  3.562150e+00    5.402343e-01   7.161674e-03
  3.564361e+00    5.344521e-01   7.136544e-03
  3.566571e+00    5.256912e-01   7.091479e-03
  3.568782e+00    5.501744e-01   7.269049e-03
  3.570992e+00    5.339084e-01   7.174538e-03
  3.573203e+00    5.352822e-01   7.197868e-03
  3.575413e+00    5.434471e-01   7.266445e-03
  3.577624e+00    5.408028e-01   7.262931e-03
  3.579834e+00    5.412213e-01   7.279681e-03
  3.582045e+00    5.258956e-01   7.189791e-03
  3.584255e+00    5.413070e-01   7.308477e-03
  3.586465e+00    5.369692e-01   7.293106e-03
  3.588676e+00    5.371662e-01   7.308642e-03
  3.590886e+00    5.340769e-01   7.301257e-03
  3.593097e+00    5.438070e-01   7.382110e-03
  3.595307e+00    5.430144e-01   7.390705e-03
  3.597518e+00    5.415553e-01   7.395122e-03
  3.599728e+00    5.363314e-01   7.373446e-03
  3.601939e+00    5.249234e-01   7.308514e-03
  3.604149e+00    5.553248e-01   7.531860e-03
  3.606360e+00    5.444959e-01   7.472342e-03
  3.608570e+00    5.133334e-01   7.269209e-03
  3.610780e+00    5.309901e-01   7.404210e-03
  3.612991e+00    5.532777e-01   7.568146e-03
  3.615201e+00    5.428205e-01   7.506197e-03
  3.617412e+00    5.404873e-01   7.497344e-03
  3.619622e+00    5.403790e-01   7.502587e-03
  3.621833e+00    5.434918e-01   7.530907e-03
  3.624043e+00    5.473529e-01   7.567253e-03
  3.626254e+00    5.496010e-01   7.592584e-03
  3.628464e+00    5.561993e-01   7.649298e-03
  3.630675e+00    5.268984e-01   7.459061e-03
  3.632885e+00    5.435889e-01   7.590855e-03
  3.635095e+00    5.624174e-01   7.735978e-03
  3.637306e+00    5.459972e-01   7.636800e-03
  3.639516e+00    5.193169e-01   7.462188e-03
  3.641727e+00    5.323782e-01   7.569959e-03
  3.643937e+00    5.507234e-01   7.714112e-03
  3.646148e+00    5.377922e-01   7.637674e-03
  3.648358e+00    5.378109e-01   7.652725e-03
  3.650569e+00    5.502920e-01   7.755979e-03
  3.652779e+00    5.472932e-01   7.749801e-03
  3.654990e+00    5.558528e-01   7.825363e-03
  3.657200e+00    5.546594e-01   7.832197e-03
  3.659410e+00    5.503023e-01   7.816575e-03
  3.661621e+00    5.380332e-01   7.744156e-03
  3.663831e+00    5.206617e-01   7.633069e-03
  3.666042e+00    5.235021e-01   7.668884e-03
  3.668252e+00    5.252466e-01   7.696806e-03
  3.670463e+00    5.366905e-01   7.795518e-03
  3.672673e+00    5.376391e-01   7.817932e-03
  3.674884e+00    5.454368e-01   7.890039e-03
  3.677094e+00    5.348539e-01   7.828697e-03
  3.679305e+00    5.384954e-01   7.870946e-03
  3.681515e+00    5.486358e-01   7.960620e-03
  3.683726e+00    5.425677e-01   7.932501e-03
  3.685936e+00    5.161029e-01   7.752096e-03
  3.688146e+00    5.133642e-01   7.747063e-03
  3.690357e+00    5.167388e-01   7.788277e-03
  3.692567e+00    5.185045e-01   7.817527e-03
  3.694778e+00    5.333470e-01   7.944791e-03
  3.696988e+00    5.246730e-01   7.895919e-03
  3.699199e+00    5.209331e-01   7.883853e-03
  3.701409e+00    5.235927e-01   7.920337e-03
  3.703620e+00    5.285790e-01   7.974328e-03
  3.705830e+00    5.016400e-01   7.784489e-03
  3.708041e+00    4.930338e-01   7.733541e-03
  3.710251e+00    5.208625e-01   7.965433e-03
  3.712461e+00    5.236972e-01   8.003845e-03
  3.714672e+00    5.284547e-01   8.056969e-03
  3.716882e+00    5.249146e-01   8.046730e-03
  3.719093e+00    4.966255e-01   7.843633e-03
  3.721303e+00    5.072514e-01   7.943811e-03
  3.723514e+00    5.218884e-01   8.074977e-03
  3.725724e+00    4.962908e-01   7.891183e-03
  3.727935e+00    5.234813e-01   8.122066e-03
  3.730145e+00    5.279022e-01   8.173795e-03
  3.732356e+00    5.066547e-01   8.024996e-03
  3.734566e+00    5.247304e-01   8.184538e-03
  3.736776e+00    5.297304e-01   8.241532e-03
  3.738987e+00    5.094869e-01   8.100121e-03
  3.741197e+00    5.126732e-01   8.143427e-03
  3.743408e+00    4.879957e-01   7.962633e-03
  3.745618e+00    5.212735e-01   8.248072e-03
  3.747829e+00    5.056454e-01   8.141547e-03
  3.750039e+00    4.973722e-01   8.092723e-03
  3.752250e+00    5.001073e-01   8.133264e-03
  3.754460e+00    5.015706e-01   8.163494e-03
  3.756671e+00    5.081456e-01   8.235628e-03
  3.758881e+00    5.228486e-01   8.372813e-03
  3.761091e+00    5.026323e-01   8.228404e-03
  3.763302e+00    4.911769e-01   8.152846e-03
  3.765512e+00    4.970117e-01   8.220133e-03
  3.767723e+00    5.267982e-01   8.482639e-03
  3.769933e+00    4.980722e-01   8.267289e-03
  3.772144e+00    5.223134e-01   8.485974e-03
  3.774354e+00    5.008584e-01   8.329616e-03
  3.776565e+00    5.177096e-01   8.488643e-03
  3.778775e+00    5.170871e-01   8.503752e-03
  3.780986e+00    5.189205e-01   8.539465e-03
  3.783196e+00    5.230618e-01   8.594059e-03
  3.785407e+00    4.995056e-01   8.418666e-03
  3.787617e+00    5.013810e-01   8.455181e-03
  3.789827e+00    5.165023e-01   8.602560e-03
  3.792038e+00    5.216145e-01   8.666295e-03
  3.794248e+00    5.004273e-01   8.509589e-03
  3.796459e+00    5.148085e-01   8.652590e-03
  3.798669e+00    5.248984e-01   8.758933e-03
  3.800880e+00    4.954598e-01   8.531100e-03
  3.803090e+00    4.876338e-01   8.484978e-03
  3.805301e+00    5.046725e-01   8.654080e-03
  3.807511e+00    5.380169e-01   8.958300e-03
  3.809722e+00    5.242973e-01   8.866117e-03
  3.811932e+00    5.255186e-01   8.899162e-03
  3.814142e+00    5.250947e-01   8.919111e-03
  3.816353e+00    5.110424e-01   8.822087e-03
  3.818563e+00    4.923876e-01   8.682428e-03
  3.820774e+00    4.935389e-01   8.715709e-03
  3.822984e+00    4.817328e-01   8.633749e-03
  3.825195e+00    5.145061e-01   8.946753e-03
  3.827405e+00    5.152316e-01   8.977403e-03
  3.829616e+00    4.902993e-01   8.781389e-03
  3.831826e+00    5.029688e-01   8.918357e-03
  3.834037e+00    4.924729e-01   8.849267e-03
  3.836247e+00    4.890053e-01   8.842520e-03
  3.838457e+00    4.967727e-01   8.937489e-03
  3.840668e+00    5.142650e-01   9.119160e-03
  3.842878e+00    4.999075e-01   9.016569e-03
  3.845089e+00    4.882568e-01   8.936266e-03
  3.847299e+00    4.977244e-01   9.048343e-03
  3.849510e+00    4.981112e-01   9.077778e-03
  3.851720e+00    5.084149e-01   9.192881e-03
  3.853931e+00    5.080971e-01   9.209299e-03
  3.856141e+00    4.896964e-01   9.059852e-03
  3.858352e+00    5.012771e-01   9.185807e-03
  3.860562e+00    5.154871e-01   9.334740e-03
  3.862772e+00    5.090715e-01   9.296432e-03
  3.864983e+00    4.825702e-01   9.070626e-03
  3.867193e+00    4.838519e-01   9.102254e-03
  3.869404e+00    4.834231e-01   9.117784e-03
  3.871614e+00    5.229700e-01   9.504038e-03
  3.873825e+00    5.055679e-01   9.365093e-03
  3.876035e+00    5.166319e-01   9.488096e-03
  3.878246e+00    5.093849e-01   9.447538e-03
  3.880456e+00    4.785711e-01   9.185953e-03
  3.882667e+00    4.835382e-01   9.262484e-03
  3.884877e+00    4.868982e-01   9.324257e-03
  3.887087e+00    4.830378e-01   9.316867e-03
  3.889298e+00    4.898764e-01   9.412949e-03
  3.891508e+00    4.825153e-01   9.372204e-03
  3.893719e+00    4.833193e-01   9.410721e-03
  3.895929e+00    5.024948e-01   9.627475e-03
  3.898140e+00    4.879448e-01   9.518662e-03
  3.900350e+00    4.826471e-01   9.498696e-03
  3.902561e+00    4.923573e-01   9.626224e-03
  3.904771e+00    4.971661e-01   9.706177e-03
  3.906982e+00    5.057220e-01   9.823033e-03
  3.909192e+00    4.871059e-01   9.673990e-03
  3.911403e+00    4.914021e-01   9.750628e-03
  3.913613e+00    4.798060e-01   9.668875e-03
  3.915823e+00    4.846917e-01   9.752564e-03
  3.918034e+00    5.064416e-01   1.000496e-02
  3.920244e+00    5.038145e-01   1.001520e-02
  3.922455e+00    5.230060e-01   1.024159e-02
  3.924665e+00    4.997967e-01   1.004864e-02
  3.926876e+00    5.072167e-01   1.016077e-02
  3.929086e+00    5.009416e-01   1.013556e-02
  3.931297e+00    5.159829e-01   1.032242e-02
  3.933507e+00    4.864988e-01   1.005211e-02
  3.935718e+00    4.925335e-01   1.014307e-02
  3.937928e+00    4.878362e-01   1.012415e-02
  3.940138e+00    4.614789e-01   9.875335e-03
  3.942349e+00    5.086684e-01   1.039850e-02
  3.944559e+00    4.826726e-01   1.015919e-02
  3.946770e+00    5.006281e-01   1.037695e-02
  3.948980e+00    4.827066e-01   1.022026e-02
  3.951191e+00    4.942267e-01   1.037246e-02
  3.953401e+00    5.004625e-01   1.046948e-02
  3.955612e+00    4.925002e-01   1.041779e-02
  3.957822e+00    5.027888e-01   1.055825e-02
  3.960033e+00    4.986399e-01   1.054765e-02
  3.962243e+00    4.833688e-01   1.041761e-02
  3.964453e+00    5.203115e-01   1.084259e-02
  3.966664e+00    5.093274e-01   1.076186e-02
  3.968874e+00    4.717869e-01   1.038565e-02
  3.971085e+00    4.760373e-01   1.045403e-02
  3.973295e+00    4.961167e-01   1.069383e-02
  3.975506e+00    4.789060e-01   1.052825e-02
  3.977716e+00    4.957022e-01   1.073350e-02
  3.979927e+00    4.915902e-01   1.071118e-02
  3.982137e+00    4.825319e-01   1.063419e-02
  3.984348e+00    4.921739e-01   1.076273e-02
  3.986558e+00    4.691701e-01   1.053003e-02
  3.988768e+00    5.159680e-01   1.106648e-02
  3.990979e+00    5.083215e-01   1.100746e-02
  3.993189e+00    5.049199e-01   1.099421e-02
  3.995400e+00    4.703402e-01   1.063416e-02
  3.997610e+00    5.065603e-01   1.106651e-02
  3.999821e+00    4.705476e-01   1.070286e-02
  4.002031e+00    4.801654e-01   1.084983e-02
  4.004242e+00    5.122948e-01   1.124660e-02
  4.006452e+00    4.600531e-01   1.069611e-02
  4.008663e+00    4.995616e-01   1.118645e-02
  4.010873e+00    4.662535e-01   1.084645e-02
  4.013084e+00    4.833834e-01   1.108460e-02
  4.015294e+00    4.974453e-01   1.128628e-02
  4.017504e+00    4.784339e-01   1.111018e-02
  4.019715e+00    4.941364e-01   1.133384e-02
  4.021925e+00    4.764657e-01   1.117217e-02
  4.024136e+00    4.925122e-01   1.140259e-02
  4.026346e+00    5.220618e-01   1.178563e-02
  4.028557e+00    5.085585e-01   1.167765e-02
  4.030767e+00    4.882483e-01   1.148792e-02
  4.032978e+00    4.831539e-01   1.147417e-02
  4.035188e+00    4.683036e-01   1.134181e-02
  4.037399e+00    4.755271e-01   1.147612e-02
  4.039609e+00    4.857461e-01   1.164669e-02
  4.041819e+00    4.778941e-01   1.160055e-02
  4.044030e+00    5.506078e-01   1.250521e-02
  4.046240e+00    4.745520e-01   1.165896e-02
  4.048451e+00    4.556530e-01   1.147386e-02
  4.050661e+00    4.851948e-01   1.189138e-02
  4.052872e+00    5.028930e-01   1.216034e-02
  4.055082e+00    4.989775e-01   1.216725e-02
  4.057293e+00    4.633309e-01   1.177727e-02
  4.059503e+00    4.119003e-01   1.115491e-02
  4.061714e+00    4.637569e-01   1.189153e-02
  4.063924e+00    4.669190e-01   1.198805e-02
  4.066134e+00    4.534533e-01   1.186939e-02
  4.068345e+00    4.877304e-01   1.236932e-02
  4.070555e+00    4.725585e-01   1.223396e-02
  4.072766e+00    5.015095e-01   1.266526e-02
  4.074976e+00    4.438830e-01   1.197492e-02
  4.077187e+00    5.100725e-01   1.290043e-02
  4.079397e+00    4.500480e-01   1.217964e-02
  4.081608e+00    4.792456e-01   1.263374e-02
  4.083818e+00    4.558252e-01   1.238533e-02
  4.086029e+00    4.871838e-01   1.287173e-02
  4.088239e+00    4.494668e-01   1.243000e-02
  4.090449e+00    4.554912e-01   1.258092e-02
  4.092660e+00    4.831653e-01   1.302869e-02
  4.094870e+00    4.900319e-01   1.319405e-02
  4.097081e+00    4.401416e-01   1.257284e-02
  4.099291e+00    4.294528e-01   1.247064e-02
  4.101502e+00    4.710749e-01   1.310961e-02
  4.103712e+00    4.708149e-01   1.315487e-02
  4.105923e+00    4.746334e-01   1.325930e-02
  4.108133e+00    4.778885e-01   1.335590e-02
  4.110344e+00    4.861291e-01   1.352210e-02
  4.112554e+00    5.124465e-01   1.393821e-02
  4.114764e+00    4.831651e-01   1.358840e-02
  4.116975e+00    5.044860e-01   1.393988e-02
  4.119185e+00    4.634748e-01   1.341550e-02
  4.121396e+00    4.731530e-01   1.361076e-02
  4.123606e+00    4.898100e-01   1.390506e-02
  4.125817e+00    5.005517e-01   1.411562e-02
  4.128027e+00    5.005758e-01   1.417535e-02
  4.130238e+00    4.999283e-01   1.422711e-02
  4.132448e+00    4.704871e-01   1.386157e-02
  4.134659e+00    4.584362e-01   1.374182e-02
  4.136869e+00    4.965609e-01   1.436554e-02
  4.139080e+00    4.778564e-01   1.415594e-02
  4.141290e+00    4.934506e-01   1.444890e-02
  4.143500e+00    4.601143e-01   1.401655e-02
  4.145711e+00    5.074927e-01   1.478910e-02
  4.147921e+00    4.911761e-01   1.461658e-02
  4.150132e+00    4.949794e-01   1.474279e-02
  4.152342e+00    4.852867e-01   1.466841e-02
  4.154553e+00    4.901672e-01   1.481224e-02
  4.156763e+00    4.968623e-01   1.498678e-02
  4.158974e+00    4.500794e-01   1.433564e-02
  4.161184e+00    4.393947e-01   1.423459e-02
  4.163395e+00    4.593273e-01   1.462804e-02
  4.165605e+00    4.950368e-01   1.526518e-02
  4.167815e+00    5.328538e-01   1.592007e-02
  4.170026e+00    5.390286e-01   1.609649e-02
  4.172236e+00    4.916592e-01   1.545606e-02
  4.174447e+00    4.746087e-01   1.526807e-02
  4.176657e+00    4.859369e-01   1.553405e-02
  4.178868e+00    5.017954e-01   1.587450e-02
  4.181078e+00    4.771657e-01   1.556761e-02
  4.183289e+00    4.299671e-01   1.486200e-02
  4.185499e+00    4.507383e-01   1.530642e-02
  4.187710e+00    4.887434e-01   1.603217e-02
  4.189920e+00    4.760887e-01   1.591826e-02
  4.192130e+00    4.983347e-01   1.638577e-02
  4.194341e+00    4.446877e-01   1.557374e-02
  4.196551e+00    4.772698e-01   1.623589e-02
  4.198762e+00    5.325456e-01   1.725937e-02
  4.200972e+00    5.565857e-01   1.775912e-02
  4.203183e+00    4.873146e-01   1.672678e-02
  4.205393e+00    4.577385e-01   1.631887e-02
  4.207604e+00    4.765110e-01   1.676389e-02
  4.209814e+00    4.693477e-01   1.675167e-02
  4.212025e+00    4.410050e-01   1.635280e-02
  4.214235e+00    5.233076e-01   1.793985e-02
  4.216445e+00    4.607880e-01   1.695598e-02
  4.218656e+00    4.642253e-01   1.714658e-02
  4.220866e+00    4.426274e-01   1.686700e-02
  4.223077e+00    4.997765e-01   1.806065e-02
  4.225287e+00    4.239255e-01   1.676453e-02
  4.227498e+00    4.546491e-01   1.749754e-02
  4.229708e+00    5.019540e-01   1.853467e-02
  4.231919e+00    5.430681e-01   1.943846e-02
  4.234129e+00    4.956757e-01   1.872683e-02
  4.236340e+00    4.976331e-01   1.892429e-02
  4.238550e+00    4.862999e-01   1.887268e-02
  4.240761e+00    4.632521e-01   1.858241e-02
  4.242971e+00    4.978534e-01   1.944067e-02
  4.245181e+00    5.095889e-01   1.985306e-02
  4.247392e+00    4.475705e-01   1.878005e-02
  4.249602e+00    4.332622e-01   1.866084e-02
  4.251813e+00    4.852637e-01   1.994346e-02
  4.254023e+00    4.792897e-01   2.002010e-02
  4.256234e+00    4.775249e-01   2.019665e-02
  4.258444e+00    4.844251e-01   2.055500e-02
  4.260655e+00    5.210773e-01   2.155280e-02
  4.262865e+00    5.052763e-01   2.146397e-02
  4.265076e+00    4.857140e-01   2.128417e-02
  4.267286e+00    5.347707e-01   2.259783e-02
  4.269496e+00    4.901973e-01   2.189972e-02
  4.271707e+00    4.517641e-01   2.128314e-02
  4.273917e+00    4.936572e-01   2.253563e-02
  4.276128e+00    4.219744e-01   2.111248e-02
  4.278338e+00    4.515151e-01   2.213038e-02
  4.280549e+00    4.403412e-01   2.216808e-02
  4.282759e+00    4.663590e-01   2.314149e-02
  4.284970e+00    4.719706e-01   2.362532e-02
  4.287180e+00    5.323378e-01   2.539076e-02
  4.289391e+00    5.036520e-01   2.488329e-02
  4.291601e+00    5.114017e-01   2.527370e-02
  4.293811e+00    5.611086e-01   2.668059e-02
  4.296022e+00    4.450944e-01   2.395419e-02
  4.298232e+00    4.340540e-01   2.385300e-02
  4.300443e+00    4.681719e-01   2.497722e-02
  4.302653e+00    4.159842e-01   2.374829e-02
  4.304864e+00    4.155162e-01   2.393946e-02
  4.307074e+00    5.161411e-01   2.692132e-02
  4.309285e+00    5.236093e-01   2.736185e-02
  4.311495e+00    5.877753e-01   2.926121e-02
  4.313706e+00    5.411154e-01   2.833945e-02
  4.315916e+00    4.279130e-01   2.544985e-02
  4.318126e+00    3.897654e-01   2.452877e-02
  4.320337e+00    4.897029e-01   2.777203e-02
  4.322547e+00    5.141226e-01   2.875859e-02
  4.324758e+00    3.236478e-01   2.305557e-02
  4.326968e+00    4.205622e-01   2.657604e-02
  4.329179e+00    4.474318e-01   2.771484e-02
  4.331389e+00    4.549319e-01   2.826771e-02
  4.333600e+00    5.559947e-01   3.162351e-02
  4.335810e+00    4.151706e-01   2.765254e-02
  4.338021e+00    4.858507e-01   3.029466e-02
  4.340231e+00    5.182047e-01   3.168276e-02
  4.342442e+00    4.875683e-01   3.114292e-02
  4.344652e+00    4.470052e-01   3.022303e-02
  4.346862e+00    5.131672e-01   3.283764e-02
  4.349073e+00    4.950308e-01   3.272168e-02
  4.351283e+00    4.254948e-01   3.078960e-02
  4.353494e+00    3.895937e-01   2.991611e-02
  4.355704e+00    5.793783e-01   3.707047e-02
  4.357915e+00    5.484055e-01   3.666643e-02
  4.360125e+00    5.775859e-01   3.827121e-02
  4.362336e+00    5.416760e-01   3.773734e-02
  4.364546e+00    4.622559e-01   3.549784e-02
  4.366757e+00    4.514502e-01   3.577686e-02
  4.368967e+00    3.889958e-01   3.387363e-02
  4.371177e+00    4.758910e-01   3.826176e-02
  4.373388e+00    4.536313e-01   3.819321e-02
  4.375598e+00    3.603411e-01   3.481404e-02
  4.377809e+00    5.593027e-01   4.447224e-02
  4.380019e+00    4.743596e-01   4.198763e-02
  4.382230e+00    3.747858e-01   3.836216e-02
  4.384440e+00    3.349618e-01   3.731102e-02
  4.386651e+00    4.144568e-01   4.277958e-02
  4.388861e+00    3.882647e-01   4.279684e-02
  4.391072e+00    4.435973e-01   4.735440e-02
  4.393282e+00    4.197276e-01   4.784063e-02
  4.395492e+00    3.964354e-01   4.842968e-02
  4.397703e+00    2.992074e-01   4.399582e-02
  4.399913e+00    2.744173e-01   4.426288e-02
  4.402124e+00    4.440752e-01   5.950300e-02
  4.404334e+00    2.959846e-01   5.163925e-02
  4.406545e+00    3.800583e-01   6.286683e-02
  4.408755e+00    4.073221e-01   7.058757e-02
  4.410966e+00    4.343078e-01   8.066621e-02
  4.413176e+00    1.312721e-01   5.021156e-02
  4.415387e+00   -5.292138e-01            nan
  4.417597e+00   -1.820580e+00            nan
  4.419807e+00    3.372853e-01   2.086502e-01
