# == pyFAI calibration ==
# Distance Sample to Detector: 0.216 m
# PONI: 1.166e-01, 1.308e-01 m
# Rotations: 0.000000 0.000000 0.000000 rad
# 
# == Fit2d calibration ==
# Distance Sample-beamCenter: 216.000 mm
# Center: x=1744.293, y=1555.000 pix
# Tilt: 0.000 deg  TiltPlanRot: 0.000 deg
# 
# Detector Eiger 9M	 PixelSize= 7.500e-05, 7.500e-05 m
#    Detector has a mask: True 
#    Detector has a dark current: False 
#    detector has a flat field: False 
# 
# Wavelength: 9.8e-11 m
# Mask applied: from detector
# Dark current applied: False
# Flat field applied: False
# Polarization factor: None
# Normalization factor: 1.0
# 
# Headers of the input frame:
# {
# "_array_data.header_convention": "SLS_1.0",
# "_array_data.header_contents": "# Detector: Dectris Eiger 9M, S/N E-18-0102\r\n# Pixel_size 75e-6 m x 75e-6 m\r\n# Silicon sensor, thickness 0.000450 m\r\n# Exposure_time 0.024997 s\r\n# Exposure_period 0.025000 s\r\n# Count_cutoff 62318 counts\r\n# Wavelength 0.980106 A\r\n# Detector_distance 0.215992 m\r\n# Beam_xy (1555, 1744) pixels\r\n# Start_angle 0.000000 deg.\r\n# Angle_increment 0.000000 deg.",
# "Content-Type": "application/octet-stream;",
# "conversions": "x-CBF_BYTE_OFFSET",
# "Content-Transfer-Encoding": "BINARY",
# "X-Binary-Size": "10166600",
# "X-Binary-ID": "1",
# "X-Binary-Element-Type": "signed 32-bit integer",
# "X-Binary-Element-Byte-Order": "LITTLE_ENDIAN",
# "Content-MD5": "su5Z1bP4ixXNkK6B3wZiaQ==",
# "X-Binary-Number-of-Elements": "10166590",
# "X-Binary-Size-Fastest-Dimension": "3110",
# "X-Binary-Size-Second-Dimension": "3269",
# "X-Binary-Size-Padding": "4095"
# }
# --> H:/Proxima2a_2019-04-05/RAW_DATA/C5_gel17_position5/C5_mesh_1_data.cbf/C5_mesh_1_data.cbf000037.dat
#        q_A^-1              I           sigma 
  1.105228e-03    1.923641e+00   7.504970e-01
  3.315685e-03    1.511747e+00   4.044687e-01
  5.526141e-03    1.392930e+00   3.002181e-01
  7.736597e-03    1.727996e+00   2.824825e-01
  9.947054e-03    1.526292e+00   2.340429e-01
  1.215751e-02    1.610890e+00   2.174210e-01
  1.436797e-02    1.521256e+00   1.943466e-01
  1.657842e-02    1.456890e+00   1.770345e-01
  1.878888e-02    1.427183e+00   1.645900e-01
  2.099934e-02    1.427949e+00   1.557609e-01
  2.320979e-02    1.470054e+00   1.503140e-01
  2.542025e-02    1.459481e+00   1.431227e-01
  2.763070e-02    1.353317e+00   1.321874e-01
  2.984116e-02    1.303661e+00   1.248415e-01
  3.205162e-02    1.434267e+00   1.263575e-01
  3.426207e-02    1.530993e+00   1.262587e-01
  3.647253e-02    1.334657e+00   1.142548e-01
  3.868299e-02    1.533630e+00   1.189340e-01
  4.089344e-02    1.496176e+00   1.142542e-01
  4.310390e-02    1.582806e+00   1.144558e-01
  4.531436e-02    1.335549e+00   1.025406e-01
  4.752481e-02    1.276369e+00   9.788296e-02
  4.973527e-02    1.465139e+00   1.025159e-01
  5.194572e-02    1.506768e+00   1.017246e-01
  5.415618e-02    1.534213e+00   1.005267e-01
  5.636664e-02    1.495524e+00   9.728859e-02
  5.857709e-02    1.461053e+00   9.432949e-02
  6.078755e-02    1.509145e+00   9.410718e-02
  6.299801e-02    1.482719e+00   9.162751e-02
  6.520846e-02    1.440141e+00   8.875919e-02
  6.741892e-02    1.444211e+00   8.741082e-02
  6.962938e-02    1.449636e+00   8.617789e-02
  7.183983e-02    1.520400e+00   8.688623e-02
  7.405029e-02    1.489699e+00   8.470918e-02
  7.626074e-02    1.570406e+00   8.570305e-02
  7.847120e-02    1.534169e+00   8.350462e-02
  8.068166e-02    1.563916e+00   8.314669e-02
  8.289211e-02    1.523069e+00   8.095180e-02
  8.510257e-02    1.514528e+00   7.966873e-02
  8.731303e-02    1.514058e+00   7.863867e-02
  8.952348e-02    1.477386e+00   7.671752e-02
  9.173394e-02    1.538238e+00   7.732958e-02
  9.394439e-02    1.478546e+00   7.491465e-02
  9.615485e-02    1.627611e+00   7.768998e-02
  9.836531e-02    1.571372e+00   7.547132e-02
  1.005758e-01    1.646789e+00   7.640793e-02
  1.027862e-01    1.559629e+00   7.355269e-02
  1.049967e-01    1.573805e+00   7.310304e-02
  1.072071e-01    1.567228e+00   7.219331e-02
  1.094176e-01    1.520095e+00   7.037652e-02
  1.116280e-01    1.556354e+00   7.050078e-02
  1.138385e-01    1.535095e+00   6.933316e-02
  1.160490e-01    1.550629e+00   6.901538e-02
  1.182594e-01    1.725836e+00   7.212488e-02
  1.204699e-01    1.598121e+00   6.876470e-02
  1.226803e-01    1.560394e+00   6.733045e-02
  1.248908e-01    1.656959e+00   6.876498e-02
  1.271012e-01    1.728652e+00   6.962210e-02
  1.293117e-01    1.589349e+00   6.618407e-02
  1.315222e-01    1.652993e+00   6.692504e-02
  1.337326e-01    1.683906e+00   6.698608e-02
  1.359431e-01    1.665760e+00   6.666318e-02
  1.381535e-01    1.643601e+00   6.710716e-02
  1.403640e-01    1.592745e+00   6.634602e-02
  1.425744e-01    1.606563e+00   6.673963e-02
  1.447849e-01    1.602218e+00   6.666469e-02
  1.469953e-01    1.629293e+00   6.718346e-02
  1.492058e-01    1.606367e+00   6.663161e-02
  1.514163e-01    1.620337e+00   6.680959e-02
  1.536267e-01    1.653752e+00   6.736316e-02
  1.558372e-01    1.639996e+00   6.693433e-02
  1.580476e-01    1.630483e+00   6.657798e-02
  1.602581e-01    1.664501e+00   6.709804e-02
  1.624685e-01    1.682640e+00   6.727797e-02
  1.646790e-01    1.754896e+00   6.851000e-02
  1.668895e-01    1.768178e+00   6.857021e-02
  1.690999e-01    1.789444e+00   6.877416e-02
  1.713104e-01    1.822107e+00   6.918363e-02
  1.735208e-01    1.758820e+00   6.776018e-02
  1.757313e-01    1.834803e+00   6.899143e-02
  1.779417e-01    1.907086e+00   7.010790e-02
  1.801522e-01    1.951866e+00   7.070034e-02
  1.823626e-01    1.905256e+00   6.961855e-02
  1.845731e-01    1.953076e+00   7.025848e-02
  1.867836e-01    1.994146e+00   7.075377e-02
  1.889940e-01    1.955130e+00   6.982926e-02
  1.912045e-01    1.975759e+00   6.996226e-02
  1.934149e-01    2.017433e+00   7.045965e-02
  1.956254e-01    2.093989e+00   7.154732e-02
  1.978358e-01    2.031145e+00   7.022403e-02
  2.000463e-01    2.015144e+00   6.971510e-02
  2.022568e-01    1.933759e+00   6.806863e-02
  2.044672e-01    2.054911e+00   6.992815e-02
  2.066777e-01    2.032314e+00   6.931180e-02
  2.088881e-01    2.028394e+00   6.901837e-02
  2.110986e-01    2.033900e+00   6.887498e-02
  2.133090e-01    1.985369e+00   6.782708e-02
  2.155195e-01    1.958305e+00   6.713975e-02
  2.177300e-01    2.062042e+00   6.835384e-02
  2.199404e-01    2.011244e+00   6.572789e-02
  2.221509e-01    2.029655e+00   6.494380e-02
  2.243613e-01    2.046733e+00   6.438971e-02
  2.265718e-01    2.070883e+00   6.405457e-02
  2.287822e-01    2.099597e+00   6.385874e-02
  2.309927e-01    2.199150e+00   6.475978e-02
  2.332031e-01    2.202512e+00   6.425455e-02
  2.354136e-01    2.168601e+00   6.324126e-02
  2.376241e-01    2.226588e+00   6.358380e-02
  2.398345e-01    2.197839e+00   6.270447e-02
  2.420450e-01    2.141216e+00   6.144913e-02
  2.442554e-01    2.241674e+00   6.244094e-02
  2.464659e-01    2.188499e+00   6.128171e-02
  2.486763e-01    2.212394e+00   6.121033e-02
  2.508868e-01    2.154303e+00   6.002037e-02
  2.530973e-01    2.132770e+00   5.934937e-02
  2.553077e-01    2.093018e+00   5.843707e-02
  2.575182e-01    2.098811e+00   5.817163e-02
  2.597286e-01    2.166202e+00   5.875465e-02
  2.619391e-01    2.104256e+00   5.757508e-02
  2.641495e-01    2.080740e+00   5.693557e-02
  2.663600e-01    2.154545e+00   5.761796e-02
  2.685704e-01    2.029922e+00   5.562361e-02
  2.707809e-01    2.031739e+00   5.535312e-02
  2.729914e-01    2.062114e+00   5.547474e-02
  2.752018e-01    2.064565e+00   5.521877e-02
  2.774123e-01    2.112199e+00   5.556687e-02
  2.796227e-01    2.071918e+00   5.476223e-02
  2.818332e-01    2.110021e+00   5.498780e-02
  2.840436e-01    2.052154e+00   5.396568e-02
  2.862541e-01    2.050549e+00   5.368524e-02
  2.884646e-01    2.046813e+00   5.338179e-02
  2.906750e-01    2.047499e+00   5.313756e-02
  2.928855e-01    2.016659e+00   5.249152e-02
  2.950959e-01    1.988922e+00   5.188982e-02
  2.973064e-01    2.009253e+00   5.191997e-02
  2.995168e-01    1.955344e+00   5.098673e-02
  3.017273e-01    1.926892e+00   5.039127e-02
  3.039377e-01    1.955189e+00   5.053766e-02
  3.061482e-01    1.946445e+00   5.020640e-02
  3.083587e-01    1.943025e+00   4.994513e-02
  3.105691e-01    1.981175e+00   5.021767e-02
  3.127796e-01    1.948930e+00   4.959793e-02
  3.149900e-01    1.939480e+00   4.927138e-02
  3.172005e-01    1.929657e+00   4.894548e-02
  3.194109e-01    1.923816e+00   4.866961e-02
  3.216214e-01    1.910348e+00   4.830105e-02
  3.238319e-01    1.931920e+00   4.838056e-02
  3.260423e-01    1.938175e+00   4.826580e-02
  3.282528e-01    1.916922e+00   4.780935e-02
  3.304632e-01    1.933389e+00   4.782826e-02
  3.326737e-01    1.875223e+00   4.691951e-02
  3.348841e-01    1.863485e+00   4.659107e-02
  3.370946e-01    1.924599e+00   4.717073e-02
  3.393050e-01    1.954819e+00   4.735957e-02
  3.415155e-01    1.915958e+00   4.671017e-02
  3.437260e-01    1.891461e+00   4.623858e-02
  3.459364e-01    1.892283e+00   4.607754e-02
  3.481469e-01    1.877715e+00   4.573228e-02
  3.503573e-01    1.925391e+00   4.614054e-02
  3.525678e-01    1.797953e+00   4.442853e-02
  3.547782e-01    1.817300e+00   4.450546e-02
  3.569887e-01    1.815828e+00   4.432981e-02
  3.591992e-01    1.857282e+00   4.467432e-02
  3.614096e-01    1.902476e+00   4.505784e-02
  3.636201e-01    1.893580e+00   4.479439e-02
  3.658305e-01    1.898310e+00   4.469734e-02
  3.680410e-01    1.796430e+00   4.333181e-02
  3.702514e-01    1.780425e+00   4.299326e-02
  3.724619e-01    1.853421e+00   4.371637e-02
  3.746724e-01    1.880888e+00   4.389219e-02
  3.768828e-01    1.835689e+00   4.321570e-02
  3.790933e-01    1.876837e+00   4.355497e-02
  3.813037e-01    1.852967e+00   4.313553e-02
  3.835142e-01    1.855414e+00   4.302222e-02
  3.857246e-01    1.863631e+00   4.297785e-02
  3.879351e-01    1.812063e+00   4.224189e-02
  3.901455e-01    1.835119e+00   4.237444e-02
  3.923560e-01    1.833422e+00   4.222023e-02
  3.945665e-01    1.757619e+00   4.120713e-02
  3.967769e-01    1.775791e+00   4.128987e-02
  3.989874e-01    1.776181e+00   4.116547e-02
  4.011978e-01    1.836427e+00   4.172906e-02
  4.034083e-01    1.858817e+00   4.185380e-02
  4.056187e-01    1.859791e+00   4.173581e-02
  4.078292e-01    1.800272e+00   4.093827e-02
  4.100397e-01    1.773998e+00   4.051436e-02
  4.122501e-01    1.761774e+00   4.025374e-02
  4.144606e-01    1.841115e+00   4.102811e-02
  4.166710e-01    1.865640e+00   4.117770e-02
  4.188815e-01    1.839732e+00   4.076999e-02
  4.210919e-01    1.867081e+00   4.095154e-02
  4.233024e-01    1.861189e+00   4.076661e-02
  4.255128e-01    1.844509e+00   4.046621e-02
  4.277233e-01    1.830900e+00   4.020082e-02
  4.299338e-01    1.849059e+00   4.028343e-02
  4.321442e-01    1.883030e+00   4.053548e-02
  4.343547e-01    1.836796e+00   3.992155e-02
  4.365651e-01    1.795135e+00   3.935408e-02
  4.387756e-01    1.813474e+00   3.944382e-02
  4.409860e-01    1.821286e+00   3.941918e-02
  4.431965e-01    1.766208e+00   3.871125e-02
  4.454070e-01    1.760272e+00   3.853859e-02
  4.476174e-01    1.817580e+00   3.905338e-02
  4.498279e-01    1.769120e+00   3.842444e-02
  4.520383e-01    1.741424e+00   3.801785e-02
  4.542488e-01    1.725842e+00   3.774533e-02
  4.564592e-01    1.755948e+00   3.797096e-02
  4.586697e-01    1.767118e+00   3.799047e-02
  4.608801e-01    1.754266e+00   3.775067e-02
  4.630906e-01    1.781085e+00   3.793740e-02
  4.653011e-01    1.788875e+00   3.792031e-02
  4.675115e-01    1.812183e+00   3.806602e-02
  4.697220e-01    1.806447e+00   3.790623e-02
  4.719324e-01    1.748033e+00   3.719188e-02
  4.741429e-01    1.739599e+00   3.700643e-02
  4.763533e-01    1.726675e+00   3.677420e-02
  4.785638e-01    1.732666e+00   3.674276e-02
  4.807743e-01    1.782033e+00   3.716778e-02
  4.829847e-01    1.755315e+00   3.679490e-02
  4.851952e-01    1.760363e+00   3.675452e-02
  4.874056e-01    1.804540e+00   3.711903e-02
  4.896161e-01    1.764035e+00   3.660908e-02
  4.918265e-01    1.755398e+00   3.642864e-02
  4.940370e-01    1.742394e+00   3.620385e-02
  4.962475e-01    1.712685e+00   3.580525e-02
  4.984579e-01    1.700191e+00   3.558647e-02
  5.006684e-01    1.778094e+00   3.630388e-02
  5.028788e-01    1.780293e+00   3.623835e-02
  5.050893e-01    1.747038e+00   3.581096e-02
  5.072997e-01    1.689656e+00   3.513289e-02
  5.095102e-01    1.720139e+00   3.536347e-02
  5.117206e-01    1.706754e+00   3.514186e-02
  5.139311e-01    1.762475e+00   3.562638e-02
  5.161416e-01    1.747203e+00   3.538789e-02
  5.183520e-01    1.648538e+00   3.429249e-02
  5.205625e-01    1.674080e+00   3.447616e-02
  5.227729e-01    1.748546e+00   3.515241e-02
  5.249834e-01    1.723318e+00   3.481690e-02
  5.271938e-01    1.733804e+00   3.484117e-02
  5.294043e-01    1.785321e+00   3.527343e-02
  5.316148e-01    1.754047e+00   3.488304e-02
  5.338252e-01    1.823055e+00   3.548131e-02
  5.360357e-01    1.807190e+00   3.524619e-02
  5.382461e-01    1.821806e+00   3.530841e-02
  5.404566e-01    1.853720e+00   3.553530e-02
  5.426670e-01    1.793392e+00   3.487353e-02
  5.448775e-01    1.806380e+00   3.492137e-02
  5.470879e-01    1.798543e+00   3.476784e-02
  5.492984e-01    1.810376e+00   3.480446e-02
  5.515089e-01    1.818946e+00   3.480935e-02
  5.537193e-01    1.841353e+00   3.494594e-02
  5.559298e-01    1.863076e+00   3.507439e-02
  5.581402e-01    1.825052e+00   3.463876e-02
  5.603507e-01    1.824901e+00   3.456194e-02
  5.625611e-01    1.795927e+00   3.421207e-02
  5.647716e-01    1.810254e+00   3.427369e-02
  5.669821e-01    1.803934e+00   3.414005e-02
  5.691925e-01    1.829858e+00   3.431066e-02
  5.714030e-01    1.815629e+00   3.410415e-02
  5.736134e-01    1.802828e+00   3.391143e-02
  5.758239e-01    1.764115e+00   3.347376e-02
  5.780343e-01    1.720103e+00   3.298364e-02
  5.802448e-01    1.717882e+00   3.289333e-02
  5.824552e-01    1.690548e+00   3.256214e-02
  5.846657e-01    1.653579e+00   3.213700e-02
  5.868762e-01    1.698507e+00   3.250282e-02
  5.890866e-01    1.732692e+00   3.276018e-02
  5.912971e-01    1.720288e+00   3.257514e-02
  5.935075e-01    1.706394e+00   3.237626e-02
  5.957180e-01    1.748765e+00   3.270851e-02
  5.979284e-01    1.709191e+00   3.227031e-02
  6.001389e-01    1.676854e+00   3.189848e-02
  6.023494e-01    1.710452e+00   3.215105e-02
  6.045598e-01    1.683608e+00   3.183283e-02
  6.067703e-01    1.680729e+00   3.174163e-02
  6.089807e-01    1.670232e+00   3.157873e-02
  6.111912e-01    1.671219e+00   3.152499e-02
  6.134016e-01    1.705869e+00   3.178659e-02
  6.156121e-01    1.720488e+00   3.185907e-02
  6.178226e-01    1.689940e+00   3.151244e-02
  6.200330e-01    1.724938e+00   3.177428e-02
  6.222435e-01    1.737283e+00   3.182460e-02
  6.244539e-01    1.767141e+00   3.203407e-02
  6.266644e-01    1.801134e+00   3.227762e-02
  6.288748e-01    1.779015e+00   3.201639e-02
  6.310853e-01    1.774011e+00   3.190925e-02
  6.332957e-01    1.754217e+00   3.166948e-02
  6.355062e-01    1.715352e+00   3.125584e-02
  6.377167e-01    1.779367e+00   3.177262e-02
  6.399271e-01    1.754250e+00   3.148714e-02
  6.421376e-01    1.745364e+00   3.134736e-02
  6.443480e-01    1.733134e+00   3.117790e-02
  6.465585e-01    1.741206e+00   3.119122e-02
  6.487689e-01    1.725411e+00   3.099081e-02
  6.509794e-01    1.665700e+00   3.039241e-02
  6.531899e-01    1.666382e+00   3.034145e-02
  6.554003e-01    1.668388e+00   3.030263e-02
  6.576108e-01    1.657970e+00   3.015163e-02
  6.598212e-01    1.632680e+00   2.986520e-02
  6.620317e-01    1.629252e+00   2.977852e-02
  6.642421e-01    1.643017e+00   2.984872e-02
  6.664526e-01    1.654181e+00   2.989479e-02
  6.686630e-01    1.663350e+00   2.992210e-02
  6.708735e-01    1.663649e+00   2.986989e-02
  6.730840e-01    1.639128e+00   2.959490e-02
  6.752944e-01    1.611027e+00   2.928675e-02
  6.775049e-01    1.644687e+00   2.953739e-02
  6.797153e-01    1.667783e+00   2.969021e-02
  6.819258e-01    1.665172e+00   2.961345e-02
  6.841362e-01    1.641149e+00   2.934619e-02
  6.863467e-01    1.639071e+00   2.927509e-02
  6.885572e-01    1.641253e+00   2.924206e-02
  6.907676e-01    1.638063e+00   2.916130e-02
  6.929781e-01    1.610043e+00   2.885941e-02
  6.951885e-01    1.653538e+00   2.919484e-02
  6.973990e-01    1.641247e+00   2.903470e-02
  6.996094e-01    1.636769e+00   2.894406e-02
  7.018199e-01    1.604505e+00   2.860706e-02
  7.040303e-01    1.655781e+00   2.900951e-02
  7.062408e-01    1.634440e+00   2.877150e-02
  7.084513e-01    1.628177e+00   2.866635e-02
  7.106617e-01    1.626778e+00   2.860426e-02
  7.128722e-01    1.580389e+00   2.814469e-02
  7.150826e-01    1.622371e+00   2.846690e-02
  7.172931e-01    1.633520e+00   2.851531e-02
  7.195035e-01    1.609710e+00   2.825807e-02
  7.217140e-01    1.616238e+00   2.836541e-02
  7.239245e-01    1.606400e+00   2.850795e-02
  7.261349e-01    1.668809e+00   2.916826e-02
  7.283454e-01    1.612709e+00   2.874710e-02
  7.305558e-01    1.554632e+00   2.827835e-02
  7.327663e-01    1.583985e+00   2.858668e-02
  7.349767e-01    1.605074e+00   2.879288e-02
  7.371872e-01    1.626077e+00   2.896930e-02
  7.393976e-01    1.603235e+00   2.875072e-02
  7.416081e-01    1.598132e+00   2.868864e-02
  7.438186e-01    1.624602e+00   2.877864e-02
  7.460290e-01    1.638622e+00   2.860242e-02
  7.482395e-01    1.575418e+00   2.787416e-02
  7.504499e-01    1.582773e+00   2.780250e-02
  7.526604e-01    1.640093e+00   2.818253e-02
  7.548708e-01    1.621034e+00   2.792757e-02
  7.570813e-01    1.638917e+00   2.802920e-02
  7.592918e-01    1.615344e+00   2.779126e-02
  7.615022e-01    1.595743e+00   2.758811e-02
  7.637127e-01    1.587272e+00   2.748188e-02
  7.659231e-01    1.567362e+00   2.727702e-02
  7.681336e-01    1.641770e+00   2.788474e-02
  7.703440e-01    1.636239e+00   2.780590e-02
  7.725545e-01    1.631678e+00   2.773567e-02
  7.747650e-01    1.666030e+00   2.798683e-02
  7.769754e-01    1.633623e+00   2.765963e-02
  7.791859e-01    1.628662e+00   2.756321e-02
  7.813963e-01    1.633273e+00   2.754872e-02
  7.836068e-01    1.605486e+00   2.726103e-02
  7.858172e-01    1.642292e+00   2.752017e-02
  7.880277e-01    1.660390e+00   2.761878e-02
  7.902381e-01    1.626848e+00   2.728871e-02
  7.924486e-01    1.635088e+00   2.730707e-02
  7.946591e-01    1.641112e+00   2.730839e-02
  7.968695e-01    1.653490e+00   2.736217e-02
  7.990800e-01    1.639879e+00   2.720060e-02
  8.012904e-01    1.645047e+00   2.719631e-02
  8.035009e-01    1.638119e+00   2.709070e-02
  8.057113e-01    1.631869e+00   2.699220e-02
  8.079218e-01    1.627366e+00   2.690842e-02
  8.101323e-01    1.625038e+00   2.684351e-02
  8.123427e-01    1.619562e+00   2.675256e-02
  8.145532e-01    1.633541e+00   2.682178e-02
  8.167636e-01    1.661546e+00   2.700524e-02
  8.189741e-01    1.651228e+00   2.687639e-02
  8.211845e-01    1.668322e+00   2.696986e-02
  8.233950e-01    1.648245e+00   2.676351e-02
  8.256054e-01    1.651182e+00   2.674293e-02
  8.278159e-01    1.669432e+00   2.684594e-02
  8.300264e-01    1.654681e+00   2.668376e-02
  8.322368e-01    1.669175e+00   2.675685e-02
  8.344473e-01    1.652351e+00   2.657812e-02
  8.366577e-01    1.646961e+00   2.649205e-02
  8.388682e-01    1.650384e+00   2.647715e-02
  8.410786e-01    1.694797e+00   2.678831e-02
  8.432891e-01    1.653639e+00   2.641899e-02
  8.454996e-01    1.673290e+00   2.653344e-02
  8.477100e-01    1.653157e+00   2.633149e-02
  8.499205e-01    1.672253e+00   2.644152e-02
  8.521309e-01    1.667920e+00   2.636609e-02
  8.543414e-01    1.641420e+00   2.611497e-02
  8.565518e-01    1.615979e+00   2.587147e-02
  8.587623e-01    1.641948e+00   2.603790e-02
  8.609727e-01    1.629958e+00   2.590246e-02
  8.631832e-01    1.626415e+00   2.583438e-02
  8.653937e-01    1.628292e+00   2.580956e-02
  8.676041e-01    1.636421e+00   2.583487e-02
  8.698146e-01    1.604636e+00   2.554364e-02
  8.720250e-01    1.606064e+00   2.551604e-02
  8.742355e-01    1.616597e+00   2.556060e-02
  8.764459e-01    1.641975e+00   2.572118e-02
  8.786564e-01    1.577455e+00   2.517318e-02
  8.808669e-01    1.583788e+00   2.518540e-02
  8.830773e-01    1.596648e+00   2.524938e-02
  8.852878e-01    1.619601e+00   2.539210e-02
  8.874982e-01    1.600114e+00   2.520225e-02
  8.897087e-01    1.577077e+00   2.498278e-02
  8.919191e-01    1.575020e+00   2.492903e-02
  8.941296e-01    1.624922e+00   2.528327e-02
  8.963401e-01    1.640002e+00   2.536347e-02
  8.985505e-01    1.624910e+00   2.520924e-02
  9.007610e-01    1.639230e+00   2.528289e-02
  9.029714e-01    1.588189e+00   2.485045e-02
  9.051819e-01    1.633746e+00   2.516672e-02
  9.073923e-01    1.662391e+00   2.534913e-02
  9.096028e-01    1.650012e+00   2.521911e-02
  9.118132e-01    1.612961e+00   2.489801e-02
  9.140237e-01    1.595067e+00   2.472292e-02
  9.162342e-01    1.619141e+00   2.487404e-02
  9.184446e-01    1.622899e+00   2.486688e-02
  9.206551e-01    1.636983e+00   2.493853e-02
  9.228655e-01    1.636862e+00   2.490199e-02
  9.250760e-01    1.623263e+00   2.476272e-02
  9.272864e-01    1.647002e+00   2.490840e-02
  9.294969e-01    1.630715e+00   2.474882e-02
  9.317074e-01    1.632940e+00   2.473070e-02
  9.339178e-01    1.653677e+00   2.485325e-02
  9.361283e-01    1.659366e+00   2.485926e-02
  9.383387e-01    1.654028e+00   2.478549e-02
  9.405492e-01    1.654009e+00   2.475072e-02
  9.427596e-01    1.666620e+00   2.480915e-02
  9.449701e-01    1.643438e+00   2.460252e-02
  9.471805e-01    1.673486e+00   2.479124e-02
  9.493910e-01    1.713335e+00   2.505022e-02
  9.516015e-01    1.747848e+00   2.526597e-02
  9.538119e-01    1.738672e+00   2.516503e-02
  9.560224e-01    1.734086e+00   2.509644e-02
  9.582328e-01    1.740835e+00   2.511151e-02
  9.604433e-01    1.727134e+00   2.497707e-02
  9.626537e-01    1.753206e+00   2.513102e-02
  9.648642e-01    1.816872e+00   2.554824e-02
  9.670747e-01    1.821580e+00   2.554604e-02
  9.692851e-01    1.818169e+00   2.548819e-02
  9.714956e-01    1.873253e+00   2.583491e-02
  9.737060e-01    1.923759e+00   2.614650e-02
  9.759165e-01    1.926802e+00   2.613026e-02
  9.781269e-01    1.920651e+00   2.605442e-02
  9.803374e-01    1.860163e+00   2.560539e-02
  9.825478e-01    1.832968e+00   2.538400e-02
  9.847583e-01    1.857500e+00   2.551859e-02
  9.869688e-01    1.835889e+00   2.533576e-02
  9.891792e-01    1.836905e+00   2.530909e-02
  9.913897e-01    1.782653e+00   2.489890e-02
  9.936001e-01    1.768481e+00   2.476726e-02
  9.958106e-01    1.762312e+00   2.469042e-02
  9.980210e-01    1.753588e+00   2.459727e-02
  1.000231e+00    1.728660e+00   2.455560e-02
  1.002442e+00    1.726291e+00   2.466913e-02
  1.004652e+00    1.717707e+00   2.467641e-02
  1.006863e+00    1.639698e+00   2.415959e-02
  1.009073e+00    1.599789e+00   2.390027e-02
  1.011284e+00    1.596280e+00   2.390597e-02
  1.013494e+00    1.580336e+00   2.380986e-02
  1.015705e+00    1.619560e+00   2.412629e-02
  1.017915e+00    1.595419e+00   2.396235e-02
  1.020126e+00    1.551416e+00   2.364553e-02
  1.022336e+00    1.569926e+00   2.379790e-02
  1.024547e+00    1.573862e+00   2.383900e-02
  1.026757e+00    1.571191e+00   2.382721e-02
  1.028967e+00    1.551624e+00   2.368608e-02
  1.031178e+00    1.511497e+00   2.338391e-02
  1.033388e+00    1.520726e+00   2.346022e-02
  1.035599e+00    1.549116e+00   2.368164e-02
  1.037809e+00    1.551968e+00   2.370672e-02
  1.040020e+00    1.560024e+00   2.376945e-02
  1.042230e+00    1.573390e+00   2.387304e-02
  1.044441e+00    1.550369e+00   2.369754e-02
  1.046651e+00    1.523159e+00   2.348883e-02
  1.048862e+00    1.518915e+00   2.345527e-02
  1.051072e+00    1.544523e+00   2.364978e-02
  1.053282e+00    1.536534e+00   2.358759e-02
  1.055493e+00    1.535046e+00   2.357179e-02
  1.057703e+00    1.545687e+00   2.365180e-02
  1.059914e+00    1.541394e+00   2.361462e-02
  1.062124e+00    1.518764e+00   2.343652e-02
  1.064335e+00    1.528412e+00   2.350736e-02
  1.066545e+00    1.509430e+00   2.335489e-02
  1.068756e+00    1.493127e+00   2.322466e-02
  1.070966e+00    1.478805e+00   2.310647e-02
  1.073177e+00    1.517999e+00   2.340451e-02
  1.075387e+00    1.488411e+00   2.317006e-02
  1.077597e+00    1.461891e+00   2.295546e-02
  1.079808e+00    1.452582e+00   2.275005e-02
  1.082018e+00    1.436143e+00   2.243361e-02
  1.084229e+00    1.469008e+00   2.257847e-02
  1.086439e+00    1.472050e+00   2.251391e-02
  1.088650e+00    1.488371e+00   2.256181e-02
  1.090860e+00    1.504160e+00   2.261240e-02
  1.093071e+00    1.486331e+00   2.241505e-02
  1.095281e+00    1.434934e+00   2.196706e-02
  1.097492e+00    1.415860e+00   2.176620e-02
  1.099702e+00    1.427135e+00   2.180154e-02
  1.101912e+00    1.442984e+00   2.187336e-02
  1.104123e+00    1.433660e+00   2.175440e-02
  1.106333e+00    1.431489e+00   2.169351e-02
  1.108544e+00    1.427706e+00   2.162061e-02
  1.110754e+00    1.443809e+00   2.169890e-02
  1.112965e+00    1.458954e+00   2.177137e-02
  1.115175e+00    1.440763e+00   2.159374e-02
  1.117386e+00    1.451723e+00   2.163594e-02
  1.119596e+00    1.405999e+00   2.125472e-02
  1.121807e+00    1.397908e+00   2.115479e-02
  1.124017e+00    1.395403e+00   2.109934e-02
  1.126228e+00    1.405891e+00   2.114271e-02
  1.128438e+00    1.403784e+00   2.109007e-02
  1.130648e+00    1.432798e+00   2.127216e-02
  1.132859e+00    1.434706e+00   2.125151e-02
  1.135069e+00    1.375943e+00   2.077723e-02
  1.137280e+00    1.401137e+00   2.093344e-02
  1.139490e+00    1.419703e+00   2.103823e-02
  1.141701e+00    1.422447e+00   2.102500e-02
  1.143911e+00    1.387996e+00   2.073690e-02
  1.146122e+00    1.385270e+00   2.068448e-02
  1.148332e+00    1.384451e+00   2.064642e-02
  1.150543e+00    1.384069e+00   2.061266e-02
  1.152753e+00    1.362288e+00   2.041916e-02
  1.154963e+00    1.366109e+00   2.041679e-02
  1.157174e+00    1.393163e+00   2.058760e-02
  1.159384e+00    1.403291e+00   2.063209e-02
  1.161595e+00    1.409469e+00   2.064722e-02
  1.163805e+00    1.390579e+00   2.047888e-02
  1.166016e+00    1.407369e+00   2.057230e-02
  1.168226e+00    1.396909e+00   2.046644e-02
  1.170437e+00    1.393359e+00   2.041149e-02
  1.172647e+00    1.383978e+00   2.031359e-02
  1.174858e+00    1.361407e+00   2.011918e-02
  1.177068e+00    1.368342e+00   2.014205e-02
  1.179278e+00    1.381356e+00   2.020882e-02
  1.181489e+00    1.382741e+00   2.019172e-02
  1.183699e+00    1.389887e+00   2.021594e-02
  1.185910e+00    1.349295e+00   1.989088e-02
  1.188120e+00    1.344836e+00   1.983139e-02
  1.190331e+00    1.355003e+00   1.987945e-02
  1.192541e+00    1.354380e+00   1.984751e-02
  1.194752e+00    1.362214e+00   1.987768e-02
  1.196962e+00    1.371718e+00   1.992097e-02
  1.199173e+00    1.363352e+00   1.983352e-02
  1.201383e+00    1.356095e+00   1.975342e-02
  1.203593e+00    1.369779e+00   1.982784e-02
  1.205804e+00    1.328193e+00   1.949885e-02
  1.208014e+00    1.334870e+00   1.952106e-02
  1.210225e+00    1.401339e+00   1.997537e-02
  1.212435e+00    1.459179e+00   2.035766e-02
  1.214646e+00    1.507483e+00   2.066432e-02
  1.216856e+00    1.456565e+00   2.028589e-02
  1.219067e+00    1.437806e+00   2.012957e-02
  1.221277e+00    1.388755e+00   1.975785e-02
  1.223488e+00    1.393608e+00   1.976617e-02
  1.225698e+00    1.390698e+00   1.971821e-02
  1.227909e+00    1.422776e+00   1.991337e-02
  1.230119e+00    1.422826e+00   1.988101e-02
  1.232329e+00    1.408156e+00   1.974690e-02
  1.234540e+00    1.421921e+00   1.981206e-02
  1.236750e+00    1.424485e+00   1.979886e-02
  1.238961e+00    1.400910e+00   1.960685e-02
  1.241171e+00    1.414178e+00   1.967474e-02
  1.243382e+00    1.412552e+00   1.963936e-02
  1.245592e+00    1.411363e+00   1.960646e-02
  1.247803e+00    1.440102e+00   1.978063e-02
  1.250013e+00    1.482836e+00   2.004729e-02
  1.252224e+00    1.517971e+00   2.025877e-02
  1.254434e+00    1.495618e+00   2.008409e-02
  1.256644e+00    1.419078e+00   1.953963e-02
  1.258855e+00    1.398448e+00   1.937338e-02
  1.261065e+00    1.383264e+00   1.924426e-02
  1.263276e+00    1.424827e+00   1.950766e-02
  1.265486e+00    1.429994e+00   1.951947e-02
  1.267697e+00    1.422778e+00   1.944652e-02
  1.269907e+00    1.415873e+00   1.937604e-02
  1.272118e+00    1.415016e+00   1.934705e-02
  1.274328e+00    1.414969e+00   1.932346e-02
  1.276539e+00    1.393203e+00   1.915111e-02
  1.278749e+00    1.393737e+00   1.913213e-02
  1.280959e+00    1.404986e+00   1.918620e-02
  1.283170e+00    1.399804e+00   1.912796e-02
  1.285380e+00    1.377316e+00   1.895100e-02
  1.287591e+00    1.387986e+00   1.900193e-02
  1.289801e+00    1.373460e+00   1.888084e-02
  1.292012e+00    1.355379e+00   1.873900e-02
  1.294222e+00    1.365511e+00   1.879258e-02
  1.296433e+00    1.350883e+00   1.867606e-02
  1.298643e+00    1.362925e+00   1.874254e-02
  1.300854e+00    1.385179e+00   1.887833e-02
  1.303064e+00    1.404172e+00   1.898770e-02
  1.305274e+00    1.374940e+00   1.876740e-02
  1.307485e+00    1.373177e+00   1.873361e-02
  1.309695e+00    1.383605e+00   1.878212e-02
  1.311906e+00    1.366272e+00   1.864224e-02
  1.314116e+00    1.357741e+00   1.856312e-02
  1.316327e+00    1.356335e+00   1.853173e-02
  1.318537e+00    1.388174e+00   1.872581e-02
  1.320748e+00    1.351278e+00   1.845372e-02
  1.322958e+00    1.357573e+00   1.847607e-02
  1.325169e+00    1.376739e+00   1.858480e-02
  1.327379e+00    1.397290e+00   1.870082e-02
  1.329589e+00    1.384988e+00   1.859698e-02
  1.331800e+00    1.390570e+00   1.861341e-02
  1.334010e+00    1.387268e+00   1.857035e-02
  1.336221e+00    1.382062e+00   1.851348e-02
  1.338431e+00    1.366694e+00   1.838925e-02
  1.340642e+00    1.377090e+00   1.852387e-02
  1.342852e+00    1.391991e+00   1.872605e-02
  1.345063e+00    1.365744e+00   1.859844e-02
  1.347273e+00    1.356560e+00   1.857112e-02
  1.349484e+00    1.353680e+00   1.857911e-02
  1.351694e+00    1.358165e+00   1.863264e-02
  1.353905e+00    1.373383e+00   1.875489e-02
  1.356115e+00    1.386378e+00   1.885867e-02
  1.358325e+00    1.354273e+00   1.865236e-02
  1.360536e+00    1.344907e+00   1.859935e-02
  1.362746e+00    1.336437e+00   1.855021e-02
  1.364957e+00    1.341540e+00   1.859323e-02
  1.367167e+00    1.360094e+00   1.872854e-02
  1.369378e+00    1.344653e+00   1.862796e-02
  1.371588e+00    1.356102e+00   1.871223e-02
  1.373799e+00    1.356563e+00   1.871914e-02
  1.376009e+00    1.338261e+00   1.859580e-02
  1.378220e+00    1.325495e+00   1.850943e-02
  1.380430e+00    1.315707e+00   1.844364e-02
  1.382640e+00    1.315884e+00   1.844580e-02
  1.384851e+00    1.308728e+00   1.839644e-02
  1.387061e+00    1.329426e+00   1.854163e-02
  1.389272e+00    1.294935e+00   1.829975e-02
  1.391482e+00    1.291007e+00   1.827128e-02
  1.393693e+00    1.310858e+00   1.841035e-02
  1.395903e+00    1.305488e+00   1.837109e-02
  1.398114e+00    1.289248e+00   1.825510e-02
  1.400324e+00    1.297820e+00   1.831351e-02
  1.402535e+00    1.306321e+00   1.837107e-02
  1.404745e+00    1.298549e+00   1.831395e-02
  1.406955e+00    1.307456e+00   1.837391e-02
  1.409166e+00    1.317285e+00   1.843949e-02
  1.411376e+00    1.300932e+00   1.832153e-02
  1.413587e+00    1.263994e+00   1.805575e-02
  1.415797e+00    1.276257e+00   1.813955e-02
  1.418008e+00    1.314673e+00   1.836795e-02
  1.420218e+00    1.299621e+00   1.811106e-02
  1.422429e+00    1.263008e+00   1.776901e-02
  1.424639e+00    1.294048e+00   1.792074e-02
  1.426850e+00    1.293901e+00   1.786452e-02
  1.429060e+00    1.293725e+00   1.781386e-02
  1.431270e+00    1.281324e+00   1.768377e-02
  1.433481e+00    1.278293e+00   1.762175e-02
  1.435691e+00    1.301616e+00   1.774287e-02
  1.437902e+00    1.304111e+00   1.772294e-02
  1.440112e+00    1.278582e+00   1.751314e-02
  1.442323e+00    1.285027e+00   1.752398e-02
  1.444533e+00    1.280396e+00   1.745969e-02
  1.446744e+00    1.277749e+00   1.741041e-02
  1.448954e+00    1.283195e+00   1.741713e-02
  1.451165e+00    1.258454e+00   1.721879e-02
  1.453375e+00    1.266429e+00   1.724524e-02
  1.455586e+00    1.279191e+00   1.730365e-02
  1.457796e+00    1.280128e+00   1.728237e-02
  1.460006e+00    1.289946e+00   1.732104e-02
  1.462217e+00    1.257079e+00   1.707289e-02
  1.464427e+00    1.268804e+00   1.712670e-02
  1.466638e+00    1.283854e+00   1.720252e-02
  1.468848e+00    1.280340e+00   1.715351e-02
  1.471059e+00    1.265736e+00   1.703035e-02
  1.473269e+00    1.273195e+00   1.705603e-02
  1.475480e+00    1.267153e+00   1.699177e-02
  1.477690e+00    1.271704e+00   1.699839e-02
  1.479901e+00    1.270146e+00   1.696411e-02
  1.482111e+00    1.267082e+00   1.692032e-02
  1.484321e+00    1.278342e+00   1.697210e-02
  1.486532e+00    1.295361e+00   1.706214e-02
  1.488742e+00    1.298319e+00   1.705865e-02
  1.490953e+00    1.288615e+00   1.697196e-02
  1.493163e+00    1.321727e+00   1.716583e-02
  1.495374e+00    1.280930e+00   1.687722e-02
  1.497584e+00    1.277816e+00   1.683488e-02
  1.499795e+00    1.259590e+00   1.669276e-02
  1.502005e+00    1.294433e+00   1.690007e-02
  1.504216e+00    1.274038e+00   1.674526e-02
  1.506426e+00    1.265172e+00   1.666601e-02
  1.508636e+00    1.271513e+00   1.668717e-02
  1.510847e+00    1.269544e+00   1.665231e-02
  1.513057e+00    1.290686e+00   1.676495e-02
  1.515268e+00    1.275200e+00   1.663817e-02
  1.517478e+00    1.279865e+00   1.664314e-02
  1.519689e+00    1.275303e+00   1.658829e-02
  1.521899e+00    1.269430e+00   1.652680e-02
  1.524110e+00    1.279924e+00   1.657441e-02
  1.526320e+00    1.287416e+00   1.660300e-02
  1.528531e+00    1.280527e+00   1.653851e-02
  1.530741e+00    1.277960e+00   1.650258e-02
  1.532951e+00    1.268749e+00   1.642327e-02
  1.535162e+00    1.264365e+00   1.648196e-02
  1.537372e+00    1.264739e+00   1.655173e-02
  1.539583e+00    1.260644e+00   1.655932e-02
  1.541793e+00    1.282513e+00   1.670936e-02
  1.544004e+00    1.262804e+00   1.658076e-02
  1.546214e+00    1.265471e+00   1.659673e-02
  1.548425e+00    1.258359e+00   1.655030e-02
  1.550635e+00    1.252503e+00   1.652143e-02
  1.552846e+00    1.280959e+00   1.671785e-02
  1.555056e+00    1.266632e+00   1.658228e-02
  1.557266e+00    1.255975e+00   1.640141e-02
  1.559477e+00    1.231911e+00   1.618469e-02
  1.561687e+00    1.266744e+00   1.638096e-02
  1.563898e+00    1.255383e+00   1.629013e-02
  1.566108e+00    1.281890e+00   1.644499e-02
  1.568319e+00    1.273213e+00   1.637346e-02
  1.570529e+00    1.239574e+00   1.613062e-02
  1.572740e+00    1.269623e+00   1.629706e-02
  1.574950e+00    1.262056e+00   1.622194e-02
  1.577161e+00    1.255049e+00   1.615125e-02
  1.579371e+00    1.250139e+00   1.609592e-02
  1.581582e+00    1.274659e+00   1.623298e-02
  1.583792e+00    1.273705e+00   1.620869e-02
  1.586002e+00    1.267277e+00   1.614995e-02
  1.588213e+00    1.266750e+00   1.612921e-02
  1.590423e+00    1.251155e+00   1.600947e-02
  1.592634e+00    1.269191e+00   1.610261e-02
  1.594844e+00    1.272721e+00   1.610334e-02
  1.597055e+00    1.269645e+00   1.606315e-02
  1.599265e+00    1.253641e+00   1.594078e-02
  1.601476e+00    1.243011e+00   1.585272e-02
  1.603686e+00    1.239609e+00   1.581125e-02
  1.605897e+00    1.253196e+00   1.587739e-02
  1.608107e+00    1.248731e+00   1.582944e-02
  1.610317e+00    1.263143e+00   1.590100e-02
  1.612528e+00    1.265315e+00   1.589527e-02
  1.614738e+00    1.287565e+00   1.601503e-02
  1.616949e+00    1.288825e+00   1.600341e-02
  1.619159e+00    1.291643e+00   1.600167e-02
  1.621370e+00    1.264961e+00   1.581673e-02
  1.623580e+00    1.231350e+00   1.558673e-02
  1.625791e+00    1.204412e+00   1.539705e-02
  1.628001e+00    1.194938e+00   1.531816e-02
  1.630212e+00    1.205771e+00   1.536960e-02
  1.632422e+00    1.216819e+00   1.542172e-02
  1.634632e+00    1.228855e+00   1.548017e-02
  1.636843e+00    1.200312e+00   1.528163e-02
  1.639053e+00    1.192142e+00   1.521208e-02
  1.641264e+00    1.213635e+00   1.533120e-02
  1.643474e+00    1.204592e+00   1.525627e-02
  1.645685e+00    1.174359e+00   1.504683e-02
  1.647895e+00    1.147906e+00   1.485985e-02
  1.650106e+00    1.140963e+00   1.479790e-02
  1.652316e+00    1.146785e+00   1.481915e-02
  1.654527e+00    1.116288e+00   1.460430e-02
  1.656737e+00    1.130330e+00   1.467934e-02
  1.658947e+00    1.129599e+00   1.465834e-02
  1.661158e+00    1.126672e+00   1.462306e-02
  1.663368e+00    1.129311e+00   1.462411e-02
  1.665579e+00    1.109425e+00   1.447872e-02
  1.667789e+00    1.093552e+00   1.435869e-02
  1.670000e+00    1.114722e+00   1.448148e-02
  1.672210e+00    1.152047e+00   1.470577e-02
  1.674421e+00    1.155609e+00   1.471282e-02
  1.676631e+00    1.188988e+00   1.490728e-02
  1.678842e+00    1.257611e+00   1.531454e-02
  1.681052e+00    1.348033e+00   1.583848e-02
  1.683263e+00    1.266275e+00   1.533445e-02
  1.685473e+00    1.149283e+00   1.459325e-02
  1.687683e+00    1.149438e+00   1.457835e-02
  1.689894e+00    1.122961e+00   1.439338e-02
  1.692104e+00    1.084648e+00   1.413076e-02
  1.694315e+00    1.058530e+00   1.394515e-02
  1.696525e+00    1.076581e+00   1.404836e-02
  1.698736e+00    1.077960e+00   1.404244e-02
  1.700946e+00    1.060881e+00   1.391562e-02
  1.703157e+00    1.072945e+00   1.397975e-02
  1.705367e+00    1.078696e+00   1.400251e-02
  1.707578e+00    1.070214e+00   1.393262e-02
  1.709788e+00    1.049458e+00   1.378272e-02
  1.711998e+00    1.054508e+00   1.380074e-02
  1.714209e+00    1.034658e+00   1.365584e-02
  1.716419e+00    1.041271e+00   1.368507e-02
  1.718630e+00    1.050868e+00   1.373360e-02
  1.720840e+00    1.035924e+00   1.362137e-02
  1.723051e+00    1.006981e+00   1.341598e-02
  1.725261e+00    9.999539e-01   1.335457e-02
  1.727472e+00    1.009516e+00   1.340414e-02
  1.729682e+00    1.013842e+00   1.341941e-02
  1.731893e+00    1.009602e+00   1.337741e-02
  1.734103e+00    9.958735e-01   1.327244e-02
  1.736313e+00    1.006534e+00   1.332928e-02
  1.738524e+00    9.956053e-01   1.324293e-02
  1.740734e+00    1.011487e+00   1.333437e-02
  1.742945e+00    9.946977e-01   1.320978e-02
  1.745155e+00    1.002239e+00   1.324625e-02
  1.747366e+00    9.915578e-01   1.316165e-02
  1.749576e+00    9.807019e-01   1.307577e-02
  1.751787e+00    9.702977e-01   1.299297e-02
  1.753997e+00    9.789765e-01   1.303757e-02
  1.756208e+00    9.682173e-01   1.295257e-02
  1.758418e+00    9.687032e-01   1.294273e-02
  1.760628e+00    9.707887e-01   1.294329e-02
  1.762839e+00    9.708865e-01   1.293068e-02
  1.765049e+00    9.630914e-01   1.286555e-02
  1.767260e+00    9.417248e-01   1.270935e-02
  1.769470e+00    9.588895e-01   1.281162e-02
  1.771681e+00    9.493549e-01   1.273467e-02
  1.773891e+00    9.523058e-01   1.274136e-02
  1.776102e+00    9.614707e-01   1.278957e-02
  1.778312e+00    9.602947e-01   1.276890e-02
  1.780523e+00    9.212263e-01   1.249389e-02
  1.782733e+00    9.360602e-01   1.258138e-02
  1.784944e+00    9.454445e-01   1.263135e-02
  1.787154e+00    9.702036e-01   1.278288e-02
  1.789364e+00    9.681759e-01   1.275679e-02
  1.791575e+00    9.479614e-01   1.261025e-02
  1.793785e+00    9.346622e-01   1.250900e-02
  1.795996e+00    9.176245e-01   1.238196e-02
  1.798206e+00    9.003712e-01   1.225262e-02
  1.800417e+00    9.082748e-01   1.229364e-02
  1.802627e+00    9.015219e-01   1.223602e-02
  1.804838e+00    8.996509e-01   1.221127e-02
  1.807048e+00    9.103374e-01   1.227074e-02
  1.809259e+00    9.026586e-01   1.220532e-02
  1.811469e+00    9.100548e-01   1.224020e-02
  1.813679e+00    9.037374e-01   1.218266e-02
  1.815890e+00    8.857182e-01   1.204595e-02
  1.818100e+00    8.818621e-01   1.200472e-02
  1.820311e+00    8.973647e-01   1.209496e-02
  1.822521e+00    8.941828e-01   1.205864e-02
  1.824732e+00    8.734232e-01   1.190316e-02
  1.826942e+00    8.899794e-01   1.200307e-02
  1.829153e+00    9.085380e-01   1.211575e-02
  1.831363e+00    9.037335e-01   1.207150e-02
  1.833574e+00    8.801421e-01   1.190124e-02
  1.835784e+00    8.740239e-01   1.184841e-02
  1.837994e+00    8.878307e-01   1.192982e-02
  1.840205e+00    9.084814e-01   1.205640e-02
  1.842415e+00    8.833619e-01   1.187671e-02
  1.844626e+00    8.784937e-01   1.183234e-02
  1.846836e+00    8.634420e-01   1.171912e-02
  1.849047e+00    8.591405e-01   1.167834e-02
  1.851257e+00    8.424234e-01   1.155470e-02
  1.853468e+00    8.522670e-01   1.161326e-02
  1.855678e+00    8.564001e-01   1.163253e-02
  1.857889e+00    8.616118e-01   1.165936e-02
  1.860099e+00    8.606133e-01   1.164395e-02
  1.862309e+00    8.645869e-01   1.166224e-02
  1.864520e+00    8.516138e-01   1.156589e-02
  1.866730e+00    8.356622e-01   1.144776e-02
  1.868941e+00    8.518890e-01   1.154743e-02
  1.871151e+00    8.524764e-01   1.154002e-02
  1.873362e+00    8.457676e-01   1.148321e-02
  1.875572e+00    8.476940e-01   1.148535e-02
  1.877783e+00    8.631523e-01   1.157806e-02
  1.879993e+00    8.547068e-01   1.151010e-02
  1.882204e+00    8.357723e-01   1.137103e-02
  1.884414e+00    8.443285e-01   1.141801e-02
  1.886624e+00    8.355183e-01   1.134727e-02
  1.888835e+00    8.392490e-01   1.136161e-02
  1.891045e+00    8.382393e-01   1.134392e-02
  1.893256e+00    8.315368e-01   1.128741e-02
  1.895466e+00    8.291324e-01   1.125999e-02
  1.897677e+00    8.250835e-01   1.122158e-02
  1.899887e+00    8.254126e-01   1.121291e-02
  1.902098e+00    8.265431e-01   1.120978e-02
  1.904308e+00    8.447356e-01   1.132179e-02
  1.906519e+00    8.411274e-01   1.128669e-02
  1.908729e+00    8.385730e-01   1.125887e-02
  1.910940e+00    8.368965e-01   1.123640e-02
  1.913150e+00    8.455659e-01   1.128376e-02
  1.915360e+00    8.260099e-01   1.114188e-02
  1.917571e+00    8.237975e-01   1.111607e-02
  1.919781e+00    8.212333e-01   1.108806e-02
  1.921992e+00    8.156021e-01   1.103940e-02
  1.924202e+00    8.175976e-01   1.104212e-02
  1.926413e+00    8.287157e-01   1.110657e-02
  1.928623e+00    8.300840e-01   1.110509e-02
  1.930834e+00    8.298244e-01   1.109282e-02
  1.933044e+00    8.283331e-01   1.107207e-02
  1.935255e+00    8.211911e-01   1.101384e-02
  1.937465e+00    8.068305e-01   1.090672e-02
  1.939675e+00    8.148876e-01   1.095013e-02
  1.941886e+00    8.127142e-01   1.092521e-02
  1.944096e+00    8.078464e-01   1.088221e-02
  1.946307e+00    8.127683e-01   1.090491e-02
  1.948517e+00    8.052114e-01   1.084363e-02
  1.950728e+00    8.021746e-01   1.081287e-02
  1.952938e+00    8.175071e-01   1.090552e-02
  1.955149e+00    8.088776e-01   1.083749e-02
  1.957359e+00    8.097486e-01   1.083320e-02
  1.959570e+00    7.830558e-01   1.064237e-02
  1.961780e+00    7.836279e-01   1.063638e-02
  1.963990e+00    7.785445e-01   1.059181e-02
  1.966201e+00    7.942651e-01   1.068810e-02
  1.968411e+00    8.066193e-01   1.076066e-02
  1.970622e+00    7.984380e-01   1.069579e-02
  1.972832e+00    7.978050e-01   1.068151e-02
  1.975043e+00    8.029436e-01   1.070569e-02
  1.977253e+00    8.059009e-01   1.071533e-02
  1.979464e+00    8.158674e-01   1.077111e-02
  1.981674e+00    8.419675e-01   1.093142e-02
  1.983885e+00    8.453661e-01   1.094305e-02
  1.986095e+00    8.220955e-01   1.078143e-02
  1.988305e+00    8.144865e-01   1.072128e-02
  1.990516e+00    8.343798e-01   1.084117e-02
  1.992726e+00    8.331057e-01   1.082287e-02
  1.994937e+00    8.362884e-01   1.083303e-02
  1.997147e+00    8.177978e-01   1.070261e-02
  1.999358e+00    8.079622e-01   1.062800e-02
  2.001568e+00    8.106725e-01   1.063472e-02
  2.003779e+00    8.214009e-01   1.069258e-02
  2.005989e+00    8.217082e-01   1.068217e-02
  2.008200e+00    8.167122e-01   1.063779e-02
  2.010410e+00    7.936158e-01   1.047436e-02
  2.012621e+00    7.955996e-01   1.047553e-02
  2.014831e+00    8.003213e-01   1.049485e-02
  2.017041e+00    8.031868e-01   1.050300e-02
  2.019252e+00    7.976797e-01   1.045677e-02
  2.021462e+00    7.968124e-01   1.044137e-02
  2.023673e+00    8.070467e-01   1.049857e-02
  2.025883e+00    8.199032e-01   1.057199e-02
  2.028094e+00    7.991605e-01   1.042755e-02
  2.030304e+00    7.870539e-01   1.033856e-02
  2.032515e+00    7.725180e-01   1.023328e-02
  2.034725e+00    7.752917e-01   1.024208e-02
  2.036936e+00    7.756274e-01   1.023486e-02
  2.039146e+00    7.789156e-01   1.024682e-02
  2.041356e+00    7.767323e-01   1.022269e-02
  2.043567e+00    7.544692e-01   1.006581e-02
  2.045777e+00    7.666844e-01   1.013765e-02
  2.047988e+00    7.685692e-01   1.014065e-02
  2.050198e+00    7.644796e-01   1.010516e-02
  2.052409e+00    7.650594e-01   1.010124e-02
  2.054619e+00    7.677277e-01   1.011143e-02
  2.056830e+00    7.554411e-01   1.002296e-02
  2.059040e+00    7.720219e-01   1.012475e-02
  2.061251e+00    7.826560e-01   1.018683e-02
  2.063461e+00    8.054167e-01   1.032601e-02
  2.065671e+00    8.027623e-01   1.029998e-02
  2.067882e+00    7.775174e-01   1.012757e-02
  2.070092e+00    7.518246e-01   9.949575e-03
  2.072303e+00    7.744744e-01   1.008904e-02
  2.074513e+00    7.632387e-01   1.000616e-02
  2.076724e+00    7.578845e-01   9.961452e-03
  2.078934e+00    7.620060e-01   9.979388e-03
  2.081145e+00    7.508231e-01   9.896751e-03
  2.083355e+00    7.568340e-01   9.927027e-03
  2.085566e+00    7.588187e-01   9.931021e-03
  2.087776e+00    7.561162e-01   9.903708e-03
  2.089986e+00    7.627451e-01   9.938094e-03
  2.092197e+00    7.856763e-01   1.007712e-02
  2.094407e+00    7.976018e-01   1.014372e-02
  2.096618e+00    7.922475e-01   1.010038e-02
  2.098828e+00    8.033836e-01   1.016140e-02
  2.101039e+00    7.584415e-01   9.863948e-03
  2.103249e+00    7.478946e-01   9.786350e-03
  2.105460e+00    7.394148e-01   9.721639e-03
  2.107670e+00    7.420720e-01   9.730277e-03
  2.109881e+00    7.336952e-01   9.665995e-03
  2.112091e+00    7.127998e-01   9.518466e-03
  2.114301e+00    7.119096e-01   9.503798e-03
  2.116512e+00    7.185945e-01   9.539540e-03
  2.118722e+00    7.299045e-01   9.605465e-03
  2.120933e+00    7.187354e-01   9.522830e-03
  2.123143e+00    7.236834e-01   9.546618e-03
  2.125354e+00    7.045879e-01   9.411380e-03
  2.127564e+00    7.118985e-01   9.451355e-03
  2.129775e+00    7.077586e-01   9.415180e-03
  2.131985e+00    7.229455e-01   9.506525e-03
  2.134196e+00    7.075399e-01   9.396154e-03
  2.136406e+00    7.203230e-01   9.471844e-03
  2.138617e+00    7.327935e-01   9.544898e-03
  2.140827e+00    7.358660e-01   9.581259e-03
  2.143037e+00    7.255633e-01   9.560014e-03
  2.145248e+00    7.132034e-01   9.500357e-03
  2.147458e+00    7.066410e-01   9.471702e-03
  2.149669e+00    7.101334e-01   9.506997e-03
  2.151879e+00    7.065585e-01   9.492283e-03
  2.154090e+00    7.140155e-01   9.549621e-03
  2.156300e+00    7.039630e-01   9.488791e-03
  2.158511e+00    7.041443e-01   9.495330e-03
  2.160721e+00    7.018117e-01   9.484420e-03
  2.162932e+00    6.945906e-01   9.439227e-03
  2.165142e+00    6.940709e-01   9.438713e-03
  2.167352e+00    6.956540e-01   9.452370e-03
  2.169563e+00    7.034537e-01   9.507190e-03
  2.171773e+00    6.967194e-01   9.464028e-03
  2.173984e+00    6.866661e-01   9.396903e-03
  2.176194e+00    6.923766e-01   9.437090e-03
  2.178405e+00    7.095733e-01   9.554265e-03
  2.180615e+00    7.084884e-01   9.547663e-03
  2.182826e+00    6.960728e-01   9.464316e-03
  2.185036e+00    7.021369e-01   9.505499e-03
  2.187247e+00    6.966583e-01   9.468291e-03
  2.189457e+00    7.066643e-01   9.535635e-03
  2.191667e+00    6.931741e-01   9.444009e-03
  2.193878e+00    6.938121e-01   9.447778e-03
  2.196088e+00    7.050102e-01   9.523014e-03
  2.198299e+00    6.914136e-01   9.429657e-03
  2.200509e+00    6.963621e-01   9.462275e-03
  2.202720e+00    6.715766e-01   9.291220e-03
  2.204930e+00    6.916631e-01   9.427861e-03
  2.207141e+00    7.039279e-01   9.509968e-03
  2.209351e+00    6.910675e-01   9.420804e-03
  2.211562e+00    6.864504e-01   9.387649e-03
  2.213772e+00    6.814919e-01   9.298013e-03
  2.215982e+00    6.699733e-01   9.175076e-03
  2.218193e+00    6.765330e-01   9.190237e-03
  2.220403e+00    7.024647e-01   9.339613e-03
  2.222614e+00    6.872390e-01   9.216722e-03
  2.224824e+00    6.657350e-01   9.052068e-03
  2.227035e+00    6.961263e-01   9.238646e-03
  2.229245e+00    6.835399e-01   9.137656e-03
  2.231456e+00    6.640545e-01   8.990909e-03
  2.233666e+00    6.810406e-01   9.089978e-03
  2.235877e+00    6.888099e-01   9.127213e-03
  2.238087e+00    6.652128e-01   8.956114e-03
  2.240298e+00    6.671519e-01   8.955361e-03
  2.242508e+00    6.827498e-01   9.044187e-03
  2.244718e+00    6.833990e-01   9.032501e-03
  2.246929e+00    6.790096e-01   8.988913e-03
  2.249139e+00    6.604996e-01   8.853233e-03
  2.251350e+00    6.652175e-01   8.873094e-03
  2.253560e+00    6.696887e-01   8.891271e-03
  2.255771e+00    6.655549e-01   8.852387e-03
  2.257981e+00    6.775194e-01   8.920311e-03
  2.260192e+00    6.750172e-01   8.892641e-03
  2.262402e+00    6.660565e-01   8.822538e-03
  2.264613e+00    6.772689e-01   8.885547e-03
  2.266823e+00    6.705850e-01   8.831135e-03
  2.269033e+00    6.675520e-01   8.800730e-03
  2.271244e+00    6.575615e-01   8.724270e-03
  2.273454e+00    6.596733e-01   8.728024e-03
  2.275665e+00    6.754503e-01   8.821368e-03
  2.277875e+00    6.721277e-01   8.789648e-03
  2.280086e+00    6.551051e-01   8.667625e-03
  2.282296e+00    6.522716e-01   8.639485e-03
  2.284507e+00    6.650165e-01   8.713313e-03
  2.286717e+00    6.601421e-01   8.671836e-03
  2.288928e+00    6.677985e-01   8.712033e-03
  2.291138e+00    6.727026e-01   8.734427e-03
  2.293348e+00    6.679608e-01   8.693977e-03
  2.295559e+00    6.457567e-01   8.538997e-03
  2.297769e+00    6.516307e-01   8.568512e-03
  2.299980e+00    6.690920e-01   8.673118e-03
  2.302190e+00    6.620121e-01   8.617916e-03
  2.304401e+00    6.617073e-01   8.606550e-03
  2.306611e+00    6.497411e-01   8.519198e-03
  2.308822e+00    6.454461e-01   8.482636e-03
  2.311032e+00    6.508540e-01   8.511646e-03
  2.313243e+00    6.578547e-01   8.550986e-03
  2.315453e+00    6.648740e-01   8.588823e-03
  2.317663e+00    6.692337e-01   8.607663e-03
  2.319874e+00    6.634946e-01   8.561836e-03
  2.322084e+00    6.486558e-01   8.456571e-03
  2.324295e+00    6.525992e-01   8.473955e-03
  2.326505e+00    6.542685e-01   8.475671e-03
  2.328716e+00    6.494662e-01   8.435911e-03
  2.330926e+00    6.624581e-01   8.510946e-03
  2.333137e+00    6.535876e-01   8.445323e-03
  2.335347e+00    6.475459e-01   8.397303e-03
  2.337558e+00    6.399213e-01   8.339470e-03
  2.339768e+00    6.473113e-01   8.378861e-03
  2.341979e+00    6.421173e-01   8.336797e-03
  2.344189e+00    6.599827e-01   8.443440e-03
  2.346399e+00    6.379546e-01   8.292824e-03
  2.348610e+00    6.489767e-01   8.355616e-03
  2.350820e+00    6.506380e-01   8.358011e-03
  2.353031e+00    6.436856e-01   8.304901e-03
  2.355241e+00    6.452330e-01   8.306745e-03
  2.357452e+00    6.306745e-01   8.204082e-03
  2.359662e+00    6.463125e-01   8.296856e-03
  2.361873e+00    6.410595e-01   8.254771e-03
  2.364083e+00    6.373283e-01   8.222675e-03
  2.366294e+00    6.270930e-01   8.148281e-03
  2.368504e+00    6.426349e-01   8.240433e-03
  2.370714e+00    6.413544e-01   8.224094e-03
  2.372925e+00    6.279198e-01   8.129426e-03
  2.375135e+00    6.217616e-01   8.081410e-03
  2.377346e+00    6.302927e-01   8.128681e-03
  2.379556e+00    6.348573e-01   8.150093e-03
  2.381767e+00    6.286270e-01   8.102085e-03
  2.383977e+00    6.332740e-01   8.123980e-03
  2.386188e+00    6.156689e-01   8.002358e-03
  2.388398e+00    6.184781e-01   8.012631e-03
  2.390609e+00    6.312822e-01   8.087347e-03
  2.392819e+00    6.231169e-01   8.027043e-03
  2.395029e+00    6.214742e-01   8.008781e-03
  2.397240e+00    6.186529e-01   7.982668e-03
  2.399450e+00    6.169387e-01   7.963784e-03
  2.401661e+00    6.123540e-01   7.926444e-03
  2.403871e+00    6.148055e-01   7.934515e-03
  2.406082e+00    6.138033e-01   7.920600e-03
  2.408292e+00    6.104465e-01   7.891105e-03
  2.410503e+00    6.024609e-01   7.831867e-03
  2.412713e+00    6.053548e-01   7.842866e-03
  2.414924e+00    6.023875e-01   7.816169e-03
  2.417134e+00    6.116790e-01   7.868527e-03
  2.419344e+00    6.130273e-01   7.869724e-03
  2.421555e+00    6.240412e-01   7.932472e-03
  2.423765e+00    6.265063e-01   7.940553e-03
  2.425976e+00    6.130316e-01   7.846819e-03
  2.428186e+00    6.010455e-01   7.762484e-03
  2.430397e+00    6.032574e-01   7.769238e-03
  2.432607e+00    6.072788e-01   7.787740e-03
  2.434818e+00    6.062382e-01   7.773465e-03
  2.437028e+00    5.994539e-01   7.722653e-03
  2.439239e+00    6.053177e-01   7.752614e-03
  2.441449e+00    5.928121e-01   7.664907e-03
  2.443659e+00    5.806800e-01   7.578777e-03
  2.445870e+00    6.020231e-01   7.729187e-03
  2.448080e+00    5.801730e-01   7.622351e-03
  2.450291e+00    5.747061e-01   7.602914e-03
  2.452501e+00    5.683153e-01   7.571625e-03
  2.454712e+00    5.678885e-01   7.577151e-03
  2.456922e+00    5.738368e-01   7.623372e-03
  2.459133e+00    5.670171e-01   7.583379e-03
  2.461343e+00    5.729921e-01   7.627595e-03
  2.463554e+00    5.650784e-01   7.578207e-03
  2.465764e+00    5.711963e-01   7.622291e-03
  2.467975e+00    5.695558e-01   7.613624e-03
  2.470185e+00    5.728144e-01   7.637676e-03
  2.472395e+00    5.682786e-01   7.608605e-03
  2.474606e+00    5.560794e-01   7.528065e-03
  2.476816e+00    5.358061e-01   7.390296e-03
  2.479027e+00    5.352502e-01   7.387272e-03
  2.481237e+00    5.670198e-01   7.603639e-03
  2.483448e+00    5.552963e-01   7.524937e-03
  2.485658e+00    5.495219e-01   7.485566e-03
  2.487869e+00    5.458820e-01   7.460760e-03
  2.490079e+00    5.507089e-01   7.493163e-03
  2.492290e+00    5.372899e-01   7.400881e-03
  2.494500e+00    5.240367e-01   7.308295e-03
  2.496710e+00    5.277448e-01   7.333415e-03
  2.498921e+00    5.380889e-01   7.403942e-03
  2.501131e+00    5.347939e-01   7.380293e-03
  2.503342e+00    5.307109e-01   7.350803e-03
  2.505552e+00    5.350028e-01   7.379333e-03
  2.507763e+00    5.301257e-01   7.344198e-03
  2.509973e+00    5.240493e-01   7.300613e-03
  2.512184e+00    5.293863e-01   7.336062e-03
  2.514394e+00    5.326884e-01   7.349502e-03
  2.516605e+00    5.401158e-01   7.352889e-03
  2.518815e+00    5.401714e-01   7.324562e-03
  2.521025e+00    5.375009e-01   7.285253e-03
  2.523236e+00    5.320338e-01   7.229994e-03
  2.525446e+00    5.388335e-01   7.260246e-03
  2.527657e+00    5.420988e-01   7.267387e-03
  2.529867e+00    5.363747e-01   7.214584e-03
  2.532078e+00    5.401955e-01   7.224977e-03
  2.534288e+00    5.123234e-01   7.022409e-03
  2.536499e+00    5.267327e-01   7.108504e-03
  2.538709e+00    5.271361e-01   7.100190e-03
  2.540920e+00    5.301450e-01   7.109742e-03
  2.543130e+00    5.305979e-01   7.102333e-03
  2.545340e+00    5.324535e-01   7.104604e-03
  2.547551e+00    5.252586e-01   7.046477e-03
  2.549761e+00    5.219643e-01   7.014756e-03
  2.551972e+00    5.190682e-01   6.985955e-03
  2.554182e+00    5.078029e-01   6.900662e-03
  2.556393e+00    5.126440e-01   6.924453e-03
  2.558603e+00    5.186744e-01   6.956014e-03
  2.560814e+00    5.250610e-01   6.989948e-03
  2.563024e+00    5.368257e-01   7.059108e-03
  2.565235e+00    5.197350e-01   6.936329e-03
  2.567445e+00    5.324497e-01   7.010958e-03
  2.569656e+00    5.283814e-01   6.974305e-03
  2.571866e+00    5.234374e-01   6.932181e-03
  2.574076e+00    5.157585e-01   6.871901e-03
  2.576287e+00    5.108277e-01   6.830671e-03
  2.578497e+00    5.227673e-01   6.902138e-03
  2.580708e+00    5.246595e-01   6.906476e-03
  2.582918e+00    5.189852e-01   6.861228e-03
  2.585129e+00    5.085101e-01   6.783939e-03
  2.587339e+00    5.068627e-01   6.765288e-03
  2.589550e+00    5.250579e-01   6.878022e-03
  2.591760e+00    5.196524e-01   6.834733e-03
  2.593971e+00    5.168747e-01   6.808886e-03
  2.596181e+00    5.098097e-01   6.755956e-03
  2.598391e+00    5.261584e-01   6.858174e-03
  2.600602e+00    5.145914e-01   6.776444e-03
  2.602812e+00    5.043854e-01   6.701386e-03
  2.605023e+00    5.107504e-01   6.736365e-03
  2.607233e+00    5.003175e-01   6.660118e-03
  2.609444e+00    5.170229e-01   6.763092e-03
  2.611654e+00    5.160051e-01   6.749059e-03
  2.613865e+00    5.263341e-01   6.809077e-03
  2.616075e+00    5.236529e-01   6.784474e-03
  2.618286e+00    5.196115e-01   6.751142e-03
  2.620496e+00    5.071864e-01   6.663227e-03
  2.622706e+00    5.076427e-01   6.660474e-03
  2.624917e+00    4.929887e-01   6.557832e-03
  2.627127e+00    5.089057e-01   6.657104e-03
  2.629338e+00    5.067307e-01   6.636866e-03
  2.631548e+00    4.954811e-01   6.556667e-03
  2.633759e+00    4.980564e-01   6.566557e-03
  2.635969e+00    4.953262e-01   6.541894e-03
  2.638180e+00    5.011451e-01   6.573220e-03
  2.640390e+00    5.141795e-01   6.651471e-03
  2.642601e+00    5.096759e-01   6.615543e-03
  2.644811e+00    5.098602e-01   6.609622e-03
  2.647021e+00    5.099732e-01   6.603706e-03
  2.649232e+00    4.968539e-01   6.511523e-03
  2.651442e+00    5.002891e-01   6.527469e-03
  2.653653e+00    5.115812e-01   6.593854e-03
  2.655863e+00    5.152798e-01   6.610855e-03
  2.658074e+00    4.921657e-01   6.454312e-03
  2.660284e+00    4.967425e-01   6.477890e-03
  2.662495e+00    5.129867e-01   6.576090e-03
  2.664705e+00    5.036028e-01   6.509078e-03
  2.666916e+00    5.067728e-01   6.522983e-03
  2.669126e+00    5.069957e-01   6.517896e-03
  2.671337e+00    4.966575e-01   6.444510e-03
  2.673547e+00    4.993440e-01   6.455512e-03
  2.675757e+00    4.920049e-01   6.401460e-03
  2.677968e+00    5.053033e-01   6.480793e-03
  2.680178e+00    4.964201e-01   6.417174e-03
  2.682389e+00    5.038402e-01   6.458474e-03
  2.684599e+00    5.007029e-01   6.432113e-03
  2.686810e+00    5.050374e-01   6.453189e-03
  2.689020e+00    5.001671e-01   6.415670e-03
  2.691231e+00    4.950081e-01   6.376166e-03
  2.693441e+00    4.992695e-01   6.397355e-03
  2.695652e+00    5.096563e-01   6.456918e-03
  2.697862e+00    5.009890e-01   6.395371e-03
  2.700072e+00    4.982775e-01   6.371904e-03
  2.702283e+00    4.995203e-01   6.373560e-03
  2.704493e+00    4.908485e-01   6.311699e-03
  2.706704e+00    4.903066e-01   6.301796e-03
  2.708914e+00    4.874159e-01   6.277230e-03
  2.711125e+00    4.952401e-01   6.321108e-03
  2.713335e+00    4.824893e-01   6.233169e-03
  2.715546e+00    4.795411e-01   6.207659e-03
  2.717756e+00    4.922941e-01   6.283739e-03
  2.719967e+00    4.970924e-01   6.308021e-03
  2.722177e+00    4.945617e-01   6.285752e-03
  2.724387e+00    4.916374e-01   6.261009e-03
  2.726598e+00    4.931982e-01   6.264821e-03
  2.728808e+00    4.925991e-01   6.254832e-03
  2.731019e+00    4.905086e-01   6.235368e-03
  2.733229e+00    4.846823e-01   6.192426e-03
  2.735440e+00    4.909189e-01   6.225831e-03
  2.737650e+00    4.759839e-01   6.124420e-03
  2.739861e+00    4.829782e-01   6.163185e-03
  2.742071e+00    4.839027e-01   6.163339e-03
  2.744282e+00    5.009077e-01   6.264327e-03
  2.746492e+00    4.963141e-01   6.229419e-03
  2.748702e+00    4.949272e-01   6.214728e-03
  2.750913e+00    4.926669e-01   6.194657e-03
  2.753123e+00    4.962597e-01   6.211006e-03
  2.755334e+00    4.856405e-01   6.138069e-03
  2.757544e+00    4.896145e-01   6.157365e-03
  2.759755e+00    4.841650e-01   6.117067e-03
  2.761965e+00    4.966844e-01   6.189582e-03
  2.764176e+00    4.918337e-01   6.153222e-03
  2.766386e+00    4.841927e-01   6.099431e-03
  2.768597e+00    4.800855e-01   6.067627e-03
  2.770807e+00    4.807063e-01   6.065657e-03
  2.773017e+00    4.797368e-01   6.053577e-03
  2.775228e+00    4.869163e-01   6.092851e-03
  2.777438e+00    4.947501e-01   6.135792e-03
  2.779649e+00    4.846500e-01   6.066896e-03
  2.781859e+00    4.861819e-01   6.070657e-03
  2.784070e+00    4.885864e-01   6.079721e-03
  2.786280e+00    4.881324e-01   6.071067e-03
  2.788491e+00    4.877770e-01   6.062948e-03
  2.790701e+00    4.941156e-01   6.096475e-03
  2.792912e+00    4.810463e-01   6.009309e-03
  2.795122e+00    4.858258e-01   6.033287e-03
  2.797333e+00    4.991162e-01   6.109565e-03
  2.799543e+00    4.819801e-01   5.997898e-03
  2.801753e+00    4.766770e-01   5.958901e-03
  2.803964e+00    4.844938e-01   6.001875e-03
  2.806174e+00    4.724775e-01   5.920831e-03
  2.808385e+00    4.742685e-01   5.925264e-03
  2.810595e+00    4.713922e-01   5.900424e-03
  2.812806e+00    4.727908e-01   5.902572e-03
  2.815016e+00    4.690722e-01   5.874590e-03
  2.817227e+00    4.729930e-01   5.924988e-03
  2.819437e+00    4.710840e-01   5.924080e-03
  2.821648e+00    4.696271e-01   5.917178e-03
  2.823858e+00    4.855527e-01   6.022090e-03
  2.826068e+00    4.694350e-01   5.926249e-03
  2.828279e+00    4.944561e-01   6.086259e-03
  2.830489e+00    4.904761e-01   6.065140e-03
  2.832700e+00    4.640791e-01   5.902203e-03
  2.834910e+00    4.761971e-01   5.980817e-03
  2.837121e+00    4.751417e-01   5.975926e-03
  2.839331e+00    4.734208e-01   5.966327e-03
  2.841542e+00    4.692787e-01   5.941174e-03
  2.843752e+00    4.763826e-01   5.986763e-03
  2.845963e+00    4.826204e-01   6.026236e-03
  2.848173e+00    4.685315e-01   5.937709e-03
  2.850383e+00    4.847311e-01   6.039776e-03
  2.852594e+00    4.862821e-01   6.049372e-03
  2.854804e+00    4.804889e-01   6.012704e-03
  2.857015e+00    4.755647e-01   5.981377e-03
  2.859225e+00    4.910327e-01   6.077627e-03
  2.861436e+00    4.591361e-01   5.876274e-03
  2.863646e+00    4.560089e-01   5.856248e-03
  2.865857e+00    4.627594e-01   5.899779e-03
  2.868067e+00    4.653415e-01   5.916434e-03
  2.870278e+00    4.578298e-01   5.868133e-03
  2.872488e+00    4.779949e-01   5.994806e-03
  2.874698e+00    4.740902e-01   5.969204e-03
  2.876909e+00    4.809768e-01   6.011049e-03
  2.879119e+00    4.854304e-01   6.037157e-03
  2.881330e+00    4.753527e-01   5.972677e-03
  2.883540e+00    4.649391e-01   5.905500e-03
  2.885751e+00    4.709794e-01   5.942071e-03
  2.887961e+00    4.718475e-01   5.945640e-03
  2.890172e+00    4.681681e-01   5.920792e-03
  2.892382e+00    4.660694e-01   5.905718e-03
  2.894593e+00    4.540217e-01   5.827063e-03
  2.896803e+00    4.615697e-01   5.873313e-03
  2.899014e+00    4.524699e-01   5.813252e-03
  2.901224e+00    4.553274e-01   5.829577e-03
  2.903434e+00    4.714999e-01   5.930242e-03
  2.905645e+00    4.752250e-01   5.951367e-03
  2.907855e+00    4.608623e-01   5.858641e-03
  2.910066e+00    4.621229e-01   5.864555e-03
  2.912276e+00    4.670959e-01   5.893886e-03
  2.914487e+00    4.727281e-01   5.926834e-03
  2.916697e+00    4.645803e-01   5.873279e-03
  2.918908e+00    4.622956e-01   5.856819e-03
  2.921118e+00    4.598520e-01   5.838614e-03
  2.923329e+00    4.655916e-01   5.872591e-03
  2.925539e+00    4.663661e-01   5.875200e-03
  2.927749e+00    4.599952e-01   5.832582e-03
  2.929960e+00    4.610750e-01   5.836659e-03
  2.932170e+00    4.681069e-01   5.878625e-03
  2.934381e+00    4.695090e-01   5.884956e-03
  2.936591e+00    4.563456e-01   5.799297e-03
  2.938802e+00    4.667268e-01   5.862149e-03
  2.941012e+00    4.608060e-01   5.822487e-03
  2.943223e+00    4.725966e-01   5.893770e-03
  2.945433e+00    4.682289e-01   5.862684e-03
  2.947644e+00    4.672876e-01   5.852601e-03
  2.949854e+00    4.669966e-01   5.846445e-03
  2.952064e+00    4.730065e-01   5.879651e-03
  2.954275e+00    4.495922e-01   5.727908e-03
  2.956485e+00    4.535262e-01   5.748705e-03
  2.958696e+00    4.601485e-01   5.786140e-03
  2.960906e+00    4.681152e-01   5.831764e-03
  2.963117e+00    4.635948e-01   5.799011e-03
  2.965327e+00    4.658761e-01   5.809320e-03
  2.967538e+00    4.612833e-01   5.777679e-03
  2.969748e+00    4.655397e-01   5.801410e-03
  2.971959e+00    4.801178e-01   5.888331e-03
  2.974169e+00    4.758773e-01   5.859615e-03
  2.976379e+00    4.818196e-01   5.893089e-03
  2.978590e+00    4.736860e-01   5.839945e-03
  2.980800e+00    4.746888e-01   5.843248e-03
  2.983011e+00    4.680222e-01   5.799233e-03
  2.985221e+00    4.707935e-01   5.813173e-03
  2.987432e+00    4.677422e-01   5.791144e-03
  2.989642e+00    4.631580e-01   5.760048e-03
  2.991853e+00    4.558330e-01   5.711029e-03
  2.994063e+00    4.601651e-01   5.735161e-03
  2.996274e+00    4.686231e-01   5.784416e-03
  2.998484e+00    4.513995e-01   5.674413e-03
  3.000694e+00    4.558984e-01   5.699162e-03
  3.002905e+00    4.630682e-01   5.740834e-03
  3.005115e+00    4.514015e-01   5.665089e-03
  3.007326e+00    4.513325e-01   5.661497e-03
  3.009536e+00    4.618323e-01   5.723679e-03
  3.011747e+00    4.746904e-01   5.799847e-03
  3.013957e+00    4.724517e-01   5.782899e-03
  3.016168e+00    4.601673e-01   5.703950e-03
  3.018378e+00    4.544962e-01   5.665632e-03
  3.020589e+00    4.572705e-01   5.679672e-03
  3.022799e+00    4.480775e-01   5.619145e-03
  3.025010e+00    4.676073e-01   5.736995e-03
  3.027220e+00    4.618502e-01   5.698436e-03
  3.029430e+00    4.546148e-01   5.650368e-03
  3.031641e+00    4.727958e-01   5.759032e-03
  3.033851e+00    4.604030e-01   5.679522e-03
  3.036062e+00    4.398451e-01   5.548509e-03
  3.038272e+00    4.574319e-01   5.654751e-03
  3.040483e+00    4.672409e-01   5.711779e-03
  3.042693e+00    4.650906e-01   5.695313e-03
  3.044904e+00    4.778427e-01   5.768724e-03
  3.047114e+00    4.514495e-01   5.602340e-03
  3.049325e+00    4.534044e-01   5.610040e-03
  3.051535e+00    4.652984e-01   5.678684e-03
  3.053745e+00    4.723377e-01   5.716618e-03
  3.055956e+00    4.597293e-01   5.635198e-03
  3.058166e+00    4.574977e-01   5.617191e-03
  3.060377e+00    4.554249e-01   5.599659e-03
  3.062587e+00    4.676822e-01   5.669792e-03
  3.064798e+00    4.606318e-01   5.622607e-03
  3.067008e+00    4.533978e-01   5.573514e-03
  3.069219e+00    4.507465e-01   5.552680e-03
  3.071429e+00    4.551028e-01   5.575903e-03
  3.073640e+00    4.627242e-01   5.619035e-03
  3.075850e+00    4.554100e-01   5.570842e-03
  3.078060e+00    4.561771e-01   5.572389e-03
  3.080271e+00    4.528812e-01   5.548751e-03
  3.082481e+00    4.590062e-01   5.582639e-03
  3.084692e+00    4.492770e-01   5.519791e-03
  3.086902e+00    4.534777e-01   5.542271e-03
  3.089113e+00    4.522658e-01   5.531270e-03
  3.091323e+00    4.511075e-01   5.520790e-03
  3.093534e+00    4.643213e-01   5.597631e-03
  3.095744e+00    4.563802e-01   5.546157e-03
  3.097955e+00    4.669498e-01   5.606384e-03
  3.100165e+00    4.588052e-01   5.553914e-03
  3.102375e+00    4.510212e-01   5.503152e-03
  3.104586e+00    4.357446e-01   5.405702e-03
  3.106796e+00    4.565951e-01   5.529944e-03
  3.109007e+00    4.587182e-01   5.539543e-03
  3.111217e+00    4.561326e-01   5.520194e-03
  3.113428e+00    4.495955e-01   5.477029e-03
  3.115638e+00    4.580111e-01   5.524796e-03
  3.117849e+00    4.541978e-01   5.497975e-03
  3.120059e+00    4.500107e-01   5.469094e-03
  3.122270e+00    4.566195e-01   5.505813e-03
  3.124480e+00    4.455386e-01   5.434910e-03
  3.126691e+00    4.490706e-01   5.452824e-03
  3.128901e+00    4.517149e-01   5.465700e-03
  3.131111e+00    4.561989e-01   5.488888e-03
  3.133322e+00    4.561615e-01   5.485165e-03
  3.135532e+00    4.492439e-01   5.439992e-03
  3.137743e+00    4.489308e-01   5.434592e-03
  3.139953e+00    4.659157e-01   5.532672e-03
  3.142164e+00    4.441517e-01   5.413939e-03
  3.144374e+00    4.479964e-01   5.465911e-03
  3.146585e+00    4.427281e-01   5.448234e-03
  3.148795e+00    4.527678e-01   5.520572e-03
  3.151006e+00    4.431536e-01   5.470204e-03
  3.153216e+00    4.474802e-01   5.504024e-03
  3.155426e+00    4.499119e-01   5.525319e-03
  3.157637e+00    4.595028e-01   5.589555e-03
  3.159847e+00    4.549659e-01   5.566856e-03
  3.162058e+00    4.371242e-01   5.461011e-03
  3.164268e+00    4.357944e-01   5.456743e-03
  3.166479e+00    4.585280e-01   5.600999e-03
  3.168689e+00    4.344810e-01   5.455498e-03
  3.170900e+00    4.454716e-01   5.527244e-03
  3.173110e+00    4.530402e-01   5.576946e-03
  3.175321e+00    4.392468e-01   5.493872e-03
  3.177531e+00    4.418049e-01   5.512600e-03
  3.179741e+00    4.417636e-01   5.514424e-03
  3.181952e+00    4.373076e-01   5.488649e-03
  3.184162e+00    4.330671e-01   5.464165e-03
  3.186373e+00    4.411260e-01   5.516361e-03
  3.188583e+00    4.344661e-01   5.476356e-03
  3.190794e+00    4.242325e-01   5.413211e-03
  3.193004e+00    4.326302e-01   5.467744e-03
  3.195215e+00    4.331518e-01   5.472552e-03
  3.197425e+00    4.318768e-01   5.465687e-03
  3.199636e+00    4.460711e-01   5.553998e-03
  3.201846e+00    4.353302e-01   5.486143e-03
  3.204056e+00    4.322902e-01   5.467820e-03
  3.206267e+00    4.290225e-01   5.447960e-03
  3.208477e+00    4.393737e-01   5.514224e-03
  3.210688e+00    4.337566e-01   5.479705e-03
  3.212898e+00    4.397371e-01   5.517937e-03
  3.215109e+00    4.330244e-01   5.476405e-03
  3.217319e+00    4.338090e-01   5.482010e-03
  3.219530e+00    4.366601e-01   5.500393e-03
  3.221740e+00    4.339206e-01   5.483658e-03
  3.223951e+00    4.326172e-01   5.475905e-03
  3.226161e+00    4.270516e-01   5.440742e-03
  3.228372e+00    4.345233e-01   5.488669e-03
  3.230582e+00    4.170991e-01   5.377642e-03
  3.232792e+00    4.383464e-01   5.513111e-03
  3.235003e+00    4.456856e-01   5.559345e-03
  3.237213e+00    4.244934e-01   5.425673e-03
  3.239424e+00    4.182156e-01   5.385394e-03
  3.241634e+00    4.331309e-01   5.480696e-03
  3.243845e+00    4.278833e-01   5.447479e-03
  3.246055e+00    4.392566e-01   5.519115e-03
  3.248266e+00    4.290548e-01   5.454876e-03
  3.250476e+00    4.357483e-01   5.496927e-03
  3.252687e+00    4.340028e-01   5.485830e-03
  3.254897e+00    4.338893e-01   5.484995e-03
  3.257107e+00    4.354163e-01   5.494334e-03
  3.259318e+00    4.303375e-01   5.461954e-03
  3.261528e+00    4.285276e-01   5.450317e-03
  3.263739e+00    4.276257e-01   5.444003e-03
  3.265949e+00    4.355796e-01   5.494284e-03
  3.268160e+00    4.312688e-01   5.466613e-03
  3.270370e+00    4.282190e-01   5.446743e-03
  3.272581e+00    4.221374e-01   5.407642e-03
  3.274791e+00    4.334480e-01   5.479075e-03
  3.277002e+00    4.374469e-01   5.503724e-03
  3.279212e+00    4.204622e-01   5.395455e-03
  3.281422e+00    4.301271e-01   5.456511e-03
  3.283633e+00    4.339499e-01   5.480020e-03
  3.285843e+00    4.354479e-01   5.489143e-03
  3.288054e+00    4.306042e-01   5.457588e-03
  3.290264e+00    4.129390e-01   5.344137e-03
  3.292475e+00    4.342138e-01   5.479240e-03
  3.294685e+00    4.353719e-01   5.485897e-03
  3.296896e+00    4.305572e-01   5.454714e-03
  3.299106e+00    4.479351e-01   5.563134e-03
  3.301317e+00    4.386233e-01   5.503989e-03
  3.303527e+00    4.239629e-01   5.410731e-03
  3.305737e+00    4.280265e-01   5.435549e-03
  3.307948e+00    4.361505e-01   5.486216e-03
  3.310158e+00    4.310531e-01   5.453200e-03
  3.312369e+00    4.480534e-01   5.558793e-03
  3.314579e+00    4.309174e-01   5.450538e-03
  3.316790e+00    4.286979e-01   5.435765e-03
  3.319000e+00    4.272111e-01   5.425148e-03
  3.321211e+00    4.343399e-01   5.469592e-03
  3.323421e+00    4.441322e-01   5.529676e-03
  3.325632e+00    4.205575e-01   5.380063e-03
  3.327842e+00    4.157270e-01   5.348122e-03
  3.330052e+00    4.355708e-01   5.473203e-03
  3.332263e+00    4.285179e-01   5.427694e-03
  3.334473e+00    4.366602e-01   5.478090e-03
  3.336684e+00    4.240468e-01   5.397127e-03
  3.338894e+00    4.230750e-01   5.390076e-03
  3.341105e+00    4.297600e-01   5.431273e-03
  3.343315e+00    4.217868e-01   5.379546e-03
  3.345526e+00    4.189269e-01   5.360329e-03
  3.347736e+00    4.406252e-01   5.495984e-03
  3.349947e+00    4.254334e-01   5.399471e-03
  3.352157e+00    4.282608e-01   5.416191e-03
  3.354368e+00    4.294455e-01   5.422370e-03
  3.356578e+00    4.180454e-01   5.348907e-03
  3.358788e+00    4.163520e-01   5.336708e-03
  3.360999e+00    4.360240e-01   5.460077e-03
  3.363209e+00    4.237790e-01   5.381837e-03
  3.365420e+00    4.225771e-01   5.372684e-03
  3.367630e+00    4.236058e-01   5.378180e-03
  3.369841e+00    4.290468e-01   5.411180e-03
  3.372051e+00    4.246876e-01   5.381611e-03
  3.374262e+00    4.225892e-01   5.365845e-03
  3.376472e+00    4.283054e-01   5.399532e-03
  3.378683e+00    4.306100e-01   5.411507e-03
  3.380893e+00    4.411398e-01   5.474831e-03
  3.383103e+00    4.321284e-01   5.415902e-03
  3.385314e+00    4.171207e-01   5.318785e-03
  3.387524e+00    4.150749e-01   5.302973e-03
  3.389735e+00    4.202920e-01   5.333568e-03
  3.391945e+00    4.133130e-01   5.285418e-03
  3.394156e+00    4.165538e-01   5.301842e-03
  3.396366e+00    4.254130e-01   5.354473e-03
  3.398577e+00    4.023645e-01   5.204402e-03
  3.400787e+00    4.065365e-01   5.243169e-03
  3.402998e+00    3.959522e-01   5.211843e-03
  3.405208e+00    3.882564e-01   5.181178e-03
  3.407418e+00    3.946707e-01   5.239458e-03
  3.409629e+00    4.063712e-01   5.330603e-03
  3.411839e+00    4.011990e-01   5.308379e-03
  3.414050e+00    3.988538e-01   5.303861e-03
  3.416260e+00    3.905642e-01   5.258068e-03
  3.418471e+00    3.779513e-01   5.181669e-03
  3.420681e+00    3.866373e-01   5.249311e-03
  3.422892e+00    3.900594e-01   5.280481e-03
  3.425102e+00    4.010933e-01   5.362590e-03
  3.427313e+00    3.835051e-01   5.250824e-03
  3.429523e+00    3.888730e-01   5.294527e-03
  3.431733e+00    3.831787e-01   5.262268e-03
  3.433944e+00    3.845493e-01   5.278134e-03
  3.436154e+00    3.888049e-01   5.313581e-03
  3.438365e+00    3.858918e-01   5.299580e-03
  3.440575e+00    3.759641e-01   5.236851e-03
  3.442786e+00    3.855145e-01   5.308616e-03
  3.444996e+00    3.793934e-01   5.271817e-03
  3.447207e+00    3.809938e-01   5.288252e-03
  3.449417e+00    3.674207e-01   5.233786e-03
  3.451628e+00    3.562617e-01   5.182654e-03
  3.453838e+00    3.631506e-01   5.253520e-03
  3.456049e+00    3.731883e-01   5.349741e-03
  3.458259e+00    3.806866e-01   5.425592e-03
  3.460469e+00    3.684675e-01   5.357640e-03
  3.462680e+00    3.728307e-01   5.408484e-03
  3.464890e+00    3.713553e-01   5.415711e-03
  3.467101e+00    3.749779e-01   5.459698e-03
  3.469311e+00    3.849383e-01   5.548582e-03
  3.471522e+00    4.040124e-01   5.701427e-03
  3.473732e+00    3.958041e-01   5.659533e-03
  3.475943e+00    4.018987e-01   5.719019e-03
  3.478153e+00    4.132978e-01   5.815496e-03
  3.480364e+00    4.176127e-01   5.861378e-03
  3.482574e+00    4.226646e-01   5.912418e-03
  3.484784e+00    4.309266e-01   5.985165e-03
  3.486995e+00    4.431353e-01   6.084953e-03
  3.489205e+00    4.452296e-01   6.114346e-03
  3.491416e+00    4.494904e-01   6.158837e-03
  3.493626e+00    4.560314e-01   6.218430e-03
  3.495837e+00    4.447292e-01   6.155726e-03
  3.498047e+00    4.402182e-01   6.138813e-03
  3.500258e+00    4.727563e-01   6.376561e-03
  3.502468e+00    4.725142e-01   6.389666e-03
  3.504679e+00    4.749133e-01   6.420531e-03
  3.506889e+00    4.843270e-01   6.498633e-03
  3.509099e+00    4.852929e-01   6.519634e-03
  3.511310e+00    4.973494e-01   6.614907e-03
  3.513520e+00    5.041823e-01   6.674983e-03
  3.515731e+00    4.934053e-01   6.617704e-03
  3.517941e+00    4.925883e-01   6.626629e-03
  3.520152e+00    5.166157e-01   6.800946e-03
  3.522362e+00    5.237290e-01   6.862421e-03
  3.524573e+00    5.273883e-01   6.900936e-03
  3.526783e+00    5.383789e-01   6.986188e-03
  3.528994e+00    5.295230e-01   6.940874e-03
  3.531204e+00    5.469319e-01   7.066808e-03
  3.533414e+00    5.435634e-01   7.057303e-03
  3.535625e+00    5.472040e-01   7.093470e-03
  3.537835e+00    5.584108e-01   7.178163e-03
  3.540046e+00    5.520583e-01   7.146285e-03
  3.542256e+00    5.479619e-01   7.127351e-03
  3.544467e+00    5.453254e-01   7.117848e-03
  3.546677e+00    5.623603e-01   7.235941e-03
  3.548888e+00    5.455838e-01   7.134752e-03
  3.551098e+00    5.541394e-01   7.197897e-03
  3.553309e+00    5.472329e-01   7.161146e-03
  3.555519e+00    5.455053e-01   7.161215e-03
  3.557729e+00    5.497144e-01   7.200674e-03
  3.559940e+00    5.501555e-01   7.215267e-03
  3.562150e+00    5.416519e-01   7.171057e-03
  3.564361e+00    5.457990e-01   7.211871e-03
  3.566571e+00    5.570214e-01   7.299768e-03
  3.568782e+00    5.783294e-01   7.452721e-03
  3.570992e+00    5.624219e-01   7.363628e-03
  3.573203e+00    5.542799e-01   7.324474e-03
  3.575413e+00    5.616928e-01   7.387449e-03
  3.577624e+00    5.325600e-01   7.207375e-03
  3.579834e+00    5.330704e-01   7.224626e-03
  3.582045e+00    5.659049e-01   7.458260e-03
  3.584255e+00    5.521277e-01   7.381193e-03
  3.586465e+00    5.412506e-01   7.322109e-03
  3.588676e+00    5.664017e-01   7.504876e-03
  3.590886e+00    5.536852e-01   7.434139e-03
  3.593097e+00    5.332636e-01   7.310150e-03
  3.595307e+00    5.502858e-01   7.440056e-03
  3.597518e+00    5.481564e-01   7.440037e-03
  3.599728e+00    5.219387e-01   7.273853e-03
  3.601939e+00    5.421682e-01   7.427587e-03
  3.604149e+00    5.426673e-01   7.445524e-03
  3.606360e+00    5.443431e-01   7.471286e-03
  3.608570e+00    5.531423e-01   7.545817e-03
  3.610780e+00    5.326478e-01   7.415762e-03
  3.612991e+00    5.323998e-01   7.423986e-03
  3.615201e+00    5.528914e-01   7.575481e-03
  3.617412e+00    5.603552e-01   7.633914e-03
  3.619622e+00    5.389237e-01   7.492480e-03
  3.621833e+00    5.370192e-01   7.485921e-03
  3.624043e+00    5.703185e-01   7.724376e-03
  3.626254e+00    5.623390e-01   7.680083e-03
  3.628464e+00    5.412909e-01   7.546069e-03
  3.630675e+00    5.427236e-01   7.570241e-03
  3.632885e+00    5.441768e-01   7.594983e-03
  3.635095e+00    5.567207e-01   7.696692e-03
  3.637306e+00    5.660697e-01   7.775869e-03
  3.639516e+00    5.584244e-01   7.738055e-03
  3.641727e+00    5.596964e-01   7.761781e-03
  3.643937e+00    5.417867e-01   7.651288e-03
  3.646148e+00    5.488631e-01   7.715851e-03
  3.648358e+00    5.522780e-01   7.755007e-03
  3.650569e+00    5.450395e-01   7.718840e-03
  3.652779e+00    5.586035e-01   7.829482e-03
  3.654990e+00    5.344102e-01   7.672995e-03
  3.657200e+00    5.376906e-01   7.711424e-03
  3.659410e+00    5.339792e-01   7.699777e-03
  3.661621e+00    5.345294e-01   7.718879e-03
  3.663831e+00    5.378028e-01   7.757692e-03
  3.666042e+00    5.415618e-01   7.800030e-03
  3.668252e+00    5.521774e-01   7.891675e-03
  3.670463e+00    5.412513e-01   7.828600e-03
  3.672673e+00    5.328722e-01   7.783174e-03
  3.674884e+00    5.523467e-01   7.939845e-03
  3.677094e+00    5.518804e-01   7.952339e-03
  3.679305e+00    5.394387e-01   7.877876e-03
  3.681515e+00    5.266535e-01   7.799495e-03
  3.683726e+00    5.489354e-01   7.978857e-03
  3.685936e+00    5.403784e-01   7.932358e-03
  3.688146e+00    5.175142e-01   7.778316e-03
  3.690357e+00    5.327348e-01   7.907867e-03
  3.692567e+00    5.487486e-01   8.042294e-03
  3.694778e+00    5.412060e-01   8.003160e-03
  3.696988e+00    5.302179e-01   7.937481e-03
  3.699199e+00    5.450999e-01   8.064671e-03
  3.701409e+00    5.448396e-01   8.079435e-03
  3.703620e+00    5.115668e-01   7.844966e-03
  3.705830e+00    5.382397e-01   8.063429e-03
  3.708041e+00    5.426667e-01   8.113477e-03
  3.710251e+00    5.292922e-01   8.029653e-03
  3.712461e+00    5.355418e-01   8.093883e-03
  3.714672e+00    5.211173e-01   8.000819e-03
  3.716882e+00    5.163233e-01   7.980585e-03
  3.719093e+00    5.375342e-01   8.160295e-03
  3.721303e+00    5.241210e-01   8.074847e-03
  3.723514e+00    5.214942e-01   8.071903e-03
  3.725724e+00    5.286266e-01   8.144232e-03
  3.727935e+00    5.247240e-01   8.131706e-03
  3.730145e+00    5.436999e-01   8.295171e-03
  3.732356e+00    5.222531e-01   8.147579e-03
  3.734566e+00    5.277249e-01   8.207910e-03
  3.736776e+00    5.345419e-01   8.278838e-03
  3.738987e+00    5.122076e-01   8.121749e-03
  3.741197e+00    5.209157e-01   8.208627e-03
  3.743408e+00    5.118833e-01   8.155176e-03
  3.745618e+00    5.227652e-01   8.259904e-03
  3.747829e+00    5.167412e-01   8.230325e-03
  3.750039e+00    5.167287e-01   8.248740e-03
  3.752250e+00    5.143713e-01   8.248425e-03
  3.754460e+00    4.865786e-01   8.040583e-03
  3.756671e+00    4.869530e-01   8.062088e-03
  3.758881e+00    4.957141e-01   8.152638e-03
  3.761091e+00    4.958990e-01   8.173082e-03
  3.763302e+00    5.305936e-01   8.473651e-03
  3.765512e+00    5.297638e-01   8.486679e-03
  3.767723e+00    5.252672e-01   8.470298e-03
  3.769933e+00    5.183856e-01   8.434211e-03
  3.772144e+00    5.159221e-01   8.433877e-03
  3.774354e+00    5.005398e-01   8.326959e-03
  3.776565e+00    5.228836e-01   8.530975e-03
  3.778775e+00    5.227888e-01   8.550501e-03
  3.780986e+00    5.212517e-01   8.558586e-03
  3.783196e+00    5.197176e-01   8.566573e-03
  3.785407e+00    5.116702e-01   8.520560e-03
  3.787617e+00    5.197839e-01   8.608970e-03
  3.789827e+00    5.103531e-01   8.551219e-03
  3.792038e+00    5.110021e-01   8.577644e-03
  3.794248e+00    5.248969e-01   8.715151e-03
  3.796459e+00    5.193454e-01   8.690673e-03
  3.798669e+00    5.186709e-01   8.706770e-03
  3.800880e+00    5.292639e-01   8.817307e-03
  3.803090e+00    5.374469e-01   8.907836e-03
  3.805301e+00    5.148911e-01   8.741318e-03
  3.807511e+00    5.230115e-01   8.832431e-03
  3.809722e+00    5.273054e-01   8.891523e-03
  3.811932e+00    5.152233e-01   8.811617e-03
  3.814142e+00    4.761014e-01   8.492831e-03
  3.816353e+00    4.978853e-01   8.707706e-03
  3.818563e+00    4.811646e-01   8.582982e-03
  3.820774e+00    4.939003e-01   8.718838e-03
  3.822984e+00    5.065918e-01   8.853736e-03
  3.825195e+00    4.924993e-01   8.753375e-03
  3.827405e+00    5.037380e-01   8.876671e-03
  3.829616e+00    4.885639e-01   8.765802e-03
  3.831826e+00    5.169433e-01   9.041395e-03
  3.834037e+00    5.174046e-01   9.070500e-03
  3.836247e+00    4.802343e-01   8.762862e-03
  3.838457e+00    5.111763e-01   9.066140e-03
  3.840668e+00    4.998846e-01   8.990802e-03
  3.842878e+00    5.047655e-01   9.060179e-03
  3.845089e+00    5.100363e-01   9.133438e-03
  3.847299e+00    5.022896e-01   9.089729e-03
  3.849510e+00    5.060261e-01   9.149626e-03
  3.851720e+00    5.028039e-01   9.142023e-03
  3.853931e+00    5.099669e-01   9.226179e-03
  3.856141e+00    5.211642e-01   9.346466e-03
  3.858352e+00    5.075218e-01   9.242821e-03
  3.860562e+00    4.836668e-01   9.042064e-03
  3.862772e+00    5.007305e-01   9.219892e-03
  3.864983e+00    5.434887e-01   9.626146e-03
  3.867193e+00    5.150596e-01   9.391230e-03
  3.869404e+00    4.932994e-01   9.210520e-03
  3.871614e+00    4.709619e-01   9.019040e-03
  3.873825e+00    4.860787e-01   9.182819e-03
  3.876035e+00    5.089728e-01   9.417497e-03
  3.878246e+00    5.046199e-01   9.403229e-03
  3.880456e+00    4.998489e-01   9.387911e-03
  3.882667e+00    4.726898e-01   9.158011e-03
  3.884877e+00    4.927698e-01   9.380295e-03
  3.887087e+00    4.866451e-01   9.351622e-03
  3.889298e+00    4.949150e-01   9.461196e-03
  3.891508e+00    5.089104e-01   9.625106e-03
  3.893719e+00    5.073295e-01   9.641732e-03
  3.895929e+00    5.054195e-01   9.655386e-03
  3.898140e+00    5.005640e-01   9.640990e-03
  3.900350e+00    4.837045e-01   9.509162e-03
  3.902561e+00    4.869494e-01   9.573147e-03
  3.904771e+00    4.800026e-01   9.537215e-03
  3.906982e+00    4.942383e-01   9.710781e-03
  3.909192e+00    5.180649e-01   9.976679e-03
  3.911403e+00    5.332099e-01   1.015692e-02
  3.913613e+00    5.088169e-01   9.956910e-03
  3.915823e+00    4.939312e-01   9.845134e-03
  3.918034e+00    4.868168e-01   9.809187e-03
  3.920244e+00    5.073928e-01   1.005069e-02
  3.922455e+00    4.949234e-01   9.962896e-03
  3.924665e+00    5.100455e-01   1.015105e-02
  3.926876e+00    5.300421e-01   1.038690e-02
  3.929086e+00    5.140572e-01   1.026740e-02
  3.931297e+00    5.366396e-01   1.052701e-02
  3.933507e+00    5.075400e-01   1.026717e-02
  3.935718e+00    4.911450e-01   1.012881e-02
  3.937928e+00    5.271604e-01   1.052427e-02
  3.940138e+00    5.054462e-01   1.033506e-02
  3.942349e+00    4.939268e-01   1.024677e-02
  3.944559e+00    4.877001e-01   1.021191e-02
  3.946770e+00    5.074868e-01   1.044785e-02
  3.948980e+00    4.700117e-01   1.008488e-02
  3.951191e+00    4.862798e-01   1.028880e-02
  3.953401e+00    4.599344e-01   1.003663e-02
  3.955612e+00    4.973822e-01   1.046930e-02
  3.957822e+00    4.937761e-01   1.046313e-02
  3.960033e+00    4.948313e-01   1.050736e-02
  3.962243e+00    4.635924e-01   1.020228e-02
  3.964453e+00    4.778916e-01   1.039131e-02
  3.966664e+00    5.177894e-01   1.085077e-02
  3.968874e+00    5.009081e-01   1.070136e-02
  3.971085e+00    5.207170e-01   1.093357e-02
  3.973295e+00    4.978941e-01   1.071313e-02
  3.975506e+00    4.627547e-01   1.034913e-02
  3.977716e+00    4.870217e-01   1.063908e-02
  3.979927e+00    4.836185e-01   1.062398e-02
  3.982137e+00    4.767226e-01   1.057000e-02
  3.984348e+00    4.903165e-01   1.074227e-02
  3.986558e+00    4.885227e-01   1.074510e-02
  3.988768e+00    5.070735e-01   1.097072e-02
  3.990979e+00    4.986011e-01   1.090172e-02
  3.993189e+00    4.960299e-01   1.089688e-02
  3.995400e+00    4.979895e-01   1.094234e-02
  3.997610e+00    4.970370e-01   1.096201e-02
  3.999821e+00    4.907209e-01   1.092981e-02
  4.002031e+00    5.386978e-01   1.149223e-02
  4.004242e+00    4.765985e-01   1.084766e-02
  4.006452e+00    4.986217e-01   1.113535e-02
  4.008663e+00    5.008625e-01   1.120104e-02
  4.010873e+00    5.030054e-01   1.126577e-02
  4.013084e+00    5.011802e-01   1.128687e-02
  4.015294e+00    4.993646e-01   1.130804e-02
  4.017504e+00    5.119669e-01   1.149288e-02
  4.019715e+00    5.066954e-01   1.147710e-02
  4.021925e+00    4.570280e-01   1.094174e-02
  4.024136e+00    4.929850e-01   1.140814e-02
  4.026346e+00    5.045158e-01   1.158587e-02
  4.028557e+00    4.796752e-01   1.134119e-02
  4.030767e+00    4.807607e-01   1.139948e-02
  4.032978e+00    4.834018e-01   1.147710e-02
  4.035188e+00    4.709985e-01   1.137438e-02
  4.037399e+00    4.747427e-01   1.146670e-02
  4.039609e+00    4.696437e-01   1.145204e-02
  4.041819e+00    4.636987e-01   1.142705e-02
  4.044030e+00    4.550751e-01   1.136864e-02
  4.046240e+00    4.503114e-01   1.135724e-02
  4.048451e+00    4.951718e-01   1.196102e-02
  4.050661e+00    5.282314e-01   1.240764e-02
  4.052872e+00    5.078228e-01   1.221973e-02
  4.055082e+00    4.917916e-01   1.207931e-02
  4.057293e+00    4.698307e-01   1.185959e-02
  4.059503e+00    4.757081e-01   1.198778e-02
  4.061714e+00    4.615675e-01   1.186351e-02
  4.063924e+00    4.688929e-01   1.201326e-02
  4.066134e+00    4.959622e-01   1.241340e-02
  4.068345e+00    4.933169e-01   1.243976e-02
  4.070555e+00    4.736036e-01   1.224770e-02
  4.072766e+00    4.593482e-01   1.212120e-02
  4.074976e+00    4.932870e-01   1.262372e-02
  4.077187e+00    4.919184e-01   1.266878e-02
  4.079397e+00    4.783113e-01   1.255614e-02
  4.081608e+00    4.743297e-01   1.256890e-02
  4.083818e+00    4.780045e-01   1.268296e-02
  4.086029e+00    4.935376e-01   1.295531e-02
  4.088239e+00    5.034251e-01   1.315509e-02
  4.090449e+00    5.046193e-01   1.324204e-02
  4.092660e+00    5.025542e-01   1.328755e-02
  4.094870e+00    5.515990e-01   1.399824e-02
  4.097081e+00    5.260786e-01   1.374555e-02
  4.099291e+00    5.092421e-01   1.357979e-02
  4.101502e+00    5.318418e-01   1.392958e-02
  4.103712e+00    5.273548e-01   1.392241e-02
  4.105923e+00    4.825205e-01   1.336905e-02
  4.108133e+00    5.003642e-01   1.366631e-02
  4.110344e+00    4.883232e-01   1.355271e-02
  4.112554e+00    5.066261e-01   1.385874e-02
  4.114764e+00    5.100729e-01   1.396164e-02
  4.116975e+00    5.106166e-01   1.402433e-02
  4.119185e+00    4.311994e-01   1.293996e-02
  4.121396e+00    4.487553e-01   1.325528e-02
  4.123606e+00    4.950047e-01   1.397846e-02
  4.125817e+00    4.519669e-01   1.341311e-02
  4.128027e+00    4.812092e-01   1.389850e-02
  4.130238e+00    5.066598e-01   1.432257e-02
  4.132448e+00    4.706571e-01   1.386400e-02
  4.134659e+00    5.192507e-01   1.462487e-02
  4.136869e+00    5.126878e-01   1.459709e-02
  4.139080e+00    5.005313e-01   1.448788e-02
  4.141290e+00    4.881960e-01   1.437172e-02
  4.143500e+00    4.409612e-01   1.372173e-02
  4.145711e+00    5.122037e-01   1.485759e-02
  4.147921e+00    5.094684e-01   1.488607e-02
  4.150132e+00    5.097104e-01   1.496058e-02
  4.152342e+00    4.995155e-01   1.488209e-02
  4.154553e+00    5.112793e-01   1.512781e-02
  4.156763e+00    5.051238e-01   1.511075e-02
  4.158974e+00    5.063710e-01   1.520571e-02
  4.161184e+00    5.003269e-01   1.518968e-02
  4.163395e+00    4.934924e-01   1.516218e-02
  4.165605e+00    5.063893e-01   1.543925e-02
  4.167815e+00    4.441769e-01   1.453516e-02
  4.170026e+00    5.059811e-01   1.559515e-02
  4.172236e+00    5.096501e-01   1.573628e-02
  4.174447e+00    4.593832e-01   1.502148e-02
  4.176657e+00    4.549461e-01   1.503026e-02
  4.178868e+00    4.767475e-01   1.547338e-02
  4.181078e+00    5.166485e-01   1.619852e-02
  4.183289e+00    5.611238e-01   1.697805e-02
  4.185499e+00    4.941226e-01   1.602621e-02
  4.187710e+00    5.116052e-01   1.640289e-02
  4.189920e+00    4.206998e-01   1.496412e-02
  4.192130e+00    5.200608e-01   1.673886e-02
  4.194341e+00    5.212582e-01   1.686133e-02
  4.196551e+00    4.567896e-01   1.588382e-02
  4.198762e+00    5.386386e-01   1.735800e-02
  4.200972e+00    4.769908e-01   1.644021e-02
  4.203183e+00    5.185043e-01   1.725359e-02
  4.205393e+00    4.329207e-01   1.587050e-02
  4.207604e+00    5.103729e-01   1.734927e-02
  4.209814e+00    4.840979e-01   1.701280e-02
  4.212025e+00    4.809149e-01   1.707663e-02
  4.214235e+00    5.086745e-01   1.768748e-02
  4.216445e+00    5.255739e-01   1.810847e-02
  4.218656e+00    4.872240e-01   1.756637e-02
  4.220866e+00    5.088962e-01   1.808546e-02
  4.223077e+00    5.396827e-01   1.876789e-02
  4.225287e+00    4.671113e-01   1.759782e-02
  4.227498e+00    4.400417e-01   1.721437e-02
  4.229708e+00    4.881355e-01   1.827775e-02
  4.231919e+00    4.953149e-01   1.856410e-02
  4.234129e+00    4.697138e-01   1.823009e-02
  4.236340e+00    4.945744e-01   1.886592e-02
  4.238550e+00    4.771928e-01   1.869470e-02
  4.240761e+00    4.874052e-01   1.906103e-02
  4.242971e+00    4.695154e-01   1.887942e-02
  4.245181e+00    4.899821e-01   1.946720e-02
  4.247392e+00    5.209470e-01   2.026106e-02
  4.249602e+00    4.803825e-01   1.964890e-02
  4.251813e+00    4.995279e-01   2.023461e-02
  4.254023e+00    4.732931e-01   1.989470e-02
  4.256234e+00    5.155334e-01   2.098483e-02
  4.258444e+00    4.426257e-01   1.964848e-02
  4.260655e+00    4.822597e-01   2.073414e-02
  4.262865e+00    5.312870e-01   2.200943e-02
  4.265076e+00    5.148901e-01   2.191410e-02
  4.267286e+00    5.783019e-01   2.349978e-02
  4.269496e+00    4.509918e-01   2.100567e-02
  4.271707e+00    4.512562e-01   2.127131e-02
  4.273917e+00    4.436235e-01   2.136306e-02
  4.276128e+00    4.580712e-01   2.199669e-02
  4.278338e+00    5.042866e-01   2.338781e-02
  4.280549e+00    5.032858e-01   2.369988e-02
  4.282759e+00    5.253269e-01   2.456069e-02
  4.284970e+00    4.958565e-01   2.421581e-02
  4.287180e+00    5.448830e-01   2.568855e-02
  4.289391e+00    4.479740e-01   2.346723e-02
  4.291601e+00    4.952920e-01   2.487214e-02
  4.293811e+00    5.659651e-01   2.679596e-02
  4.296022e+00    5.181024e-01   2.584420e-02
  4.298232e+00    3.669293e-01   2.193153e-02
  4.300443e+00    4.162360e-01   2.355076e-02
  4.302653e+00    3.980538e-01   2.323043e-02
  4.304864e+00    5.308762e-01   2.705937e-02
  4.307074e+00    5.136526e-01   2.685689e-02
  4.309285e+00    4.971774e-01   2.666229e-02
  4.311495e+00    4.013881e-01   2.418091e-02
  4.313706e+00    5.350476e-01   2.818003e-02
  4.315916e+00    4.842168e-01   2.707203e-02
  4.318126e+00    4.253561e-01   2.562520e-02
  4.320337e+00    3.884268e-01   2.473352e-02
  4.322547e+00    4.425428e-01   2.668155e-02
  4.324758e+00    4.593391e-01   2.746522e-02
  4.326968e+00    4.859475e-01   2.856732e-02
  4.329179e+00    5.969145e-01   3.201143e-02
  4.331389e+00    4.210607e-01   2.719556e-02
  4.333600e+00    5.184609e-01   3.053693e-02
  4.335810e+00    3.771775e-01   2.635713e-02
  4.338021e+00    4.158299e-01   2.802824e-02
  4.340231e+00    3.525357e-01   2.613028e-02
  4.342442e+00    4.853409e-01   3.107235e-02
  4.344652e+00    4.353153e-01   2.982592e-02
  4.346862e+00    4.882283e-01   3.202908e-02
  4.349073e+00    5.458534e-01   3.436043e-02
  4.351283e+00    5.372822e-01   3.459773e-02
  4.353494e+00    5.343521e-01   3.503655e-02
  4.355704e+00    3.938662e-01   3.056544e-02
  4.357915e+00    4.845586e-01   3.446595e-02
  4.360125e+00    4.469213e-01   3.366441e-02
  4.362336e+00    5.185660e-01   3.692505e-02
  4.364546e+00    4.903685e-01   3.655943e-02
  4.366757e+00    6.268390e-01   4.215807e-02
  4.368967e+00    4.783894e-01   3.756537e-02
  4.371177e+00    4.402256e-01   3.679971e-02
  4.373388e+00    5.159216e-01   4.072841e-02
  4.375598e+00    7.117231e-01   4.892951e-02
  4.377809e+00    4.954110e-01   4.185675e-02
  4.380019e+00    2.808481e-01   3.230695e-02
  4.382230e+00    2.443502e-01   3.097433e-02
  4.384440e+00    1.443798e-01   2.449591e-02
  4.386651e+00    3.956763e-01   4.179975e-02
  4.388861e+00    4.377094e-01   4.543838e-02
  4.391072e+00    4.169055e-01   4.590775e-02
  4.393282e+00    4.721367e-01   5.073923e-02
  4.395492e+00    4.599394e-01   5.216143e-02
  4.397703e+00    5.123097e-01   5.756720e-02
  4.399913e+00    3.167593e-01   4.756221e-02
  4.402124e+00    2.329372e-01   4.309070e-02
  4.404334e+00    7.057085e-01   7.973665e-02
  4.406545e+00    2.549160e-01   5.148723e-02
  4.408755e+00    6.565899e-01   8.961809e-02
  4.410966e+00    2.627622e-01   6.275153e-02
  4.413176e+00    1.440905e-01   5.260732e-02
  4.415387e+00   -4.136300e-01            nan
  4.417597e+00   -1.650480e+00            nan
  4.419807e+00    2.807437e-01   1.902519e-01
