# == pyFAI calibration ==
# Distance Sample to Detector: 0.216 m
# PONI: 1.166e-01, 1.308e-01 m
# Rotations: 0.000000 0.000000 0.000000 rad
# 
# == Fit2d calibration ==
# Distance Sample-beamCenter: 216.000 mm
# Center: x=1744.293, y=1555.000 pix
# Tilt: 0.000 deg  TiltPlanRot: 0.000 deg
# 
# Detector Eiger 9M	 PixelSize= 7.500e-05, 7.500e-05 m
#    Detector has a mask: True 
#    Detector has a dark current: False 
#    detector has a flat field: False 
# 
# Wavelength: 9.8e-11 m
# Mask applied: from detector
# Dark current applied: False
# Flat field applied: False
# Polarization factor: None
# Normalization factor: 1.0
# 
# Headers of the input frame:
# {
# "_array_data.header_convention": "SLS_1.0",
# "_array_data.header_contents": "# Detector: Dectris Eiger 9M, S/N E-18-0102\r\n# Pixel_size 75e-6 m x 75e-6 m\r\n# Silicon sensor, thickness 0.000450 m\r\n# Exposure_time 0.024997 s\r\n# Exposure_period 0.025000 s\r\n# Count_cutoff 62318 counts\r\n# Wavelength 0.980106 A\r\n# Detector_distance 0.215992 m\r\n# Beam_xy (1555, 1744) pixels\r\n# Start_angle 0.000000 deg.\r\n# Angle_increment 0.000000 deg.",
# "Content-Type": "application/octet-stream;",
# "conversions": "x-CBF_BYTE_OFFSET",
# "Content-Transfer-Encoding": "BINARY",
# "X-Binary-Size": "10166622",
# "X-Binary-ID": "1",
# "X-Binary-Element-Type": "signed 32-bit integer",
# "X-Binary-Element-Byte-Order": "LITTLE_ENDIAN",
# "Content-MD5": "xn+A/hGaiRmxkeavlzs1aQ==",
# "X-Binary-Number-of-Elements": "10166590",
# "X-Binary-Size-Fastest-Dimension": "3110",
# "X-Binary-Size-Second-Dimension": "3269",
# "X-Binary-Size-Padding": "4095"
# }
# --> H:/Proxima2a_2019-04-05/RAW_DATA/C5_gel17_position5/C5_mesh_1_data.cbf/C5_mesh_1_data.cbf000041.dat
#        q_A^-1              I           sigma 
  1.105228e-03    1.659771e+00   6.971257e-01
  3.315685e-03    1.252164e+00   3.681086e-01
  5.526141e-03    9.478458e-01   2.476515e-01
  7.736597e-03    1.262944e+00   2.414973e-01
  9.947054e-03    1.319093e+00   2.175777e-01
  1.215751e-02    1.252931e+00   1.917486e-01
  1.436797e-02    1.163928e+00   1.699961e-01
  1.657842e-02    1.387280e+00   1.727533e-01
  1.878888e-02    1.527472e+00   1.702747e-01
  2.099934e-02    1.470893e+00   1.580857e-01
  2.320979e-02    1.349395e+00   1.440132e-01
  2.542025e-02    1.392572e+00   1.398036e-01
  2.763070e-02    1.420303e+00   1.354194e-01
  2.984116e-02    1.492543e+00   1.335795e-01
  3.205162e-02    1.453906e+00   1.272197e-01
  3.426207e-02    1.492132e+00   1.246460e-01
  3.647253e-02    1.588780e+00   1.246584e-01
  3.868299e-02    1.525459e+00   1.186167e-01
  4.089344e-02    1.499515e+00   1.143816e-01
  4.310390e-02    1.455396e+00   1.097525e-01
  4.531436e-02    1.533527e+00   1.098782e-01
  4.752481e-02    1.520732e+00   1.068428e-01
  4.973527e-02    1.559971e+00   1.057816e-01
  5.194572e-02    1.488380e+00   1.011020e-01
  5.415618e-02    1.464060e+00   9.820149e-02
  5.636664e-02    1.563691e+00   9.948115e-02
  5.857709e-02    1.518670e+00   9.617145e-02
  6.078755e-02    1.559314e+00   9.565865e-02
  6.299801e-02    1.363585e+00   8.786937e-02
  6.520846e-02    1.492409e+00   9.035549e-02
  6.741892e-02    1.548317e+00   9.050650e-02
  6.962938e-02    1.359459e+00   8.345444e-02
  7.183983e-02    1.453104e+00   8.494159e-02
  7.405029e-02    1.531051e+00   8.587682e-02
  7.626074e-02    1.547222e+00   8.506811e-02
  7.847120e-02    1.437399e+00   8.082815e-02
  8.068166e-02    1.393094e+00   7.847449e-02
  8.289211e-02    1.463482e+00   7.935246e-02
  8.510257e-02    1.453070e+00   7.803559e-02
  8.731303e-02    1.509195e+00   7.851224e-02
  8.952348e-02    1.500182e+00   7.730711e-02
  9.173394e-02    1.516603e+00   7.678385e-02
  9.394439e-02    1.540908e+00   7.647819e-02
  9.615485e-02    1.603750e+00   7.711840e-02
  9.836531e-02    1.627259e+00   7.680167e-02
  1.005758e-01    1.587862e+00   7.502843e-02
  1.027862e-01    1.495272e+00   7.201914e-02
  1.049967e-01    1.530938e+00   7.210057e-02
  1.072071e-01    1.499276e+00   7.061087e-02
  1.094176e-01    1.582921e+00   7.181611e-02
  1.116280e-01    1.614411e+00   7.180370e-02
  1.138385e-01    1.605208e+00   7.089882e-02
  1.160490e-01    1.596043e+00   7.001875e-02
  1.182594e-01    1.462098e+00   6.638556e-02
  1.204699e-01    1.560444e+00   6.794925e-02
  1.226803e-01    1.598207e+00   6.814138e-02
  1.248908e-01    1.552383e+00   6.655966e-02
  1.271012e-01    1.531730e+00   6.553666e-02
  1.293117e-01    1.592786e+00   6.625559e-02
  1.315222e-01    1.622965e+00   6.631440e-02
  1.337326e-01    1.558845e+00   6.445063e-02
  1.359431e-01    1.498618e+00   6.323031e-02
  1.381535e-01    1.512442e+00   6.437392e-02
  1.403640e-01    1.582775e+00   6.613801e-02
  1.425744e-01    1.568540e+00   6.594515e-02
  1.447849e-01    1.626931e+00   6.717681e-02
  1.469953e-01    1.682715e+00   6.827603e-02
  1.492058e-01    1.586687e+00   6.622220e-02
  1.514163e-01    1.575491e+00   6.587856e-02
  1.536267e-01    1.631798e+00   6.691457e-02
  1.558372e-01    1.563366e+00   6.535184e-02
  1.580476e-01    1.575872e+00   6.545350e-02
  1.602581e-01    1.633860e+00   6.647760e-02
  1.624685e-01    1.676962e+00   6.716438e-02
  1.646790e-01    1.582938e+00   6.506696e-02
  1.668895e-01    1.665124e+00   6.654194e-02
  1.690999e-01    1.825239e+00   6.945862e-02
  1.713104e-01    1.882674e+00   7.032406e-02
  1.735208e-01    1.927606e+00   7.093702e-02
  1.757313e-01    1.841548e+00   6.911816e-02
  1.779417e-01    1.807117e+00   6.824566e-02
  1.801522e-01    1.894825e+00   6.965960e-02
  1.823626e-01    1.891483e+00   6.936645e-02
  1.845731e-01    1.961848e+00   7.041610e-02
  1.867836e-01    1.890037e+00   6.888207e-02
  1.889940e-01    1.902384e+00   6.888087e-02
  1.912045e-01    1.938786e+00   6.930456e-02
  1.934149e-01    1.870956e+00   6.785357e-02
  1.956254e-01    1.895842e+00   6.807806e-02
  1.978358e-01    1.953597e+00   6.887043e-02
  2.000463e-01    1.938096e+00   6.836934e-02
  2.022568e-01    1.950826e+00   6.836837e-02
  2.044672e-01    1.926480e+00   6.770767e-02
  2.066777e-01    1.974522e+00   6.831917e-02
  2.088881e-01    2.112124e+00   7.042846e-02
  2.110986e-01    1.946219e+00   6.737406e-02
  2.133090e-01    1.963853e+00   6.745853e-02
  2.155195e-01    2.036943e+00   6.847452e-02
  2.177300e-01    1.961598e+00   6.666829e-02
  2.199404e-01    2.008289e+00   6.567958e-02
  2.221509e-01    1.889811e+00   6.266657e-02
  2.243613e-01    1.979626e+00   6.332529e-02
  2.265718e-01    2.017793e+00   6.322820e-02
  2.287822e-01    2.029007e+00   6.277606e-02
  2.309927e-01    2.137107e+00   6.383973e-02
  2.332031e-01    2.165162e+00   6.370742e-02
  2.354136e-01    2.162219e+00   6.314813e-02
  2.376241e-01    2.138121e+00   6.230784e-02
  2.398345e-01    2.253561e+00   6.349435e-02
  2.420450e-01    2.198449e+00   6.226498e-02
  2.442554e-01    2.114313e+00   6.064122e-02
  2.464659e-01    2.089842e+00   5.988448e-02
  2.486763e-01    2.144739e+00   6.026716e-02
  2.508868e-01    2.200645e+00   6.066247e-02
  2.530973e-01    2.189063e+00   6.012753e-02
  2.553077e-01    2.191385e+00   5.979449e-02
  2.575182e-01    2.126019e+00   5.854750e-02
  2.597286e-01    2.096916e+00   5.780739e-02
  2.619391e-01    2.081141e+00   5.725798e-02
  2.641495e-01    2.060859e+00   5.666295e-02
  2.663600e-01    2.050236e+00   5.620591e-02
  2.685704e-01    2.063297e+00   5.607900e-02
  2.707809e-01    2.076737e+00   5.596273e-02
  2.729914e-01    2.076782e+00   5.567168e-02
  2.752018e-01    2.108963e+00   5.580936e-02
  2.774123e-01    1.979661e+00   5.379526e-02
  2.796227e-01    2.019744e+00   5.406832e-02
  2.818332e-01    2.035152e+00   5.400345e-02
  2.840436e-01    1.949396e+00   5.259722e-02
  2.862541e-01    1.956498e+00   5.243963e-02
  2.884646e-01    1.928840e+00   5.182055e-02
  2.906750e-01    2.028461e+00   5.288994e-02
  2.928855e-01    2.064622e+00   5.311206e-02
  2.950959e-01    2.073272e+00   5.297870e-02
  2.973064e-01    2.047220e+00   5.240821e-02
  2.995168e-01    2.023387e+00   5.186628e-02
  3.017273e-01    1.957700e+00   5.079252e-02
  3.039377e-01    1.874153e+00   4.947928e-02
  3.061482e-01    1.932104e+00   5.002109e-02
  3.083587e-01    1.913805e+00   4.956817e-02
  3.105691e-01    1.998356e+00   5.043492e-02
  3.127796e-01    1.956674e+00   4.969640e-02
  3.149900e-01    1.858998e+00   4.823824e-02
  3.172005e-01    1.869823e+00   4.818068e-02
  3.194109e-01    1.903774e+00   4.841542e-02
  3.216214e-01    1.934735e+00   4.860838e-02
  3.238319e-01    1.924091e+00   4.828243e-02
  3.260423e-01    1.910402e+00   4.791873e-02
  3.282528e-01    1.948999e+00   4.820771e-02
  3.304632e-01    1.922778e+00   4.769684e-02
  3.326737e-01    1.851366e+00   4.662010e-02
  3.348841e-01    1.837266e+00   4.626215e-02
  3.370946e-01    1.852178e+00   4.627473e-02
  3.393050e-01    1.872222e+00   4.634823e-02
  3.415155e-01    1.825717e+00   4.559688e-02
  3.437260e-01    1.860703e+00   4.586108e-02
  3.459364e-01    1.850012e+00   4.555997e-02
  3.481469e-01    1.923907e+00   4.629137e-02
  3.503573e-01    1.846230e+00   4.518206e-02
  3.525678e-01    1.848373e+00   4.504716e-02
  3.547782e-01    1.831937e+00   4.468434e-02
  3.569887e-01    1.867122e+00   4.495156e-02
  3.591992e-01    1.874775e+00   4.488424e-02
  3.614096e-01    1.828248e+00   4.417008e-02
  3.636201e-01    1.872430e+00   4.454353e-02
  3.658305e-01    1.845473e+00   4.407089e-02
  3.680410e-01    1.810813e+00   4.350493e-02
  3.702514e-01    1.825035e+00   4.352855e-02
  3.724619e-01    1.800444e+00   4.308708e-02
  3.746724e-01    1.787533e+00   4.278907e-02
  3.768828e-01    1.817010e+00   4.299525e-02
  3.790933e-01    1.857060e+00   4.332488e-02
  3.813037e-01    1.832266e+00   4.289389e-02
  3.835142e-01    1.814951e+00   4.255054e-02
  3.857246e-01    1.835180e+00   4.264850e-02
  3.879351e-01    1.907384e+00   4.333869e-02
  3.901455e-01    1.860434e+00   4.266573e-02
  3.923560e-01    1.781112e+00   4.161358e-02
  3.945665e-01    1.802858e+00   4.173406e-02
  3.967769e-01    1.778714e+00   4.132386e-02
  3.989874e-01    1.808553e+00   4.153891e-02
  4.011978e-01    1.829824e+00   4.165399e-02
  4.034083e-01    1.852996e+00   4.178820e-02
  4.056187e-01    1.874504e+00   4.190057e-02
  4.078292e-01    1.864732e+00   4.166475e-02
  4.100397e-01    1.828883e+00   4.113631e-02
  4.122501e-01    1.796606e+00   4.064972e-02
  4.144606e-01    1.866533e+00   4.131036e-02
  4.166710e-01    1.880728e+00   4.134388e-02
  4.188815e-01    1.829641e+00   4.065802e-02
  4.210919e-01    1.844817e+00   4.070665e-02
  4.233024e-01    1.837728e+00   4.050886e-02
  4.255128e-01    1.801837e+00   3.999539e-02
  4.277233e-01    1.785390e+00   3.969804e-02
  4.299338e-01    1.803490e+00   3.978397e-02
  4.321442e-01    1.788943e+00   3.950979e-02
  4.343547e-01    1.813618e+00   3.966887e-02
  4.365651e-01    1.761838e+00   3.898740e-02
  4.387756e-01    1.754554e+00   3.879777e-02
  4.409860e-01    1.745769e+00   3.859331e-02
  4.431965e-01    1.780308e+00   3.886542e-02
  4.454070e-01    1.756245e+00   3.849451e-02
  4.476174e-01    1.720943e+00   3.800101e-02
  4.498279e-01    1.736492e+00   3.806844e-02
  4.520383e-01    1.759595e+00   3.821569e-02
  4.542488e-01    1.771711e+00   3.824363e-02
  4.564592e-01    1.735876e+00   3.775334e-02
  4.586697e-01    1.704247e+00   3.730851e-02
  4.608801e-01    1.766214e+00   3.787899e-02
  4.630906e-01    1.753964e+00   3.764747e-02
  4.653011e-01    1.726756e+00   3.725610e-02
  4.675115e-01    1.773475e+00   3.765727e-02
  4.697220e-01    1.785361e+00   3.768435e-02
  4.719324e-01    1.773566e+00   3.746251e-02
  4.741429e-01    1.729241e+00   3.689609e-02
  4.763533e-01    1.719257e+00   3.669513e-02
  4.785638e-01    1.712358e+00   3.652680e-02
  4.807743e-01    1.732529e+00   3.664788e-02
  4.829847e-01    1.754150e+00   3.678269e-02
  4.851952e-01    1.709385e+00   3.621845e-02
  4.874056e-01    1.697224e+00   3.599837e-02
  4.896161e-01    1.747480e+00   3.643689e-02
  4.918265e-01    1.660117e+00   3.542619e-02
  4.940370e-01    1.724638e+00   3.601890e-02
  4.962475e-01    1.700233e+00   3.567485e-02
  4.984579e-01    1.658272e+00   3.514504e-02
  5.006684e-01    1.697928e+00   3.547608e-02
  5.028788e-01    1.662512e+00   3.501908e-02
  5.050893e-01    1.698949e+00   3.531465e-02
  5.072997e-01    1.687857e+00   3.511418e-02
  5.095102e-01    1.708332e+00   3.524189e-02
  5.117206e-01    1.734701e+00   3.542841e-02
  5.139311e-01    1.701979e+00   3.500962e-02
  5.161416e-01    1.673976e+00   3.463836e-02
  5.183520e-01    1.708271e+00   3.490822e-02
  5.205625e-01    1.695779e+00   3.469888e-02
  5.227729e-01    1.700552e+00   3.466664e-02
  5.249834e-01    1.677775e+00   3.435376e-02
  5.271938e-01    1.734957e+00   3.485275e-02
  5.294043e-01    1.793529e+00   3.535440e-02
  5.316148e-01    1.821058e+00   3.554313e-02
  5.338252e-01    1.809224e+00   3.534647e-02
  5.360357e-01    1.763213e+00   3.481470e-02
  5.382461e-01    1.776327e+00   3.486492e-02
  5.404566e-01    1.810825e+00   3.512174e-02
  5.426670e-01    1.795011e+00   3.488926e-02
  5.448775e-01    1.758156e+00   3.445209e-02
  5.470879e-01    1.780473e+00   3.459274e-02
  5.492984e-01    1.776379e+00   3.447611e-02
  5.515089e-01    1.752987e+00   3.417241e-02
  5.537193e-01    1.740110e+00   3.397164e-02
  5.559298e-01    1.780738e+00   3.429057e-02
  5.581402e-01    1.796809e+00   3.436969e-02
  5.603507e-01    1.785484e+00   3.418664e-02
  5.625611e-01    1.802539e+00   3.427499e-02
  5.647716e-01    1.802999e+00   3.420494e-02
  5.669821e-01    1.753247e+00   3.365698e-02
  5.691925e-01    1.803067e+00   3.405857e-02
  5.714030e-01    1.777893e+00   3.374787e-02
  5.736134e-01    1.762605e+00   3.353100e-02
  5.758239e-01    1.745649e+00   3.329811e-02
  5.780343e-01    1.679012e+00   3.258729e-02
  5.802448e-01    1.676142e+00   3.249126e-02
  5.824552e-01    1.695288e+00   3.260775e-02
  5.846657e-01    1.703158e+00   3.261521e-02
  5.868762e-01    1.660565e+00   3.213777e-02
  5.890866e-01    1.633715e+00   3.181074e-02
  5.912971e-01    1.698971e+00   3.237266e-02
  5.935075e-01    1.704816e+00   3.236130e-02
  5.957180e-01    1.659774e+00   3.186543e-02
  5.979284e-01    1.678697e+00   3.198112e-02
  6.001389e-01    1.709835e+00   3.221064e-02
  6.023494e-01    1.713623e+00   3.218084e-02
  6.045598e-01    1.652327e+00   3.153571e-02
  6.067703e-01    1.670945e+00   3.164909e-02
  6.089807e-01    1.691399e+00   3.177821e-02
  6.111912e-01    1.706866e+00   3.185943e-02
  6.134016e-01    1.692226e+00   3.165924e-02
  6.156121e-01    1.684031e+00   3.151970e-02
  6.178226e-01    1.726934e+00   3.185548e-02
  6.200330e-01    1.718996e+00   3.171951e-02
  6.222435e-01    1.712486e+00   3.159666e-02
  6.244539e-01    1.726716e+00   3.166554e-02
  6.266644e-01    1.731533e+00   3.164783e-02
  6.288748e-01    1.702375e+00   3.131916e-02
  6.310853e-01    1.762759e+00   3.180787e-02
  6.332957e-01    1.767491e+00   3.178907e-02
  6.355062e-01    1.748280e+00   3.155441e-02
  6.377167e-01    1.724029e+00   3.127468e-02
  6.399271e-01    1.743680e+00   3.139214e-02
  6.421376e-01    1.714708e+00   3.107083e-02
  6.443480e-01    1.721118e+00   3.106963e-02
  6.465585e-01    1.722771e+00   3.102566e-02
  6.487689e-01    1.728809e+00   3.102131e-02
  6.509794e-01    1.675946e+00   3.048572e-02
  6.531899e-01    1.651791e+00   3.020834e-02
  6.554003e-01    1.649491e+00   3.013052e-02
  6.576108e-01    1.667781e+00   3.024071e-02
  6.598212e-01    1.655245e+00   3.007087e-02
  6.620317e-01    1.624266e+00   2.973293e-02
  6.642421e-01    1.616086e+00   2.960308e-02
  6.664526e-01    1.618213e+00   2.956799e-02
  6.686630e-01    1.600709e+00   2.935327e-02
  6.708735e-01    1.609906e+00   2.938346e-02
  6.730840e-01    1.641514e+00   2.961642e-02
  6.752944e-01    1.622817e+00   2.939372e-02
  6.775049e-01    1.635691e+00   2.945650e-02
  6.797153e-01    1.655107e+00   2.957715e-02
  6.819258e-01    1.623252e+00   2.923833e-02
  6.841362e-01    1.606960e+00   2.903890e-02
  6.863467e-01    1.626859e+00   2.916581e-02
  6.885572e-01    1.648256e+00   2.930438e-02
  6.907676e-01    1.614674e+00   2.895236e-02
  6.929781e-01    1.629309e+00   2.903157e-02
  6.951885e-01    1.632448e+00   2.900804e-02
  6.973990e-01    1.669290e+00   2.928170e-02
  6.996094e-01    1.658489e+00   2.913547e-02
  7.018199e-01    1.615676e+00   2.870648e-02
  7.040303e-01    1.627114e+00   2.875730e-02
  7.062408e-01    1.637154e+00   2.879537e-02
  7.084513e-01    1.602780e+00   2.844191e-02
  7.106617e-01    1.626999e+00   2.860618e-02
  7.128722e-01    1.648759e+00   2.874703e-02
  7.150826e-01    1.627583e+00   2.851259e-02
  7.172931e-01    1.602530e+00   2.824354e-02
  7.195035e-01    1.588232e+00   2.806890e-02
  7.217140e-01    1.592154e+00   2.815328e-02
  7.239245e-01    1.556679e+00   2.806330e-02
  7.261349e-01    1.574239e+00   2.832974e-02
  7.283454e-01    1.604953e+00   2.867785e-02
  7.305558e-01    1.610543e+00   2.878236e-02
  7.327663e-01    1.631520e+00   2.901245e-02
  7.349767e-01    1.587073e+00   2.863099e-02
  7.371872e-01    1.615687e+00   2.887660e-02
  7.393976e-01    1.593632e+00   2.866449e-02
  7.416081e-01    1.581101e+00   2.853536e-02
  7.438186e-01    1.620588e+00   2.874307e-02
  7.460290e-01    1.563783e+00   2.794164e-02
  7.482395e-01    1.556586e+00   2.770703e-02
  7.504499e-01    1.575389e+00   2.773761e-02
  7.526604e-01    1.581043e+00   2.767052e-02
  7.548708e-01    1.591782e+00   2.767445e-02
  7.570813e-01    1.612048e+00   2.779847e-02
  7.592918e-01    1.588961e+00   2.756339e-02
  7.615022e-01    1.600346e+00   2.762786e-02
  7.637127e-01    1.566370e+00   2.730034e-02
  7.659231e-01    1.600904e+00   2.756735e-02
  7.681336e-01    1.621561e+00   2.771260e-02
  7.703440e-01    1.574865e+00   2.727943e-02
  7.725545e-01    1.593727e+00   2.741122e-02
  7.747650e-01    1.716538e+00   2.840787e-02
  7.769754e-01    1.665948e+00   2.793198e-02
  7.791859e-01    1.570549e+00   2.706701e-02
  7.813963e-01    1.589410e+00   2.717627e-02
  7.836068e-01    1.586164e+00   2.709648e-02
  7.858172e-01    1.616117e+00   2.730000e-02
  7.880277e-01    1.625249e+00   2.732494e-02
  7.902381e-01    1.648763e+00   2.747190e-02
  7.924486e-01    1.656463e+00   2.748496e-02
  7.946591e-01    1.659201e+00   2.745849e-02
  7.968695e-01    1.651147e+00   2.734277e-02
  7.990800e-01    1.634057e+00   2.715228e-02
  8.012904e-01    1.611951e+00   2.692135e-02
  8.035009e-01    1.629196e+00   2.701679e-02
  8.057113e-01    1.646055e+00   2.710928e-02
  8.079218e-01    1.626927e+00   2.690479e-02
  8.101323e-01    1.630118e+00   2.688543e-02
  8.123427e-01    1.666088e+00   2.713411e-02
  8.145532e-01    1.640558e+00   2.687934e-02
  8.167636e-01    1.660697e+00   2.699834e-02
  8.189741e-01    1.639145e+00   2.677786e-02
  8.211845e-01    1.658077e+00   2.688692e-02
  8.233950e-01    1.699614e+00   2.717734e-02
  8.256054e-01    1.717605e+00   2.727553e-02
  8.278159e-01    1.726656e+00   2.730218e-02
  8.300264e-01    1.661305e+00   2.673713e-02
  8.322368e-01    1.642586e+00   2.654289e-02
  8.344473e-01    1.647517e+00   2.653920e-02
  8.366577e-01    1.691019e+00   2.684404e-02
  8.388682e-01    1.718048e+00   2.701449e-02
  8.410786e-01    1.684878e+00   2.670979e-02
  8.432891e-01    1.690942e+00   2.671531e-02
  8.454996e-01    1.688737e+00   2.665564e-02
  8.477100e-01    1.679170e+00   2.653784e-02
  8.499205e-01    1.686621e+00   2.655489e-02
  8.521309e-01    1.664130e+00   2.633611e-02
  8.543414e-01    1.682814e+00   2.644220e-02
  8.565518e-01    1.673334e+00   2.632660e-02
  8.587623e-01    1.654095e+00   2.613405e-02
  8.609727e-01    1.637369e+00   2.596127e-02
  8.631832e-01    1.627436e+00   2.584249e-02
  8.653937e-01    1.643595e+00   2.593056e-02
  8.676041e-01    1.627212e+00   2.576207e-02
  8.698146e-01    1.656871e+00   2.595606e-02
  8.720250e-01    1.626805e+00   2.568029e-02
  8.742355e-01    1.602800e+00   2.545131e-02
  8.764459e-01    1.632339e+00   2.564558e-02
  8.786564e-01    1.662604e+00   2.584364e-02
  8.808669e-01    1.646113e+00   2.567619e-02
  8.830773e-01    1.639899e+00   2.558908e-02
  8.852878e-01    1.642591e+00   2.557169e-02
  8.874982e-01    1.579539e+00   2.503969e-02
  8.897087e-01    1.616554e+00   2.529353e-02
  8.919191e-01    1.586790e+00   2.502200e-02
  8.941296e-01    1.598955e+00   2.508046e-02
  8.963401e-01    1.591403e+00   2.498483e-02
  8.985505e-01    1.610132e+00   2.509435e-02
  9.007610e-01    1.579756e+00   2.481999e-02
  9.029714e-01    1.627499e+00   2.515610e-02
  9.051819e-01    1.635567e+00   2.518077e-02
  9.073923e-01    1.597116e+00   2.484647e-02
  9.096028e-01    1.599095e+00   2.482695e-02
  9.118132e-01    1.620598e+00   2.495687e-02
  9.140237e-01    1.602159e+00   2.477783e-02
  9.162342e-01    1.606543e+00   2.477708e-02
  9.184446e-01    1.589860e+00   2.461246e-02
  9.206551e-01    1.600019e+00   2.465536e-02
  9.228655e-01    1.624488e+00   2.480767e-02
  9.250760e-01    1.601909e+00   2.459931e-02
  9.272864e-01    1.593855e+00   2.450322e-02
  9.294969e-01    1.621490e+00   2.467872e-02
  9.317074e-01    1.595441e+00   2.444509e-02
  9.339178e-01    1.639824e+00   2.474891e-02
  9.361283e-01    1.655209e+00   2.482811e-02
  9.383387e-01    1.649495e+00   2.475150e-02
  9.405492e-01    1.625730e+00   2.453823e-02
  9.427596e-01    1.632995e+00   2.455758e-02
  9.449701e-01    1.677939e+00   2.485942e-02
  9.471805e-01    1.692617e+00   2.493255e-02
  9.493910e-01    1.703539e+00   2.497852e-02
  9.516015e-01    1.687811e+00   2.482825e-02
  9.538119e-01    1.714985e+00   2.499302e-02
  9.560224e-01    1.733085e+00   2.508919e-02
  9.582328e-01    1.731512e+00   2.504418e-02
  9.604433e-01    1.758393e+00   2.520206e-02
  9.626537e-01    1.792725e+00   2.541271e-02
  9.648642e-01    1.817288e+00   2.555116e-02
  9.670747e-01    1.817529e+00   2.551762e-02
  9.692851e-01    1.844228e+00   2.567020e-02
  9.714956e-01    1.810403e+00   2.539785e-02
  9.737060e-01    1.801273e+00   2.530042e-02
  9.759165e-01    1.846067e+00   2.557697e-02
  9.781269e-01    1.827139e+00   2.541223e-02
  9.803374e-01    1.838937e+00   2.545888e-02
  9.825478e-01    1.818487e+00   2.528353e-02
  9.847583e-01    1.806844e+00   2.516823e-02
  9.869688e-01    1.795777e+00   2.505746e-02
  9.891792e-01    1.781949e+00   2.492760e-02
  9.913897e-01    1.870581e+00   2.550555e-02
  9.936001e-01    1.974487e+00   2.617002e-02
  9.958106e-01    2.072036e+00   2.677231e-02
  9.980210e-01    1.878742e+00   2.545997e-02
  1.000231e+00    1.724048e+00   2.452283e-02
  1.002442e+00    1.671731e+00   2.427619e-02
  1.004652e+00    1.640951e+00   2.411876e-02
  1.006863e+00    1.647473e+00   2.421677e-02
  1.009073e+00    1.604794e+00   2.393764e-02
  1.011284e+00    1.600335e+00   2.393631e-02
  1.013494e+00    1.589329e+00   2.387752e-02
  1.015705e+00    1.555879e+00   2.364724e-02
  1.017915e+00    1.556220e+00   2.366611e-02
  1.020126e+00    1.603999e+00   2.404291e-02
  1.022336e+00    1.587357e+00   2.392964e-02
  1.024547e+00    1.613895e+00   2.414029e-02
  1.026757e+00    1.600690e+00   2.404985e-02
  1.028967e+00    1.537228e+00   2.357594e-02
  1.031178e+00    1.563074e+00   2.377950e-02
  1.033388e+00    1.576816e+00   2.388896e-02
  1.035599e+00    1.606215e+00   2.411413e-02
  1.037809e+00    1.634155e+00   2.432632e-02
  1.040020e+00    1.675282e+00   2.463188e-02
  1.042230e+00    1.672850e+00   2.461604e-02
  1.044441e+00    1.598910e+00   2.406565e-02
  1.046651e+00    1.543793e+00   2.364740e-02
  1.048862e+00    1.538635e+00   2.360704e-02
  1.051072e+00    1.547494e+00   2.367252e-02
  1.053282e+00    1.546549e+00   2.366432e-02
  1.055493e+00    1.544215e+00   2.364207e-02
  1.057703e+00    1.612515e+00   2.415767e-02
  1.059914e+00    1.869055e+00   2.600357e-02
  1.062124e+00    2.511177e+00   3.013585e-02
  1.064335e+00    2.998507e+00   3.292583e-02
  1.066545e+00    2.460504e+00   2.981843e-02
  1.068756e+00    2.125228e+00   2.770794e-02
  1.070966e+00    2.036541e+00   2.711596e-02
  1.073177e+00    1.903829e+00   2.621070e-02
  1.075387e+00    1.720664e+00   2.491232e-02
  1.077597e+00    1.619176e+00   2.415883e-02
  1.079808e+00    1.569166e+00   2.364540e-02
  1.082018e+00    1.507364e+00   2.298316e-02
  1.084229e+00    1.441135e+00   2.236325e-02
  1.086439e+00    1.445669e+00   2.231125e-02
  1.088650e+00    1.452117e+00   2.228534e-02
  1.090860e+00    1.430089e+00   2.204861e-02
  1.093071e+00    1.427377e+00   2.196601e-02
  1.095281e+00    1.420359e+00   2.185520e-02
  1.097492e+00    1.433822e+00   2.190383e-02
  1.099702e+00    1.428306e+00   2.181049e-02
  1.101912e+00    1.462538e+00   2.202106e-02
  1.104123e+00    1.466944e+00   2.200547e-02
  1.106333e+00    1.431174e+00   2.169113e-02
  1.108544e+00    1.439990e+00   2.171343e-02
  1.110754e+00    1.423345e+00   2.154459e-02
  1.112965e+00    1.434663e+00   2.158937e-02
  1.115175e+00    1.444385e+00   2.162085e-02
  1.117386e+00    1.458896e+00   2.168933e-02
  1.119596e+00    1.452605e+00   2.160411e-02
  1.121807e+00    1.443018e+00   2.149342e-02
  1.124017e+00    1.439766e+00   2.143213e-02
  1.126228e+00    1.431650e+00   2.133553e-02
  1.128438e+00    1.452763e+00   2.145483e-02
  1.130648e+00    1.446795e+00   2.137584e-02
  1.132859e+00    1.416684e+00   2.111760e-02
  1.135069e+00    1.464871e+00   2.143812e-02
  1.137280e+00    1.501741e+00   2.167194e-02
  1.139490e+00    1.488673e+00   2.154322e-02
  1.141701e+00    1.414861e+00   2.096887e-02
  1.143911e+00    1.395523e+00   2.079305e-02
  1.146122e+00    1.394914e+00   2.075635e-02
  1.148332e+00    1.386866e+00   2.066442e-02
  1.150543e+00    1.400026e+00   2.073114e-02
  1.152753e+00    1.374789e+00   2.051264e-02
  1.154963e+00    1.351216e+00   2.030519e-02
  1.157174e+00    1.404229e+00   2.066919e-02
  1.159384e+00    1.422570e+00   2.077334e-02
  1.161595e+00    1.449391e+00   2.093757e-02
  1.163805e+00    1.474787e+00   2.108983e-02
  1.166016e+00    1.431654e+00   2.074905e-02
  1.168226e+00    1.433908e+00   2.073568e-02
  1.170437e+00    1.454302e+00   2.085309e-02
  1.172647e+00    1.454070e+00   2.082163e-02
  1.174858e+00    1.457673e+00   2.081835e-02
  1.177068e+00    1.442843e+00   2.068312e-02
  1.179278e+00    1.426955e+00   2.053966e-02
  1.181489e+00    1.440563e+00   2.060957e-02
  1.183699e+00    1.401527e+00   2.030043e-02
  1.185910e+00    1.391883e+00   2.020233e-02
  1.188120e+00    1.353677e+00   1.989650e-02
  1.190331e+00    1.343046e+00   1.979153e-02
  1.192541e+00    1.378997e+00   2.002707e-02
  1.194752e+00    1.377024e+00   1.998544e-02
  1.196962e+00    1.363398e+00   1.986047e-02
  1.199173e+00    1.363333e+00   1.983337e-02
  1.201383e+00    1.338651e+00   1.962596e-02
  1.203593e+00    1.371545e+00   1.984061e-02
  1.205804e+00    1.372136e+00   1.981876e-02
  1.208014e+00    1.383297e+00   1.987203e-02
  1.210225e+00    1.383234e+00   1.984592e-02
  1.212435e+00    1.380754e+00   1.980308e-02
  1.214646e+00    1.350600e+00   1.955952e-02
  1.216856e+00    1.348787e+00   1.952092e-02
  1.219067e+00    1.338969e+00   1.942538e-02
  1.221277e+00    1.363760e+00   1.957922e-02
  1.223488e+00    1.330759e+00   1.931534e-02
  1.225698e+00    1.333436e+00   1.930799e-02
  1.227909e+00    1.350001e+00   1.939740e-02
  1.230119e+00    1.382427e+00   1.959672e-02
  1.232329e+00    1.378061e+00   1.953474e-02
  1.234540e+00    1.364362e+00   1.940694e-02
  1.236750e+00    1.358246e+00   1.933305e-02
  1.238961e+00    1.356335e+00   1.929239e-02
  1.241171e+00    1.369479e+00   1.936129e-02
  1.243382e+00    1.381991e+00   1.942576e-02
  1.245592e+00    1.365222e+00   1.928330e-02
  1.247803e+00    1.382404e+00   1.938033e-02
  1.250013e+00    1.344054e+00   1.908614e-02
  1.252224e+00    1.373059e+00   1.926751e-02
  1.254434e+00    1.403038e+00   1.945253e-02
  1.256644e+00    1.391212e+00   1.934683e-02
  1.258855e+00    1.360514e+00   1.910881e-02
  1.261065e+00    1.371655e+00   1.916334e-02
  1.263276e+00    1.364257e+00   1.908853e-02
  1.265486e+00    1.323502e+00   1.877861e-02
  1.267697e+00    1.311302e+00   1.866915e-02
  1.269907e+00    1.347439e+00   1.890196e-02
  1.272118e+00    1.367654e+00   1.902052e-02
  1.274328e+00    1.368756e+00   1.900529e-02
  1.276539e+00    1.380867e+00   1.906612e-02
  1.278749e+00    1.398297e+00   1.916340e-02
  1.280959e+00    1.399095e+00   1.914594e-02
  1.283170e+00    1.369953e+00   1.892291e-02
  1.285380e+00    1.374802e+00   1.893369e-02
  1.287591e+00    1.368102e+00   1.886534e-02
  1.289801e+00    1.354766e+00   1.875189e-02
  1.292012e+00    1.365571e+00   1.880933e-02
  1.294222e+00    1.344790e+00   1.864946e-02
  1.296433e+00    1.355645e+00   1.870894e-02
  1.298643e+00    1.347870e+00   1.863876e-02
  1.300854e+00    1.346161e+00   1.861054e-02
  1.303064e+00    1.368985e+00   1.874829e-02
  1.305274e+00    1.399032e+00   1.893109e-02
  1.307485e+00    1.418580e+00   1.904081e-02
  1.309695e+00    1.387305e+00   1.880721e-02
  1.311906e+00    1.384643e+00   1.876716e-02
  1.314116e+00    1.389539e+00   1.877922e-02
  1.316327e+00    1.372411e+00   1.864126e-02
  1.318537e+00    1.365443e+00   1.857186e-02
  1.320748e+00    1.350070e+00   1.844547e-02
  1.322958e+00    1.351702e+00   1.843608e-02
  1.325169e+00    1.366266e+00   1.851397e-02
  1.327379e+00    1.389832e+00   1.865084e-02
  1.329589e+00    1.387475e+00   1.861366e-02
  1.331800e+00    1.386977e+00   1.858935e-02
  1.334010e+00    1.378273e+00   1.851005e-02
  1.336221e+00    1.380885e+00   1.850558e-02
  1.338431e+00    1.388812e+00   1.853746e-02
  1.340642e+00    1.371377e+00   1.848540e-02
  1.342852e+00    1.392763e+00   1.873123e-02
  1.345063e+00    1.378320e+00   1.868388e-02
  1.347273e+00    1.344945e+00   1.849145e-02
  1.349484e+00    1.371763e+00   1.870279e-02
  1.351694e+00    1.362526e+00   1.866254e-02
  1.353905e+00    1.337299e+00   1.850687e-02
  1.356115e+00    1.365010e+00   1.871275e-02
  1.358325e+00    1.364337e+00   1.872155e-02
  1.360536e+00    1.330602e+00   1.850018e-02
  1.362746e+00    1.335982e+00   1.854705e-02
  1.364957e+00    1.343214e+00   1.860484e-02
  1.367167e+00    1.309776e+00   1.837885e-02
  1.369378e+00    1.344926e+00   1.862983e-02
  1.371588e+00    1.340403e+00   1.860364e-02
  1.373799e+00    1.325896e+00   1.850633e-02
  1.376009e+00    1.312609e+00   1.841673e-02
  1.378220e+00    1.315055e+00   1.843639e-02
  1.380430e+00    1.311525e+00   1.841431e-02
  1.382640e+00    1.296963e+00   1.831271e-02
  1.384851e+00    1.279912e+00   1.819278e-02
  1.387061e+00    1.294252e+00   1.829471e-02
  1.389272e+00    1.295478e+00   1.830357e-02
  1.391482e+00    1.311894e+00   1.841851e-02
  1.393693e+00    1.292468e+00   1.828075e-02
  1.395903e+00    1.324393e+00   1.850362e-02
  1.398114e+00    1.323498e+00   1.849598e-02
  1.400324e+00    1.292386e+00   1.827516e-02
  1.402535e+00    1.306038e+00   1.836907e-02
  1.404745e+00    1.302079e+00   1.833883e-02
  1.406955e+00    1.278437e+00   1.816889e-02
  1.409166e+00    1.267212e+00   1.808562e-02
  1.411376e+00    1.295442e+00   1.828282e-02
  1.413587e+00    1.292106e+00   1.825543e-02
  1.415797e+00    1.278315e+00   1.815419e-02
  1.418008e+00    1.270374e+00   1.805584e-02
  1.420218e+00    1.286124e+00   1.801674e-02
  1.422429e+00    1.269095e+00   1.781179e-02
  1.424639e+00    1.272419e+00   1.777033e-02
  1.426850e+00    1.278722e+00   1.775943e-02
  1.429060e+00    1.288451e+00   1.777750e-02
  1.431270e+00    1.301658e+00   1.782353e-02
  1.433481e+00    1.291838e+00   1.771487e-02
  1.435691e+00    1.272101e+00   1.754057e-02
  1.437902e+00    1.278220e+00   1.754610e-02
  1.440112e+00    1.286370e+00   1.756638e-02
  1.442323e+00    1.300008e+00   1.762583e-02
  1.444533e+00    1.271044e+00   1.739582e-02
  1.446744e+00    1.265402e+00   1.732609e-02
  1.448954e+00    1.262475e+00   1.727594e-02
  1.451165e+00    1.292681e+00   1.745135e-02
  1.453375e+00    1.253335e+00   1.715589e-02
  1.455586e+00    1.246588e+00   1.708169e-02
  1.457796e+00    1.271698e+00   1.722538e-02
  1.460006e+00    1.261100e+00   1.712628e-02
  1.462217e+00    1.272825e+00   1.717947e-02
  1.464427e+00    1.252224e+00   1.701444e-02
  1.466638e+00    1.265472e+00   1.707892e-02
  1.468848e+00    1.262497e+00   1.703356e-02
  1.471059e+00    1.297729e+00   1.724423e-02
  1.473269e+00    1.283482e+00   1.712482e-02
  1.475480e+00    1.277779e+00   1.706286e-02
  1.477690e+00    1.290986e+00   1.712677e-02
  1.479901e+00    1.297351e+00   1.714482e-02
  1.482111e+00    1.303379e+00   1.716096e-02
  1.484321e+00    1.253963e+00   1.680951e-02
  1.486532e+00    1.267572e+00   1.687812e-02
  1.488742e+00    1.267911e+00   1.685771e-02
  1.490953e+00    1.246204e+00   1.669034e-02
  1.493163e+00    1.251405e+00   1.670294e-02
  1.495374e+00    1.281702e+00   1.688228e-02
  1.497584e+00    1.268764e+00   1.677516e-02
  1.499795e+00    1.277750e+00   1.681265e-02
  1.502005e+00    1.286524e+00   1.684837e-02
  1.504216e+00    1.300512e+00   1.691833e-02
  1.506426e+00    1.294114e+00   1.685555e-02
  1.508636e+00    1.319369e+00   1.699829e-02
  1.510847e+00    1.298867e+00   1.684354e-02
  1.513057e+00    1.283165e+00   1.671602e-02
  1.515268e+00    1.296454e+00   1.677625e-02
  1.517478e+00    1.272956e+00   1.659818e-02
  1.519689e+00    1.261918e+00   1.650100e-02
  1.521899e+00    1.279900e+00   1.659481e-02
  1.524110e+00    1.258595e+00   1.643574e-02
  1.526320e+00    1.260957e+00   1.643149e-02
  1.528531e+00    1.257599e+00   1.638979e-02
  1.530741e+00    1.280529e+00   1.651915e-02
  1.532951e+00    1.267230e+00   1.641343e-02
  1.535162e+00    1.249052e+00   1.638187e-02
  1.537372e+00    1.267925e+00   1.657256e-02
  1.539583e+00    1.263453e+00   1.657777e-02
  1.541793e+00    1.252491e+00   1.651265e-02
  1.544004e+00    1.261828e+00   1.657433e-02
  1.546214e+00    1.284306e+00   1.671979e-02
  1.548425e+00    1.258222e+00   1.654941e-02
  1.550635e+00    1.251187e+00   1.651275e-02
  1.552846e+00    1.261971e+00   1.659350e-02
  1.555056e+00    1.249046e+00   1.646676e-02
  1.557266e+00    1.233121e+00   1.625149e-02
  1.559477e+00    1.237518e+00   1.622149e-02
  1.561687e+00    1.236711e+00   1.618563e-02
  1.563898e+00    1.260239e+00   1.632158e-02
  1.566108e+00    1.280298e+00   1.643477e-02
  1.568319e+00    1.286726e+00   1.646013e-02
  1.570529e+00    1.255484e+00   1.623381e-02
  1.572740e+00    1.283691e+00   1.638710e-02
  1.574950e+00    1.289662e+00   1.639839e-02
  1.577161e+00    1.270606e+00   1.625105e-02
  1.579371e+00    1.273124e+00   1.624321e-02
  1.581582e+00    1.269184e+00   1.619809e-02
  1.583792e+00    1.285873e+00   1.628593e-02
  1.586002e+00    1.247162e+00   1.602128e-02
  1.588213e+00    1.236541e+00   1.593570e-02
  1.590423e+00    1.259600e+00   1.606342e-02
  1.592634e+00    1.258280e+00   1.603325e-02
  1.594844e+00    1.258235e+00   1.601144e-02
  1.597055e+00    1.227705e+00   1.579562e-02
  1.599265e+00    1.255820e+00   1.595460e-02
  1.601476e+00    1.251642e+00   1.590768e-02
  1.603686e+00    1.247765e+00   1.586318e-02
  1.605897e+00    1.245723e+00   1.582998e-02
  1.608107e+00    1.241345e+00   1.578256e-02
  1.610317e+00    1.220770e+00   1.563204e-02
  1.612528e+00    1.203637e+00   1.550301e-02
  1.614738e+00    1.212001e+00   1.553800e-02
  1.616949e+00    1.200131e+00   1.544294e-02
  1.619159e+00    1.207812e+00   1.547367e-02
  1.621370e+00    1.186599e+00   1.531900e-02
  1.623580e+00    1.171512e+00   1.520326e-02
  1.625791e+00    1.194459e+00   1.533330e-02
  1.628001e+00    1.179883e+00   1.522137e-02
  1.630212e+00    1.183729e+00   1.522846e-02
  1.632422e+00    1.180773e+00   1.519161e-02
  1.634632e+00    1.155827e+00   1.501314e-02
  1.636843e+00    1.151254e+00   1.496608e-02
  1.639053e+00    1.158567e+00   1.499634e-02
  1.641264e+00    1.160850e+00   1.499409e-02
  1.643474e+00    1.149274e+00   1.490186e-02
  1.645685e+00    1.145272e+00   1.485931e-02
  1.647895e+00    1.146551e+00   1.485107e-02
  1.650106e+00    1.167688e+00   1.497022e-02
  1.652316e+00    1.148955e+00   1.483317e-02
  1.654527e+00    1.143222e+00   1.477943e-02
  1.656737e+00    1.133111e+00   1.469740e-02
  1.658947e+00    1.132457e+00   1.467687e-02
  1.661158e+00    1.119910e+00   1.457913e-02
  1.663368e+00    1.113632e+00   1.452224e-02
  1.665579e+00    1.103380e+00   1.443922e-02
  1.667789e+00    1.092143e+00   1.434942e-02
  1.670000e+00    1.123779e+00   1.454022e-02
  1.672210e+00    1.106510e+00   1.441220e-02
  1.674421e+00    1.121301e+00   1.449277e-02
  1.676631e+00    1.114624e+00   1.443359e-02
  1.678842e+00    1.098861e+00   1.431540e-02
  1.681052e+00    1.084038e+00   1.420319e-02
  1.683263e+00    1.084775e+00   1.419292e-02
  1.685473e+00    1.078792e+00   1.413863e-02
  1.687683e+00    1.086823e+00   1.417569e-02
  1.689894e+00    1.091297e+00   1.418902e-02
  1.692104e+00    1.072240e+00   1.404969e-02
  1.694315e+00    1.061249e+00   1.396305e-02
  1.696525e+00    1.046895e+00   1.385332e-02
  1.698736e+00    1.057085e+00   1.390580e-02
  1.700946e+00    1.057529e+00   1.389361e-02
  1.703157e+00    1.042651e+00   1.378100e-02
  1.705367e+00    1.051891e+00   1.382742e-02
  1.707578e+00    1.046290e+00   1.377601e-02
  1.709788e+00    1.048572e+00   1.377690e-02
  1.711998e+00    1.041892e+00   1.371794e-02
  1.714209e+00    1.030595e+00   1.362899e-02
  1.716419e+00    1.025716e+00   1.358248e-02
  1.718630e+00    1.014501e+00   1.349388e-02
  1.720840e+00    1.019066e+00   1.351007e-02
  1.723051e+00    1.020692e+00   1.350701e-02
  1.725261e+00    1.025967e+00   1.352717e-02
  1.727472e+00    1.000286e+00   1.334273e-02
  1.729682e+00    1.014571e+00   1.342422e-02
  1.731893e+00    1.011217e+00   1.338810e-02
  1.734103e+00    1.006608e+00   1.334378e-02
  1.736313e+00    1.007873e+00   1.333815e-02
  1.738524e+00    9.781054e-01   1.312604e-02
  1.740734e+00    9.842055e-01   1.315330e-02
  1.742945e+00    9.998606e-01   1.324402e-02
  1.745155e+00    9.971873e-01   1.321283e-02
  1.747366e+00    1.016750e+00   1.332780e-02
  1.749576e+00    1.002217e+00   1.321842e-02
  1.751787e+00    9.993718e-01   1.318619e-02
  1.753997e+00    9.808253e-01   1.304988e-02
  1.756208e+00    9.735362e-01   1.298810e-02
  1.758418e+00    9.821977e-01   1.303256e-02
  1.760628e+00    9.683818e-01   1.292724e-02
  1.762839e+00    9.742359e-01   1.295296e-02
  1.765049e+00    9.623936e-01   1.286089e-02
  1.767260e+00    9.429975e-01   1.271793e-02
  1.769470e+00    9.403030e-01   1.268686e-02
  1.771681e+00    9.446378e-01   1.270298e-02
  1.773891e+00    9.484985e-01   1.271588e-02
  1.776102e+00    9.430053e-01   1.266616e-02
  1.778312e+00    9.504023e-01   1.270297e-02
  1.780523e+00    9.474174e-01   1.267022e-02
  1.782733e+00    9.607855e-01   1.274649e-02
  1.784944e+00    9.146931e-01   1.242425e-02
  1.787154e+00    9.195161e-01   1.244447e-02
  1.789364e+00    9.360755e-01   1.254354e-02
  1.791575e+00    9.287368e-01   1.248173e-02
  1.793785e+00    9.231260e-01   1.243154e-02
  1.795996e+00    9.738372e-01   1.275556e-02
  1.798206e+00    9.846530e-01   1.281325e-02
  1.800417e+00    1.003165e+00   1.291989e-02
  1.802627e+00    9.440912e-01   1.252157e-02
  1.804838e+00    9.482422e-01   1.253671e-02
  1.807048e+00    9.823012e-01   1.274652e-02
  1.809259e+00    9.997935e-01   1.284523e-02
  1.811469e+00    9.768876e-01   1.268172e-02
  1.813679e+00    9.124403e-01   1.224118e-02
  1.815890e+00    8.959215e-01   1.211513e-02
  1.818100e+00    9.206224e-01   1.226570e-02
  1.820311e+00    9.184836e-01   1.223647e-02
  1.822521e+00    8.962423e-01   1.207254e-02
  1.824732e+00    8.565274e-01   1.178745e-02
  1.826942e+00    8.943883e-01   1.203278e-02
  1.829153e+00    8.784659e-01   1.191356e-02
  1.831363e+00    8.806083e-01   1.191605e-02
  1.833574e+00    8.953869e-01   1.200385e-02
  1.835784e+00    8.999172e-01   1.202264e-02
  1.837994e+00    8.853337e-01   1.191306e-02
  1.840205e+00    8.626139e-01   1.174810e-02
  1.842415e+00    9.028542e-01   1.200702e-02
  1.844626e+00    8.917714e-01   1.192142e-02
  1.846836e+00    8.672812e-01   1.174516e-02
  1.849047e+00    8.575981e-01   1.166784e-02
  1.851257e+00    8.569052e-01   1.165361e-02
  1.853468e+00    8.506597e-01   1.160231e-02
  1.855678e+00    8.759693e-01   1.176468e-02
  1.857889e+00    8.885998e-01   1.184054e-02
  1.860099e+00    8.788411e-01   1.176662e-02
  1.862309e+00    8.588755e-01   1.162367e-02
  1.864520e+00    8.539329e-01   1.158161e-02
  1.866730e+00    8.519377e-01   1.155870e-02
  1.868941e+00    8.703398e-01   1.167182e-02
  1.871151e+00    8.429453e-01   1.147534e-02
  1.873362e+00    8.526648e-01   1.152992e-02
  1.875572e+00    8.692608e-01   1.163052e-02
  1.877783e+00    8.893195e-01   1.175226e-02
  1.879993e+00    8.898320e-01   1.174421e-02
  1.882204e+00    8.787128e-01   1.165949e-02
  1.884414e+00    8.618439e-01   1.153584e-02
  1.886624e+00    8.774880e-01   1.162877e-02
  1.888835e+00    8.795314e-01   1.163109e-02
  1.891045e+00    8.759036e-01   1.159597e-02
  1.893256e+00    8.581432e-01   1.146658e-02
  1.895466e+00    8.502532e-01   1.140249e-02
  1.897677e+00    8.438769e-01   1.134867e-02
  1.899887e+00    8.494655e-01   1.137511e-02
  1.902098e+00    8.591312e-01   1.142863e-02
  1.904308e+00    8.362437e-01   1.126475e-02
  1.906519e+00    8.553844e-01   1.138193e-02
  1.908729e+00    8.750168e-01   1.150090e-02
  1.910940e+00    8.777099e-01   1.150714e-02
  1.913150e+00    8.489114e-01   1.130607e-02
  1.915360e+00    8.425603e-01   1.125294e-02
  1.917571e+00    8.444196e-01   1.125434e-02
  1.919781e+00    8.350204e-01   1.118074e-02
  1.921992e+00    8.299824e-01   1.113631e-02
  1.924202e+00    8.060479e-01   1.096385e-02
  1.926413e+00    8.109698e-01   1.098702e-02
  1.928623e+00    8.181988e-01   1.102530e-02
  1.930834e+00    8.246539e-01   1.105821e-02
  1.933044e+00    8.080513e-01   1.093569e-02
  1.935255e+00    8.085064e-01   1.092843e-02
  1.937465e+00    8.171532e-01   1.097628e-02
  1.939675e+00    7.907635e-01   1.078684e-02
  1.941886e+00    7.947822e-01   1.080399e-02
  1.944096e+00    8.216932e-01   1.097507e-02
  1.946307e+00    8.160791e-01   1.092710e-02
  1.948517e+00    8.094231e-01   1.087195e-02
  1.950728e+00    7.984555e-01   1.078779e-02
  1.952938e+00    7.891246e-01   1.071453e-02
  1.955149e+00    7.931787e-01   1.073181e-02
  1.957359e+00    7.794847e-01   1.062883e-02
  1.959570e+00    7.852744e-01   1.065742e-02
  1.961780e+00    7.846279e-01   1.064317e-02
  1.963990e+00    7.967820e-01   1.071513e-02
  1.966201e+00    8.058081e-01   1.076549e-02
  1.968411e+00    8.039507e-01   1.074285e-02
  1.970622e+00    8.013194e-01   1.071507e-02
  1.972832e+00    7.831491e-01   1.058295e-02
  1.975043e+00    7.972481e-01   1.066765e-02
  1.977253e+00    7.977570e-01   1.066105e-02
  1.979464e+00    7.815564e-01   1.054222e-02
  1.981674e+00    7.741088e-01   1.048165e-02
  1.983885e+00    7.943475e-01   1.060768e-02
  1.986095e+00    8.101250e-01   1.070264e-02
  1.988305e+00    7.935076e-01   1.058233e-02
  1.990516e+00    7.807385e-01   1.048690e-02
  1.992726e+00    7.873676e-01   1.052159e-02
  1.994937e+00    7.769162e-01   1.044140e-02
  1.997147e+00    7.784430e-01   1.044192e-02
  1.999358e+00    7.836659e-01   1.046696e-02
  2.001568e+00    7.989798e-01   1.055776e-02
  2.003779e+00    7.680706e-01   1.033965e-02
  2.005989e+00    7.771583e-01   1.038857e-02
  2.008200e+00    7.858922e-01   1.043513e-02
  2.010410e+00    7.936816e-01   1.047479e-02
  2.012621e+00    7.857537e-01   1.041052e-02
  2.014831e+00    7.716524e-01   1.030516e-02
  2.017041e+00    7.786984e-01   1.034166e-02
  2.019252e+00    7.584117e-01   1.019613e-02
  2.021462e+00    7.678087e-01   1.024957e-02
  2.023673e+00    7.895554e-01   1.038418e-02
  2.025883e+00    7.851446e-01   1.034547e-02
  2.028094e+00    7.852650e-01   1.033649e-02
  2.030304e+00    7.938223e-01   1.038292e-02
  2.032515e+00    7.842608e-01   1.031076e-02
  2.034725e+00    7.834597e-01   1.029590e-02
  2.036936e+00    7.845325e-01   1.029344e-02
  2.039146e+00    7.943565e-01   1.034789e-02
  2.041356e+00    7.719951e-01   1.019146e-02
  2.043567e+00    7.722735e-01   1.018389e-02
  2.045777e+00    7.728307e-01   1.017821e-02
  2.047988e+00    7.609836e-01   1.009049e-02
  2.050198e+00    7.668022e-01   1.012048e-02
  2.052409e+00    7.641447e-01   1.009522e-02
  2.054619e+00    7.783824e-01   1.018132e-02
  2.056830e+00    7.658271e-01   1.009164e-02
  2.059040e+00    7.535440e-01   1.000286e-02
  2.061251e+00    7.520555e-01   9.985714e-03
  2.063461e+00    7.574111e-01   1.001357e-02
  2.065671e+00    7.428529e-01   9.908183e-03
  2.067882e+00    7.403418e-01   9.882469e-03
  2.070092e+00    7.339605e-01   9.830667e-03
  2.072303e+00    7.569821e-01   9.974458e-03
  2.074513e+00    7.363531e-01   9.828338e-03
  2.076724e+00    7.475175e-01   9.893074e-03
  2.078934e+00    7.645932e-01   9.996320e-03
  2.081145e+00    7.444203e-01   9.854463e-03
  2.083355e+00    7.493061e-01   9.877536e-03
  2.085566e+00    7.549083e-01   9.905397e-03
  2.087776e+00    7.715827e-01   1.000446e-02
  2.089986e+00    7.802052e-01   1.005121e-02
  2.092197e+00    7.566704e-01   9.889384e-03
  2.094407e+00    7.339482e-01   9.730543e-03
  2.096618e+00    7.246905e-01   9.660142e-03
  2.098828e+00    7.291835e-01   9.680771e-03
  2.101039e+00    7.326860e-01   9.695002e-03
  2.103249e+00    7.359359e-01   9.707795e-03
  2.105460e+00    7.273909e-01   9.642272e-03
  2.107670e+00    7.196058e-01   9.581854e-03
  2.109881e+00    7.183489e-01   9.564365e-03
  2.112091e+00    7.235405e-01   9.589900e-03
  2.114301e+00    7.190084e-01   9.551061e-03
  2.116512e+00    7.277145e-01   9.599895e-03
  2.118722e+00    7.181070e-01   9.527516e-03
  2.120933e+00    7.261397e-01   9.571761e-03
  2.123143e+00    7.131444e-01   9.476844e-03
  2.125354e+00    7.323258e-01   9.594833e-03
  2.127564e+00    7.053900e-01   9.408074e-03
  2.129775e+00    7.191166e-01   9.490407e-03
  2.131985e+00    7.242867e-01   9.515340e-03
  2.134196e+00    7.270148e-01   9.524588e-03
  2.136406e+00    7.036687e-01   9.361719e-03
  2.138617e+00    7.162011e-01   9.436220e-03
  2.140827e+00    7.150183e-01   9.444547e-03
  2.143037e+00    7.283590e-01   9.578419e-03
  2.145248e+00    7.084814e-01   9.468853e-03
  2.147458e+00    7.066011e-01   9.471433e-03
  2.149669e+00    7.185836e-01   9.563393e-03
  2.151879e+00    7.052594e-01   9.483560e-03
  2.154090e+00    6.900434e-01   9.387960e-03
  2.156300e+00    7.033427e-01   9.484591e-03
  2.158511e+00    7.059419e-01   9.507446e-03
  2.160721e+00    7.001281e-01   9.473025e-03
  2.162932e+00    7.078706e-01   9.529046e-03
  2.165142e+00    6.965461e-01   9.455524e-03
  2.167352e+00    6.903726e-01   9.416436e-03
  2.169563e+00    6.900659e-01   9.416279e-03
  2.171773e+00    6.991014e-01   9.480186e-03
  2.173984e+00    7.111974e-01   9.563275e-03
  2.176194e+00    6.996647e-01   9.486631e-03
  2.178405e+00    7.172996e-01   9.606152e-03
  2.180615e+00    6.883653e-01   9.411094e-03
  2.182826e+00    7.067761e-01   9.536796e-03
  2.185036e+00    6.985375e-01   9.481116e-03
  2.187247e+00    6.759726e-01   9.326662e-03
  2.189457e+00    6.841963e-01   9.382829e-03
  2.191667e+00    6.782644e-01   9.341877e-03
  2.193878e+00    6.742424e-01   9.313596e-03
  2.196088e+00    6.822851e-01   9.368265e-03
  2.198299e+00    7.068949e-01   9.534626e-03
  2.200509e+00    6.994001e-01   9.482905e-03
  2.202720e+00    7.013896e-01   9.495178e-03
  2.204930e+00    7.056133e-01   9.522497e-03
  2.207141e+00    6.814928e-01   9.357196e-03
  2.209351e+00    6.796809e-01   9.342857e-03
  2.211562e+00    6.932021e-01   9.433700e-03
  2.213772e+00    6.831857e-01   9.309565e-03
  2.215982e+00    6.664634e-01   9.151022e-03
  2.218193e+00    6.656374e-01   9.115923e-03
  2.220403e+00    7.009749e-01   9.329692e-03
  2.222614e+00    7.248710e-01   9.465693e-03
  2.224824e+00    6.972374e-01   9.263780e-03
  2.227035e+00    6.942338e-01   9.226097e-03
  2.229245e+00    6.828570e-01   9.133060e-03
  2.231456e+00    6.799981e-01   9.098211e-03
  2.233666e+00    6.931970e-01   9.170745e-03
  2.235877e+00    6.841145e-01   9.096066e-03
  2.238087e+00    6.762198e-01   9.029875e-03
  2.240298e+00    6.749882e-01   9.007831e-03
  2.242508e+00    6.815878e-01   9.036476e-03
  2.244718e+00    6.882678e-01   9.064619e-03
  2.246929e+00    6.740437e-01   8.955978e-03
  2.249139e+00    6.662886e-01   8.891954e-03
  2.251350e+00    6.690658e-01   8.898721e-03
  2.253560e+00    6.601130e-01   8.827479e-03
  2.255771e+00    6.995271e-01   9.075477e-03
  2.257981e+00    6.951973e-01   9.035953e-03
  2.260192e+00    7.045813e-01   9.085266e-03
  2.262402e+00    7.114382e-01   9.118154e-03
  2.264613e+00    7.004161e-01   9.036116e-03
  2.266823e+00    7.126570e-01   9.103940e-03
  2.269033e+00    7.213812e-01   9.148684e-03
  2.271244e+00    6.978912e-01   8.987841e-03
  2.273454e+00    6.909138e-01   8.932300e-03
  2.275665e+00    6.901525e-01   8.916860e-03
  2.277875e+00    7.111822e-01   9.041392e-03
  2.280086e+00    6.937088e-01   8.919361e-03
  2.282296e+00    6.684012e-01   8.745671e-03
  2.284507e+00    6.755640e-01   8.782128e-03
  2.286717e+00    6.775083e-01   8.785170e-03
  2.288928e+00    6.739439e-01   8.752032e-03
  2.291138e+00    6.644695e-01   8.680819e-03
  2.293348e+00    6.635666e-01   8.665316e-03
  2.295559e+00    6.669389e-01   8.677914e-03
  2.297769e+00    6.571911e-01   8.605012e-03
  2.299980e+00    6.468566e-01   8.527786e-03
  2.302190e+00    6.510810e-01   8.546472e-03
  2.304401e+00    6.515983e-01   8.540551e-03
  2.306611e+00    6.635820e-01   8.609454e-03
  2.308822e+00    6.647411e-01   8.608490e-03
  2.311032e+00    6.740374e-01   8.661914e-03
  2.313243e+00    6.651717e-01   8.598424e-03
  2.315453e+00    6.425432e-01   8.443369e-03
  2.317663e+00    6.346301e-01   8.382172e-03
  2.319874e+00    6.327587e-01   8.361168e-03
  2.322084e+00    6.494907e-01   8.461995e-03
  2.324295e+00    6.563560e-01   8.498319e-03
  2.326505e+00    6.536752e-01   8.471816e-03
  2.328716e+00    6.531128e-01   8.459575e-03
  2.330926e+00    6.403628e-01   8.367809e-03
  2.333137e+00    6.406820e-01   8.361536e-03
  2.335347e+00    6.468084e-01   8.392490e-03
  2.337558e+00    6.433774e-01   8.361979e-03
  2.339768e+00    6.334697e-01   8.288786e-03
  2.341979e+00    6.561072e-01   8.427126e-03
  2.344189e+00    6.482369e-01   8.367970e-03
  2.346399e+00    6.418213e-01   8.317924e-03
  2.348610e+00    6.206148e-01   8.170997e-03
  2.350820e+00    6.288437e-01   8.216833e-03
  2.353031e+00    6.435997e-01   8.304342e-03
  2.355241e+00    6.377153e-01   8.258213e-03
  2.357452e+00    6.331122e-01   8.219928e-03
  2.359662e+00    6.273342e-01   8.174142e-03
  2.361873e+00    6.358415e-01   8.221094e-03
  2.364083e+00    6.400852e-01   8.240435e-03
  2.366294e+00    6.341674e-01   8.194110e-03
  2.368504e+00    6.467543e-01   8.266818e-03
  2.370714e+00    6.320604e-01   8.164287e-03
  2.372925e+00    6.281930e-01   8.131178e-03
  2.375135e+00    6.212513e-01   8.078109e-03
  2.377346e+00    6.203419e-01   8.064260e-03
  2.379556e+00    6.224839e-01   8.070277e-03
  2.381767e+00    6.134624e-01   8.003775e-03
  2.383977e+00    6.120384e-01   7.986601e-03
  2.386188e+00    6.175315e-01   8.014449e-03
  2.388398e+00    6.146844e-01   7.988033e-03
  2.390609e+00    6.073810e-01   7.932769e-03
  2.392819e+00    6.093326e-01   7.937760e-03
  2.395029e+00    6.114287e-01   7.943784e-03
  2.397240e+00    6.287686e-01   8.047655e-03
  2.399450e+00    6.243016e-01   8.011170e-03
  2.401661e+00    6.107943e-01   7.916350e-03
  2.403871e+00    6.163279e-01   7.944336e-03
  2.406082e+00    5.967240e-01   7.809619e-03
  2.408292e+00    6.203418e-01   7.954799e-03
  2.410503e+00    6.216336e-01   7.955508e-03
  2.412713e+00    6.172444e-01   7.919515e-03
  2.414924e+00    6.105186e-01   7.868747e-03
  2.417134e+00    5.988941e-01   7.785862e-03
  2.419344e+00    6.012600e-01   7.793844e-03
  2.421555e+00    5.993816e-01   7.774150e-03
  2.423765e+00    6.013302e-01   7.779376e-03
  2.425976e+00    6.005481e-01   7.766506e-03
  2.428186e+00    5.925737e-01   7.707581e-03
  2.430397e+00    6.091511e-01   7.807097e-03
  2.432607e+00    6.077037e-01   7.790475e-03
  2.434818e+00    5.823509e-01   7.618786e-03
  2.437028e+00    5.934552e-01   7.683903e-03
  2.439239e+00    5.948882e-01   7.685533e-03
  2.441449e+00    6.062925e-01   7.751565e-03
  2.443659e+00    5.916051e-01   7.649753e-03
  2.445870e+00    5.892906e-01   7.647014e-03
  2.448080e+00    5.713115e-01   7.563912e-03
  2.450291e+00    5.857056e-01   7.675319e-03
  2.452501e+00    5.897485e-01   7.713072e-03
  2.454712e+00    5.827391e-01   7.675595e-03
  2.456922e+00    5.895183e-01   7.726838e-03
  2.459133e+00    5.652954e-01   7.571858e-03
  2.461343e+00    5.560800e-01   7.514192e-03
  2.463554e+00    5.578719e-01   7.529729e-03
  2.465764e+00    5.554031e-01   7.516176e-03
  2.467975e+00    5.574991e-01   7.532611e-03
  2.470185e+00    5.568891e-01   7.530753e-03
  2.472395e+00    5.421925e-01   7.431927e-03
  2.474606e+00    5.493927e-01   7.482647e-03
  2.476816e+00    5.619306e-01   7.568306e-03
  2.479027e+00    5.490098e-01   7.481637e-03
  2.481237e+00    5.560172e-01   7.529506e-03
  2.483448e+00    5.640569e-01   7.584048e-03
  2.485658e+00    5.694188e-01   7.619881e-03
  2.487869e+00    5.610605e-01   7.563787e-03
  2.490079e+00    5.403408e-01   7.422284e-03
  2.492290e+00    5.615383e-01   7.566026e-03
  2.494500e+00    5.549138e-01   7.520525e-03
  2.496710e+00    5.411814e-01   7.426198e-03
  2.498921e+00    5.476273e-01   7.469273e-03
  2.501131e+00    5.469962e-01   7.464018e-03
  2.503342e+00    5.408732e-01   7.420846e-03
  2.505552e+00    5.332355e-01   7.367146e-03
  2.507763e+00    5.218394e-01   7.286577e-03
  2.509973e+00    5.289503e-01   7.334664e-03
  2.512184e+00    5.267373e-01   7.317693e-03
  2.514394e+00    5.327080e-01   7.349615e-03
  2.516605e+00    5.396010e-01   7.349402e-03
  2.518815e+00    5.275447e-01   7.238453e-03
  2.521025e+00    5.390570e-01   7.295769e-03
  2.523236e+00    5.516190e-01   7.361877e-03
  2.525446e+00    5.436144e-01   7.292389e-03
  2.527657e+00    5.527958e-01   7.338736e-03
  2.529867e+00    5.398788e-01   7.238113e-03
  2.532078e+00    5.531210e-01   7.310899e-03
  2.534288e+00    5.432500e-01   7.231264e-03
  2.536499e+00    5.266510e-01   7.107949e-03
  2.538709e+00    5.268225e-01   7.098098e-03
  2.540920e+00    5.200926e-01   7.042000e-03
  2.543130e+00    5.227337e-01   7.049519e-03
  2.545340e+00    5.220563e-01   7.034887e-03
  2.547551e+00    5.193069e-01   7.006434e-03
  2.549761e+00    5.170277e-01   6.981506e-03
  2.551972e+00    5.269367e-01   7.038699e-03
  2.554182e+00    5.158905e-01   6.955400e-03
  2.556393e+00    5.252044e-01   7.008766e-03
  2.558603e+00    5.322083e-01   7.046174e-03
  2.560814e+00    5.317764e-01   7.034517e-03
  2.563024e+00    5.309192e-01   7.020164e-03
  2.565235e+00    5.227647e-01   6.956520e-03
  2.567445e+00    5.220293e-01   6.942020e-03
  2.569656e+00    5.292348e-01   6.979916e-03
  2.571866e+00    5.166958e-01   6.887413e-03
  2.574076e+00    5.129964e-01   6.853459e-03
  2.576287e+00    5.157208e-01   6.863316e-03
  2.578497e+00    5.037541e-01   6.775477e-03
  2.580708e+00    5.084509e-01   6.798942e-03
  2.582918e+00    5.195499e-01   6.864953e-03
  2.585129e+00    5.173756e-01   6.842816e-03
  2.587339e+00    5.231327e-01   6.873021e-03
  2.589550e+00    5.143228e-01   6.807357e-03
  2.591760e+00    5.078896e-01   6.756927e-03
  2.593971e+00    5.154727e-01   6.799642e-03
  2.596181e+00    4.955837e-01   6.661037e-03
  2.598391e+00    5.122414e-01   6.766860e-03
  2.600602e+00    5.212092e-01   6.819863e-03
  2.602812e+00    5.109504e-01   6.744869e-03
  2.605023e+00    5.132022e-01   6.752502e-03
  2.607233e+00    5.207708e-01   6.794898e-03
  2.609444e+00    5.110330e-01   6.723807e-03
  2.611654e+00    5.067800e-01   6.688458e-03
  2.613865e+00    5.038696e-01   6.662189e-03
  2.616075e+00    5.158036e-01   6.733431e-03
  2.618286e+00    5.119097e-01   6.700921e-03
  2.620496e+00    4.960868e-01   6.589915e-03
  2.622706e+00    5.105853e-01   6.679730e-03
  2.624917e+00    5.159218e-01   6.708634e-03
  2.627127e+00    5.090643e-01   6.658157e-03
  2.629338e+00    5.047574e-01   6.623916e-03
  2.631548e+00    5.208399e-01   6.722355e-03
  2.633759e+00    5.117941e-01   6.656506e-03
  2.635969e+00    5.106316e-01   6.642197e-03
  2.638180e+00    5.035294e-01   6.588851e-03
  2.640390e+00    4.987721e-01   6.551058e-03
  2.642601e+00    4.958770e-01   6.525385e-03
  2.644811e+00    5.070857e-01   6.591596e-03
  2.647021e+00    5.095770e-01   6.601150e-03
  2.649232e+00    4.973032e-01   6.514460e-03
  2.651442e+00    5.107238e-01   6.595197e-03
  2.653653e+00    5.002319e-01   6.520308e-03
  2.655863e+00    4.924033e-01   6.462428e-03
  2.658074e+00    5.107912e-01   6.575300e-03
  2.660284e+00    5.059355e-01   6.537567e-03
  2.662495e+00    4.944722e-01   6.456337e-03
  2.664705e+00    5.026788e-01   6.503091e-03
  2.666916e+00    5.005478e-01   6.482809e-03
  2.669126e+00    4.906146e-01   6.411723e-03
  2.671337e+00    5.102442e-01   6.532066e-03
  2.673547e+00    4.936243e-01   6.418427e-03
  2.675757e+00    4.953932e-01   6.423467e-03
  2.677968e+00    5.066001e-01   6.489109e-03
  2.680178e+00    4.908318e-01   6.380951e-03
  2.682389e+00    4.966158e-01   6.412005e-03
  2.684599e+00    5.027715e-01   6.445379e-03
  2.686810e+00    5.079830e-01   6.471987e-03
  2.689020e+00    5.023347e-01   6.429557e-03
  2.691231e+00    4.999562e-01   6.407954e-03
  2.693441e+00    5.013868e-01   6.410915e-03
  2.695652e+00    4.981905e-01   6.383867e-03
  2.697862e+00    5.050309e-01   6.421109e-03
  2.700072e+00    5.067952e-01   6.426140e-03
  2.702283e+00    4.964720e-01   6.354083e-03
  2.704493e+00    4.958132e-01   6.343539e-03
  2.706704e+00    4.795600e-01   6.232357e-03
  2.708914e+00    4.802799e-01   6.231109e-03
  2.711125e+00    4.848980e-01   6.254752e-03
  2.713335e+00    4.933472e-01   6.302902e-03
  2.715546e+00    4.956812e-01   6.311266e-03
  2.717756e+00    4.880393e-01   6.256538e-03
  2.719967e+00    4.873315e-01   6.245777e-03
  2.722177e+00    4.941063e-01   6.282862e-03
  2.724387e+00    4.888717e-01   6.243371e-03
  2.726598e+00    4.923368e-01   6.259345e-03
  2.728808e+00    4.795451e-01   6.171397e-03
  2.731019e+00    4.885484e-01   6.222904e-03
  2.733229e+00    4.876840e-01   6.211560e-03
  2.735440e+00    4.975921e-01   6.268005e-03
  2.737650e+00    4.804459e-01   6.153065e-03
  2.739861e+00    4.840188e-01   6.169821e-03
  2.742071e+00    4.885847e-01   6.193086e-03
  2.744282e+00    4.803347e-01   6.134335e-03
  2.746492e+00    4.845505e-01   6.155154e-03
  2.748702e+00    4.873388e-01   6.166898e-03
  2.750913e+00    4.896466e-01   6.175635e-03
  2.753123e+00    4.837584e-01   6.132278e-03
  2.755334e+00    4.898457e-01   6.164587e-03
  2.757544e+00    4.919229e-01   6.171853e-03
  2.759755e+00    4.884605e-01   6.144161e-03
  2.761965e+00    4.814844e-01   6.094133e-03
  2.764176e+00    4.837196e-01   6.102245e-03
  2.766386e+00    4.918665e-01   6.147561e-03
  2.768597e+00    4.961142e-01   6.168096e-03
  2.770807e+00    4.766871e-01   6.040249e-03
  2.773017e+00    4.893292e-01   6.113798e-03
  2.775228e+00    4.792033e-01   6.044411e-03
  2.777438e+00    4.779709e-01   6.030849e-03
  2.779649e+00    4.753653e-01   6.008490e-03
  2.781859e+00    4.920687e-01   6.107301e-03
  2.784070e+00    4.857072e-01   6.061776e-03
  2.786280e+00    4.942004e-01   6.108690e-03
  2.788491e+00    4.847925e-01   6.044378e-03
  2.790701e+00    4.908006e-01   6.075982e-03
  2.792912e+00    4.881136e-01   6.053291e-03
  2.795122e+00    4.778673e-01   5.983688e-03
  2.797333e+00    4.780793e-01   5.979416e-03
  2.799543e+00    4.804756e-01   5.988509e-03
  2.801753e+00    4.824289e-01   5.994764e-03
  2.803964e+00    4.784280e-01   5.964172e-03
  2.806174e+00    4.732301e-01   5.925560e-03
  2.808385e+00    4.748866e-01   5.929109e-03
  2.810595e+00    4.812117e-01   5.961554e-03
  2.812806e+00    4.824336e-01   5.962474e-03
  2.815016e+00    4.752761e-01   5.913307e-03
  2.817227e+00    4.875866e-01   6.015694e-03
  2.819437e+00    4.902681e-01   6.043511e-03
  2.821648e+00    4.726975e-01   5.936488e-03
  2.823858e+00    4.769821e-01   5.968704e-03
  2.826068e+00    4.702686e-01   5.931517e-03
  2.828279e+00    4.709111e-01   5.939594e-03
  2.830489e+00    4.738191e-01   5.961251e-03
  2.832700e+00    4.671135e-01   5.921467e-03
  2.834910e+00    4.779408e-01   5.991761e-03
  2.837121e+00    4.808609e-01   6.011778e-03
  2.839331e+00    4.739535e-01   5.969682e-03
  2.841542e+00    4.760013e-01   5.983581e-03
  2.843752e+00    4.656993e-01   5.919256e-03
  2.845963e+00    4.768493e-01   5.990093e-03
  2.848173e+00    4.800891e-01   6.010492e-03
  2.850383e+00    4.777538e-01   5.996168e-03
  2.852594e+00    4.814119e-01   6.018987e-03
  2.854804e+00    4.779155e-01   5.996587e-03
  2.857015e+00    4.776761e-01   5.994642e-03
  2.859225e+00    4.756847e-01   5.981890e-03
  2.861436e+00    4.673796e-01   5.928774e-03
  2.863646e+00    4.678603e-01   5.931874e-03
  2.865857e+00    4.638759e-01   5.906879e-03
  2.868067e+00    4.816795e-01   6.019401e-03
  2.870278e+00    4.581508e-01   5.870217e-03
  2.872488e+00    4.590501e-01   5.874789e-03
  2.874698e+00    4.697013e-01   5.941513e-03
  2.876909e+00    4.667086e-01   5.921224e-03
  2.879119e+00    4.727187e-01   5.957582e-03
  2.881330e+00    4.724490e-01   5.954404e-03
  2.883540e+00    4.665971e-01   5.916006e-03
  2.885751e+00    4.760524e-01   5.973997e-03
  2.887961e+00    4.637887e-01   5.894649e-03
  2.890172e+00    4.675529e-01   5.916904e-03
  2.892382e+00    4.605418e-01   5.870577e-03
  2.894593e+00    4.704900e-01   5.931795e-03
  2.896803e+00    4.680974e-01   5.914716e-03
  2.899014e+00    4.584180e-01   5.851321e-03
  2.901224e+00    4.737381e-01   5.946276e-03
  2.903434e+00    4.651868e-01   5.890412e-03
  2.905645e+00    4.621269e-01   5.868773e-03
  2.907855e+00    4.736622e-01   5.939437e-03
  2.910066e+00    4.572389e-01   5.833496e-03
  2.912276e+00    4.586280e-01   5.840211e-03
  2.914487e+00    4.684756e-01   5.900106e-03
  2.916697e+00    4.630384e-01   5.863534e-03
  2.918908e+00    4.598083e-01   5.841036e-03
  2.921118e+00    4.628581e-01   5.857667e-03
  2.923329e+00    4.696889e-01   5.898382e-03
  2.925539e+00    4.635836e-01   5.857637e-03
  2.927749e+00    4.605764e-01   5.836277e-03
  2.929960e+00    4.645192e-01   5.858405e-03
  2.932170e+00    4.625016e-01   5.843338e-03
  2.934381e+00    4.526144e-01   5.778106e-03
  2.936591e+00    4.536622e-01   5.782207e-03
  2.938802e+00    4.556072e-01   5.791904e-03
  2.941012e+00    4.537108e-01   5.777491e-03
  2.943223e+00    4.598693e-01   5.813858e-03
  2.945433e+00    4.618636e-01   5.822699e-03
  2.947644e+00    4.463714e-01   5.720127e-03
  2.949854e+00    4.526027e-01   5.755639e-03
  2.952064e+00    4.699154e-01   5.860395e-03
  2.954275e+00    4.659944e-01   5.831454e-03
  2.956485e+00    4.519090e-01   5.738460e-03
  2.958696e+00    4.677929e-01   5.833990e-03
  2.960906e+00    4.671498e-01   5.825753e-03
  2.963117e+00    4.545913e-01   5.742433e-03
  2.965327e+00    4.489215e-01   5.702637e-03
  2.967538e+00    4.483601e-01   5.696156e-03
  2.969748e+00    4.634320e-01   5.788263e-03
  2.971959e+00    4.774275e-01   5.871803e-03
  2.974169e+00    4.860746e-01   5.922073e-03
  2.976379e+00    4.783655e-01   5.871925e-03
  2.978590e+00    4.841588e-01   5.904150e-03
  2.980800e+00    4.631043e-01   5.771520e-03
  2.983011e+00    4.456569e-01   5.658984e-03
  2.985221e+00    4.550141e-01   5.714912e-03
  2.987432e+00    4.714813e-01   5.814233e-03
  2.989642e+00    4.645639e-01   5.768792e-03
  2.991853e+00    4.558960e-01   5.711415e-03
  2.994063e+00    4.695241e-01   5.793195e-03
  2.996274e+00    4.659145e-01   5.767664e-03
  2.998484e+00    4.681851e-01   5.778964e-03
  3.000694e+00    4.625352e-01   5.740497e-03
  3.002905e+00    4.556830e-01   5.694863e-03
  3.005115e+00    4.707384e-01   5.785164e-03
  3.007326e+00    4.422034e-01   5.603947e-03
  3.009536e+00    4.507255e-01   5.654444e-03
  3.011747e+00    4.678317e-01   5.757775e-03
  3.013957e+00    4.707842e-01   5.772694e-03
  3.016168e+00    4.496900e-01   5.638636e-03
  3.018378e+00    4.517159e-01   5.648270e-03
  3.020589e+00    4.626555e-01   5.713020e-03
  3.022799e+00    4.535571e-01   5.653401e-03
  3.025010e+00    4.556361e-01   5.663090e-03
  3.027220e+00    4.514992e-01   5.634214e-03
  3.029430e+00    4.653569e-01   5.716735e-03
  3.031641e+00    4.500240e-01   5.618641e-03
  3.033851e+00    4.530225e-01   5.633798e-03
  3.036062e+00    4.629362e-01   5.692295e-03
  3.038272e+00    4.494082e-01   5.604945e-03
  3.040483e+00    4.412027e-01   5.550340e-03
  3.042693e+00    4.502958e-01   5.603995e-03
  3.044904e+00    4.640968e-01   5.685142e-03
  3.047114e+00    4.604782e-01   5.658085e-03
  3.049325e+00    4.493651e-01   5.584999e-03
  3.051535e+00    4.646316e-01   5.674612e-03
  3.053745e+00    4.615402e-01   5.650892e-03
  3.055956e+00    4.702201e-01   5.699126e-03
  3.058166e+00    4.580940e-01   5.620861e-03
  3.060377e+00    4.619957e-01   5.639904e-03
  3.062587e+00    4.459731e-01   5.536650e-03
  3.064798e+00    4.484891e-01   5.547988e-03
  3.067008e+00    4.474590e-01   5.536892e-03
  3.069219e+00    4.506786e-01   5.552253e-03
  3.071429e+00    4.637402e-01   5.628584e-03
  3.073640e+00    4.537898e-01   5.564528e-03
  3.075850e+00    4.476975e-01   5.523460e-03
  3.078060e+00    4.601853e-01   5.596809e-03
  3.080271e+00    4.653545e-01   5.624651e-03
  3.082481e+00    4.474238e-01   5.511760e-03
  3.084692e+00    4.551277e-01   5.555607e-03
  3.086902e+00    4.592281e-01   5.577290e-03
  3.089113e+00    4.583142e-01   5.568139e-03
  3.091323e+00    4.495531e-01   5.511278e-03
  3.093534e+00    4.600539e-01   5.571844e-03
  3.095744e+00    4.643055e-01   5.594102e-03
  3.097955e+00    4.570973e-01   5.546937e-03
  3.100165e+00    4.520304e-01   5.512736e-03
  3.102375e+00    4.531116e-01   5.515894e-03
  3.104586e+00    4.435863e-01   5.454123e-03
  3.106796e+00    4.483543e-01   5.479839e-03
  3.109007e+00    4.543130e-01   5.512857e-03
  3.111217e+00    4.665622e-01   5.582938e-03
  3.113428e+00    4.607999e-01   5.544867e-03
  3.115638e+00    4.490110e-01   5.470250e-03
  3.117849e+00    4.526355e-01   5.488507e-03
  3.120059e+00    4.501567e-01   5.469980e-03
  3.122270e+00    4.547278e-01   5.494391e-03
  3.124480e+00    4.521323e-01   5.474980e-03
  3.126691e+00    4.551855e-01   5.489814e-03
  3.128901e+00    4.638737e-01   5.538782e-03
  3.131111e+00    4.494634e-01   5.448223e-03
  3.133322e+00    4.515091e-01   5.457111e-03
  3.135532e+00    4.564765e-01   5.483604e-03
  3.137743e+00    4.605241e-01   5.504311e-03
  3.139953e+00    4.729469e-01   5.574281e-03
  3.142164e+00    4.373341e-01   5.372230e-03
  3.144374e+00    4.369528e-01   5.398112e-03
  3.146585e+00    4.497646e-01   5.491362e-03
  3.148795e+00    4.582160e-01   5.553681e-03
  3.151006e+00    4.539956e-01   5.536715e-03
  3.153216e+00    4.609658e-01   5.586348e-03
  3.155426e+00    4.361896e-01   5.440419e-03
  3.157637e+00    4.467672e-01   5.511553e-03
  3.159847e+00    4.382063e-01   5.463343e-03
  3.162058e+00    4.452824e-01   5.511732e-03
  3.164268e+00    4.469359e-01   5.526064e-03
  3.166479e+00    4.444816e-01   5.514542e-03
  3.168689e+00    4.468430e-01   5.532560e-03
  3.170900e+00    4.483144e-01   5.544864e-03
  3.173110e+00    4.533888e-01   5.579075e-03
  3.175321e+00    4.536126e-01   5.583000e-03
  3.177531e+00    4.404427e-01   5.504091e-03
  3.179741e+00    4.410385e-01   5.509904e-03
  3.181952e+00    4.307041e-01   5.447057e-03
  3.184162e+00    4.384174e-01   5.497801e-03
  3.186373e+00    4.522430e-01   5.585443e-03
  3.188583e+00    4.594445e-01   5.631586e-03
  3.190794e+00    4.389097e-01   5.506042e-03
  3.193004e+00    4.481133e-01   5.564734e-03
  3.195215e+00    4.463871e-01   5.555518e-03
  3.197425e+00    4.472503e-01   5.562128e-03
  3.199636e+00    4.432759e-01   5.536583e-03
  3.201846e+00    4.428536e-01   5.533330e-03
  3.204056e+00    4.434415e-01   5.537906e-03
  3.206267e+00    4.472018e-01   5.562185e-03
  3.208477e+00    4.418846e-01   5.529958e-03
  3.210688e+00    4.346806e-01   5.485544e-03
  3.212898e+00    4.337329e-01   5.480133e-03
  3.215109e+00    4.299645e-01   5.457024e-03
  3.217319e+00    4.430273e-01   5.539942e-03
  3.219530e+00    4.513816e-01   5.592337e-03
  3.221740e+00    4.462720e-01   5.561167e-03
  3.223951e+00    4.367017e-01   5.501691e-03
  3.226161e+00    4.353503e-01   5.493356e-03
  3.228372e+00    4.245520e-01   5.425331e-03
  3.230582e+00    4.418430e-01   5.534842e-03
  3.232792e+00    4.370810e-01   5.505165e-03
  3.235003e+00    4.246636e-01   5.426644e-03
  3.237213e+00    4.396873e-01   5.521913e-03
  3.239424e+00    4.221159e-01   5.410445e-03
  3.241634e+00    4.347934e-01   5.491218e-03
  3.243845e+00    4.352385e-01   5.494084e-03
  3.246055e+00    4.410330e-01   5.530284e-03
  3.248266e+00    4.191939e-01   5.391822e-03
  3.250476e+00    4.272426e-01   5.443010e-03
  3.252687e+00    4.265485e-01   5.438525e-03
  3.254897e+00    4.130157e-01   5.351436e-03
  3.257107e+00    4.303879e-01   5.462496e-03
  3.259318e+00    4.223076e-01   5.410761e-03
  3.261528e+00    4.249626e-01   5.427585e-03
  3.263739e+00    4.415662e-01   5.532037e-03
  3.265949e+00    4.274367e-01   5.442688e-03
  3.268160e+00    4.405975e-01   5.525419e-03
  3.270370e+00    4.265989e-01   5.436423e-03
  3.272581e+00    4.388097e-01   5.513399e-03
  3.274791e+00    4.340013e-01   5.482573e-03
  3.277002e+00    4.330489e-01   5.476001e-03
  3.279212e+00    4.219780e-01   5.405169e-03
  3.281422e+00    4.176736e-01   5.376934e-03
  3.283633e+00    4.316207e-01   5.465300e-03
  3.285843e+00    4.260623e-01   5.429658e-03
  3.288054e+00    4.325907e-01   5.470142e-03
  3.290264e+00    4.339183e-01   5.478234e-03
  3.292475e+00    4.345337e-01   5.481247e-03
  3.294685e+00    4.342662e-01   5.478944e-03
  3.296896e+00    4.191786e-01   5.382161e-03
  3.299106e+00    4.259521e-01   5.424912e-03
  3.301317e+00    4.212868e-01   5.394095e-03
  3.303527e+00    4.268562e-01   5.429165e-03
  3.305737e+00    4.269234e-01   5.428543e-03
  3.307948e+00    4.329455e-01   5.466013e-03
  3.310158e+00    4.307164e-01   5.451079e-03
  3.312369e+00    4.367607e-01   5.488277e-03
  3.314579e+00    4.338150e-01   5.468836e-03
  3.316790e+00    4.420363e-01   5.519691e-03
  3.319000e+00    4.254898e-01   5.414196e-03
  3.321211e+00    4.344820e-01   5.470500e-03
  3.323421e+00    4.273571e-01   5.424251e-03
  3.325632e+00    4.263393e-01   5.416889e-03
  3.327842e+00    4.286323e-01   5.430520e-03
  3.330052e+00    4.197040e-01   5.372589e-03
  3.332263e+00    4.351777e-01   5.469712e-03
  3.334473e+00    4.237321e-01   5.396379e-03
  3.336684e+00    4.270343e-01   5.416089e-03
  3.338894e+00    4.225208e-01   5.386557e-03
  3.341105e+00    4.281102e-01   5.420853e-03
  3.343315e+00    4.183649e-01   5.357652e-03
  3.345526e+00    4.360660e-01   5.468900e-03
  3.347736e+00    4.281548e-01   5.417657e-03
  3.349947e+00    4.196352e-01   5.362542e-03
  3.352157e+00    4.206972e-01   5.368148e-03
  3.354368e+00    4.213219e-01   5.370842e-03
  3.356578e+00    4.253218e-01   5.395249e-03
  3.358788e+00    4.237933e-01   5.384192e-03
  3.360999e+00    4.316311e-01   5.432513e-03
  3.363209e+00    4.292435e-01   5.416422e-03
  3.365420e+00    4.344004e-01   5.447315e-03
  3.367630e+00    4.189428e-01   5.348519e-03
  3.369841e+00    4.095786e-01   5.286971e-03
  3.372051e+00    4.272368e-01   5.397749e-03
  3.374262e+00    4.218245e-01   5.360974e-03
  3.376472e+00    4.308380e-01   5.415487e-03
  3.378683e+00    4.295590e-01   5.404896e-03
  3.380893e+00    4.316823e-01   5.415830e-03
  3.383103e+00    4.165609e-01   5.317448e-03
  3.385314e+00    4.322368e-01   5.414297e-03
  3.387524e+00    4.082213e-01   5.259032e-03
  3.389735e+00    4.061009e-01   5.242738e-03
  3.391945e+00    4.080176e-01   5.251436e-03
  3.394156e+00    4.215989e-01   5.333856e-03
  3.396366e+00    4.171371e-01   5.302152e-03
  3.398577e+00    4.116825e-01   5.264306e-03
  3.400787e+00    4.113455e-01   5.274079e-03
  3.402998e+00    4.093703e-01   5.299420e-03
  3.405208e+00    4.083792e-01   5.313739e-03
  3.407418e+00    4.131645e-01   5.360810e-03
  3.409629e+00    4.056365e-01   5.325791e-03
  3.411839e+00    3.943020e-01   5.262567e-03
  3.414050e+00    4.018351e-01   5.323630e-03
  3.416260e+00    3.976429e-01   5.305487e-03
  3.418471e+00    3.931890e-01   5.285101e-03
  3.420681e+00    4.000930e-01   5.339873e-03
  3.422892e+00    3.953746e-01   5.316343e-03
  3.425102e+00    3.968259e-01   5.333968e-03
  3.427313e+00    3.863518e-01   5.270296e-03
  3.429523e+00    3.825171e-01   5.251085e-03
  3.431733e+00    3.832637e-01   5.262832e-03
  3.433944e+00    3.806856e-01   5.251557e-03
  3.436154e+00    3.853345e-01   5.289804e-03
  3.438365e+00    3.850471e-01   5.293755e-03
  3.440575e+00    4.012259e-01   5.409942e-03
  3.442786e+00    3.929819e-01   5.359786e-03
  3.444996e+00    3.787872e-01   5.267614e-03
  3.447207e+00    3.634700e-01   5.165207e-03
  3.449417e+00    3.700395e-01   5.252402e-03
  3.451628e+00    3.860453e-01   5.394910e-03
  3.453838e+00    3.914771e-01   5.454582e-03
  3.456049e+00    3.777006e-01   5.382020e-03
  3.458259e+00    3.606556e-01   5.280909e-03
  3.460469e+00    3.658167e-01   5.338319e-03
  3.462680e+00    3.734807e-01   5.413220e-03
  3.464890e+00    3.584036e-01   5.320424e-03
  3.467101e+00    3.753186e-01   5.462159e-03
  3.469311e+00    3.993247e-01   5.651338e-03
  3.471522e+00    4.004561e-01   5.676280e-03
  3.473732e+00    3.977990e-01   5.673760e-03
  3.475943e+00    4.215489e-01   5.857162e-03
  3.478153e+00    4.147528e-01   5.825724e-03
  3.480364e+00    4.171824e-01   5.858380e-03
  3.482574e+00    4.191849e-01   5.888021e-03
  3.484784e+00    4.308387e-01   5.984550e-03
  3.486995e+00    4.340903e-01   6.022520e-03
  3.489205e+00    4.370795e-01   6.058132e-03
  3.491416e+00    4.519043e-01   6.175345e-03
  3.493626e+00    4.500390e-01   6.177452e-03
  3.495837e+00    4.529282e-01   6.212203e-03
  3.498047e+00    4.551864e-01   6.242300e-03
  3.500258e+00    4.627956e-01   6.309058e-03
  3.502468e+00    4.621621e-01   6.319277e-03
  3.504679e+00    4.692232e-01   6.381951e-03
  3.506889e+00    4.913651e-01   6.545655e-03
  3.509099e+00    4.865068e-01   6.527803e-03
  3.511310e+00    5.047693e-01   6.664074e-03
  3.513520e+00    5.047932e-01   6.679005e-03
  3.515731e+00    5.011553e-01   6.669466e-03
  3.517941e+00    5.177789e-01   6.793972e-03
  3.520152e+00    5.125390e-01   6.774061e-03
  3.522362e+00    5.147421e-01   6.803317e-03
  3.524573e+00    5.135063e-01   6.809483e-03
  3.526783e+00    5.239974e-01   6.892245e-03
  3.528994e+00    5.132555e-01   6.833444e-03
  3.531204e+00    5.224494e-01   6.906814e-03
  3.533414e+00    5.413990e-01   7.043234e-03
  3.535625e+00    5.510511e-01   7.118379e-03
  3.537835e+00    5.427803e-01   7.076973e-03
  3.540046e+00    5.392678e-01   7.063016e-03
  3.542256e+00    5.616604e-01   7.215870e-03
  3.544467e+00    5.365207e-01   7.060169e-03
  3.546677e+00    5.538481e-01   7.180978e-03
  3.548888e+00    5.351040e-01   7.065901e-03
  3.551098e+00    5.384778e-01   7.095436e-03
  3.553309e+00    5.417147e-01   7.124951e-03
  3.555519e+00    5.444485e-01   7.154275e-03
  3.557729e+00    5.384373e-01   7.126441e-03
  3.559940e+00    5.414631e-01   7.158026e-03
  3.562150e+00    5.427238e-01   7.178155e-03
  3.564361e+00    5.365352e-01   7.150408e-03
  3.566571e+00    5.529217e-01   7.272865e-03
  3.568782e+00    5.430534e-01   7.221860e-03
  3.570992e+00    5.311742e-01   7.156125e-03
  3.573203e+00    5.451667e-01   7.264028e-03
  3.575413e+00    5.566946e-01   7.354476e-03
  3.577624e+00    5.545742e-01   7.354829e-03
  3.579834e+00    5.590748e-01   7.398772e-03
  3.582045e+00    5.469768e-01   7.332481e-03
  3.584255e+00    5.252330e-01   7.199163e-03
  3.586465e+00    5.499307e-01   7.380576e-03
  3.588676e+00    5.503244e-01   7.397616e-03
  3.590886e+00    5.424917e-01   7.358583e-03
  3.593097e+00    5.373358e-01   7.338028e-03
  3.595307e+00    5.408838e-01   7.376235e-03
  3.597518e+00    5.251812e-01   7.282441e-03
  3.599728e+00    5.327957e-01   7.349078e-03
  3.601939e+00    5.461820e-01   7.455076e-03
  3.604149e+00    5.470181e-01   7.475296e-03
  3.606360e+00    5.534393e-01   7.533456e-03
  3.608570e+00    5.351732e-01   7.422238e-03
  3.610780e+00    5.515216e-01   7.545995e-03
  3.612991e+00    5.351025e-01   7.442828e-03
  3.615201e+00    5.317438e-01   7.429196e-03
  3.617412e+00    5.496011e-01   7.560271e-03
  3.619622e+00    5.469073e-01   7.547799e-03
  3.621833e+00    5.294803e-01   7.433201e-03
  3.624043e+00    5.483997e-01   7.574464e-03
  3.626254e+00    5.449118e-01   7.560173e-03
  3.628464e+00    5.377766e-01   7.521492e-03
  3.630675e+00    5.476676e-01   7.604685e-03
  3.632885e+00    5.272994e-01   7.476260e-03
  3.635095e+00    5.302564e-01   7.511550e-03
  3.637306e+00    5.344947e-01   7.555893e-03
  3.639516e+00    5.407093e-01   7.614321e-03
  3.641727e+00    5.388064e-01   7.615546e-03
  3.643937e+00    5.647140e-01   7.811477e-03
  3.646148e+00    5.546551e-01   7.756466e-03
  3.648358e+00    5.538210e-01   7.765819e-03
  3.650569e+00    5.395846e-01   7.680173e-03
  3.652779e+00    5.365514e-01   7.673359e-03
  3.654990e+00    5.389071e-01   7.705172e-03
  3.657200e+00    5.353660e-01   7.694753e-03
  3.659410e+00    5.715452e-01   7.965999e-03
  3.661621e+00    5.563621e-01   7.874954e-03
  3.663831e+00    5.386352e-01   7.763710e-03
  3.666042e+00    5.314326e-01   7.726755e-03
  3.668252e+00    5.343623e-01   7.763331e-03
  3.670463e+00    5.356401e-01   7.787881e-03
  3.672673e+00    5.350782e-01   7.799283e-03
  3.674884e+00    5.152953e-01   7.668942e-03
  3.677094e+00    5.388999e-01   7.858218e-03
  3.679305e+00    5.433241e-01   7.906181e-03
  3.681515e+00    5.428754e-01   7.918729e-03
  3.683726e+00    5.346646e-01   7.874484e-03
  3.685936e+00    5.464860e-01   7.977017e-03
  3.688146e+00    5.316571e-01   7.883891e-03
  3.690357e+00    5.305488e-01   7.891645e-03
  3.692567e+00    5.153931e-01   7.794084e-03
  3.694778e+00    5.303388e-01   7.922326e-03
  3.696988e+00    5.425814e-01   8.029503e-03
  3.699199e+00    5.406256e-01   8.031525e-03
  3.701409e+00    5.014262e-01   7.750885e-03
  3.703620e+00    5.100692e-01   7.833445e-03
  3.705830e+00    5.185498e-01   7.914603e-03
  3.708041e+00    5.050333e-01   7.827067e-03
  3.710251e+00    5.210460e-01   7.966834e-03
  3.712461e+00    5.366391e-01   8.102152e-03
  3.714672e+00    5.301397e-01   8.069828e-03
  3.716882e+00    5.277603e-01   8.068481e-03
  3.719093e+00    5.175167e-01   8.006880e-03
  3.721303e+00    5.357040e-01   8.163604e-03
  3.723514e+00    5.104489e-01   7.985967e-03
  3.725724e+00    5.316148e-01   8.167224e-03
  3.727935e+00    5.305212e-01   8.176496e-03
  3.730145e+00    5.177537e-01   8.094845e-03
  3.732356e+00    5.438996e-01   8.314684e-03
  3.734566e+00    5.222750e-01   8.165429e-03
  3.736776e+00    5.201532e-01   8.166659e-03
  3.738987e+00    5.186419e-01   8.172587e-03
  3.741197e+00    5.270324e-01   8.256677e-03
  3.743408e+00    5.111456e-01   8.149331e-03
  3.745618e+00    5.088390e-01   8.149114e-03
  3.747829e+00    5.169200e-01   8.231756e-03
  3.750039e+00    5.210168e-01   8.282890e-03
  3.752250e+00    5.274908e-01   8.352952e-03
  3.754460e+00    5.052408e-01   8.193312e-03
  3.756671e+00    5.122665e-01   8.268970e-03
  3.758881e+00    5.224540e-01   8.369647e-03
  3.761091e+00    5.190919e-01   8.362051e-03
  3.763302e+00    4.943340e-01   8.178991e-03
  3.765512e+00    5.024123e-01   8.264704e-03
  3.767723e+00    5.468918e-01   8.642875e-03
  3.769933e+00    5.037237e-01   8.314076e-03
  3.772144e+00    5.374125e-01   8.607742e-03
  3.774354e+00    5.122154e-01   8.423538e-03
  3.776565e+00    4.997853e-01   8.340425e-03
  3.778775e+00    5.146125e-01   8.483388e-03
  3.780986e+00    4.928771e-01   8.322405e-03
  3.783196e+00    5.220008e-01   8.585277e-03
  3.785407e+00    5.513217e-01   8.844608e-03
  3.787617e+00    5.054497e-01   8.489412e-03
  3.789827e+00    5.229328e-01   8.655959e-03
  3.792038e+00    5.077263e-01   8.550121e-03
  3.794248e+00    5.012211e-01   8.516354e-03
  3.796459e+00    5.072982e-01   8.589258e-03
  3.798669e+00    5.080249e-01   8.616982e-03
  3.800880e+00    5.201508e-01   8.741025e-03
  3.803090e+00    5.459294e-01   8.977865e-03
  3.805301e+00    5.080387e-01   8.682956e-03
  3.807511e+00    5.232049e-01   8.834069e-03
  3.809722e+00    5.252035e-01   8.873774e-03
  3.811932e+00    5.419086e-01   9.036900e-03
  3.814142e+00    5.270047e-01   8.935307e-03
  3.816353e+00    5.334722e-01   9.013568e-03
  3.818563e+00    5.027757e-01   8.773615e-03
  3.820774e+00    4.947976e-01   8.726765e-03
  3.822984e+00    5.048807e-01   8.838782e-03
  3.825195e+00    5.320235e-01   9.097801e-03
  3.827405e+00    4.950056e-01   8.799429e-03
  3.829616e+00    4.896119e-01   8.775199e-03
  3.831826e+00    5.041803e-01   8.929082e-03
  3.834037e+00    5.179300e-01   9.075109e-03
  3.836247e+00    5.008422e-01   8.948908e-03
  3.838457e+00    4.820299e-01   8.803911e-03
  3.840668e+00    4.933055e-01   8.931356e-03
  3.842878e+00    5.161699e-01   9.162065e-03
  3.845089e+00    5.076784e-01   9.112270e-03
  3.847299e+00    4.915920e-01   8.992396e-03
  3.849510e+00    5.076508e-01   9.164265e-03
  3.851720e+00    5.322399e-01   9.405810e-03
  3.853931e+00    5.217457e-01   9.332138e-03
  3.856141e+00    5.119528e-01   9.263528e-03
  3.858352e+00    4.891057e-01   9.073555e-03
  3.860562e+00    4.895634e-01   9.097047e-03
  3.862772e+00    4.934405e-01   9.152547e-03
  3.864983e+00    4.934090e-01   9.171934e-03
  3.867193e+00    4.929947e-01   9.187836e-03
  3.869404e+00    4.862864e-01   9.144806e-03
  3.871614e+00    5.071284e-01   9.358917e-03
  3.873825e+00    5.003331e-01   9.316536e-03
  3.876035e+00    4.769118e-01   9.116060e-03
  3.878246e+00    5.181652e-01   9.528581e-03
  3.880456e+00    4.949126e-01   9.341443e-03
  3.882667e+00    5.126511e-01   9.537235e-03
  3.884877e+00    5.193180e-01   9.629677e-03
  3.887087e+00    5.111381e-01   9.584098e-03
  3.889298e+00    4.961203e-01   9.472704e-03
  3.891508e+00    5.117707e-01   9.652159e-03
  3.893719e+00    5.086188e-01   9.653921e-03
  3.895929e+00    5.212680e-01   9.805642e-03
  3.898140e+00    5.123426e-01   9.753754e-03
  3.900350e+00    5.099248e-01   9.763411e-03
  3.902561e+00    5.345050e-01   1.002974e-02
  3.904771e+00    5.272721e-01   9.995751e-03
  3.906982e+00    4.939632e-01   9.708205e-03
  3.909192e+00    5.111405e-01   9.909743e-03
  3.911403e+00    4.816029e-01   9.652963e-03
  3.913613e+00    5.177143e-01   1.004344e-02
  3.915823e+00    5.059835e-01   9.964588e-03
  3.918034e+00    4.870818e-01   9.811843e-03
  3.920244e+00    4.879849e-01   9.856653e-03
  3.922455e+00    5.074264e-01   1.008783e-02
  3.924665e+00    5.021702e-01   1.007252e-02
  3.926876e+00    4.728175e-01   9.810135e-03
  3.929086e+00    4.939045e-01   1.006410e-02
  3.931297e+00    4.987414e-01   1.014851e-02
  3.933507e+00    4.865234e-01   1.005235e-02
  3.935718e+00    4.977617e-01   1.019681e-02
  3.937928e+00    5.062688e-01   1.031358e-02
  3.940138e+00    4.876071e-01   1.015106e-02
  3.942349e+00    4.944437e-01   1.025210e-02
  3.944559e+00    4.980539e-01   1.031979e-02
  3.946770e+00    4.959665e-01   1.032851e-02
  3.948980e+00    5.222818e-01   1.063093e-02
  3.951191e+00    4.885184e-01   1.031244e-02
  3.953401e+00    4.740572e-01   1.018964e-02
  3.955612e+00    4.583496e-01   1.005004e-02
  3.957822e+00    4.855582e-01   1.037571e-02
  3.960033e+00    5.059032e-01   1.062419e-02
  3.962243e+00    4.785428e-01   1.036550e-02
  3.964453e+00    4.833347e-01   1.045029e-02
  3.966664e+00    4.921117e-01   1.057840e-02
  3.968874e+00    4.748224e-01   1.041892e-02
  3.971085e+00    5.034198e-01   1.075047e-02
  3.973295e+00    5.014590e-01   1.075129e-02
  3.975506e+00    4.971752e-01   1.072725e-02
  3.977716e+00    4.642404e-01   1.038723e-02
  3.979927e+00    4.943091e-01   1.074073e-02
  3.982137e+00    4.730932e-01   1.052966e-02
  3.984348e+00    4.994464e-01   1.084193e-02
  3.986558e+00    4.943703e-01   1.080920e-02
  3.988768e+00    4.925379e-01   1.081232e-02
  3.990979e+00    4.604274e-01   1.047614e-02
  3.993189e+00    4.903649e-01   1.083450e-02
  3.995400e+00    4.774351e-01   1.071399e-02
  3.997610e+00    4.985755e-01   1.097898e-02
  3.999821e+00    4.744688e-01   1.074741e-02
  4.002031e+00    4.816279e-01   1.086632e-02
  4.004242e+00    5.008883e-01   1.112070e-02
  4.006452e+00    5.009604e-01   1.116140e-02
  4.008663e+00    5.104451e-01   1.130777e-02
  4.010873e+00    4.786585e-01   1.098970e-02
  4.013084e+00    5.091278e-01   1.137595e-02
  4.015294e+00    4.965481e-01   1.127615e-02
  4.017504e+00    4.912966e-01   1.125855e-02
  4.019715e+00    4.750069e-01   1.111228e-02
  4.021925e+00    4.981049e-01   1.142294e-02
  4.024136e+00    4.753218e-01   1.120192e-02
  4.026346e+00    5.110988e-01   1.166114e-02
  4.028557e+00    4.916259e-01   1.148167e-02
  4.030767e+00    4.915848e-01   1.152709e-02
  4.032978e+00    4.841939e-01   1.148639e-02
  4.035188e+00    5.199470e-01   1.195084e-02
  4.037399e+00    4.845678e-01   1.158487e-02
  4.039609e+00    4.821201e-01   1.160303e-02
  4.041819e+00    4.719639e-01   1.152856e-02
  4.044030e+00    4.830663e-01   1.171298e-02
  4.046240e+00    5.043653e-01   1.201960e-02
  4.048451e+00    4.890669e-01   1.188705e-02
  4.050661e+00    5.082950e-01   1.217121e-02
  4.052872e+00    5.259380e-01   1.243581e-02
  4.055082e+00    5.160024e-01   1.237306e-02
  4.057293e+00    4.910713e-01   1.212469e-02
  4.059503e+00    4.687690e-01   1.190002e-02
  4.061714e+00    4.772681e-01   1.206359e-02
  4.063924e+00    4.911919e-01   1.229561e-02
  4.066134e+00    4.579834e-01   1.192861e-02
  4.068345e+00    4.746379e-01   1.220211e-02
  4.070555e+00    4.773912e-01   1.229647e-02
  4.072766e+00    4.634342e-01   1.217512e-02
  4.074976e+00    4.334440e-01   1.183309e-02
  4.077187e+00    4.813527e-01   1.253201e-02
  4.079397e+00    4.564021e-01   1.226524e-02
  4.081608e+00    4.833175e-01   1.268731e-02
  4.083818e+00    4.723466e-01   1.260778e-02
  4.086029e+00    4.793305e-01   1.276756e-02
  4.088239e+00    4.927729e-01   1.301506e-02
  4.090449e+00    5.181099e-01   1.341789e-02
  4.092660e+00    5.060422e-01   1.333364e-02
  4.094870e+00    4.501649e-01   1.264594e-02
  4.097081e+00    4.860208e-01   1.321182e-02
  4.099291e+00    4.839107e-01   1.323774e-02
  4.101502e+00    4.391505e-01   1.265763e-02
  4.103712e+00    4.944499e-01   1.348099e-02
  4.105923e+00    4.838114e-01   1.338676e-02
  4.108133e+00    5.112323e-01   1.381408e-02
  4.110344e+00    4.936731e-01   1.362669e-02
  4.112554e+00    4.853880e-01   1.356522e-02
  4.114764e+00    4.736479e-01   1.345397e-02
  4.116975e+00    4.802692e-01   1.360103e-02
  4.119185e+00    4.850281e-01   1.372382e-02
  4.121396e+00    4.744800e-01   1.362984e-02
  4.123606e+00    5.044020e-01   1.411072e-02
  4.125817e+00    4.689374e-01   1.366254e-02
  4.128027e+00    5.042351e-01   1.422713e-02
  4.130238e+00    4.723615e-01   1.382928e-02
  4.132448e+00    4.790729e-01   1.398742e-02
  4.134659e+00    4.891120e-01   1.419416e-02
  4.136869e+00    5.070856e-01   1.451708e-02
  4.139080e+00    4.700358e-01   1.403963e-02
  4.141290e+00    4.267046e-01   1.343624e-02
  4.143500e+00    4.533805e-01   1.391335e-02
  4.145711e+00    4.897886e-01   1.452911e-02
  4.147921e+00    4.559796e-01   1.408294e-02
  4.150132e+00    4.976461e-01   1.478239e-02
  4.152342e+00    4.781061e-01   1.455975e-02
  4.154553e+00    4.741495e-01   1.456814e-02
  4.156763e+00    5.013258e-01   1.505378e-02
  4.158974e+00    5.354144e-01   1.563563e-02
  4.161184e+00    5.093979e-01   1.532659e-02
  4.163395e+00    5.387887e-01   1.584297e-02
  4.165605e+00    5.376508e-01   1.590855e-02
  4.167815e+00    5.320345e-01   1.590795e-02
  4.170026e+00    5.197724e-01   1.580620e-02
  4.172236e+00    4.659553e-01   1.504682e-02
  4.174447e+00    4.549361e-01   1.494835e-02
  4.176657e+00    4.935633e-01   1.565526e-02
  4.178868e+00    5.105313e-01   1.601217e-02
  4.181078e+00    4.864795e-01   1.571857e-02
  4.183289e+00    5.100037e-01   1.618626e-02
  4.185499e+00    4.616139e-01   1.549016e-02
  4.187710e+00    4.627230e-01   1.559943e-02
  4.189920e+00    4.844396e-01   1.605749e-02
  4.192130e+00    5.476516e-01   1.717722e-02
  4.194341e+00    4.871480e-01   1.630043e-02
  4.196551e+00    4.745710e-01   1.619000e-02
  4.198762e+00    5.114197e-01   1.691369e-02
  4.200972e+00    4.961804e-01   1.676754e-02
  4.203183e+00    4.724672e-01   1.647007e-02
  4.205393e+00    4.429208e-01   1.605258e-02
  4.207604e+00    5.267241e-01   1.762488e-02
  4.209814e+00    4.945368e-01   1.719527e-02
  4.212025e+00    4.343441e-01   1.622893e-02
  4.214235e+00    5.425367e-01   1.826643e-02
  4.216445e+00    4.816927e-01   1.733613e-02
  4.218656e+00    5.184394e-01   1.812021e-02
  4.220866e+00    4.872327e-01   1.769655e-02
  4.223077e+00    4.600605e-01   1.732801e-02
  4.225287e+00    4.639234e-01   1.753774e-02
  4.227498e+00    4.466309e-01   1.734275e-02
  4.229708e+00    4.269153e-01   1.709330e-02
  4.231919e+00    5.299323e-01   1.920164e-02
  4.234129e+00    5.307422e-01   1.937807e-02
  4.236340e+00    5.031778e-01   1.902927e-02
  4.238550e+00    4.779958e-01   1.871059e-02
  4.240761e+00    5.344480e-01   1.995992e-02
  4.242971e+00    3.980404e-01   1.738276e-02
  4.245181e+00    5.216302e-01   2.008640e-02
  4.247392e+00    4.986356e-01   1.982216e-02
  4.249602e+00    5.197845e-01   2.043968e-02
  4.251813e+00    4.391744e-01   1.897279e-02
  4.254023e+00    4.699790e-01   1.982446e-02
  4.256234e+00    4.873916e-01   2.040444e-02
  4.258444e+00    5.039690e-01   2.096525e-02
  4.260655e+00    4.649981e-01   2.036029e-02
  4.262865e+00    4.980674e-01   2.131040e-02
  4.265076e+00    4.378648e-01   2.020853e-02
  4.267286e+00    4.515332e-01   2.076467e-02
  4.269496e+00    5.106819e-01   2.235281e-02
  4.271707e+00    4.646376e-01   2.158445e-02
  4.273917e+00    4.029739e-01   2.036077e-02
  4.276128e+00    4.308282e-01   2.133270e-02
  4.278338e+00    4.736747e-01   2.266707e-02
  4.280549e+00    4.500596e-01   2.241122e-02
  4.282759e+00    4.339292e-01   2.232299e-02
  4.284970e+00    4.744854e-01   2.368763e-02
  4.287180e+00    4.149935e-01   2.241906e-02
  4.289391e+00    4.490012e-01   2.349360e-02
  4.291601e+00    5.524161e-01   2.626799e-02
  4.293811e+00    4.245721e-01   2.320882e-02
  4.296022e+00    4.696839e-01   2.460647e-02
  4.298232e+00    5.130172e-01   2.593209e-02
  4.300443e+00    4.614035e-01   2.479588e-02
  4.302653e+00    5.059396e-01   2.618969e-02
  4.304864e+00    5.268297e-01   2.695620e-02
  4.307074e+00    4.576384e-01   2.535092e-02
  4.309285e+00    4.140883e-01   2.433219e-02
  4.311495e+00    4.629305e-01   2.596824e-02
  4.313706e+00    4.664805e-01   2.631285e-02
  4.315916e+00    5.072737e-01   2.770838e-02
  4.318126e+00    5.593817e-01   2.938592e-02
  4.320337e+00    4.650961e-01   2.706551e-02
  4.322547e+00    5.112215e-01   2.867681e-02
  4.324758e+00    5.278473e-01   2.944237e-02
  4.326968e+00    4.977134e-01   2.891260e-02
  4.329179e+00    4.985726e-01   2.925493e-02
  4.331389e+00    4.475548e-01   2.803836e-02
  4.333600e+00    5.258443e-01   3.075420e-02
  4.335810e+00    5.005592e-01   3.036204e-02
  4.338021e+00    5.336264e-01   3.175175e-02
  4.340231e+00    5.438191e-01   3.245404e-02
  4.342442e+00    4.911876e-01   3.125939e-02
  4.344652e+00    3.899296e-01   2.822917e-02
  4.346862e+00    3.043782e-01   2.528872e-02
  4.349073e+00    5.091360e-01   3.318414e-02
  4.351283e+00    4.195058e-01   3.057252e-02
  4.353494e+00    4.202959e-01   3.107315e-02
  4.355704e+00    4.432499e-01   3.242412e-02
  4.357915e+00    4.650813e-01   3.376641e-02
  4.360125e+00    5.324935e-01   3.674598e-02
  4.362336e+00    4.509041e-01   3.443151e-02
  4.364546e+00    4.707711e-01   3.582300e-02
  4.366757e+00    4.612719e-01   3.616307e-02
  4.368967e+00    3.585901e-01   3.252346e-02
  4.371177e+00    4.355911e-01   3.660568e-02
  4.373388e+00    5.552009e-01   4.225188e-02
  4.375598e+00    2.889694e-01   3.117882e-02
  4.377809e+00    4.033087e-01   3.776263e-02
  4.380019e+00    3.371449e-01   3.539750e-02
  4.382230e+00    5.069238e-01   4.461451e-02
  4.384440e+00    5.041602e-01   4.577279e-02
  4.386651e+00    5.184628e-01   4.784991e-02
  4.388861e+00    5.326443e-01   5.012821e-02
  4.391072e+00    2.498351e-01   3.553750e-02
  4.393282e+00    2.200342e-01   3.463934e-02
  4.395492e+00    2.604360e-01   3.925084e-02
  4.397703e+00    3.372591e-01   4.670685e-02
  4.399913e+00    4.269943e-01   5.521867e-02
  4.402124e+00    2.913433e-01   4.819725e-02
  4.404334e+00    1.452967e-01   3.617917e-02
  4.406545e+00    4.220658e-01   6.625125e-02
  4.408755e+00    2.860611e-01   5.915099e-02
  4.410966e+00    2.327808e-01   5.906042e-02
  4.413176e+00    4.894371e-01   9.692647e-02
  4.415387e+00   -3.899409e-01            nan
  4.417597e+00   -1.685828e+00            nan
  4.419807e+00   -3.766224e-01            nan
