# == pyFAI calibration ==
# Distance Sample to Detector: 0.216 m
# PONI: 1.166e-01, 1.308e-01 m
# Rotations: 0.000000 0.000000 0.000000 rad
# 
# == Fit2d calibration ==
# Distance Sample-beamCenter: 216.000 mm
# Center: x=1744.293, y=1555.000 pix
# Tilt: 0.000 deg  TiltPlanRot: 0.000 deg
# 
# Detector Eiger 9M	 PixelSize= 7.500e-05, 7.500e-05 m
#    Detector has a mask: True 
#    Detector has a dark current: False 
#    detector has a flat field: False 
# 
# Wavelength: 9.8e-11 m
# Mask applied: from detector
# Dark current applied: False
# Flat field applied: False
# Polarization factor: None
# Normalization factor: 1.0
# 
# Headers of the input frame:
# {
# "_array_data.header_convention": "SLS_1.0",
# "_array_data.header_contents": "# Detector: Dectris Eiger 9M, S/N E-18-0102\r\n# Pixel_size 75e-6 m x 75e-6 m\r\n# Silicon sensor, thickness 0.000450 m\r\n# Exposure_time 0.024997 s\r\n# Exposure_period 0.025000 s\r\n# Count_cutoff 62318 counts\r\n# Wavelength 0.980106 A\r\n# Detector_distance 0.215992 m\r\n# Beam_xy (1555, 1744) pixels\r\n# Start_angle 0.000000 deg.\r\n# Angle_increment 0.000000 deg.",
# "Content-Type": "application/octet-stream;",
# "conversions": "x-CBF_BYTE_OFFSET",
# "Content-Transfer-Encoding": "BINARY",
# "X-Binary-Size": "10166594",
# "X-Binary-ID": "1",
# "X-Binary-Element-Type": "signed 32-bit integer",
# "X-Binary-Element-Byte-Order": "LITTLE_ENDIAN",
# "Content-MD5": "9UFyuz4w43/XuHj1Oj1lbQ==",
# "X-Binary-Number-of-Elements": "10166590",
# "X-Binary-Size-Fastest-Dimension": "3110",
# "X-Binary-Size-Second-Dimension": "3269",
# "X-Binary-Size-Padding": "4095"
# }
# --> H:/Proxima2a_2019-04-05/RAW_DATA/C5_gel17_position5/C5_mesh_1_data.cbf/C5_mesh_1_data.cbf000194.dat
#        q_A^-1              I           sigma 
  1.105228e-03    1.982788e+00   7.619477e-01
  3.315685e-03    1.792518e+00   4.404303e-01
  5.526141e-03    1.537789e+00   3.154427e-01
  7.736597e-03    1.300620e+00   2.450730e-01
  9.947054e-03    1.530520e+00   2.343668e-01
  1.215751e-02    1.614120e+00   2.176389e-01
  1.436797e-02    1.502763e+00   1.931618e-01
  1.657842e-02    1.441577e+00   1.761016e-01
  1.878888e-02    1.336959e+00   1.593025e-01
  2.099934e-02    1.328233e+00   1.502240e-01
  2.320979e-02    1.313619e+00   1.420913e-01
  2.542025e-02    1.386183e+00   1.394825e-01
  2.763070e-02    1.517814e+00   1.399908e-01
  2.984116e-02    1.411273e+00   1.298919e-01
  3.205162e-02    1.383397e+00   1.240965e-01
  3.426207e-02    1.509417e+00   1.253659e-01
  3.647253e-02    1.467461e+00   1.198045e-01
  3.868299e-02    1.329734e+00   1.107460e-01
  4.089344e-02    1.608780e+00   1.184756e-01
  4.310390e-02    1.691096e+00   1.183063e-01
  4.531436e-02    1.592312e+00   1.119644e-01
  4.752481e-02    1.509287e+00   1.064400e-01
  4.973527e-02    1.429464e+00   1.012601e-01
  5.194572e-02    1.451860e+00   9.985396e-02
  5.415618e-02    1.441446e+00   9.744015e-02
  5.636664e-02    1.488374e+00   9.705574e-02
  5.857709e-02    1.396684e+00   9.222819e-02
  6.078755e-02    1.399459e+00   9.062279e-02
  6.299801e-02    1.473220e+00   9.133354e-02
  6.520846e-02    1.488607e+00   9.024035e-02
  6.741892e-02    1.466931e+00   8.809569e-02
  6.962938e-02    1.497250e+00   8.758175e-02
  7.183983e-02    1.423771e+00   8.407988e-02
  7.405029e-02    1.392046e+00   8.188570e-02
  7.626074e-02    1.437165e+00   8.198675e-02
  7.847120e-02    1.440953e+00   8.092800e-02
  8.068166e-02    1.588250e+00   8.379107e-02
  8.289211e-02    1.521815e+00   8.091846e-02
  8.510257e-02    1.414500e+00   7.699294e-02
  8.731303e-02    1.477325e+00   7.767883e-02
  8.952348e-02    1.547928e+00   7.852772e-02
  9.173394e-02    1.446771e+00   7.499525e-02
  9.394439e-02    1.495168e+00   7.533456e-02
  9.615485e-02    1.552657e+00   7.588003e-02
  9.836531e-02    1.442448e+00   7.230902e-02
  1.005758e-01    1.473459e+00   7.227506e-02
  1.027862e-01    1.504483e+00   7.224061e-02
  1.049967e-01    1.598838e+00   7.368213e-02
  1.072071e-01    1.569840e+00   7.225345e-02
  1.094176e-01    1.575112e+00   7.163877e-02
  1.116280e-01    1.516682e+00   6.959644e-02
  1.138385e-01    1.477040e+00   6.800947e-02
  1.160490e-01    1.595247e+00   7.000127e-02
  1.182594e-01    1.629212e+00   7.007677e-02
  1.204699e-01    1.589144e+00   6.857128e-02
  1.226803e-01    1.530362e+00   6.667937e-02
  1.248908e-01    1.502074e+00   6.547224e-02
  1.271012e-01    1.567806e+00   6.630396e-02
  1.293117e-01    1.654321e+00   6.752330e-02
  1.315222e-01    1.649697e+00   6.685830e-02
  1.337326e-01    1.542463e+00   6.411108e-02
  1.359431e-01    1.547540e+00   6.425408e-02
  1.381535e-01    1.658104e+00   6.740257e-02
  1.403640e-01    1.600839e+00   6.651439e-02
  1.425744e-01    1.580787e+00   6.620207e-02
  1.447849e-01    1.593610e+00   6.648535e-02
  1.469953e-01    1.637476e+00   6.735198e-02
  1.492058e-01    1.523466e+00   6.488949e-02
  1.514163e-01    1.549877e+00   6.534083e-02
  1.536267e-01    1.621668e+00   6.670653e-02
  1.558372e-01    1.622887e+00   6.658428e-02
  1.580476e-01    1.604867e+00   6.605290e-02
  1.602581e-01    1.573982e+00   6.524809e-02
  1.624685e-01    1.651305e+00   6.664857e-02
  1.646790e-01    1.723938e+00   6.790304e-02
  1.668895e-01    1.785724e+00   6.890957e-02
  1.690999e-01    1.849156e+00   6.991220e-02
  1.713104e-01    1.832610e+00   6.938274e-02
  1.735208e-01    1.856609e+00   6.961840e-02
  1.757313e-01    1.821666e+00   6.874403e-02
  1.779417e-01    1.862781e+00   6.928874e-02
  1.801522e-01    1.854814e+00   6.892022e-02
  1.823626e-01    1.909134e+00   6.968934e-02
  1.845731e-01    1.985839e+00   7.084533e-02
  1.867836e-01    1.914161e+00   6.932029e-02
  1.889940e-01    1.864234e+00   6.818671e-02
  1.912045e-01    1.890347e+00   6.843331e-02
  1.934149e-01    2.041528e+00   7.087915e-02
  1.956254e-01    1.999262e+00   6.991030e-02
  1.978358e-01    2.014177e+00   6.993008e-02
  2.000463e-01    2.009793e+00   6.962246e-02
  2.022568e-01    2.059059e+00   7.023933e-02
  2.044672e-01    2.079596e+00   7.034691e-02
  2.066777e-01    2.094756e+00   7.036854e-02
  2.088881e-01    2.058419e+00   6.952732e-02
  2.110986e-01    1.989894e+00   6.812581e-02
  2.133090e-01    1.987522e+00   6.786384e-02
  2.155195e-01    2.000986e+00   6.786747e-02
  2.177300e-01    1.957177e+00   6.659310e-02
  2.199404e-01    2.013466e+00   6.576417e-02
  2.221509e-01    1.923510e+00   6.322283e-02
  2.243613e-01    2.067152e+00   6.471008e-02
  2.265718e-01    2.019147e+00   6.324941e-02
  2.287822e-01    2.069611e+00   6.340109e-02
  2.309927e-01    2.069997e+00   6.282938e-02
  2.332031e-01    2.108035e+00   6.286137e-02
  2.354136e-01    2.128278e+00   6.265051e-02
  2.376241e-01    2.261426e+00   6.407930e-02
  2.398345e-01    2.268592e+00   6.370576e-02
  2.420450e-01    2.210261e+00   6.243201e-02
  2.442554e-01    2.241220e+00   6.243461e-02
  2.464659e-01    2.254017e+00   6.219226e-02
  2.486763e-01    2.166404e+00   6.057077e-02
  2.508868e-01    2.226107e+00   6.101242e-02
  2.530973e-01    2.175109e+00   5.993558e-02
  2.553077e-01    2.187564e+00   5.974234e-02
  2.575182e-01    2.159177e+00   5.900230e-02
  2.597286e-01    2.143141e+00   5.844106e-02
  2.619391e-01    2.042394e+00   5.672248e-02
  2.641495e-01    2.073626e+00   5.683815e-02
  2.663600e-01    2.097742e+00   5.685337e-02
  2.685704e-01    2.008672e+00   5.533168e-02
  2.707809e-01    2.069525e+00   5.586547e-02
  2.729914e-01    2.073418e+00   5.562656e-02
  2.752018e-01    2.114508e+00   5.588270e-02
  2.774123e-01    1.981202e+00   5.381620e-02
  2.796227e-01    1.958092e+00   5.323673e-02
  2.818332e-01    2.060272e+00   5.433570e-02
  2.840436e-01    1.995934e+00   5.322134e-02
  2.862541e-01    2.046102e+00   5.362700e-02
  2.884646e-01    2.031715e+00   5.318454e-02
  2.906750e-01    1.988896e+00   5.237161e-02
  2.928855e-01    2.003055e+00   5.231415e-02
  2.950959e-01    2.034705e+00   5.248364e-02
  2.973064e-01    2.036288e+00   5.226810e-02
  2.995168e-01    1.967652e+00   5.114695e-02
  3.017273e-01    2.025732e+00   5.166752e-02
  3.039377e-01    1.955774e+00   5.054524e-02
  3.061482e-01    1.863290e+00   4.912224e-02
  3.083587e-01    1.944394e+00   4.996273e-02
  3.105691e-01    1.939527e+00   4.968702e-02
  3.127796e-01    1.923215e+00   4.926964e-02
  3.149900e-01    1.859810e+00   4.824879e-02
  3.172005e-01    1.947836e+00   4.917549e-02
  3.194109e-01    1.926194e+00   4.869968e-02
  3.216214e-01    1.883170e+00   4.795626e-02
  3.238319e-01    1.822641e+00   4.699232e-02
  3.260423e-01    1.910630e+00   4.792157e-02
  3.282528e-01    1.946625e+00   4.817834e-02
  3.304632e-01    1.906507e+00   4.749460e-02
  3.326737e-01    1.872692e+00   4.688784e-02
  3.348841e-01    1.841585e+00   4.631650e-02
  3.370946e-01    1.834485e+00   4.605318e-02
  3.393050e-01    1.871632e+00   4.634091e-02
  3.415155e-01    1.844457e+00   4.583031e-02
  3.437260e-01    1.835249e+00   4.554630e-02
  3.459364e-01    1.867748e+00   4.577784e-02
  3.481469e-01    1.822870e+00   4.505946e-02
  3.503573e-01    1.822394e+00   4.488944e-02
  3.525678e-01    1.848837e+00   4.505282e-02
  3.547782e-01    1.888778e+00   4.537227e-02
  3.569887e-01    1.845498e+00   4.469052e-02
  3.591992e-01    1.814919e+00   4.416190e-02
  3.614096e-01    1.751151e+00   4.322874e-02
  3.636201e-01    1.819541e+00   4.390991e-02
  3.658305e-01    1.867328e+00   4.433107e-02
  3.680410e-01    1.817767e+00   4.358839e-02
  3.702514e-01    1.799983e+00   4.322877e-02
  3.724619e-01    1.791613e+00   4.298127e-02
  3.746724e-01    1.853972e+00   4.357700e-02
  3.768828e-01    1.850411e+00   4.338864e-02
  3.790933e-01    1.819349e+00   4.288274e-02
  3.813037e-01    1.809691e+00   4.262884e-02
  3.835142e-01    1.799114e+00   4.236446e-02
  3.857246e-01    1.751926e+00   4.166991e-02
  3.879351e-01    1.785142e+00   4.192692e-02
  3.901455e-01    1.825114e+00   4.225877e-02
  3.923560e-01    1.762469e+00   4.139522e-02
  3.945665e-01    1.747201e+00   4.108482e-02
  3.967769e-01    1.791018e+00   4.146652e-02
  3.989874e-01    1.743167e+00   4.078112e-02
  4.011978e-01    1.761090e+00   4.086415e-02
  4.034083e-01    1.840890e+00   4.165148e-02
  4.056187e-01    1.863381e+00   4.177606e-02
  4.078292e-01    1.848817e+00   4.148656e-02
  4.100397e-01    1.838073e+00   4.123954e-02
  4.122501e-01    1.794004e+00   4.062029e-02
  4.144606e-01    1.743452e+00   3.992512e-02
  4.166710e-01    1.814540e+00   4.060984e-02
  4.188815e-01    1.790231e+00   4.021775e-02
  4.210919e-01    1.819478e+00   4.042612e-02
  4.233024e-01    1.830289e+00   4.042678e-02
  4.255128e-01    1.795554e+00   3.992560e-02
  4.277233e-01    1.821020e+00   4.009219e-02
  4.299338e-01    1.824616e+00   4.001631e-02
  4.321442e-01    1.784476e+00   3.946045e-02
  4.343547e-01    1.815913e+00   3.969394e-02
  4.365651e-01    1.787460e+00   3.926987e-02
  4.387756e-01    1.729697e+00   3.852196e-02
  4.409860e-01    1.713929e+00   3.823974e-02
  4.431965e-01    1.733356e+00   3.834951e-02
  4.454070e-01    1.760061e+00   3.853628e-02
  4.476174e-01    1.757996e+00   3.840794e-02
  4.498279e-01    1.731605e+00   3.801484e-02
  4.520383e-01    1.711117e+00   3.768557e-02
  4.542488e-01    1.720142e+00   3.768294e-02
  4.564592e-01    1.729567e+00   3.768465e-02
  4.586697e-01    1.766442e+00   3.798320e-02
  4.608801e-01    1.743336e+00   3.763288e-02
  4.630906e-01    1.755391e+00   3.766278e-02
  4.653011e-01    1.758412e+00   3.759605e-02
  4.675115e-01    1.718192e+00   3.706572e-02
  4.697220e-01    1.676834e+00   3.652103e-02
  4.719324e-01    1.761685e+00   3.733680e-02
  4.741429e-01    1.753699e+00   3.715611e-02
  4.763533e-01    1.771333e+00   3.724672e-02
  4.785638e-01    1.756814e+00   3.699794e-02
  4.807743e-01    1.740382e+00   3.673084e-02
  4.829847e-01    1.782639e+00   3.708019e-02
  4.851952e-01    1.702388e+00   3.614424e-02
  4.874056e-01    1.718913e+00   3.622766e-02
  4.896161e-01    1.719324e+00   3.614214e-02
  4.918265e-01    1.747427e+00   3.634583e-02
  4.940370e-01    1.696837e+00   3.572743e-02
  4.962475e-01    1.741677e+00   3.610701e-02
  4.984579e-01    1.703499e+00   3.562108e-02
  5.006684e-01    1.712487e+00   3.562785e-02
  5.028788e-01    1.733450e+00   3.575838e-02
  5.050893e-01    1.733752e+00   3.567454e-02
  5.072997e-01    1.676448e+00   3.499530e-02
  5.095102e-01    1.649580e+00   3.463058e-02
  5.117206e-01    1.697625e+00   3.504775e-02
  5.139311e-01    1.650644e+00   3.447761e-02
  5.161416e-01    1.649153e+00   3.438057e-02
  5.183520e-01    1.706010e+00   3.488511e-02
  5.205625e-01    1.729315e+00   3.504030e-02
  5.227729e-01    1.726096e+00   3.492603e-02
  5.249834e-01    1.718258e+00   3.476575e-02
  5.271938e-01    1.709425e+00   3.459537e-02
  5.294043e-01    1.721502e+00   3.463722e-02
  5.316148e-01    1.778135e+00   3.512173e-02
  5.338252e-01    1.822645e+00   3.547733e-02
  5.360357e-01    1.813117e+00   3.530393e-02
  5.382461e-01    1.759671e+00   3.470108e-02
  5.404566e-01    1.773846e+00   3.476129e-02
  5.426670e-01    1.778351e+00   3.472697e-02
  5.448775e-01    1.760496e+00   3.447501e-02
  5.470879e-01    1.776758e+00   3.455662e-02
  5.492984e-01    1.809676e+00   3.479772e-02
  5.515089e-01    1.774775e+00   3.438412e-02
  5.537193e-01    1.779298e+00   3.435205e-02
  5.559298e-01    1.823190e+00   3.469689e-02
  5.581402e-01    1.819049e+00   3.458174e-02
  5.603507e-01    1.777987e+00   3.411480e-02
  5.625611e-01    1.812882e+00   3.437318e-02
  5.647716e-01    1.819324e+00   3.435944e-02
  5.669821e-01    1.785510e+00   3.396526e-02
  5.691925e-01    1.773126e+00   3.377461e-02
  5.714030e-01    1.736034e+00   3.334823e-02
  5.736134e-01    1.731929e+00   3.323792e-02
  5.758239e-01    1.752455e+00   3.336295e-02
  5.780343e-01    1.709102e+00   3.287799e-02
  5.802448e-01    1.681726e+00   3.254535e-02
  5.824552e-01    1.652453e+00   3.219316e-02
  5.846657e-01    1.643604e+00   3.203991e-02
  5.868762e-01    1.680940e+00   3.233431e-02
  5.890866e-01    1.644731e+00   3.191783e-02
  5.912971e-01    1.653170e+00   3.193333e-02
  5.935075e-01    1.728209e+00   3.258256e-02
  5.957180e-01    1.673206e+00   3.199411e-02
  5.979284e-01    1.672350e+00   3.192061e-02
  6.001389e-01    1.703074e+00   3.214690e-02
  6.023494e-01    1.650514e+00   3.158272e-02
  6.045598e-01    1.653212e+00   3.154415e-02
  6.067703e-01    1.652022e+00   3.146939e-02
  6.089807e-01    1.686946e+00   3.173634e-02
  6.111912e-01    1.685372e+00   3.165821e-02
  6.134016e-01    1.686511e+00   3.160572e-02
  6.156121e-01    1.737841e+00   3.201932e-02
  6.178226e-01    1.708665e+00   3.168655e-02
  6.200330e-01    1.735466e+00   3.187108e-02
  6.222435e-01    1.755573e+00   3.199169e-02
  6.244539e-01    1.709516e+00   3.150744e-02
  6.266644e-01    1.723451e+00   3.157388e-02
  6.288748e-01    1.733727e+00   3.160623e-02
  6.310853e-01    1.733126e+00   3.153940e-02
  6.332957e-01    1.692798e+00   3.111011e-02
  6.355062e-01    1.695026e+00   3.107010e-02
  6.377167e-01    1.725356e+00   3.128671e-02
  6.399271e-01    1.695170e+00   3.095238e-02
  6.421376e-01    1.733334e+00   3.123912e-02
  6.443480e-01    1.707825e+00   3.094943e-02
  6.465585e-01    1.699107e+00   3.081184e-02
  6.487689e-01    1.728551e+00   3.101899e-02
  6.509794e-01    1.706875e+00   3.076575e-02
  6.531899e-01    1.685279e+00   3.051301e-02
  6.554003e-01    1.676797e+00   3.037890e-02
  6.576108e-01    1.638459e+00   2.997371e-02
  6.598212e-01    1.589574e+00   2.946831e-02
  6.620317e-01    1.589736e+00   2.941519e-02
  6.642421e-01    1.579128e+00   2.926263e-02
  6.664526e-01    1.591107e+00   2.931929e-02
  6.686630e-01    1.623643e+00   2.956279e-02
  6.708735e-01    1.672563e+00   2.994980e-02
  6.730840e-01    1.632071e+00   2.953113e-02
  6.752944e-01    1.572102e+00   2.893079e-02
  6.775049e-01    1.606224e+00   2.918996e-02
  6.797153e-01    1.621471e+00   2.927507e-02
  6.819258e-01    1.625103e+00   2.925499e-02
  6.841362e-01    1.599322e+00   2.896981e-02
  6.863467e-01    1.625888e+00   2.915711e-02
  6.885572e-01    1.608948e+00   2.895285e-02
  6.907676e-01    1.613924e+00   2.894562e-02
  6.929781e-01    1.614197e+00   2.889662e-02
  6.951885e-01    1.642957e+00   2.910126e-02
  6.973990e-01    1.656510e+00   2.916940e-02
  6.996094e-01    1.644786e+00   2.901486e-02
  7.018199e-01    1.639047e+00   2.891335e-02
  7.040303e-01    1.651944e+00   2.897590e-02
  7.062408e-01    1.612725e+00   2.857972e-02
  7.084513e-01    1.590800e+00   2.833542e-02
  7.106617e-01    1.623431e+00   2.857479e-02
  7.128722e-01    1.571905e+00   2.806905e-02
  7.150826e-01    1.574680e+00   2.804537e-02
  7.172931e-01    1.611859e+00   2.832561e-02
  7.195035e-01    1.587667e+00   2.806392e-02
  7.217140e-01    1.578004e+00   2.802788e-02
  7.239245e-01    1.631641e+00   2.873105e-02
  7.261349e-01    1.598731e+00   2.854927e-02
  7.283454e-01    1.595481e+00   2.859312e-02
  7.305558e-01    1.587362e+00   2.857448e-02
  7.327663e-01    1.583310e+00   2.858061e-02
  7.349767e-01    1.552588e+00   2.831823e-02
  7.371872e-01    1.567973e+00   2.844701e-02
  7.393976e-01    1.551912e+00   2.828679e-02
  7.416081e-01    1.567197e+00   2.840961e-02
  7.438186e-01    1.614936e+00   2.869291e-02
  7.460290e-01    1.582780e+00   2.811083e-02
  7.482395e-01    1.592451e+00   2.802444e-02
  7.504499e-01    1.586232e+00   2.783289e-02
  7.526604e-01    1.574999e+00   2.761759e-02
  7.548708e-01    1.619812e+00   2.791703e-02
  7.570813e-01    1.619511e+00   2.786277e-02
  7.592918e-01    1.601658e+00   2.767326e-02
  7.615022e-01    1.600652e+00   2.763052e-02
  7.637127e-01    1.569925e+00   2.733129e-02
  7.659231e-01    1.598657e+00   2.754799e-02
  7.681336e-01    1.630485e+00   2.778875e-02
  7.703440e-01    1.618716e+00   2.765660e-02
  7.725545e-01    1.605407e+00   2.751150e-02
  7.747650e-01    1.610662e+00   2.751784e-02
  7.769754e-01    1.599314e+00   2.736765e-02
  7.791859e-01    1.598455e+00   2.730641e-02
  7.813963e-01    1.581119e+00   2.710530e-02
  7.836068e-01    1.602880e+00   2.723889e-02
  7.858172e-01    1.622665e+00   2.735524e-02
  7.880277e-01    1.616410e+00   2.725055e-02
  7.902381e-01    1.628401e+00   2.730173e-02
  7.924486e-01    1.628657e+00   2.725331e-02
  7.946591e-01    1.605228e+00   2.700819e-02
  7.968695e-01    1.615339e+00   2.704465e-02
  7.990800e-01    1.640486e+00   2.720564e-02
  8.012904e-01    1.666887e+00   2.737623e-02
  8.035009e-01    1.679669e+00   2.743212e-02
  8.057113e-01    1.672334e+00   2.732481e-02
  8.079218e-01    1.648345e+00   2.708130e-02
  8.101323e-01    1.682721e+00   2.731577e-02
  8.123427e-01    1.679613e+00   2.724402e-02
  8.145532e-01    1.655456e+00   2.700112e-02
  8.167636e-01    1.646063e+00   2.687912e-02
  8.189741e-01    1.605231e+00   2.649941e-02
  8.211845e-01    1.625485e+00   2.662135e-02
  8.233950e-01    1.641131e+00   2.670568e-02
  8.256054e-01    1.660942e+00   2.682185e-02
  8.278159e-01    1.693738e+00   2.704065e-02
  8.300264e-01    1.703422e+00   2.707391e-02
  8.322368e-01    1.714308e+00   2.711619e-02
  8.344473e-01    1.689469e+00   2.687499e-02
  8.366577e-01    1.648944e+00   2.650800e-02
  8.388682e-01    1.659628e+00   2.655121e-02
  8.410786e-01    1.692456e+00   2.676978e-02
  8.432891e-01    1.674375e+00   2.658413e-02
  8.454996e-01    1.699256e+00   2.673851e-02
  8.477100e-01    1.676654e+00   2.651795e-02
  8.499205e-01    1.691778e+00   2.659545e-02
  8.521309e-01    1.694487e+00   2.657524e-02
  8.543414e-01    1.640062e+00   2.610418e-02
  8.565518e-01    1.663449e+00   2.624871e-02
  8.587623e-01    1.633690e+00   2.597236e-02
  8.609727e-01    1.650749e+00   2.606712e-02
  8.631832e-01    1.624215e+00   2.581691e-02
  8.653937e-01    1.640592e+00   2.590685e-02
  8.676041e-01    1.613854e+00   2.565612e-02
  8.698146e-01    1.650439e+00   2.590562e-02
  8.720250e-01    1.598881e+00   2.545894e-02
  8.742355e-01    1.582503e+00   2.528963e-02
  8.764459e-01    1.618638e+00   2.553773e-02
  8.786564e-01    1.607340e+00   2.541051e-02
  8.808669e-01    1.622473e+00   2.549113e-02
  8.830773e-01    1.608594e+00   2.534368e-02
  8.852878e-01    1.578081e+00   2.506451e-02
  8.874982e-01    1.614955e+00   2.531884e-02
  8.897087e-01    1.646220e+00   2.552457e-02
  8.919191e-01    1.617478e+00   2.526278e-02
  8.941296e-01    1.610914e+00   2.517410e-02
  8.963401e-01    1.590765e+00   2.497982e-02
  8.985505e-01    1.596797e+00   2.499021e-02
  9.007610e-01    1.611196e+00   2.506575e-02
  9.029714e-01    1.603990e+00   2.497378e-02
  9.051819e-01    1.597025e+00   2.488228e-02
  9.073923e-01    1.651314e+00   2.526453e-02
  9.096028e-01    1.594766e+00   2.479335e-02
  9.118132e-01    1.568637e+00   2.455350e-02
  9.140237e-01    1.590706e+00   2.468910e-02
  9.162342e-01    1.632606e+00   2.497724e-02
  9.184446e-01    1.612968e+00   2.479068e-02
  9.206551e-01    1.615430e+00   2.477382e-02
  9.228655e-01    1.646244e+00   2.497323e-02
  9.250760e-01    1.626148e+00   2.478473e-02
  9.272864e-01    1.617789e+00   2.468651e-02
  9.294969e-01    1.635828e+00   2.478759e-02
  9.317074e-01    1.602504e+00   2.449915e-02
  9.339178e-01    1.581832e+00   2.430736e-02
  9.361283e-01    1.640676e+00   2.471885e-02
  9.383387e-01    1.648283e+00   2.474242e-02
  9.405492e-01    1.631371e+00   2.458076e-02
  9.427596e-01    1.636230e+00   2.458190e-02
  9.449701e-01    1.665354e+00   2.476600e-02
  9.471805e-01    1.696127e+00   2.495839e-02
  9.493910e-01    1.639580e+00   2.450515e-02
  9.516015e-01    1.703804e+00   2.494558e-02
  9.538119e-01    1.738276e+00   2.516217e-02
  9.560224e-01    1.710485e+00   2.492508e-02
  9.582328e-01    1.718165e+00   2.494745e-02
  9.604433e-01    1.793889e+00   2.545517e-02
  9.626537e-01    1.813320e+00   2.555826e-02
  9.648642e-01    1.829569e+00   2.563735e-02
  9.670747e-01    1.839044e+00   2.566822e-02
  9.692851e-01    1.804165e+00   2.538986e-02
  9.714956e-01    1.809530e+00   2.539170e-02
  9.737060e-01    1.851462e+00   2.565048e-02
  9.759165e-01    1.849972e+00   2.560401e-02
  9.781269e-01    1.860011e+00   2.563981e-02
  9.803374e-01    1.831761e+00   2.540916e-02
  9.825478e-01    1.832824e+00   2.538299e-02
  9.847583e-01    1.842118e+00   2.541272e-02
  9.869688e-01    1.836686e+00   2.534126e-02
  9.891792e-01    1.835916e+00   2.530227e-02
  9.913897e-01    1.818750e+00   2.514973e-02
  9.936001e-01    1.765097e+00   2.474356e-02
  9.958106e-01    1.732608e+00   2.448145e-02
  9.980210e-01    1.736165e+00   2.447478e-02
  1.000231e+00    1.644372e+00   2.394948e-02
  1.002442e+00    1.623158e+00   2.392090e-02
  1.004652e+00    1.607706e+00   2.387318e-02
  1.006863e+00    1.616544e+00   2.398838e-02
  1.009073e+00    1.601688e+00   2.391444e-02
  1.011284e+00    1.628953e+00   2.414938e-02
  1.013494e+00    1.606976e+00   2.400972e-02
  1.015705e+00    1.562583e+00   2.369813e-02
  1.017915e+00    1.558997e+00   2.368722e-02
  1.020126e+00    1.571160e+00   2.379551e-02
  1.022336e+00    1.593615e+00   2.397676e-02
  1.024547e+00    1.607709e+00   2.409399e-02
  1.026757e+00    1.596113e+00   2.401542e-02
  1.028967e+00    1.614662e+00   2.416243e-02
  1.031178e+00    1.574233e+00   2.386427e-02
  1.033388e+00    1.573914e+00   2.386695e-02
  1.035599e+00    1.586394e+00   2.396490e-02
  1.037809e+00    1.571956e+00   2.385889e-02
  1.040020e+00    1.584461e+00   2.395491e-02
  1.042230e+00    1.534354e+00   2.357504e-02
  1.044441e+00    1.540180e+00   2.361951e-02
  1.046651e+00    1.614771e+00   2.418487e-02
  1.048862e+00    1.617597e+00   2.420524e-02
  1.051072e+00    1.544631e+00   2.365063e-02
  1.053282e+00    1.525262e+00   2.350090e-02
  1.055493e+00    1.498083e+00   2.328627e-02
  1.057703e+00    1.519820e+00   2.345307e-02
  1.059914e+00    1.526642e+00   2.350133e-02
  1.062124e+00    1.564154e+00   2.378413e-02
  1.064335e+00    1.641026e+00   2.435796e-02
  1.066545e+00    1.699302e+00   2.478028e-02
  1.068756e+00    1.597248e+00   2.402084e-02
  1.070966e+00    1.512622e+00   2.336916e-02
  1.073177e+00    1.518612e+00   2.340926e-02
  1.075387e+00    1.484348e+00   2.313839e-02
  1.077597e+00    1.520262e+00   2.340925e-02
  1.079808e+00    1.521229e+00   2.328142e-02
  1.082018e+00    1.481197e+00   2.278279e-02
  1.084229e+00    1.439801e+00   2.235289e-02
  1.086439e+00    1.462966e+00   2.244432e-02
  1.088650e+00    1.453564e+00   2.229645e-02
  1.090860e+00    1.452223e+00   2.221859e-02
  1.093071e+00    1.436166e+00   2.203352e-02
  1.095281e+00    1.452419e+00   2.210047e-02
  1.097492e+00    1.451658e+00   2.203965e-02
  1.099702e+00    1.485639e+00   2.224391e-02
  1.101912e+00    1.499673e+00   2.229888e-02
  1.104123e+00    1.516073e+00   2.237091e-02
  1.106333e+00    1.497622e+00   2.218897e-02
  1.108544e+00    1.489172e+00   2.208112e-02
  1.110754e+00    1.459286e+00   2.181491e-02
  1.112965e+00    1.419829e+00   2.147748e-02
  1.115175e+00    1.430679e+00   2.151804e-02
  1.117386e+00    1.410815e+00   2.132892e-02
  1.119596e+00    1.417135e+00   2.133872e-02
  1.121807e+00    1.377831e+00   2.100234e-02
  1.124017e+00    1.390890e+00   2.106518e-02
  1.126228e+00    1.396517e+00   2.107212e-02
  1.128438e+00    1.357789e+00   2.074168e-02
  1.130648e+00    1.387089e+00   2.093009e-02
  1.132859e+00    1.394495e+00   2.095158e-02
  1.135069e+00    1.401809e+00   2.097161e-02
  1.137280e+00    1.390306e+00   2.085239e-02
  1.139490e+00    1.396913e+00   2.086869e-02
  1.141701e+00    1.385983e+00   2.075376e-02
  1.143911e+00    1.376026e+00   2.064729e-02
  1.146122e+00    1.390290e+00   2.072192e-02
  1.148332e+00    1.385687e+00   2.065562e-02
  1.150543e+00    1.398988e+00   2.072346e-02
  1.152753e+00    1.419395e+00   2.084274e-02
  1.154963e+00    1.405040e+00   2.070567e-02
  1.157174e+00    1.380712e+00   2.049541e-02
  1.159384e+00    1.351032e+00   2.024429e-02
  1.161595e+00    1.338759e+00   2.012262e-02
  1.163805e+00    1.411564e+00   2.063281e-02
  1.166016e+00    1.421802e+00   2.067752e-02
  1.168226e+00    1.367900e+00   2.025281e-02
  1.170437e+00    1.391556e+00   2.039827e-02
  1.172647e+00    1.366587e+00   2.018555e-02
  1.174858e+00    1.381188e+00   2.026482e-02
  1.177068e+00    1.354098e+00   2.003694e-02
  1.179278e+00    1.358265e+00   2.003920e-02
  1.181489e+00    1.355283e+00   1.999022e-02
  1.183699e+00    1.401960e+00   2.030355e-02
  1.185910e+00    1.375466e+00   2.008284e-02
  1.188120e+00    1.367519e+00   1.999795e-02
  1.190331e+00    1.378075e+00   2.004798e-02
  1.192541e+00    1.381804e+00   2.004744e-02
  1.194752e+00    1.350234e+00   1.979009e-02
  1.196962e+00    1.351526e+00   1.977381e-02
  1.199173e+00    1.356584e+00   1.978421e-02
  1.201383e+00    1.366757e+00   1.983094e-02
  1.203593e+00    1.340978e+00   1.961828e-02
  1.205804e+00    1.334569e+00   1.954559e-02
  1.208014e+00    1.337704e+00   1.954178e-02
  1.210225e+00    1.341729e+00   1.954592e-02
  1.212435e+00    1.336456e+00   1.948281e-02
  1.214646e+00    1.321463e+00   1.934738e-02
  1.216856e+00    1.350883e+00   1.953607e-02
  1.219067e+00    1.357182e+00   1.955705e-02
  1.221277e+00    1.357226e+00   1.953227e-02
  1.223488e+00    1.355610e+00   1.949484e-02
  1.225698e+00    1.385946e+00   1.968450e-02
  1.227909e+00    1.373901e+00   1.956837e-02
  1.230119e+00    1.341274e+00   1.930283e-02
  1.232329e+00    1.360267e+00   1.940822e-02
  1.234540e+00    1.334163e+00   1.919096e-02
  1.236750e+00    1.351972e+00   1.928834e-02
  1.238961e+00    1.350197e+00   1.924869e-02
  1.241171e+00    1.357894e+00   1.927924e-02
  1.243382e+00    1.329070e+00   1.905019e-02
  1.245592e+00    1.352006e+00   1.918974e-02
  1.247803e+00    1.366432e+00   1.926805e-02
  1.250013e+00    1.361565e+00   1.921007e-02
  1.252224e+00    1.346525e+00   1.908045e-02
  1.254434e+00    1.351128e+00   1.908928e-02
  1.256644e+00    1.350286e+00   1.906012e-02
  1.258855e+00    1.367365e+00   1.915687e-02
  1.261065e+00    1.341679e+00   1.895280e-02
  1.263276e+00    1.329599e+00   1.884448e-02
  1.265486e+00    1.360237e+00   1.903742e-02
  1.267697e+00    1.353873e+00   1.896978e-02
  1.269907e+00    1.364648e+00   1.902230e-02
  1.272118e+00    1.351495e+00   1.890783e-02
  1.274328e+00    1.335989e+00   1.877642e-02
  1.276539e+00    1.331585e+00   1.872282e-02
  1.278749e+00    1.340304e+00   1.876179e-02
  1.280959e+00    1.354140e+00   1.883583e-02
  1.283170e+00    1.336271e+00   1.868883e-02
  1.285380e+00    1.365646e+00   1.887052e-02
  1.287591e+00    1.375810e+00   1.891840e-02
  1.289801e+00    1.376700e+00   1.890308e-02
  1.292012e+00    1.370290e+00   1.884181e-02
  1.294222e+00    1.347037e+00   1.866503e-02
  1.296433e+00    1.366161e+00   1.878135e-02
  1.298643e+00    1.391488e+00   1.893793e-02
  1.300854e+00    1.358688e+00   1.869694e-02
  1.303064e+00    1.364711e+00   1.871900e-02
  1.305274e+00    1.364550e+00   1.869634e-02
  1.307485e+00    1.367048e+00   1.869178e-02
  1.309695e+00    1.351849e+00   1.856531e-02
  1.311906e+00    1.373493e+00   1.869144e-02
  1.314116e+00    1.364803e+00   1.861132e-02
  1.316327e+00    1.352069e+00   1.850259e-02
  1.318537e+00    1.366283e+00   1.857756e-02
  1.320748e+00    1.354843e+00   1.847805e-02
  1.322958e+00    1.337352e+00   1.833795e-02
  1.325169e+00    1.368847e+00   1.853145e-02
  1.327379e+00    1.387467e+00   1.863497e-02
  1.329589e+00    1.382002e+00   1.857691e-02
  1.331800e+00    1.413157e+00   1.876396e-02
  1.334010e+00    1.386163e+00   1.856298e-02
  1.336221e+00    1.364401e+00   1.839480e-02
  1.338431e+00    1.367810e+00   1.839676e-02
  1.340642e+00    1.365765e+00   1.844754e-02
  1.342852e+00    1.377378e+00   1.862749e-02
  1.345063e+00    1.377350e+00   1.867730e-02
  1.347273e+00    1.351729e+00   1.853803e-02
  1.349484e+00    1.333998e+00   1.844356e-02
  1.351694e+00    1.332896e+00   1.845850e-02
  1.353905e+00    1.314465e+00   1.834819e-02
  1.356115e+00    1.351390e+00   1.861915e-02
  1.358325e+00    1.333723e+00   1.851032e-02
  1.360536e+00    1.323419e+00   1.845015e-02
  1.362746e+00    1.359978e+00   1.871288e-02
  1.364957e+00    1.328567e+00   1.850312e-02
  1.367167e+00    1.342187e+00   1.860484e-02
  1.369378e+00    1.327623e+00   1.850963e-02
  1.371588e+00    1.316695e+00   1.843836e-02
  1.373799e+00    1.326331e+00   1.850936e-02
  1.376009e+00    1.321932e+00   1.848201e-02
  1.378220e+00    1.299507e+00   1.832709e-02
  1.380430e+00    1.294938e+00   1.829749e-02
  1.382640e+00    1.319868e+00   1.847368e-02
  1.384851e+00    1.319872e+00   1.847462e-02
  1.387061e+00    1.282453e+00   1.821112e-02
  1.389272e+00    1.302492e+00   1.835306e-02
  1.391482e+00    1.319938e+00   1.847487e-02
  1.393693e+00    1.331798e+00   1.855681e-02
  1.395903e+00    1.289250e+00   1.825650e-02
  1.398114e+00    1.277708e+00   1.817320e-02
  1.400324e+00    1.281318e+00   1.819672e-02
  1.402535e+00    1.294073e+00   1.828474e-02
  1.404745e+00    1.298161e+00   1.831122e-02
  1.406955e+00    1.275702e+00   1.814944e-02
  1.409166e+00    1.269004e+00   1.809841e-02
  1.411376e+00    1.288629e+00   1.823469e-02
  1.413587e+00    1.250391e+00   1.795834e-02
  1.415797e+00    1.246529e+00   1.792706e-02
  1.418008e+00    1.265292e+00   1.801967e-02
  1.420218e+00    1.257028e+00   1.781179e-02
  1.422429e+00    1.255377e+00   1.771525e-02
  1.424639e+00    1.270612e+00   1.775772e-02
  1.426850e+00    1.270932e+00   1.770525e-02
  1.429060e+00    1.280234e+00   1.772072e-02
  1.431270e+00    1.288634e+00   1.773414e-02
  1.433481e+00    1.258486e+00   1.748470e-02
  1.435691e+00    1.270093e+00   1.752671e-02
  1.437902e+00    1.280981e+00   1.756505e-02
  1.440112e+00    1.294697e+00   1.762314e-02
  1.442323e+00    1.305321e+00   1.766182e-02
  1.444533e+00    1.282656e+00   1.747510e-02
  1.446744e+00    1.291817e+00   1.750599e-02
  1.448954e+00    1.269394e+00   1.732321e-02
  1.451165e+00    1.274855e+00   1.733062e-02
  1.453375e+00    1.280187e+00   1.733867e-02
  1.455586e+00    1.282482e+00   1.732590e-02
  1.457796e+00    1.263206e+00   1.716778e-02
  1.460006e+00    1.272887e+00   1.720612e-02
  1.462217e+00    1.293836e+00   1.732068e-02
  1.464427e+00    1.266977e+00   1.711438e-02
  1.466638e+00    1.254263e+00   1.700311e-02
  1.468848e+00    1.261927e+00   1.702972e-02
  1.471059e+00    1.280376e+00   1.712855e-02
  1.473269e+00    1.288227e+00   1.715643e-02
  1.475480e+00    1.254552e+00   1.690709e-02
  1.477690e+00    1.247541e+00   1.683611e-02
  1.479901e+00    1.271883e+00   1.697570e-02
  1.482111e+00    1.294078e+00   1.709961e-02
  1.484321e+00    1.282155e+00   1.699742e-02
  1.486532e+00    1.281509e+00   1.697065e-02
  1.488742e+00    1.271491e+00   1.688149e-02
  1.490953e+00    1.289585e+00   1.697835e-02
  1.493163e+00    1.269734e+00   1.682484e-02
  1.495374e+00    1.278356e+00   1.686023e-02
  1.497584e+00    1.256427e+00   1.669340e-02
  1.499795e+00    1.254994e+00   1.666226e-02
  1.502005e+00    1.256615e+00   1.665138e-02
  1.504216e+00    1.258006e+00   1.663955e-02
  1.506426e+00    1.255946e+00   1.660514e-02
  1.508636e+00    1.256721e+00   1.658981e-02
  1.510847e+00    1.277935e+00   1.670724e-02
  1.513057e+00    1.256174e+00   1.653931e-02
  1.515268e+00    1.258390e+00   1.652811e-02
  1.517478e+00    1.286913e+00   1.668891e-02
  1.519689e+00    1.300150e+00   1.674911e-02
  1.521899e+00    1.259972e+00   1.646513e-02
  1.524110e+00    1.237992e+00   1.630067e-02
  1.526320e+00    1.245787e+00   1.633234e-02
  1.528531e+00    1.274612e+00   1.650027e-02
  1.530741e+00    1.265200e+00   1.641998e-02
  1.532951e+00    1.251456e+00   1.631098e-02
  1.535162e+00    1.221841e+00   1.620243e-02
  1.537372e+00    1.239660e+00   1.638680e-02
  1.539583e+00    1.223491e+00   1.631349e-02
  1.541793e+00    1.246479e+00   1.647294e-02
  1.544004e+00    1.261502e+00   1.657221e-02
  1.546214e+00    1.227547e+00   1.634615e-02
  1.548425e+00    1.237555e+00   1.641290e-02
  1.550635e+00    1.273669e+00   1.666045e-02
  1.552846e+00    1.257460e+00   1.656381e-02
  1.555056e+00    1.259105e+00   1.653293e-02
  1.557266e+00    1.240989e+00   1.630325e-02
  1.559477e+00    1.263653e+00   1.639188e-02
  1.561687e+00    1.242905e+00   1.622611e-02
  1.563898e+00    1.258769e+00   1.631206e-02
  1.566108e+00    1.279203e+00   1.642775e-02
  1.568319e+00    1.291599e+00   1.649126e-02
  1.570529e+00    1.288543e+00   1.644614e-02
  1.572740e+00    1.299718e+00   1.648910e-02
  1.574950e+00    1.265031e+00   1.624105e-02
  1.577161e+00    1.268293e+00   1.623625e-02
  1.579371e+00    1.275335e+00   1.625731e-02
  1.581582e+00    1.246188e+00   1.605068e-02
  1.583792e+00    1.259772e+00   1.611978e-02
  1.586002e+00    1.252038e+00   1.605257e-02
  1.588213e+00    1.241126e+00   1.596523e-02
  1.590423e+00    1.241967e+00   1.595058e-02
  1.592634e+00    1.238484e+00   1.590663e-02
  1.594844e+00    1.244200e+00   1.592187e-02
  1.597055e+00    1.259172e+00   1.599678e-02
  1.599265e+00    1.239854e+00   1.585286e-02
  1.601476e+00    1.250300e+00   1.589913e-02
  1.603686e+00    1.248158e+00   1.586569e-02
  1.605897e+00    1.233484e+00   1.575203e-02
  1.608107e+00    1.226686e+00   1.568908e-02
  1.610317e+00    1.237965e+00   1.574173e-02
  1.612528e+00    1.236234e+00   1.571156e-02
  1.614738e+00    1.205284e+00   1.549488e-02
  1.616949e+00    1.188855e+00   1.537023e-02
  1.619159e+00    1.173895e+00   1.525487e-02
  1.621370e+00    1.189988e+00   1.534082e-02
  1.623580e+00    1.203639e+00   1.541034e-02
  1.625791e+00    1.194571e+00   1.533401e-02
  1.628001e+00    1.183235e+00   1.524299e-02
  1.630212e+00    1.156813e+00   1.505433e-02
  1.632422e+00    1.168331e+00   1.511134e-02
  1.634632e+00    1.176745e+00   1.514838e-02
  1.636843e+00    1.197142e+00   1.526142e-02
  1.639053e+00    1.175866e+00   1.510789e-02
  1.641264e+00    1.169009e+00   1.504669e-02
  1.643474e+00    1.147901e+00   1.489296e-02
  1.645685e+00    1.131730e+00   1.477120e-02
  1.647895e+00    1.117612e+00   1.466245e-02
  1.650106e+00    1.145227e+00   1.482554e-02
  1.652316e+00    1.127450e+00   1.469368e-02
  1.654527e+00    1.135128e+00   1.472701e-02
  1.656737e+00    1.134107e+00   1.470386e-02
  1.658947e+00    1.118162e+00   1.458394e-02
  1.661158e+00    1.116009e+00   1.455371e-02
  1.663368e+00    1.142131e+00   1.470686e-02
  1.665579e+00    1.156785e+00   1.478453e-02
  1.667789e+00    1.125184e+00   1.456488e-02
  1.670000e+00    1.111169e+00   1.445842e-02
  1.672210e+00    1.089764e+00   1.430274e-02
  1.674421e+00    1.081207e+00   1.423130e-02
  1.676631e+00    1.088201e+00   1.426148e-02
  1.678842e+00    1.074620e+00   1.415662e-02
  1.681052e+00    1.079556e+00   1.417380e-02
  1.683263e+00    1.092335e+00   1.424229e-02
  1.685473e+00    1.075300e+00   1.411573e-02
  1.687683e+00    1.067498e+00   1.404912e-02
  1.689894e+00    1.050525e+00   1.392142e-02
  1.692104e+00    1.062641e+00   1.398665e-02
  1.694315e+00    1.059441e+00   1.395115e-02
  1.696525e+00    1.064046e+00   1.396634e-02
  1.698736e+00    1.051269e+00   1.386750e-02
  1.700946e+00    1.032770e+00   1.373001e-02
  1.703157e+00    1.029253e+00   1.369215e-02
  1.705367e+00    1.060391e+00   1.388318e-02
  1.707578e+00    1.031764e+00   1.368006e-02
  1.709788e+00    1.044943e+00   1.375303e-02
  1.711998e+00    1.035175e+00   1.367366e-02
  1.714209e+00    1.020332e+00   1.356095e-02
  1.716419e+00    1.028047e+00   1.359789e-02
  1.718630e+00    1.039023e+00   1.365598e-02
  1.720840e+00    1.025619e+00   1.355345e-02
  1.723051e+00    9.891623e-01   1.329676e-02
  1.725261e+00    1.010381e+00   1.342400e-02
  1.727472e+00    1.015208e+00   1.344189e-02
  1.729682e+00    1.012985e+00   1.341373e-02
  1.731893e+00    1.002057e+00   1.332732e-02
  1.734103e+00    1.019997e+00   1.343225e-02
  1.736313e+00    9.930674e-01   1.323981e-02
  1.738524e+00    1.004170e+00   1.329977e-02
  1.740734e+00    1.018475e+00   1.338034e-02
  1.742945e+00    9.901719e-01   1.317972e-02
  1.745155e+00    9.778216e-01   1.308390e-02
  1.747366e+00    9.789175e-01   1.307749e-02
  1.749576e+00    9.699219e-01   1.300370e-02
  1.751787e+00    9.699648e-01   1.299073e-02
  1.753997e+00    9.772199e-01   1.302586e-02
  1.756208e+00    9.786053e-01   1.302187e-02
  1.758418e+00    9.644635e-01   1.291438e-02
  1.760628e+00    9.591671e-01   1.286557e-02
  1.762839e+00    9.557783e-01   1.282969e-02
  1.765049e+00    9.517969e-01   1.278988e-02
  1.767260e+00    9.515571e-01   1.277551e-02
  1.769470e+00    9.587287e-01   1.281056e-02
  1.771681e+00    9.693904e-01   1.286833e-02
  1.773891e+00    9.590268e-01   1.278626e-02
  1.776102e+00    9.390700e-01   1.263971e-02
  1.778312e+00    9.260032e-01   1.253885e-02
  1.780523e+00    9.368998e-01   1.259970e-02
  1.782733e+00    9.540155e-01   1.270149e-02
  1.784944e+00    9.455252e-01   1.263189e-02
  1.787154e+00    9.485185e-01   1.263921e-02
  1.789364e+00    9.730154e-01   1.278864e-02
  1.791575e+00    9.729608e-01   1.277544e-02
  1.793785e+00    9.519355e-01   1.262406e-02
  1.795996e+00    9.455901e-01   1.256921e-02
  1.798206e+00    9.437732e-01   1.254446e-02
  1.800417e+00    9.491159e-01   1.256699e-02
  1.802627e+00    9.680166e-01   1.267923e-02
  1.804838e+00    9.483365e-01   1.253735e-02
  1.807048e+00    9.447988e-01   1.250084e-02
  1.809259e+00    9.155233e-01   1.229200e-02
  1.811469e+00    9.064409e-01   1.221588e-02
  1.813679e+00    8.920569e-01   1.210367e-02
  1.815890e+00    9.046465e-01   1.217397e-02
  1.818100e+00    9.066481e-01   1.217225e-02
  1.820311e+00    9.054862e-01   1.214958e-02
  1.822521e+00    9.135930e-01   1.218880e-02
  1.824732e+00    9.259436e-01   1.225582e-02
  1.826942e+00    8.843900e-01   1.196535e-02
  1.829153e+00    8.590652e-01   1.178127e-02
  1.831363e+00    8.609971e-01   1.178261e-02
  1.833574e+00    8.868747e-01   1.194666e-02
  1.835784e+00    8.868844e-01   1.193526e-02
  1.837994e+00    8.821612e-01   1.189168e-02
  1.840205e+00    8.908140e-01   1.193859e-02
  1.842415e+00    8.929092e-01   1.194071e-02
  1.844626e+00    8.817027e-01   1.185393e-02
  1.846836e+00    8.895234e-01   1.189479e-02
  1.849047e+00    8.832118e-01   1.184081e-02
  1.851257e+00    8.726593e-01   1.176024e-02
  1.853468e+00    8.600851e-01   1.166642e-02
  1.855678e+00    8.696049e-01   1.172186e-02
  1.857889e+00    8.690577e-01   1.170963e-02
  1.860099e+00    8.714390e-01   1.171696e-02
  1.862309e+00    8.682976e-01   1.168724e-02
  1.864520e+00    8.872191e-01   1.180518e-02
  1.866730e+00    8.850859e-01   1.178143e-02
  1.868941e+00    8.703513e-01   1.167189e-02
  1.871151e+00    8.625001e-01   1.160767e-02
  1.873362e+00    8.571045e-01   1.155990e-02
  1.875572e+00    8.616084e-01   1.157923e-02
  1.877783e+00    8.540516e-01   1.151688e-02
  1.879993e+00    8.592206e-01   1.154043e-02
  1.882204e+00    8.547807e-01   1.149962e-02
  1.884414e+00    8.536263e-01   1.148071e-02
  1.886624e+00    8.494803e-01   1.144169e-02
  1.888835e+00    8.472022e-01   1.141533e-02
  1.891045e+00    8.546795e-01   1.145461e-02
  1.893256e+00    8.489729e-01   1.140515e-02
  1.895466e+00    8.352671e-01   1.130157e-02
  1.897677e+00    8.061207e-01   1.109189e-02
  1.899887e+00    8.196597e-01   1.117376e-02
  1.902098e+00    8.392196e-01   1.129541e-02
  1.904308e+00    8.255242e-01   1.119233e-02
  1.906519e+00    8.108464e-01   1.108166e-02
  1.908729e+00    8.248255e-01   1.116619e-02
  1.910940e+00    8.375919e-01   1.124107e-02
  1.913150e+00    8.315064e-01   1.118955e-02
  1.915360e+00    8.074561e-01   1.101604e-02
  1.917571e+00    8.172566e-01   1.107183e-02
  1.919781e+00    8.351651e-01   1.118172e-02
  1.921992e+00    8.177102e-01   1.105366e-02
  1.924202e+00    8.047557e-01   1.095506e-02
  1.926413e+00    8.209323e-01   1.105429e-02
  1.928623e+00    8.048658e-01   1.093511e-02
  1.930834e+00    8.256009e-01   1.106454e-02
  1.933044e+00    8.330316e-01   1.110342e-02
  1.935255e+00    8.294427e-01   1.106904e-02
  1.937465e+00    8.147643e-01   1.096021e-02
  1.939675e+00    8.106440e-01   1.092160e-02
  1.941886e+00    8.037024e-01   1.086445e-02
  1.944096e+00    8.131669e-01   1.091799e-02
  1.946307e+00    8.029153e-01   1.083862e-02
  1.948517e+00    8.170179e-01   1.092282e-02
  1.950728e+00    8.073895e-01   1.084797e-02
  1.952938e+00    8.020619e-01   1.080201e-02
  1.955149e+00    8.001342e-01   1.077876e-02
  1.957359e+00    7.983568e-01   1.075673e-02
  1.959570e+00    7.848500e-01   1.065454e-02
  1.961780e+00    7.811087e-01   1.061928e-02
  1.963990e+00    7.929448e-01   1.068929e-02
  1.966201e+00    7.858594e-01   1.063142e-02
  1.968411e+00    7.732648e-01   1.053584e-02
  1.970622e+00    7.687969e-01   1.049537e-02
  1.972832e+00    7.872047e-01   1.061029e-02
  1.975043e+00    7.904817e-01   1.062231e-02
  1.977253e+00    7.900854e-01   1.060966e-02
  1.979464e+00    7.901809e-01   1.060022e-02
  1.981674e+00    7.820252e-01   1.053512e-02
  1.983885e+00    7.805355e-01   1.051507e-02
  1.986095e+00    7.748549e-01   1.046707e-02
  1.988305e+00    7.810155e-01   1.049868e-02
  1.990516e+00    7.763675e-01   1.045750e-02
  1.992726e+00    7.727816e-01   1.042367e-02
  1.994937e+00    7.887982e-01   1.052094e-02
  1.997147e+00    7.879357e-01   1.050539e-02
  1.999358e+00    7.875888e-01   1.049313e-02
  2.001568e+00    7.818673e-01   1.044409e-02
  2.003779e+00    7.898728e-01   1.048536e-02
  2.005989e+00    7.871770e-01   1.045532e-02
  2.008200e+00    7.692490e-01   1.032405e-02
  2.010410e+00    7.812641e-01   1.039251e-02
  2.012621e+00    7.846451e-01   1.040317e-02
  2.014831e+00    7.710103e-01   1.030087e-02
  2.017041e+00    7.726590e-01   1.030147e-02
  2.019252e+00    7.858328e-01   1.037882e-02
  2.021462e+00    7.814561e-01   1.034027e-02
  2.023673e+00    7.837144e-01   1.034571e-02
  2.025883e+00    7.666200e-01   1.022269e-02
  2.028094e+00    7.845781e-01   1.033197e-02
  2.030304e+00    7.829559e-01   1.031161e-02
  2.032515e+00    7.701959e-01   1.021789e-02
  2.034725e+00    7.752629e-01   1.024190e-02
  2.036936e+00    7.601144e-01   1.013200e-02
  2.039146e+00    7.612579e-01   1.013000e-02
  2.041356e+00    7.804020e-01   1.024680e-02
  2.043567e+00    7.690281e-01   1.016247e-02
  2.045777e+00    7.734559e-01   1.018233e-02
  2.047988e+00    7.672644e-01   1.013203e-02
  2.050198e+00    7.642081e-01   1.010335e-02
  2.052409e+00    7.608867e-01   1.007368e-02
  2.054619e+00    7.599918e-01   1.006034e-02
  2.056830e+00    7.600868e-01   1.005375e-02
  2.059040e+00    7.538978e-01   1.000520e-02
  2.061251e+00    7.477747e-01   9.957261e-03
  2.063461e+00    7.507095e-01   9.969165e-03
  2.065671e+00    7.552246e-01   9.990332e-03
  2.067882e+00    7.607989e-01   1.001809e-02
  2.070092e+00    7.424662e-01   9.887470e-03
  2.072303e+00    7.485589e-01   9.918802e-03
  2.074513e+00    7.451338e-01   9.886769e-03
  2.076724e+00    7.405028e-01   9.846563e-03
  2.078934e+00    7.340001e-01   9.794272e-03
  2.081145e+00    7.487248e-01   9.882920e-03
  2.083355e+00    7.512145e-01   9.890103e-03
  2.085566e+00    7.463025e-01   9.848776e-03
  2.087776e+00    7.349190e-01   9.763905e-03
  2.089986e+00    7.230127e-01   9.675794e-03
  2.092197e+00    7.400482e-01   9.780133e-03
  2.094407e+00    7.387464e-01   9.762301e-03
  2.096618e+00    7.413140e-01   9.770297e-03
  2.098828e+00    7.475244e-01   9.801772e-03
  2.101039e+00    7.343869e-01   9.706248e-03
  2.103249e+00    7.383820e-01   9.723916e-03
  2.105460e+00    7.294433e-01   9.655866e-03
  2.107670e+00    7.059575e-01   9.490553e-03
  2.109881e+00    7.284794e-01   9.631558e-03
  2.112091e+00    7.316399e-01   9.643433e-03
  2.114301e+00    7.240657e-01   9.584597e-03
  2.116512e+00    7.273368e-01   9.597403e-03
  2.118722e+00    7.087146e-01   9.465011e-03
  2.120933e+00    7.173509e-01   9.513646e-03
  2.123143e+00    7.189353e-01   9.515255e-03
  2.125354e+00    7.156351e-01   9.484859e-03
  2.127564e+00    7.327536e-01   9.588802e-03
  2.129775e+00    7.291893e-01   9.556664e-03
  2.131985e+00    6.991342e-01   9.348664e-03
  2.134196e+00    7.120839e-01   9.426265e-03
  2.136406e+00    7.249058e-01   9.501939e-03
  2.138617e+00    7.157656e-01   9.433353e-03
  2.140827e+00    7.139603e-01   9.437577e-03
  2.143037e+00    6.954750e-01   9.359688e-03
  2.145248e+00    7.079663e-01   9.465407e-03
  2.147458e+00    7.090013e-01   9.487517e-03
  2.149669e+00    6.989782e-01   9.432022e-03
  2.151879e+00    7.133784e-01   9.537986e-03
  2.154090e+00    7.051589e-01   9.490225e-03
  2.156300e+00    7.015307e-01   9.472379e-03
  2.158511e+00    6.999946e-01   9.467306e-03
  2.160721e+00    7.022277e-01   9.487220e-03
  2.162932e+00    7.150647e-01   9.577336e-03
  2.165142e+00    7.112579e-01   9.554850e-03
  2.167352e+00    7.193395e-01   9.611965e-03
  2.169563e+00    6.927871e-01   9.434832e-03
  2.171773e+00    7.043782e-01   9.515904e-03
  2.173984e+00    6.997162e-01   9.485773e-03
  2.176194e+00    6.862193e-01   9.395038e-03
  2.178405e+00    6.995013e-01   9.486227e-03
  2.180615e+00    6.918153e-01   9.434641e-03
  2.182826e+00    6.922167e-01   9.438067e-03
  2.185036e+00    6.857905e-01   9.394201e-03
  2.187247e+00    6.857079e-01   9.393592e-03
  2.189457e+00    6.754736e-01   9.322812e-03
  2.191667e+00    6.903712e-01   9.424882e-03
  2.193878e+00    6.820618e-01   9.367441e-03
  2.196088e+00    6.837234e-01   9.378146e-03
  2.198299e+00    6.992928e-01   9.483228e-03
  2.200509e+00    7.015018e-01   9.497122e-03
  2.202720e+00    6.999863e-01   9.485698e-03
  2.204930e+00    6.969768e-01   9.464022e-03
  2.207141e+00    6.938370e-01   9.441552e-03
  2.209351e+00    6.988397e-01   9.473641e-03
  2.211562e+00    6.615475e-01   9.215802e-03
  2.213772e+00    6.685606e-01   9.209360e-03
  2.215982e+00    6.734970e-01   9.199177e-03
  2.218193e+00    6.827799e-01   9.232566e-03
  2.220403e+00    6.906119e-01   9.260492e-03
  2.222614e+00    6.834819e-01   9.191471e-03
  2.224824e+00    6.837385e-01   9.173664e-03
  2.227035e+00    6.906663e-01   9.202358e-03
  2.229245e+00    6.536369e-01   8.935540e-03
  2.231456e+00    6.592146e-01   8.958082e-03
  2.233666e+00    6.686667e-01   9.007034e-03
  2.235877e+00    6.570993e-01   8.914638e-03
  2.238087e+00    6.697439e-01   8.986537e-03
  2.240298e+00    6.717484e-01   8.986183e-03
  2.242508e+00    6.689913e-01   8.952597e-03
  2.244718e+00    6.646841e-01   8.907958e-03
  2.246929e+00    6.714276e-01   8.938583e-03
  2.249139e+00    6.618009e-01   8.861950e-03
  2.251350e+00    6.530747e-01   8.791746e-03
  2.253560e+00    6.510088e-01   8.766387e-03
  2.255771e+00    6.595151e-01   8.812134e-03
  2.257981e+00    6.423681e-01   8.685830e-03
  2.260192e+00    6.595477e-01   8.790135e-03
  2.262402e+00    6.749613e-01   8.881312e-03
  2.264613e+00    6.769745e-01   8.883619e-03
  2.266823e+00    6.588628e-01   8.753615e-03
  2.269033e+00    6.601463e-01   8.751777e-03
  2.271244e+00    6.645634e-01   8.770575e-03
  2.273454e+00    6.808323e-01   8.866905e-03
  2.275665e+00    6.696863e-01   8.783657e-03
  2.277875e+00    6.632276e-01   8.731252e-03
  2.280086e+00    6.740816e-01   8.792254e-03
  2.282296e+00    6.677335e-01   8.741299e-03
  2.284507e+00    6.608332e-01   8.685872e-03
  2.286717e+00    6.654757e-01   8.706792e-03
  2.288928e+00    6.561732e-01   8.635878e-03
  2.291138e+00    6.736691e-01   8.740691e-03
  2.293348e+00    6.646968e-01   8.672705e-03
  2.295559e+00    6.645645e-01   8.662454e-03
  2.297769e+00    6.593242e-01   8.618957e-03
  2.299980e+00    6.579444e-01   8.600557e-03
  2.302190e+00    6.637602e-01   8.629294e-03
  2.304401e+00    6.662815e-01   8.636244e-03
  2.306611e+00    6.453685e-01   8.490490e-03
  2.308822e+00    6.423760e-01   8.462436e-03
  2.311032e+00    6.501540e-01   8.507065e-03
  2.313243e+00    6.501550e-01   8.500802e-03
  2.315453e+00    6.548792e-01   8.524019e-03
  2.317663e+00    6.638968e-01   8.573274e-03
  2.319874e+00    6.627887e-01   8.557268e-03
  2.322084e+00    6.430838e-01   8.420181e-03
  2.324295e+00    6.485589e-01   8.447676e-03
  2.326505e+00    6.623428e-01   8.527804e-03
  2.328716e+00    6.576290e-01   8.488770e-03
  2.330926e+00    6.506736e-01   8.434912e-03
  2.333137e+00    6.444180e-01   8.385863e-03
  2.335347e+00    6.425872e-01   8.365083e-03
  2.337558e+00    6.358272e-01   8.312751e-03
  2.339768e+00    6.451412e-01   8.364808e-03
  2.341979e+00    6.393087e-01   8.318556e-03
  2.344189e+00    6.301557e-01   8.250437e-03
  2.346399e+00    6.193168e-01   8.170791e-03
  2.348610e+00    6.346622e-01   8.262943e-03
  2.350820e+00    6.371323e-01   8.270809e-03
  2.353031e+00    6.225674e-01   8.167541e-03
  2.355241e+00    6.237018e-01   8.166962e-03
  2.357452e+00    6.441804e-01   8.291449e-03
  2.359662e+00    6.542709e-01   8.347787e-03
  2.361873e+00    6.446475e-01   8.277847e-03
  2.364083e+00    6.260279e-01   8.149455e-03
  2.366294e+00    6.259145e-01   8.140611e-03
  2.368504e+00    6.289299e-01   8.152111e-03
  2.370714e+00    6.233451e-01   8.107794e-03
  2.372925e+00    6.259204e-01   8.116460e-03
  2.375135e+00    6.209432e-01   8.076102e-03
  2.377346e+00    6.152146e-01   8.030863e-03
  2.379556e+00    6.225950e-01   8.070996e-03
  2.381767e+00    6.181376e-01   8.034205e-03
  2.383977e+00    6.214406e-01   8.047724e-03
  2.386188e+00    6.129571e-01   7.984704e-03
  2.388398e+00    6.238888e-01   8.047614e-03
  2.390609e+00    6.247683e-01   8.045514e-03
  2.392819e+00    6.153821e-01   7.977068e-03
  2.395029e+00    6.299379e-01   8.063117e-03
  2.397240e+00    6.255996e-01   8.027365e-03
  2.399450e+00    6.156122e-01   7.955218e-03
  2.401661e+00    6.154076e-01   7.946177e-03
  2.403871e+00    6.197649e-01   7.966460e-03
  2.406082e+00    6.164004e-01   7.937331e-03
  2.408292e+00    6.089573e-01   7.881473e-03
  2.410503e+00    6.173358e-01   7.927967e-03
  2.412713e+00    5.954148e-01   7.778224e-03
  2.414924e+00    5.933841e-01   7.757523e-03
  2.417134e+00    6.042881e-01   7.820849e-03
  2.419344e+00    5.964488e-01   7.762597e-03
  2.421555e+00    5.950135e-01   7.745774e-03
  2.423765e+00    5.987485e-01   7.762665e-03
  2.425976e+00    5.943423e-01   7.726258e-03
  2.428186e+00    6.008562e-01   7.761268e-03
  2.430397e+00    6.069596e-01   7.793039e-03
  2.432607e+00    6.008442e-01   7.746375e-03
  2.434818e+00    5.978494e-01   7.719493e-03
  2.437028e+00    5.802309e-01   7.597828e-03
  2.439239e+00    6.081781e-01   7.770889e-03
  2.441449e+00    5.909764e-01   7.653047e-03
  2.443659e+00    5.859981e-01   7.613394e-03
  2.445870e+00    5.960631e-01   7.690847e-03
  2.448080e+00    5.737744e-01   7.580188e-03
  2.450291e+00    5.653691e-01   7.540912e-03
  2.452501e+00    5.643322e-01   7.545027e-03
  2.454712e+00    5.805703e-01   7.661286e-03
  2.456922e+00    5.791188e-01   7.658389e-03
  2.459133e+00    5.501437e-01   7.469699e-03
  2.461343e+00    5.612324e-01   7.548907e-03
  2.463554e+00    5.565482e-01   7.520798e-03
  2.465764e+00    5.493065e-01   7.474809e-03
  2.467975e+00    5.601495e-01   7.550496e-03
  2.470185e+00    5.543970e-01   7.513885e-03
  2.472395e+00    5.487816e-01   7.476950e-03
  2.474606e+00    5.524870e-01   7.503700e-03
  2.476816e+00    5.475061e-01   7.470540e-03
  2.479027e+00    5.504223e-01   7.491238e-03
  2.481237e+00    5.469863e-01   7.468123e-03
  2.483448e+00    5.425834e-01   7.438301e-03
  2.485658e+00    5.335644e-01   7.376072e-03
  2.487869e+00    5.288785e-01   7.343652e-03
  2.490079e+00    5.410107e-01   7.426877e-03
  2.492290e+00    5.365167e-01   7.395553e-03
  2.494500e+00    5.259380e-01   7.321545e-03
  2.496710e+00    5.228784e-01   7.299528e-03
  2.498921e+00    5.321317e-01   7.362835e-03
  2.501131e+00    5.411156e-01   7.423788e-03
  2.503342e+00    5.324475e-01   7.362822e-03
  2.505552e+00    5.400870e-01   7.414308e-03
  2.507763e+00    5.300478e-01   7.343675e-03
  2.509973e+00    5.312958e-01   7.350898e-03
  2.512184e+00    5.333411e-01   7.363427e-03
  2.514394e+00    5.225754e-01   7.279405e-03
  2.516605e+00    5.197675e-01   7.213047e-03
  2.518815e+00    5.290889e-01   7.249044e-03
  2.521025e+00    5.285169e-01   7.224095e-03
  2.523236e+00    5.443439e-01   7.313163e-03
  2.525446e+00    5.339542e-01   7.227310e-03
  2.527657e+00    5.357323e-01   7.224582e-03
  2.529867e+00    5.317593e-01   7.183474e-03
  2.532078e+00    5.270707e-01   7.136681e-03
  2.534288e+00    5.242284e-01   7.103508e-03
  2.536499e+00    5.326384e-01   7.148245e-03
  2.538709e+00    5.326403e-01   7.137177e-03
  2.540920e+00    5.202280e-01   7.042926e-03
  2.543130e+00    5.240936e-01   7.058674e-03
  2.545340e+00    5.215212e-01   7.031286e-03
  2.547551e+00    5.178763e-01   6.996779e-03
  2.549761e+00    5.195184e-01   6.998315e-03
  2.551972e+00    5.114737e-01   6.934640e-03
  2.554182e+00    5.265582e-01   7.026942e-03
  2.556393e+00    5.192178e-01   6.968717e-03
  2.558603e+00    5.250492e-01   6.998630e-03
  2.560814e+00    5.173882e-01   6.938693e-03
  2.563024e+00    5.115250e-01   6.890757e-03
  2.565235e+00    5.234749e-01   6.961210e-03
  2.567445e+00    5.312601e-01   7.003160e-03
  2.569656e+00    5.103219e-01   6.854070e-03
  2.571866e+00    5.129765e-01   6.862552e-03
  2.574076e+00    5.131207e-01   6.854308e-03
  2.576287e+00    5.160514e-01   6.865499e-03
  2.578497e+00    5.139660e-01   6.843810e-03
  2.580708e+00    4.930114e-01   6.694939e-03
  2.582918e+00    5.057926e-01   6.773441e-03
  2.585129e+00    5.129432e-01   6.813441e-03
  2.587339e+00    5.117151e-01   6.797602e-03
  2.589550e+00    5.188048e-01   6.836950e-03
  2.591760e+00    5.000191e-01   6.704375e-03
  2.593971e+00    5.158703e-01   6.802258e-03
  2.596181e+00    5.055916e-01   6.727959e-03
  2.598391e+00    5.124450e-01   6.768215e-03
  2.600602e+00    5.023588e-01   6.695399e-03
  2.602812e+00    5.057636e-01   6.710544e-03
  2.605023e+00    5.001622e-01   6.666173e-03
  2.607233e+00    4.974034e-01   6.640695e-03
  2.609444e+00    5.116661e-01   6.727977e-03
  2.611654e+00    5.140068e-01   6.735958e-03
  2.613865e+00    5.228850e-01   6.786747e-03
  2.616075e+00    5.118566e-01   6.707629e-03
  2.618286e+00    5.004331e-01   6.625369e-03
  2.620496e+00    5.129391e-01   6.700911e-03
  2.622706e+00    4.980977e-01   6.597558e-03
  2.624917e+00    4.988361e-01   6.596616e-03
  2.627127e+00    5.052730e-01   6.633293e-03
  2.629338e+00    5.039876e-01   6.618877e-03
  2.631548e+00    4.969825e-01   6.566592e-03
  2.633759e+00    5.010276e-01   6.586117e-03
  2.635969e+00    4.981191e-01   6.560315e-03
  2.638180e+00    4.920902e-01   6.513569e-03
  2.640390e+00    4.961635e-01   6.533897e-03
  2.642601e+00    5.083718e-01   6.607093e-03
  2.644811e+00    4.996282e-01   6.542953e-03
  2.647021e+00    5.011160e-01   6.546113e-03
  2.649232e+00    4.978466e-01   6.518030e-03
  2.651442e+00    4.908141e-01   6.465358e-03
  2.653653e+00    5.047066e-01   6.549398e-03
  2.655863e+00    5.029454e-01   6.531246e-03
  2.658074e+00    5.088468e-01   6.562776e-03
  2.660284e+00    4.979102e-01   6.485508e-03
  2.662495e+00    4.872750e-01   6.409183e-03
  2.664705e+00    4.963931e-01   6.462298e-03
  2.666916e+00    5.048560e-01   6.510630e-03
  2.669126e+00    4.917883e-01   6.419415e-03
  2.671337e+00    4.844716e-01   6.364952e-03
  2.673547e+00    4.989723e-01   6.453101e-03
  2.675757e+00    4.889876e-01   6.381815e-03
  2.677968e+00    4.935044e-01   6.404677e-03
  2.680178e+00    4.925831e-01   6.392319e-03
  2.682389e+00    4.958477e-01   6.407054e-03
  2.684599e+00    4.848665e-01   6.329575e-03
  2.686810e+00    4.986245e-01   6.412086e-03
  2.689020e+00    5.047749e-01   6.445144e-03
  2.691231e+00    5.075634e-01   6.456531e-03
  2.693441e+00    4.985442e-01   6.392714e-03
  2.695652e+00    4.964338e-01   6.372618e-03
  2.697862e+00    4.864428e-01   6.301830e-03
  2.700072e+00    4.892481e-01   6.313905e-03
  2.702283e+00    4.888930e-01   6.305400e-03
  2.704493e+00    4.892212e-01   6.301224e-03
  2.706704e+00    4.947991e-01   6.330594e-03
  2.708914e+00    4.864508e-01   6.271015e-03
  2.711125e+00    4.851005e-01   6.256072e-03
  2.713335e+00    4.927162e-01   6.298859e-03
  2.715546e+00    4.912659e-01   6.283102e-03
  2.717756e+00    4.865445e-01   6.246948e-03
  2.719967e+00    4.724481e-01   6.149670e-03
  2.722177e+00    4.756020e-01   6.164094e-03
  2.724387e+00    4.748028e-01   6.152867e-03
  2.726598e+00    4.788468e-01   6.173004e-03
  2.728808e+00    4.875752e-01   6.222841e-03
  2.731019e+00    4.792060e-01   6.163126e-03
  2.733229e+00    4.760655e-01   6.137126e-03
  2.735440e+00    4.816767e-01   6.166946e-03
  2.737650e+00    4.914892e-01   6.223374e-03
  2.739861e+00    4.738337e-01   6.104570e-03
  2.742071e+00    4.785766e-01   6.129317e-03
  2.744282e+00    4.814962e-01   6.141755e-03
  2.746492e+00    4.826403e-01   6.143002e-03
  2.748702e+00    4.810511e-01   6.126989e-03
  2.750913e+00    4.806098e-01   6.118394e-03
  2.753123e+00    4.843098e-01   6.135750e-03
  2.755334e+00    4.871936e-01   6.147901e-03
  2.757544e+00    4.687651e-01   6.024816e-03
  2.759755e+00    4.809673e-01   6.096848e-03
  2.761965e+00    4.893606e-01   6.143781e-03
  2.764176e+00    4.851753e-01   6.111423e-03
  2.766386e+00    4.827712e-01   6.090463e-03
  2.768597e+00    4.831238e-01   6.086797e-03
  2.770807e+00    4.935509e-01   6.146166e-03
  2.773017e+00    4.778736e-01   6.041811e-03
  2.775228e+00    4.875832e-01   6.097032e-03
  2.777438e+00    4.748225e-01   6.010952e-03
  2.779649e+00    4.737062e-01   5.998001e-03
  2.781859e+00    4.763809e-01   6.009155e-03
  2.784070e+00    4.813597e-01   6.034591e-03
  2.786280e+00    4.759426e-01   5.994790e-03
  2.788491e+00    4.780504e-01   6.002192e-03
  2.790701e+00    4.868974e-01   6.051774e-03
  2.792912e+00    4.784504e-01   5.993076e-03
  2.795122e+00    4.825919e-01   6.013191e-03
  2.797333e+00    4.698520e-01   5.927752e-03
  2.799543e+00    4.816591e-01   5.995872e-03
  2.801753e+00    4.818981e-01   5.991461e-03
  2.803964e+00    4.899872e-01   6.035795e-03
  2.806174e+00    4.770048e-01   5.949148e-03
  2.808385e+00    4.744423e-01   5.926332e-03
  2.810595e+00    4.894269e-01   6.012229e-03
  2.812806e+00    4.882746e-01   5.998449e-03
  2.815016e+00    4.676684e-01   5.865810e-03
  2.817227e+00    4.823585e-01   5.983344e-03
  2.819437e+00    4.771844e-01   5.962322e-03
  2.821648e+00    4.685220e-01   5.910221e-03
  2.823858e+00    4.744663e-01   5.952927e-03
  2.826068e+00    4.838579e-01   6.016605e-03
  2.828279e+00    4.868537e-01   6.039304e-03
  2.830489e+00    4.659963e-01   5.911844e-03
  2.832700e+00    4.685512e-01   5.930551e-03
  2.834910e+00    4.765173e-01   5.982847e-03
  2.837121e+00    4.758956e-01   5.980662e-03
  2.839331e+00    4.722450e-01   5.958903e-03
  2.841542e+00    4.823620e-01   6.023417e-03
  2.843752e+00    4.908390e-01   6.076930e-03
  2.845963e+00    4.756952e-01   5.982841e-03
  2.848173e+00    4.736344e-01   5.969968e-03
  2.850383e+00    4.561965e-01   5.859321e-03
  2.852594e+00    4.582244e-01   5.872235e-03
  2.854804e+00    4.837444e-01   6.033040e-03
  2.857015e+00    4.773811e-01   5.992802e-03
  2.859225e+00    4.563091e-01   5.858797e-03
  2.861436e+00    4.737228e-01   5.968860e-03
  2.863646e+00    4.801660e-01   6.009370e-03
  2.865857e+00    4.814019e-01   6.017445e-03
  2.868067e+00    4.775797e-01   5.993725e-03
  2.870278e+00    4.809621e-01   6.014561e-03
  2.872488e+00    4.795163e-01   6.004338e-03
  2.874698e+00    4.828502e-01   6.024101e-03
  2.876909e+00    4.714093e-01   5.950976e-03
  2.879119e+00    4.738314e-01   5.964592e-03
  2.881330e+00    4.661886e-01   5.914823e-03
  2.883540e+00    4.672638e-01   5.920240e-03
  2.885751e+00    4.641324e-01   5.898724e-03
  2.887961e+00    4.584562e-01   5.860665e-03
  2.890172e+00    4.705782e-01   5.936012e-03
  2.892382e+00    4.604440e-01   5.869956e-03
  2.894593e+00    4.659765e-01   5.903271e-03
  2.896803e+00    4.769279e-01   5.970244e-03
  2.899014e+00    4.675592e-01   5.909380e-03
  2.901224e+00    4.674464e-01   5.906654e-03
  2.903434e+00    4.637780e-01   5.881488e-03
  2.905645e+00    4.660354e-01   5.893548e-03
  2.907855e+00    4.576406e-01   5.838115e-03
  2.910066e+00    4.548895e-01   5.818482e-03
  2.912276e+00    4.530605e-01   5.804666e-03
  2.914487e+00    4.596243e-01   5.844092e-03
  2.916697e+00    4.623204e-01   5.858992e-03
  2.918908e+00    4.644918e-01   5.870708e-03
  2.921118e+00    4.777153e-01   5.950924e-03
  2.923329e+00    4.645860e-01   5.866277e-03
  2.925539e+00    4.632052e-01   5.855239e-03
  2.927749e+00    4.592206e-01   5.827681e-03
  2.929960e+00    4.572284e-01   5.812253e-03
  2.932170e+00    4.537473e-01   5.787760e-03
  2.934381e+00    4.526995e-01   5.778644e-03
  2.936591e+00    4.693858e-01   5.881565e-03
  2.938802e+00    4.529860e-01   5.775216e-03
  2.941012e+00    4.577205e-01   5.802968e-03
  2.943223e+00    4.605530e-01   5.818181e-03
  2.945433e+00    4.644884e-01   5.839219e-03
  2.947644e+00    4.575022e-01   5.791004e-03
  2.949854e+00    4.464358e-01   5.716301e-03
  2.952064e+00    4.531977e-01   5.755213e-03
  2.954275e+00    4.604067e-01   5.796376e-03
  2.956485e+00    4.484736e-01   5.716600e-03
  2.958696e+00    4.559410e-01   5.759622e-03
  2.960906e+00    4.688199e-01   5.836153e-03
  2.963117e+00    4.685761e-01   5.830096e-03
  2.965327e+00    4.463595e-01   5.686332e-03
  2.967538e+00    4.633558e-01   5.790635e-03
  2.969748e+00    4.669522e-01   5.810208e-03
  2.971959e+00    4.663966e-01   5.803587e-03
  2.974169e+00    4.660628e-01   5.798880e-03
  2.976379e+00    4.539001e-01   5.719811e-03
  2.978590e+00    4.539360e-01   5.716884e-03
  2.980800e+00    4.627106e-01   5.769057e-03
  2.983011e+00    4.621052e-01   5.762460e-03
  2.985221e+00    4.606878e-01   5.750440e-03
  2.987432e+00    4.597138e-01   5.741225e-03
  2.989642e+00    4.647676e-01   5.770046e-03
  2.991853e+00    4.608985e-01   5.742668e-03
  2.994063e+00    4.482003e-01   5.660135e-03
  2.996274e+00    4.461729e-01   5.644136e-03
  2.998484e+00    4.539679e-01   5.690537e-03
  3.000694e+00    4.554252e-01   5.696199e-03
  3.002905e+00    4.576764e-01   5.707324e-03
  3.005115e+00    4.511673e-01   5.663608e-03
  3.007326e+00    4.439115e-01   5.614769e-03
  3.009536e+00    4.636567e-01   5.734968e-03
  3.011747e+00    4.564609e-01   5.687399e-03
  3.013957e+00    4.512722e-01   5.651795e-03
  3.016168e+00    4.575699e-01   5.687813e-03
  3.018378e+00    4.454381e-01   5.608902e-03
  3.020589e+00    4.435973e-01   5.594101e-03
  3.022799e+00    4.507976e-01   5.636183e-03
  3.025010e+00    4.554488e-01   5.661918e-03
  3.027220e+00    4.540968e-01   5.650400e-03
  3.029430e+00    4.529456e-01   5.639989e-03
  3.031641e+00    4.577125e-01   5.666417e-03
  3.033851e+00    4.637707e-01   5.700247e-03
  3.036062e+00    4.461663e-01   5.588256e-03
  3.038272e+00    4.486149e-01   5.599988e-03
  3.040483e+00    4.551781e-01   5.637559e-03
  3.042693e+00    4.534261e-01   5.623435e-03
  3.044904e+00    4.648800e-01   5.689941e-03
  3.047114e+00    4.505457e-01   5.596731e-03
  3.049325e+00    4.466466e-01   5.568082e-03
  3.051535e+00    4.610429e-01   5.652651e-03
  3.053745e+00    4.633135e-01   5.661754e-03
  3.055956e+00    4.496306e-01   5.572949e-03
  3.058166e+00    4.502710e-01   5.572654e-03
  3.060377e+00    4.483941e-01   5.556270e-03
  3.062587e+00    4.623852e-01   5.637593e-03
  3.064798e+00    4.533357e-01   5.577897e-03
  3.067008e+00    4.421831e-01   5.504155e-03
  3.069219e+00    4.520473e-01   5.560684e-03
  3.071429e+00    4.563078e-01   5.583286e-03
  3.073640e+00    4.529575e-01   5.559417e-03
  3.075850e+00    4.513323e-01   5.545848e-03
  3.078060e+00    4.518103e-01   5.545649e-03
  3.080271e+00    4.561364e-01   5.568637e-03
  3.082481e+00    4.667375e-01   5.629472e-03
  3.084692e+00    4.577072e-01   5.571340e-03
  3.086902e+00    4.553369e-01   5.553615e-03
  3.089113e+00    4.549455e-01   5.547629e-03
  3.091323e+00    4.575232e-01   5.559920e-03
  3.093534e+00    4.529727e-01   5.528795e-03
  3.095744e+00    4.589299e-01   5.561635e-03
  3.097955e+00    4.554695e-01   5.537038e-03
  3.100165e+00    4.481485e-01   5.489015e-03
  3.102375e+00    4.494691e-01   5.493684e-03
  3.104586e+00    4.420257e-01   5.444522e-03
  3.106796e+00    4.508066e-01   5.494786e-03
  3.109007e+00    4.619173e-01   5.558831e-03
  3.111217e+00    4.362870e-01   5.398753e-03
  3.113428e+00    4.461068e-01   5.455755e-03
  3.115638e+00    4.414842e-01   5.424189e-03
  3.117849e+00    4.473666e-01   5.456476e-03
  3.120059e+00    4.524681e-01   5.483999e-03
  3.122270e+00    4.551209e-01   5.496780e-03
  3.124480e+00    4.424053e-01   5.415762e-03
  3.126691e+00    4.499974e-01   5.458437e-03
  3.128901e+00    4.630268e-01   5.533722e-03
  3.131111e+00    4.493138e-01   5.447317e-03
  3.133322e+00    4.421685e-01   5.400365e-03
  3.135532e+00    4.467202e-01   5.424697e-03
  3.137743e+00    4.436429e-01   5.402488e-03
  3.139953e+00    4.555164e-01   5.470578e-03
  3.142164e+00    4.475276e-01   5.434479e-03
  3.144374e+00    4.469438e-01   5.459487e-03
  3.146585e+00    4.322854e-01   5.383603e-03
  3.148795e+00    4.492172e-01   5.498869e-03
  3.151006e+00    4.484909e-01   5.503047e-03
  3.153216e+00    4.421982e-01   5.471452e-03
  3.155426e+00    4.423453e-01   5.478659e-03
  3.157637e+00    4.496806e-01   5.529492e-03
  3.159847e+00    4.444007e-01   5.501828e-03
  3.162058e+00    4.537830e-01   5.564094e-03
  3.164268e+00    4.389097e-01   5.476236e-03
  3.166479e+00    4.337182e-01   5.447355e-03
  3.168689e+00    4.462639e-01   5.528958e-03
  3.170900e+00    4.488870e-01   5.548419e-03
  3.173110e+00    4.417377e-01   5.506929e-03
  3.175321e+00    4.320740e-01   5.448832e-03
  3.177531e+00    4.374911e-01   5.485625e-03
  3.179741e+00    4.457872e-01   5.539474e-03
  3.181952e+00    4.373854e-01   5.489137e-03
  3.184162e+00    4.460910e-01   5.545715e-03
  3.186373e+00    4.463327e-01   5.548836e-03
  3.188583e+00    4.400152e-01   5.511201e-03
  3.190794e+00    4.398893e-01   5.512193e-03
  3.193004e+00    4.358957e-01   5.488350e-03
  3.195215e+00    4.304969e-01   5.455745e-03
  3.197425e+00    4.462985e-01   5.556200e-03
  3.199636e+00    4.324475e-01   5.468546e-03
  3.201846e+00    4.203053e-01   5.390629e-03
  3.204056e+00    4.352480e-01   5.486473e-03
  3.206267e+00    4.388132e-01   5.509790e-03
  3.208477e+00    4.233505e-01   5.412749e-03
  3.210688e+00    4.267929e-01   5.435532e-03
  3.212898e+00    4.437492e-01   5.543043e-03
  3.215109e+00    4.450244e-01   5.551770e-03
  3.217319e+00    4.365946e-01   5.499599e-03
  3.219530e+00    4.208199e-01   5.399693e-03
  3.221740e+00    4.349297e-01   5.490036e-03
  3.223951e+00    4.309808e-01   5.465541e-03
  3.226161e+00    4.212436e-01   5.403615e-03
  3.228372e+00    4.322221e-01   5.474120e-03
  3.230582e+00    4.299044e-01   5.459559e-03
  3.232792e+00    4.245031e-01   5.425378e-03
  3.235003e+00    4.342856e-01   5.487781e-03
  3.237213e+00    4.203411e-01   5.399056e-03
  3.239424e+00    4.377861e-01   5.509957e-03
  3.241634e+00    4.230537e-01   5.416591e-03
  3.243845e+00    4.243160e-01   5.424703e-03
  3.246055e+00    4.355798e-01   5.495976e-03
  3.248266e+00    4.364805e-01   5.501868e-03
  3.250476e+00    4.248328e-01   5.427642e-03
  3.252687e+00    4.281495e-01   5.448721e-03
  3.254897e+00    4.273896e-01   5.443745e-03
  3.257107e+00    4.308032e-01   5.465156e-03
  3.259318e+00    4.079120e-01   5.317726e-03
  3.261528e+00    4.176458e-01   5.380671e-03
  3.263739e+00    4.192825e-01   5.390636e-03
  3.265949e+00    4.243417e-01   5.422956e-03
  3.268160e+00    4.221346e-01   5.408420e-03
  3.270370e+00    4.121697e-01   5.343687e-03
  3.272581e+00    4.128079e-01   5.347551e-03
  3.274791e+00    4.326368e-01   5.473944e-03
  3.277002e+00    4.296011e-01   5.454146e-03
  3.279212e+00    4.380895e-01   5.507382e-03
  3.281422e+00    4.335992e-01   5.478503e-03
  3.283633e+00    4.431456e-01   5.537777e-03
  3.285843e+00    4.399575e-01   5.517483e-03
  3.288054e+00    4.314841e-01   5.463166e-03
  3.290264e+00    4.110514e-01   5.331931e-03
  3.292475e+00    4.218001e-01   5.400331e-03
  3.294685e+00    4.291783e-01   5.446735e-03
  3.296896e+00    4.398951e-01   5.513550e-03
  3.299106e+00    4.222838e-01   5.401513e-03
  3.301317e+00    4.220934e-01   5.399244e-03
  3.303527e+00    4.324757e-01   5.464802e-03
  3.305737e+00    4.188197e-01   5.376779e-03
  3.307948e+00    4.358971e-01   5.484604e-03
  3.310158e+00    4.458443e-01   5.545980e-03
  3.312369e+00    4.252713e-01   5.415639e-03
  3.314579e+00    4.183089e-01   5.370200e-03
  3.316790e+00    4.181310e-01   5.368350e-03
  3.319000e+00    4.152273e-01   5.348511e-03
  3.321211e+00    4.326658e-01   5.459042e-03
  3.323421e+00    4.155737e-01   5.348954e-03
  3.325632e+00    4.111169e-01   5.319306e-03
  3.327842e+00    4.204674e-01   5.378536e-03
  3.330052e+00    4.332148e-01   5.458375e-03
  3.332263e+00    4.264841e-01   5.414808e-03
  3.334473e+00    4.314279e-01   5.445159e-03
  3.336684e+00    4.304279e-01   5.437587e-03
  3.338894e+00    4.256358e-01   5.406367e-03
  3.341105e+00    4.330006e-01   5.451706e-03
  3.343315e+00    4.401977e-01   5.495673e-03
  3.345526e+00    4.416447e-01   5.503781e-03
  3.347736e+00    4.389152e-01   5.485309e-03
  3.349947e+00    4.190046e-01   5.358536e-03
  3.352157e+00    4.185849e-01   5.354649e-03
  3.354368e+00    4.187491e-01   5.354414e-03
  3.356578e+00    4.314877e-01   5.434202e-03
  3.358788e+00    4.372563e-01   5.469058e-03
  3.360999e+00    4.345517e-01   5.450859e-03
  3.363209e+00    4.265453e-01   5.399368e-03
  3.365420e+00    4.233135e-01   5.377369e-03
  3.367630e+00    4.193509e-01   5.351091e-03
  3.369841e+00    4.287120e-01   5.409069e-03
  3.372051e+00    4.225112e-01   5.367795e-03
  3.374262e+00    4.348997e-01   5.443452e-03
  3.376472e+00    4.309949e-01   5.416463e-03
  3.378683e+00    4.268795e-01   5.388005e-03
  3.380893e+00    4.317044e-01   5.415977e-03
  3.383103e+00    4.279212e-01   5.389457e-03
  3.385314e+00    4.286366e-01   5.391715e-03
  3.387524e+00    4.188969e-01   5.327323e-03
  3.389735e+00    4.222098e-01   5.345729e-03
  3.391945e+00    4.273889e-01   5.374648e-03
  3.394156e+00    4.290166e-01   5.380590e-03
  3.396366e+00    4.170645e-01   5.301693e-03
  3.398577e+00    4.107687e-01   5.258450e-03
  3.400787e+00    4.177200e-01   5.314779e-03
  3.402998e+00    4.141835e-01   5.330501e-03
  3.405208e+00    4.049565e-01   5.291428e-03
  3.407418e+00    4.013948e-01   5.283916e-03
  3.409629e+00    3.945551e-01   5.252533e-03
  3.411839e+00    3.795505e-01   5.163176e-03
  3.414050e+00    4.038600e-01   5.337029e-03
  3.416260e+00    4.131217e-01   5.407753e-03
  3.418471e+00    4.099602e-01   5.396647e-03
  3.420681e+00    3.925487e-01   5.289299e-03
  3.422892e+00    3.881188e-01   5.267341e-03
  3.425102e+00    3.832181e-01   5.241729e-03
  3.427313e+00    3.791589e-01   5.220980e-03
  3.429523e+00    3.841022e-01   5.261949e-03
  3.431733e+00    3.889592e-01   5.301801e-03
  3.433944e+00    3.816751e-01   5.258391e-03
  3.436154e+00    3.975490e-01   5.372968e-03
  3.438365e+00    3.938131e-01   5.353713e-03
  3.440575e+00    3.761888e-01   5.238423e-03
  3.442786e+00    3.789438e-01   5.263164e-03
  3.444996e+00    3.928426e-01   5.364447e-03
  3.447207e+00    3.839696e-01   5.308877e-03
  3.449417e+00    3.769923e-01   5.301523e-03
  3.451628e+00    3.682511e-01   5.269127e-03
  3.453838e+00    3.682250e-01   5.290091e-03
  3.456049e+00    3.724070e-01   5.344172e-03
  3.458259e+00    3.808356e-01   5.426615e-03
  3.460469e+00    3.846365e-01   5.473948e-03
  3.462680e+00    3.724494e-01   5.405727e-03
  3.464890e+00    3.651365e-01   5.370169e-03
  3.467101e+00    3.687423e-01   5.414113e-03
  3.469311e+00    3.869786e-01   5.563269e-03
  3.471522e+00    3.945988e-01   5.634622e-03
  3.473732e+00    3.935184e-01   5.643158e-03
  3.475943e+00    3.924232e-01   5.651202e-03
  3.478153e+00    4.104115e-01   5.795162e-03
  3.480364e+00    3.953987e-01   5.703358e-03
  3.482574e+00    4.089608e-01   5.815770e-03
  3.484784e+00    4.260344e-01   5.951096e-03
  3.486995e+00    4.298111e-01   5.992768e-03
  3.489205e+00    4.304643e-01   6.012102e-03
  3.491416e+00    4.401955e-01   6.094833e-03
  3.493626e+00    4.498531e-01   6.176150e-03
  3.495837e+00    4.575072e-01   6.243522e-03
  3.498047e+00    4.511401e-01   6.214522e-03
  3.500258e+00    4.686971e-01   6.349138e-03
  3.502468e+00    4.442262e-01   6.195441e-03
  3.504679e+00    4.628629e-01   6.338555e-03
  3.506889e+00    4.680870e-01   6.388749e-03
  3.509099e+00    4.656937e-01   6.386633e-03
  3.511310e+00    4.790028e-01   6.491756e-03
  3.513520e+00    4.892333e-01   6.575261e-03
  3.515731e+00    4.835976e-01   6.551616e-03
  3.517941e+00    4.989071e-01   6.668989e-03
  3.520152e+00    5.091486e-01   6.751610e-03
  3.522362e+00    5.104109e-01   6.774629e-03
  3.524573e+00    5.122939e-01   6.801447e-03
  3.526783e+00    5.229336e-01   6.885238e-03
  3.528994e+00    5.184304e-01   6.867808e-03
  3.531204e+00    5.277407e-01   6.941702e-03
  3.533414e+00    5.295976e-01   6.966048e-03
  3.535625e+00    5.509422e-01   7.117661e-03
  3.537835e+00    5.460147e-01   7.098055e-03
  3.540046e+00    5.307746e-01   7.007188e-03
  3.542256e+00    5.318100e-01   7.021501e-03
  3.544467e+00    5.387284e-01   7.074678e-03
  3.546677e+00    5.268360e-01   7.003657e-03
  3.548888e+00    5.319520e-01   7.045046e-03
  3.551098e+00    5.491368e-01   7.165330e-03
  3.553309e+00    5.376382e-01   7.098087e-03
  3.555519e+00    5.380049e-01   7.111829e-03
  3.557729e+00    5.327860e-01   7.088931e-03
  3.559940e+00    5.470368e-01   7.194761e-03
  3.562150e+00    5.584093e-01   7.281142e-03
  3.564361e+00    5.457264e-01   7.211404e-03
  3.566571e+00    5.719832e-01   7.397155e-03
  3.568782e+00    5.360484e-01   7.175150e-03
  3.570992e+00    5.373750e-01   7.197769e-03
  3.573203e+00    5.337095e-01   7.187308e-03
  3.575413e+00    5.450403e-01   7.277089e-03
  3.577624e+00    5.328740e-01   7.209484e-03
  3.579834e+00    5.316228e-01   7.214837e-03
  3.582045e+00    5.414829e-01   7.295551e-03
  3.584255e+00    5.594963e-01   7.430263e-03
  3.586465e+00    5.486745e-01   7.372167e-03
  3.588676e+00    5.404593e-01   7.330997e-03
  3.590886e+00    5.350165e-01   7.307719e-03
  3.593097e+00    5.308513e-01   7.293612e-03
  3.595307e+00    5.328695e-01   7.321370e-03
  3.597518e+00    5.335323e-01   7.340106e-03
  3.599728e+00    5.470681e-01   7.446871e-03
  3.601939e+00    5.481558e-01   7.468522e-03
  3.604149e+00    5.504078e-01   7.498449e-03
  3.606360e+00    5.220780e-01   7.316896e-03
  3.608570e+00    5.349334e-01   7.420578e-03
  3.610780e+00    5.373154e-01   7.448148e-03
  3.612991e+00    5.703582e-01   7.684102e-03
  3.615201e+00    5.255185e-01   7.385619e-03
  3.617412e+00    5.198385e-01   7.352701e-03
  3.619622e+00    5.376025e-01   7.483295e-03
  3.621833e+00    5.514816e-01   7.586051e-03
  3.624043e+00    5.552533e-01   7.621703e-03
  3.626254e+00    5.293658e-01   7.451511e-03
  3.628464e+00    5.547575e-01   7.639346e-03
  3.630675e+00    5.468198e-01   7.598760e-03
  3.632885e+00    5.430278e-01   7.586956e-03
  3.635095e+00    5.305352e-01   7.513515e-03
  3.637306e+00    5.525510e-01   7.682448e-03
  3.639516e+00    5.571077e-01   7.728940e-03
  3.641727e+00    5.442199e-01   7.653707e-03
  3.643937e+00    5.558231e-01   7.749738e-03
  3.646148e+00    5.425419e-01   7.671336e-03
  3.648358e+00    5.384154e-01   7.657017e-03
  3.650569e+00    5.464843e-01   7.729110e-03
  3.652779e+00    5.201226e-01   7.555002e-03
  3.654990e+00    5.340214e-01   7.670143e-03
  3.657200e+00    5.382889e-01   7.715727e-03
  3.659410e+00    5.297804e-01   7.669448e-03
  3.661621e+00    5.384319e-01   7.747014e-03
  3.663831e+00    5.234925e-01   7.653781e-03
  3.666042e+00    5.343690e-01   7.748076e-03
  3.668252e+00    5.360536e-01   7.775601e-03
  3.670463e+00    5.255065e-01   7.713868e-03
  3.672673e+00    5.223296e-01   7.705824e-03
  3.674884e+00    5.221766e-01   7.719976e-03
  3.677094e+00    5.335774e-01   7.819308e-03
  3.679305e+00    5.305181e-01   7.812476e-03
  3.681515e+00    5.264073e-01   7.797668e-03
  3.683726e+00    5.306726e-01   7.845043e-03
  3.685936e+00    5.400721e-01   7.930055e-03
  3.688146e+00    5.249688e-01   7.834158e-03
  3.690357e+00    5.179525e-01   7.797419e-03
  3.692567e+00    5.357174e-01   7.946218e-03
  3.694778e+00    5.301549e-01   7.920998e-03
  3.696988e+00    5.288376e-01   7.927185e-03
  3.699199e+00    5.250041e-01   7.914604e-03
  3.701409e+00    5.191992e-01   7.887038e-03
  3.703620e+00    5.291148e-01   7.978349e-03
  3.705830e+00    5.162249e-01   7.896842e-03
  3.708041e+00    5.315046e-01   8.029575e-03
  3.710251e+00    5.220830e-01   7.974795e-03
  3.712461e+00    5.180176e-01   7.960347e-03
  3.714672e+00    5.156098e-01   7.958427e-03
  3.716882e+00    5.234675e-01   8.035616e-03
  3.719093e+00    5.247928e-01   8.062991e-03
  3.721303e+00    5.293073e-01   8.114698e-03
  3.723514e+00    5.157040e-01   8.026958e-03
  3.725724e+00    5.153324e-01   8.041210e-03
  3.727935e+00    5.269880e-01   8.149187e-03
  3.730145e+00    5.344250e-01   8.224142e-03
  3.732356e+00    4.987038e-01   7.961797e-03
  3.734566e+00    5.149484e-01   8.107916e-03
  3.736776e+00    5.072464e-01   8.064695e-03
  3.738987e+00    5.132396e-01   8.129884e-03
  3.741197e+00    5.319613e-01   8.295206e-03
  3.743408e+00    5.392048e-01   8.369974e-03
  3.745618e+00    5.233710e-01   8.264696e-03
  3.747829e+00    5.117376e-01   8.190434e-03
  3.750039e+00    5.115675e-01   8.207400e-03
  3.752250e+00    5.217837e-01   8.307634e-03
  3.754460e+00    4.928657e-01   8.092367e-03
  3.756671e+00    5.233341e-01   8.357795e-03
  3.758881e+00    5.452729e-01   8.550464e-03
  3.761091e+00    5.240240e-01   8.401683e-03
  3.763302e+00    5.264689e-01   8.440674e-03
  3.765512e+00    5.231651e-01   8.433662e-03
  3.767723e+00    5.275122e-01   8.488379e-03
  3.769933e+00    5.065854e-01   8.337653e-03
  3.772144e+00    5.041645e-01   8.337214e-03
  3.774354e+00    5.065181e-01   8.376546e-03
  3.776565e+00    5.231430e-01   8.533090e-03
  3.778775e+00    5.096154e-01   8.442109e-03
  3.780986e+00    5.108899e-01   8.473101e-03
  3.783196e+00    5.024489e-01   8.423022e-03
  3.785407e+00    5.045404e-01   8.461016e-03
  3.787617e+00    4.961445e-01   8.410903e-03
  3.789827e+00    5.335867e-01   8.743654e-03
  3.792038e+00    5.158620e-01   8.618345e-03
  3.794248e+00    5.330138e-01   8.782276e-03
  3.796459e+00    5.257974e-01   8.744542e-03
  3.798669e+00    5.161765e-01   8.685791e-03
  3.800880e+00    5.237058e-01   8.770906e-03
  3.803090e+00    4.967288e-01   8.563718e-03
  3.805301e+00    5.053580e-01   8.660041e-03
  3.807511e+00    4.852412e-01   8.507560e-03
  3.809722e+00    5.167796e-01   8.802301e-03
  3.811932e+00    5.016176e-01   8.694465e-03
  3.814142e+00    5.318767e-01   8.976473e-03
  3.816353e+00    4.924118e-01   8.659832e-03
  3.818563e+00    4.956626e-01   8.711218e-03
  3.820774e+00    5.053234e-01   8.819144e-03
  3.822984e+00    5.130829e-01   8.910312e-03
  3.825195e+00    5.061555e-01   8.873810e-03
  3.827405e+00    5.126601e-01   8.954969e-03
  3.829616e+00    5.255933e-01   9.091934e-03
  3.831826e+00    5.163578e-01   9.036298e-03
  3.834037e+00    5.106049e-01   9.010703e-03
  3.836247e+00    4.909926e-01   8.860497e-03
  3.838457e+00    4.799435e-01   8.784803e-03
  3.840668e+00    4.992148e-01   8.984667e-03
  3.842878e+00    5.176567e-01   9.175300e-03
  3.845089e+00    4.916886e-01   8.967577e-03
  3.847299e+00    5.097733e-01   9.157195e-03
  3.849510e+00    5.141661e-01   9.222928e-03
  3.851720e+00    5.226512e-01   9.320681e-03
  3.853931e+00    5.348109e-01   9.448275e-03
  3.856141e+00    4.936435e-01   9.096351e-03
  3.858352e+00    5.113122e-01   9.277249e-03
  3.860562e+00    4.968586e-01   9.164608e-03
  3.862772e+00    4.904180e-01   9.124437e-03
  3.864983e+00    5.239173e-01   9.451213e-03
  3.867193e+00    5.053086e-01   9.301878e-03
  3.869404e+00    5.084717e-01   9.351074e-03
  3.871614e+00    4.897975e-01   9.197656e-03
  3.873825e+00    4.886038e-01   9.206688e-03
  3.876035e+00    4.711640e-01   9.060934e-03
  3.878246e+00    5.084758e-01   9.439061e-03
  3.880456e+00    4.904419e-01   9.299172e-03
  3.882667e+00    4.988951e-01   9.408456e-03
  3.884877e+00    4.900954e-01   9.354812e-03
  3.887087e+00    4.910477e-01   9.393805e-03
  3.889298e+00    5.001317e-01   9.510940e-03
  3.891508e+00    4.875530e-01   9.421052e-03
  3.893719e+00    4.643942e-01   9.224650e-03
  3.895929e+00    5.042768e-01   9.644450e-03
  3.898140e+00    5.339061e-01   9.956881e-03
  3.900350e+00    5.101499e-01   9.765648e-03
  3.902561e+00    4.824637e-01   9.528999e-03
  3.904771e+00    4.807410e-01   9.544517e-03
  3.906982e+00    4.884982e-01   9.654270e-03
  3.909192e+00    5.066204e-01   9.865862e-03
  3.911403e+00    4.927318e-01   9.763818e-03
  3.913613e+00    4.828565e-01   9.699551e-03
  3.915823e+00    4.734192e-01   9.638526e-03
  3.918034e+00    4.927038e-01   9.868258e-03
  3.920244e+00    5.122889e-01   1.009916e-02
  3.922455e+00    4.870120e-01   9.882889e-03
  3.924665e+00    4.685115e-01   9.729044e-03
  3.926876e+00    4.793887e-01   9.878059e-03
  3.929086e+00    4.841183e-01   9.963950e-03
  3.931297e+00    4.581171e-01   9.726454e-03
  3.933507e+00    4.653574e-01   9.831204e-03
  3.935718e+00    4.818289e-01   1.003224e-02
  3.937928e+00    5.053377e-01   1.030411e-02
  3.940138e+00    4.707687e-01   9.974283e-03
  3.942349e+00    4.921922e-01   1.022875e-02
  3.944559e+00    4.931468e-01   1.026873e-02
  3.946770e+00    4.975577e-01   1.034512e-02
  3.948980e+00    4.891084e-01   1.028777e-02
  3.951191e+00    4.915721e-01   1.034454e-02
  3.953401e+00    4.913725e-01   1.037401e-02
  3.955612e+00    4.923217e-01   1.041590e-02
  3.957822e+00    5.025354e-01   1.055560e-02
  3.960033e+00    5.111541e-01   1.067914e-02
  3.962243e+00    5.005184e-01   1.060086e-02
  3.964453e+00    4.916085e-01   1.053938e-02
  3.966664e+00    4.931998e-01   1.059002e-02
  3.968874e+00    5.125531e-01   1.082504e-02
  3.971085e+00    4.870436e-01   1.057419e-02
  3.973295e+00    4.765914e-01   1.048128e-02
  3.975506e+00    4.799298e-01   1.053949e-02
  3.977716e+00    4.607152e-01   1.034781e-02
  3.979927e+00    4.891266e-01   1.068419e-02
  3.982137e+00    5.130281e-01   1.096519e-02
  3.984348e+00    5.249027e-01   1.111470e-02
  3.986558e+00    5.191582e-01   1.107686e-02
  3.988768e+00    5.034060e-01   1.093103e-02
  3.990979e+00    5.085931e-01   1.101039e-02
  3.993189e+00    4.962738e-01   1.089964e-02
  3.995400e+00    4.823153e-01   1.076870e-02
  3.997610e+00    5.108357e-01   1.111306e-02
  3.999821e+00    5.060498e-01   1.109933e-02
  4.002031e+00    5.131156e-01   1.121593e-02
  4.004242e+00    5.248762e-01   1.138382e-02
  4.006452e+00    4.952666e-01   1.109789e-02
  4.008663e+00    5.233063e-01   1.144924e-02
  4.010873e+00    4.973687e-01   1.120247e-02
  4.013084e+00    5.070080e-01   1.135225e-02
  4.015294e+00    4.982501e-01   1.129547e-02
  4.017504e+00    4.978882e-01   1.133373e-02
  4.019715e+00    4.778000e-01   1.114505e-02
  4.021925e+00    4.634451e-01   1.101825e-02
  4.024136e+00    4.768697e-01   1.122026e-02
  4.026346e+00    4.775330e-01   1.127168e-02
  4.028557e+00    4.981573e-01   1.155764e-02
  4.030767e+00    5.111330e-01   1.175406e-02
  4.032978e+00    4.857075e-01   1.150446e-02
  4.035188e+00    4.841855e-01   1.153249e-02
  4.037399e+00    5.450071e-01   1.228598e-02
  4.039609e+00    4.790171e-01   1.156575e-02
  4.041819e+00    4.933640e-01   1.178695e-02
  4.044030e+00    4.587215e-01   1.141408e-02
  4.046240e+00    4.969963e-01   1.193143e-02
  4.048451e+00    5.101870e-01   1.214099e-02
  4.050661e+00    4.889022e-01   1.193691e-02
  4.052872e+00    4.391332e-01   1.136329e-02
  4.055082e+00    4.659206e-01   1.175725e-02
  4.057293e+00    4.908850e-01   1.212235e-02
  4.059503e+00    4.716646e-01   1.193676e-02
  4.061714e+00    4.521470e-01   1.174187e-02
  4.063924e+00    4.702684e-01   1.203083e-02
  4.066134e+00    4.429969e-01   1.173183e-02
  4.068345e+00    4.742746e-01   1.219732e-02
  4.070555e+00    4.784487e-01   1.231007e-02
  4.072766e+00    4.970765e-01   1.260919e-02
  4.074976e+00    4.713072e-01   1.233926e-02
  4.077187e+00    4.912858e-01   1.266057e-02
  4.079397e+00    4.798586e-01   1.257651e-02
  4.081608e+00    4.772589e-01   1.260759e-02
  4.083818e+00    4.906874e-01   1.285014e-02
  4.086029e+00    4.807538e-01   1.278652e-02
  4.088239e+00    5.024295e-01   1.314203e-02
  4.090449e+00    4.976336e-01   1.315001e-02
  4.092660e+00    4.877504e-01   1.309045e-02
  4.094870e+00    5.016118e-01   1.334898e-02
  4.097081e+00    5.193573e-01   1.365745e-02
  4.099291e+00    5.013527e-01   1.347411e-02
  4.101502e+00    4.846804e-01   1.329779e-02
  4.103712e+00    4.840894e-01   1.333888e-02
  4.105923e+00    4.688427e-01   1.317825e-02
  4.108133e+00    4.771741e-01   1.334593e-02
  4.110344e+00    4.663425e-01   1.324407e-02
  4.112554e+00    4.926825e-01   1.366668e-02
  4.114764e+00    4.894872e-01   1.367717e-02
  4.116975e+00    4.698387e-01   1.345258e-02
  4.119185e+00    5.222030e-01   1.423992e-02
  4.121396e+00    5.316287e-01   1.442751e-02
  4.123606e+00    4.391946e-01   1.316707e-02
  4.125817e+00    5.044309e-01   1.417011e-02
  4.128027e+00    5.281487e-01   1.456054e-02
  4.130238e+00    5.205507e-01   1.451752e-02
  4.132448e+00    4.741337e-01   1.391534e-02
  4.134659e+00    4.816098e-01   1.408483e-02
  4.136869e+00    4.800422e-01   1.412455e-02
  4.139080e+00    4.673523e-01   1.399956e-02
  4.141290e+00    4.763115e-01   1.419564e-02
  4.143500e+00    4.790826e-01   1.430258e-02
  4.145711e+00    4.843040e-01   1.444736e-02
  4.147921e+00    4.646890e-01   1.421682e-02
  4.150132e+00    4.969420e-01   1.477207e-02
  4.152342e+00    4.846541e-01   1.465884e-02
  4.154553e+00    5.300027e-01   1.540228e-02
  4.156763e+00    5.353986e-01   1.555726e-02
  4.158974e+00    5.043492e-01   1.517497e-02
  4.161184e+00    4.883291e-01   1.500640e-02
  4.163395e+00    5.050536e-01   1.533883e-02
  4.165605e+00    5.328768e-01   1.583799e-02
  4.167815e+00    4.916956e-01   1.529280e-02
  4.170026e+00    5.022829e-01   1.553817e-02
  4.172236e+00    5.540607e-01   1.640753e-02
  4.174447e+00    4.877976e-01   1.547907e-02
  4.176657e+00    4.788488e-01   1.541996e-02
  4.178868e+00    5.369189e-01   1.642091e-02
  4.181078e+00    5.303009e-01   1.641128e-02
  4.183289e+00    5.029821e-01   1.607429e-02
  4.185499e+00    5.113347e-01   1.630310e-02
  4.187710e+00    5.211553e-01   1.655515e-02
  4.189920e+00    5.003568e-01   1.631908e-02
  4.192130e+00    5.331284e-01   1.694811e-02
  4.194341e+00    4.912666e-01   1.636886e-02
  4.196551e+00    4.743126e-01   1.618578e-02
  4.198762e+00    4.554947e-01   1.596219e-02
  4.200972e+00    4.668009e-01   1.626365e-02
  4.203183e+00    4.345014e-01   1.579406e-02
  4.205393e+00    4.674787e-01   1.649208e-02
  4.207604e+00    4.934277e-01   1.705854e-02
  4.209814e+00    5.801479e-01   1.862413e-02
  4.212025e+00    4.877205e-01   1.719750e-02
  4.214235e+00    4.689533e-01   1.698253e-02
  4.216445e+00    4.781845e-01   1.727304e-02
  4.218656e+00    4.550038e-01   1.697541e-02
  4.220866e+00    4.539878e-01   1.708225e-02
  4.223077e+00    4.904573e-01   1.789130e-02
  4.225287e+00    4.780151e-01   1.780181e-02
  4.227498e+00    5.452462e-01   1.916177e-02
  4.229708e+00    5.410198e-01   1.924261e-02
  4.231919e+00    4.748855e-01   1.817743e-02
  4.234129e+00    4.583879e-01   1.800863e-02
  4.236340e+00    4.391626e-01   1.777761e-02
  4.238550e+00    4.803551e-01   1.875695e-02
  4.240761e+00    4.929345e-01   1.916863e-02
  4.242971e+00    4.993338e-01   1.946928e-02
  4.245181e+00    5.308477e-01   2.026339e-02
  4.247392e+00    4.748597e-01   1.934368e-02
  4.249602e+00    5.430858e-01   2.089258e-02
  4.251813e+00    4.186134e-01   1.852351e-02
  4.254023e+00    4.555498e-01   1.951786e-02
  4.256234e+00    4.827632e-01   2.030707e-02
  4.258444e+00    4.754738e-01   2.036431e-02
  4.260655e+00    5.078844e-01   2.127818e-02
  4.262865e+00    4.524984e-01   2.031233e-02
  4.265076e+00    4.489671e-01   2.046286e-02
  4.267286e+00    5.344776e-01   2.259154e-02
  4.269496e+00    4.839327e-01   2.175911e-02
  4.271707e+00    4.876696e-01   2.211311e-02
  4.273917e+00    5.265802e-01   2.327526e-02
  4.276128e+00    4.989360e-01   2.295676e-02
  4.278338e+00    4.347175e-01   2.171564e-02
  4.280549e+00    4.323782e-01   2.196653e-02
  4.282759e+00    4.351844e-01   2.235468e-02
  4.284970e+00    4.821629e-01   2.387862e-02
  4.287180e+00    5.938061e-01   2.681721e-02
  4.289391e+00    4.248384e-01   2.285343e-02
  4.291601e+00    4.868734e-01   2.465993e-02
  4.293811e+00    4.475991e-01   2.382994e-02
  4.296022e+00    4.888155e-01   2.510259e-02
  4.298232e+00    5.463910e-01   2.676221e-02
  4.300443e+00    5.066442e-01   2.598315e-02
  4.302653e+00    5.171933e-01   2.647978e-02
  4.304864e+00    5.020292e-01   2.631436e-02
  4.307074e+00    5.626310e-01   2.810795e-02
  4.309285e+00    4.577959e-01   2.558421e-02
  4.311495e+00    4.241219e-01   2.485598e-02
  4.313706e+00    5.590351e-01   2.880516e-02
  4.315916e+00    4.489594e-01   2.606755e-02
  4.318126e+00    4.536092e-01   2.646221e-02
  4.320337e+00    3.749046e-01   2.429954e-02
  4.322547e+00    5.366727e-01   2.938160e-02
  4.324758e+00    5.099209e-01   2.893847e-02
  4.326968e+00    4.688270e-01   2.806051e-02
  4.329179e+00    4.973343e-01   2.921943e-02
  4.331389e+00    4.236166e-01   2.727767e-02
  4.333600e+00    5.239878e-01   3.069927e-02
  4.335810e+00    5.393168e-01   3.151653e-02
  4.338021e+00    5.357089e-01   3.181246e-02
  4.340231e+00    4.702266e-01   3.017971e-02
  4.342442e+00    4.317733e-01   2.930652e-02
  4.344652e+00    4.017373e-01   2.865329e-02
  4.346862e+00    3.997841e-01   2.898343e-02
  4.349073e+00    3.895460e-01   2.902602e-02
  4.351283e+00    4.326986e-01   3.104943e-02
  4.353494e+00    5.282656e-01   3.483552e-02
  4.355704e+00    5.135056e-01   3.490001e-02
  4.357915e+00    3.980542e-01   3.123835e-02
  4.360125e+00    4.676908e-01   3.443886e-02
  4.362336e+00    4.132888e-01   3.296343e-02
  4.364546e+00    4.239237e-01   3.399302e-02
  4.366757e+00    4.745292e-01   3.668048e-02
  4.368967e+00    4.581425e-01   3.675924e-02
  4.371177e+00    5.496373e-01   4.112108e-02
  4.373388e+00    4.181470e-01   3.666793e-02
  4.375598e+00    4.420258e-01   3.856033e-02
  4.377809e+00    3.807162e-01   3.669087e-02
  4.380019e+00    4.850967e-01   4.245785e-02
  4.382230e+00    3.165061e-01   3.525446e-02
  4.384440e+00    4.876652e-01   4.501755e-02
  4.386651e+00    6.933386e-01   5.533252e-02
  4.388861e+00    5.741430e-01   5.204577e-02
  4.391072e+00    2.345541e-01   3.443221e-02
  4.393282e+00    5.471206e-01   5.462099e-02
  4.395492e+00    4.899787e-01   5.383841e-02
  4.397703e+00    3.676710e-01   4.876937e-02
  4.399913e+00    4.712383e-01   5.800696e-02
  4.402124e+00    2.741916e-01   4.675703e-02
  4.404334e+00    4.003220e-01   6.005208e-02
  4.406545e+00    4.743170e-01   7.023112e-02
  4.408755e+00    5.720391e-01   8.364943e-02
  4.410966e+00    6.572067e-01   9.923641e-02
  4.413176e+00    5.496792e-01   1.027246e-01
  4.415387e+00   -2.535632e-01            nan
  4.417597e+00   -1.880563e+00            nan
  4.419807e+00   -3.766224e-01            nan
