# == pyFAI calibration ==
# Distance Sample to Detector: 0.216 m
# PONI: 1.166e-01, 1.308e-01 m
# Rotations: 0.000000 0.000000 0.000000 rad
# 
# == Fit2d calibration ==
# Distance Sample-beamCenter: 216.000 mm
# Center: x=1744.293, y=1555.000 pix
# Tilt: 0.000 deg  TiltPlanRot: 0.000 deg
# 
# Detector Eiger 9M	 PixelSize= 7.500e-05, 7.500e-05 m
#    Detector has a mask: True 
#    Detector has a dark current: False 
#    detector has a flat field: False 
# 
# Wavelength: 9.8e-11 m
# Mask applied: from detector
# Dark current applied: False
# Flat field applied: False
# Polarization factor: None
# Normalization factor: 1.0
# 
# Headers of the input frame:
# {
# "_array_data.header_convention": "SLS_1.0",
# "_array_data.header_contents": "# Detector: Dectris Eiger 9M, S/N E-18-0102\r\n# Pixel_size 75e-6 m x 75e-6 m\r\n# Silicon sensor, thickness 0.000450 m\r\n# Exposure_time 0.024997 s\r\n# Exposure_period 0.025000 s\r\n# Count_cutoff 62318 counts\r\n# Wavelength 0.980106 A\r\n# Detector_distance 0.215992 m\r\n# Beam_xy (1555, 1744) pixels\r\n# Start_angle 0.000000 deg.\r\n# Angle_increment 0.000000 deg.",
# "Content-Type": "application/octet-stream;",
# "conversions": "x-CBF_BYTE_OFFSET",
# "Content-Transfer-Encoding": "BINARY",
# "X-Binary-Size": "10166614",
# "X-Binary-ID": "1",
# "X-Binary-Element-Type": "signed 32-bit integer",
# "X-Binary-Element-Byte-Order": "LITTLE_ENDIAN",
# "Content-MD5": "lAJHtf3iSr/xbs7jDD/61g==",
# "X-Binary-Number-of-Elements": "10166590",
# "X-Binary-Size-Fastest-Dimension": "3110",
# "X-Binary-Size-Second-Dimension": "3269",
# "X-Binary-Size-Padding": "4095"
# }
# --> H:/Proxima2a_2019-04-05/RAW_DATA/C5_gel17_position5/C5_mesh_1_data.cbf/C5_mesh_1_data.cbf000031.dat
#        q_A^-1              I           sigma 
  1.105228e-03    8.573812e-01   5.010418e-01
  3.315685e-03    1.237074e+00   3.658839e-01
  5.526141e-03    1.319268e+00   2.921720e-01
  7.736597e-03    8.987182e-01   2.037192e-01
  9.947054e-03    1.402150e+00   2.243230e-01
  1.215751e-02    1.690382e+00   2.227209e-01
  1.436797e-02    1.491313e+00   1.924244e-01
  1.657842e-02    1.306576e+00   1.676532e-01
  1.878888e-02    1.546420e+00   1.713276e-01
  2.099934e-02    1.357960e+00   1.518957e-01
  2.320979e-02    1.426428e+00   1.480668e-01
  2.542025e-02    1.393647e+00   1.398575e-01
  2.763070e-02    1.325273e+00   1.308106e-01
  2.984116e-02    1.443714e+00   1.313763e-01
  3.205162e-02    1.440667e+00   1.266392e-01
  3.426207e-02    1.432456e+00   1.221281e-01
  3.647253e-02    1.476719e+00   1.201818e-01
  3.868299e-02    1.424327e+00   1.146174e-01
  4.089344e-02    1.563851e+00   1.168095e-01
  4.310390e-02    1.573093e+00   1.141041e-01
  4.531436e-02    1.379681e+00   1.042210e-01
  4.752481e-02    1.465626e+00   1.048891e-01
  4.973527e-02    1.443647e+00   1.017612e-01
  5.194572e-02    1.296497e+00   9.436017e-02
  5.415618e-02    1.391913e+00   9.575132e-02
  5.636664e-02    1.345500e+00   9.227989e-02
  5.857709e-02    1.374435e+00   9.149064e-02
  6.078755e-02    1.299690e+00   8.733279e-02
  6.299801e-02    1.369079e+00   8.804621e-02
  6.520846e-02    1.455421e+00   8.922879e-02
  6.741892e-02    1.329369e+00   8.386345e-02
  6.962938e-02    1.352576e+00   8.324289e-02
  7.183983e-02    1.511898e+00   8.664294e-02
  7.405029e-02    1.515148e+00   8.542970e-02
  7.626074e-02    1.426081e+00   8.166998e-02
  7.847120e-02    1.498973e+00   8.254123e-02
  8.068166e-02    1.434412e+00   7.962974e-02
  8.289211e-02    1.367685e+00   7.671138e-02
  8.510257e-02    1.430645e+00   7.743108e-02
  8.731303e-02    1.423889e+00   7.626106e-02
  8.952348e-02    1.427178e+00   7.540265e-02
  9.173394e-02    1.408500e+00   7.399669e-02
  9.394439e-02    1.341473e+00   7.135762e-02
  9.615485e-02    1.353539e+00   7.084759e-02
  9.836531e-02    1.391113e+00   7.101066e-02
  1.005758e-01    1.443410e+00   7.153428e-02
  1.027862e-01    1.469066e+00   7.138526e-02
  1.049967e-01    1.451519e+00   7.020552e-02
  1.072071e-01    1.520689e+00   7.111330e-02
  1.094176e-01    1.587963e+00   7.193043e-02
  1.116280e-01    1.466876e+00   6.844415e-02
  1.138385e-01    1.500494e+00   6.854731e-02
  1.160490e-01    1.469837e+00   6.719341e-02
  1.182594e-01    1.521669e+00   6.772443e-02
  1.204699e-01    1.499165e+00   6.660171e-02
  1.226803e-01    1.492791e+00   6.585578e-02
  1.248908e-01    1.464686e+00   6.465226e-02
  1.271012e-01    1.467973e+00   6.415822e-02
  1.293117e-01    1.546747e+00   6.529102e-02
  1.315222e-01    1.571624e+00   6.525707e-02
  1.337326e-01    1.536018e+00   6.397699e-02
  1.359431e-01    1.468448e+00   6.259060e-02
  1.381535e-01    1.483315e+00   6.375103e-02
  1.403640e-01    1.493243e+00   6.424019e-02
  1.425744e-01    1.521364e+00   6.494586e-02
  1.447849e-01    1.599070e+00   6.659915e-02
  1.469953e-01    1.619872e+00   6.698895e-02
  1.492058e-01    1.640294e+00   6.733157e-02
  1.514163e-01    1.479628e+00   6.384286e-02
  1.536267e-01    1.564433e+00   6.551878e-02
  1.558372e-01    1.599524e+00   6.610324e-02
  1.580476e-01    1.561075e+00   6.514549e-02
  1.602581e-01    1.549243e+00   6.473329e-02
  1.624685e-01    1.646750e+00   6.655661e-02
  1.646790e-01    1.587295e+00   6.515644e-02
  1.668895e-01    1.638402e+00   6.600586e-02
  1.690999e-01    1.630339e+00   6.564556e-02
  1.713104e-01    1.684992e+00   6.652965e-02
  1.735208e-01    1.833810e+00   6.918962e-02
  1.757313e-01    1.788533e+00   6.811599e-02
  1.779417e-01    1.760857e+00   6.736650e-02
  1.801522e-01    1.789167e+00   6.768958e-02
  1.823626e-01    1.815551e+00   6.795985e-02
  1.845731e-01    1.869679e+00   6.874208e-02
  1.867836e-01    1.928674e+00   6.958256e-02
  1.889940e-01    1.922229e+00   6.923921e-02
  1.912045e-01    2.021211e+00   7.076242e-02
  1.934149e-01    1.981831e+00   6.983519e-02
  1.956254e-01    1.930888e+00   6.870441e-02
  1.978358e-01    1.964045e+00   6.905434e-02
  2.000463e-01    2.043410e+00   7.020231e-02
  2.022568e-01    2.035016e+00   6.982805e-02
  2.044672e-01    1.908363e+00   6.738855e-02
  2.066777e-01    1.923424e+00   6.742939e-02
  2.088881e-01    1.896627e+00   6.673896e-02
  2.110986e-01    1.942734e+00   6.731369e-02
  2.133090e-01    1.903966e+00   6.642202e-02
  2.155195e-01    1.923784e+00   6.654534e-02
  2.177300e-01    1.936888e+00   6.624703e-02
  2.199404e-01    1.964109e+00   6.495311e-02
  2.221509e-01    1.967004e+00   6.393363e-02
  2.243613e-01    1.879801e+00   6.170805e-02
  2.265718e-01    1.968553e+00   6.245192e-02
  2.287822e-01    2.053438e+00   6.315288e-02
  2.309927e-01    2.062951e+00   6.272236e-02
  2.332031e-01    2.120189e+00   6.304230e-02
  2.354136e-01    2.193765e+00   6.360711e-02
  2.376241e-01    2.128378e+00   6.216573e-02
  2.398345e-01    2.163752e+00   6.221629e-02
  2.420450e-01    2.129311e+00   6.127807e-02
  2.442554e-01    2.130175e+00   6.086826e-02
  2.464659e-01    2.062452e+00   5.949078e-02
  2.486763e-01    2.113494e+00   5.982655e-02
  2.508868e-01    2.116643e+00   5.949343e-02
  2.530973e-01    2.073412e+00   5.851769e-02
  2.553077e-01    2.025791e+00   5.749090e-02
  2.575182e-01    2.069322e+00   5.776153e-02
  2.597286e-01    2.082134e+00   5.760328e-02
  2.619391e-01    2.062588e+00   5.700219e-02
  2.641495e-01    2.024732e+00   5.616410e-02
  2.663600e-01    2.010517e+00   5.565879e-02
  2.685704e-01    2.012864e+00   5.538940e-02
  2.707809e-01    1.985650e+00   5.472169e-02
  2.729914e-01    1.975420e+00   5.429609e-02
  2.752018e-01    1.995343e+00   5.428518e-02
  2.774123e-01    2.013746e+00   5.425638e-02
  2.796227e-01    1.982168e+00   5.356303e-02
  2.818332e-01    1.963341e+00   5.304211e-02
  2.840436e-01    1.938690e+00   5.245258e-02
  2.862541e-01    1.935547e+00   5.215810e-02
  2.884646e-01    2.019801e+00   5.302836e-02
  2.906750e-01    1.947555e+00   5.182447e-02
  2.928855e-01    1.907602e+00   5.105247e-02
  2.950959e-01    1.882524e+00   5.048281e-02
  2.973064e-01    1.884158e+00   5.027772e-02
  2.995168e-01    1.919232e+00   5.051372e-02
  3.017273e-01    1.888101e+00   4.988147e-02
  3.039377e-01    1.913204e+00   4.999211e-02
  3.061482e-01    1.850674e+00   4.895566e-02
  3.083587e-01    1.901889e+00   4.941362e-02
  3.105691e-01    1.893556e+00   4.909464e-02
  3.127796e-01    1.891835e+00   4.886603e-02
  3.149900e-01    1.856029e+00   4.819972e-02
  3.172005e-01    1.918279e+00   4.880097e-02
  3.194109e-01    1.904082e+00   4.841935e-02
  3.216214e-01    1.922237e+00   4.845112e-02
  3.238319e-01    1.897714e+00   4.795035e-02
  3.260423e-01    1.844532e+00   4.708539e-02
  3.282528e-01    1.869496e+00   4.721422e-02
  3.304632e-01    1.837858e+00   4.663166e-02
  3.326737e-01    1.858670e+00   4.671198e-02
  3.348841e-01    1.812113e+00   4.594438e-02
  3.370946e-01    1.801493e+00   4.563721e-02
  3.393050e-01    1.737029e+00   4.464347e-02
  3.415155e-01    1.799935e+00   4.527376e-02
  3.437260e-01    1.832961e+00   4.551792e-02
  3.459364e-01    1.803319e+00   4.498135e-02
  3.481469e-01    1.775756e+00   4.447334e-02
  3.503573e-01    1.799862e+00   4.461108e-02
  3.525678e-01    1.779265e+00   4.419701e-02
  3.547782e-01    1.755581e+00   4.374320e-02
  3.569887e-01    1.732339e+00   4.329871e-02
  3.591992e-01    1.770370e+00   4.361652e-02
  3.614096e-01    1.753780e+00   4.326118e-02
  3.636201e-01    1.805151e+00   4.373595e-02
  3.658305e-01    1.806936e+00   4.360831e-02
  3.680410e-01    1.792573e+00   4.328526e-02
  3.702514e-01    1.770975e+00   4.287902e-02
  3.724619e-01    1.764933e+00   4.266004e-02
  3.746724e-01    1.783825e+00   4.274466e-02
  3.768828e-01    1.780705e+00   4.256358e-02
  3.790933e-01    1.730160e+00   4.181841e-02
  3.813037e-01    1.739742e+00   4.179686e-02
  3.835142e-01    1.699991e+00   4.118090e-02
  3.857246e-01    1.779487e+00   4.199639e-02
  3.879351e-01    1.750019e+00   4.151243e-02
  3.901455e-01    1.783779e+00   4.177750e-02
  3.923560e-01    1.735224e+00   4.107401e-02
  3.945665e-01    1.782899e+00   4.150241e-02
  3.967769e-01    1.756874e+00   4.106937e-02
  3.989874e-01    1.770708e+00   4.110201e-02
  4.011978e-01    1.826666e+00   4.161802e-02
  4.034083e-01    1.787188e+00   4.103948e-02
  4.056187e-01    1.787190e+00   4.091306e-02
  4.078292e-01    1.777844e+00   4.068247e-02
  4.100397e-01    1.814643e+00   4.097584e-02
  4.122501e-01    1.812542e+00   4.082960e-02
  4.144606e-01    1.747117e+00   3.996708e-02
  4.166710e-01    1.759462e+00   3.998876e-02
  4.188815e-01    1.777271e+00   4.007193e-02
  4.210919e-01    1.750795e+00   3.965576e-02
  4.233024e-01    1.791715e+00   3.999851e-02
  4.255128e-01    1.755820e+00   3.948138e-02
  4.277233e-01    1.780353e+00   3.964198e-02
  4.299338e-01    1.772102e+00   3.943626e-02
  4.321442e-01    1.719145e+00   3.873137e-02
  4.343547e-01    1.749847e+00   3.896520e-02
  4.365651e-01    1.695332e+00   3.824446e-02
  4.387756e-01    1.726930e+00   3.849114e-02
  4.409860e-01    1.743828e+00   3.857183e-02
  4.431965e-01    1.756537e+00   3.860511e-02
  4.454070e-01    1.706706e+00   3.794770e-02
  4.476174e-01    1.694467e+00   3.770755e-02
  4.498279e-01    1.739271e+00   3.809889e-02
  4.520383e-01    1.754805e+00   3.816365e-02
  4.542488e-01    1.724370e+00   3.772922e-02
  4.564592e-01    1.744610e+00   3.784820e-02
  4.586697e-01    1.690680e+00   3.715973e-02
  4.608801e-01    1.690101e+00   3.705385e-02
  4.630906e-01    1.675237e+00   3.679286e-02
  4.653011e-01    1.680983e+00   3.675899e-02
  4.675115e-01    1.699958e+00   3.686849e-02
  4.697220e-01    1.708220e+00   3.686125e-02
  4.719324e-01    1.647984e+00   3.611185e-02
  4.741429e-01    1.664929e+00   3.620347e-02
  4.763533e-01    1.723171e+00   3.673687e-02
  4.785638e-01    1.696626e+00   3.635864e-02
  4.807743e-01    1.665328e+00   3.593010e-02
  4.829847e-01    1.668046e+00   3.586858e-02
  4.851952e-01    1.679475e+00   3.590017e-02
  4.874056e-01    1.671943e+00   3.572927e-02
  4.896161e-01    1.623596e+00   3.512158e-02
  4.918265e-01    1.589827e+00   3.466810e-02
  4.940370e-01    1.602182e+00   3.471662e-02
  4.962475e-01    1.636716e+00   3.500213e-02
  4.984579e-01    1.597140e+00   3.449117e-02
  5.006684e-01    1.597459e+00   3.441048e-02
  5.028788e-01    1.630737e+00   3.468280e-02
  5.050893e-01    1.648843e+00   3.478999e-02
  5.072997e-01    1.663849e+00   3.486355e-02
  5.095102e-01    1.611555e+00   3.422913e-02
  5.117206e-01    1.591837e+00   3.393817e-02
  5.139311e-01    1.638237e+00   3.434777e-02
  5.161416e-01    1.648001e+00   3.436858e-02
  5.183520e-01    1.637876e+00   3.418140e-02
  5.205625e-01    1.627843e+00   3.399674e-02
  5.227729e-01    1.608786e+00   3.371832e-02
  5.249834e-01    1.629687e+00   3.385784e-02
  5.271938e-01    1.658220e+00   3.407329e-02
  5.294043e-01    1.716879e+00   3.459068e-02
  5.316148e-01    1.692846e+00   3.426908e-02
  5.338252e-01    1.687975e+00   3.414152e-02
  5.360357e-01    1.719670e+00   3.438211e-02
  5.382461e-01    1.744480e+00   3.455098e-02
  5.404566e-01    1.708029e+00   3.411030e-02
  5.426670e-01    1.730075e+00   3.425236e-02
  5.448775e-01    1.688005e+00   3.375777e-02
  5.470879e-01    1.756573e+00   3.435976e-02
  5.492984e-01    1.780077e+00   3.451199e-02
  5.515089e-01    1.678263e+00   3.343615e-02
  5.537193e-01    1.707974e+00   3.365649e-02
  5.559298e-01    1.728715e+00   3.378597e-02
  5.581402e-01    1.744515e+00   3.386584e-02
  5.603507e-01    1.803445e+00   3.435815e-02
  5.625611e-01    1.757133e+00   3.384054e-02
  5.647716e-01    1.756960e+00   3.376540e-02
  5.669821e-01    1.788175e+00   3.399059e-02
  5.691925e-01    1.741975e+00   3.347663e-02
  5.714030e-01    1.709428e+00   3.309169e-02
  5.736134e-01    1.689949e+00   3.283263e-02
  5.758239e-01    1.683314e+00   3.269818e-02
  5.780343e-01    1.685762e+00   3.265273e-02
  5.802448e-01    1.676208e+00   3.249191e-02
  5.824552e-01    1.658266e+00   3.224974e-02
  5.846657e-01    1.603540e+00   3.164701e-02
  5.868762e-01    1.617678e+00   3.172003e-02
  5.890866e-01    1.591786e+00   3.139989e-02
  5.912971e-01    1.623072e+00   3.164130e-02
  5.935075e-01    1.621974e+00   3.156524e-02
  5.957180e-01    1.619964e+00   3.148093e-02
  5.979284e-01    1.647614e+00   3.168367e-02
  6.001389e-01    1.610643e+00   3.126238e-02
  6.023494e-01    1.618907e+00   3.127884e-02
  6.045598e-01    1.648856e+00   3.150256e-02
  6.067703e-01    1.673072e+00   3.166924e-02
  6.089807e-01    1.646169e+00   3.135043e-02
  6.111912e-01    1.675298e+00   3.156343e-02
  6.134016e-01    1.669537e+00   3.144629e-02
  6.156121e-01    1.655480e+00   3.125136e-02
  6.178226e-01    1.698445e+00   3.159164e-02
  6.200330e-01    1.673053e+00   3.129274e-02
  6.222435e-01    1.651555e+00   3.102947e-02
  6.244539e-01    1.676688e+00   3.120344e-02
  6.266644e-01    1.678181e+00   3.115645e-02
  6.288748e-01    1.705397e+00   3.134694e-02
  6.310853e-01    1.680295e+00   3.105498e-02
  6.332957e-01    1.705945e+00   3.123067e-02
  6.355062e-01    1.686295e+00   3.099000e-02
  6.377167e-01    1.692994e+00   3.099189e-02
  6.399271e-01    1.694981e+00   3.095067e-02
  6.421376e-01    1.678881e+00   3.074452e-02
  6.443480e-01    1.692366e+00   3.080902e-02
  6.465585e-01    1.681703e+00   3.065364e-02
  6.487689e-01    1.706091e+00   3.081680e-02
  6.509794e-01    1.679439e+00   3.051749e-02
  6.531899e-01    1.667099e+00   3.034799e-02
  6.554003e-01    1.652460e+00   3.015764e-02
  6.576108e-01    1.635132e+00   2.994325e-02
  6.598212e-01    1.623667e+00   2.978265e-02
  6.620317e-01    1.595464e+00   2.946813e-02
  6.642421e-01    1.626986e+00   2.970273e-02
  6.664526e-01    1.631211e+00   2.968652e-02
  6.686630e-01    1.597018e+00   2.931940e-02
  6.708735e-01    1.633828e+00   2.960097e-02
  6.730840e-01    1.599602e+00   2.923588e-02
  6.752944e-01    1.631666e+00   2.947374e-02
  6.775049e-01    1.604119e+00   2.917084e-02
  6.797153e-01    1.578213e+00   2.888193e-02
  6.819258e-01    1.571643e+00   2.876978e-02
  6.841362e-01    1.594097e+00   2.892245e-02
  6.863467e-01    1.572405e+00   2.867355e-02
  6.885572e-01    1.565750e+00   2.856154e-02
  6.907676e-01    1.543573e+00   2.830772e-02
  6.929781e-01    1.579343e+00   2.858294e-02
  6.951885e-01    1.629306e+00   2.898010e-02
  6.973990e-01    1.637070e+00   2.899775e-02
  6.996094e-01    1.575804e+00   2.839991e-02
  7.018199e-01    1.518081e+00   2.782597e-02
  7.040303e-01    1.564840e+00   2.820162e-02
  7.062408e-01    1.547391e+00   2.799483e-02
  7.084513e-01    1.558810e+00   2.804906e-02
  7.106617e-01    1.582210e+00   2.820970e-02
  7.128722e-01    1.538283e+00   2.776724e-02
  7.150826e-01    1.550846e+00   2.783231e-02
  7.172931e-01    1.596313e+00   2.818871e-02
  7.195035e-01    1.528739e+00   2.753819e-02
  7.217140e-01    1.580610e+00   2.805101e-02
  7.239245e-01    1.591341e+00   2.837403e-02
  7.261349e-01    1.542959e+00   2.804688e-02
  7.283454e-01    1.545066e+00   2.813774e-02
  7.305558e-01    1.547529e+00   2.821367e-02
  7.327663e-01    1.529872e+00   2.809415e-02
  7.349767e-01    1.549464e+00   2.828971e-02
  7.371872e-01    1.552517e+00   2.830646e-02
  7.393976e-01    1.553074e+00   2.829739e-02
  7.416081e-01    1.545500e+00   2.821226e-02
  7.438186e-01    1.533364e+00   2.795888e-02
  7.460290e-01    1.530695e+00   2.764443e-02
  7.482395e-01    1.521121e+00   2.738960e-02
  7.504499e-01    1.520785e+00   2.725265e-02
  7.526604e-01    1.580215e+00   2.766327e-02
  7.548708e-01    1.604230e+00   2.778246e-02
  7.570813e-01    1.531065e+00   2.709125e-02
  7.592918e-01    1.581438e+00   2.749803e-02
  7.615022e-01    1.589340e+00   2.753272e-02
  7.637127e-01    1.537353e+00   2.704628e-02
  7.659231e-01    1.525318e+00   2.690872e-02
  7.681336e-01    1.512783e+00   2.676694e-02
  7.703440e-01    1.536525e+00   2.694532e-02
  7.725545e-01    1.552444e+00   2.705387e-02
  7.747650e-01    1.621643e+00   2.761150e-02
  7.769754e-01    1.533496e+00   2.679860e-02
  7.791859e-01    1.539731e+00   2.680012e-02
  7.813963e-01    1.557355e+00   2.690084e-02
  7.836068e-01    1.524024e+00   2.656042e-02
  7.858172e-01    1.545212e+00   2.669440e-02
  7.880277e-01    1.557817e+00   2.675208e-02
  7.902381e-01    1.565478e+00   2.676906e-02
  7.924486e-01    1.584748e+00   2.688341e-02
  7.946591e-01    1.584641e+00   2.683444e-02
  7.968695e-01    1.579121e+00   2.673974e-02
  7.990800e-01    1.583863e+00   2.673200e-02
  8.012904e-01    1.594333e+00   2.677381e-02
  8.035009e-01    1.601002e+00   2.678201e-02
  8.057113e-01    1.608599e+00   2.679906e-02
  8.079218e-01    1.602077e+00   2.669852e-02
  8.101323e-01    1.582622e+00   2.649087e-02
  8.123427e-01    1.596861e+00   2.656439e-02
  8.145532e-01    1.615923e+00   2.667676e-02
  8.167636e-01    1.608401e+00   2.656985e-02
  8.189741e-01    1.601538e+00   2.646890e-02
  8.211845e-01    1.604389e+00   2.644805e-02
  8.233950e-01    1.651299e+00   2.678827e-02
  8.256054e-01    1.634609e+00   2.660840e-02
  8.278159e-01    1.618096e+00   2.642995e-02
  8.300264e-01    1.619147e+00   2.639570e-02
  8.322368e-01    1.636385e+00   2.649273e-02
  8.344473e-01    1.635830e+00   2.644492e-02
  8.366577e-01    1.635938e+00   2.640324e-02
  8.388682e-01    1.592349e+00   2.600749e-02
  8.410786e-01    1.612177e+00   2.612717e-02
  8.432891e-01    1.610271e+00   2.607027e-02
  8.454996e-01    1.588804e+00   2.585493e-02
  8.477100e-01    1.581414e+00   2.575378e-02
  8.499205e-01    1.619638e+00   2.602222e-02
  8.521309e-01    1.693179e+00   2.656497e-02
  8.543414e-01    1.648951e+00   2.617484e-02
  8.565518e-01    1.561309e+00   2.543009e-02
  8.587623e-01    1.589262e+00   2.561674e-02
  8.609727e-01    1.602215e+00   2.568106e-02
  8.631832e-01    1.635112e+00   2.590336e-02
  8.653937e-01    1.610917e+00   2.567150e-02
  8.676041e-01    1.591202e+00   2.547542e-02
  8.698146e-01    1.576788e+00   2.532102e-02
  8.720250e-01    1.550112e+00   2.506765e-02
  8.742355e-01    1.563216e+00   2.513504e-02
  8.764459e-01    1.570405e+00   2.515437e-02
  8.786564e-01    1.561400e+00   2.504473e-02
  8.808669e-01    1.572357e+00   2.509436e-02
  8.830773e-01    1.552636e+00   2.489895e-02
  8.852878e-01    1.573743e+00   2.503002e-02
  8.874982e-01    1.580911e+00   2.505057e-02
  8.897087e-01    1.545268e+00   2.472955e-02
  8.919191e-01    1.563107e+00   2.483457e-02
  8.941296e-01    1.560380e+00   2.477607e-02
  8.963401e-01    1.593816e+00   2.500376e-02
  8.985505e-01    1.554396e+00   2.465621e-02
  9.007610e-01    1.534619e+00   2.446285e-02
  9.029714e-01    1.523448e+00   2.433867e-02
  9.051819e-01    1.540476e+00   2.443781e-02
  9.073923e-01    1.531227e+00   2.432854e-02
  9.096028e-01    1.522939e+00   2.422855e-02
  9.118132e-01    1.541754e+00   2.434221e-02
  9.140237e-01    1.536064e+00   2.426136e-02
  9.162342e-01    1.559827e+00   2.441417e-02
  9.184446e-01    1.584500e+00   2.457092e-02
  9.206551e-01    1.569618e+00   2.442003e-02
  9.228655e-01    1.570216e+00   2.438975e-02
  9.250760e-01    1.592453e+00   2.452660e-02
  9.272864e-01    1.586915e+00   2.444983e-02
  9.294969e-01    1.595995e+00   2.448392e-02
  9.317074e-01    1.603278e+00   2.450506e-02
  9.339178e-01    1.617983e+00   2.458356e-02
  9.361283e-01    1.608385e+00   2.447440e-02
  9.383387e-01    1.593770e+00   2.432982e-02
  9.405492e-01    1.596237e+00   2.431463e-02
  9.427596e-01    1.606476e+00   2.435736e-02
  9.449701e-01    1.630047e+00   2.450208e-02
  9.471805e-01    1.608212e+00   2.430295e-02
  9.493910e-01    1.639708e+00   2.450608e-02
  9.516015e-01    1.667686e+00   2.467978e-02
  9.538119e-01    1.712133e+00   2.497222e-02
  9.560224e-01    1.726179e+00   2.503916e-02
  9.582328e-01    1.720845e+00   2.496690e-02
  9.604433e-01    1.776066e+00   2.532840e-02
  9.626537e-01    1.803762e+00   2.549082e-02
  9.648642e-01    1.776426e+00   2.526228e-02
  9.670747e-01    1.786006e+00   2.529536e-02
  9.692851e-01    1.855939e+00   2.575155e-02
  9.714956e-01    1.942000e+00   2.630471e-02
  9.737060e-01    1.915080e+00   2.608747e-02
  9.759165e-01    1.841634e+00   2.554627e-02
  9.781269e-01    1.757690e+00   2.492460e-02
  9.803374e-01    1.787602e+00   2.510100e-02
  9.825478e-01    1.799007e+00   2.514774e-02
  9.847583e-01    1.765588e+00   2.487925e-02
  9.869688e-01    1.731003e+00   2.460141e-02
  9.891792e-01    1.723558e+00   2.451579e-02
  9.913897e-01    1.752089e+00   2.468452e-02
  9.936001e-01    1.748257e+00   2.462525e-02
  9.958106e-01    1.658051e+00   2.394894e-02
  9.980210e-01    1.667338e+00   2.398473e-02
  1.000231e+00    1.653594e+00   2.401653e-02
  1.002442e+00    1.627439e+00   2.395242e-02
  1.004652e+00    1.589063e+00   2.373438e-02
  1.006863e+00    1.559615e+00   2.356220e-02
  1.009073e+00    1.562217e+00   2.361796e-02
  1.011284e+00    1.521467e+00   2.333904e-02
  1.013494e+00    1.526267e+00   2.339900e-02
  1.015705e+00    1.544847e+00   2.356325e-02
  1.017915e+00    1.504718e+00   2.327122e-02
  1.020126e+00    1.509200e+00   2.332161e-02
  1.022336e+00    1.463948e+00   2.298063e-02
  1.024547e+00    1.485717e+00   2.316180e-02
  1.026757e+00    1.513716e+00   2.338735e-02
  1.028967e+00    1.532465e+00   2.353937e-02
  1.031178e+00    1.517887e+00   2.343329e-02
  1.033388e+00    1.477662e+00   2.312568e-02
  1.035599e+00    1.452198e+00   2.292888e-02
  1.037809e+00    1.471990e+00   2.308778e-02
  1.040020e+00    1.488917e+00   2.322143e-02
  1.042230e+00    1.453321e+00   2.294407e-02
  1.044441e+00    1.438367e+00   2.282549e-02
  1.046651e+00    1.474457e+00   2.311025e-02
  1.048862e+00    1.463290e+00   2.302180e-02
  1.051072e+00    1.437634e+00   2.281678e-02
  1.053282e+00    1.454793e+00   2.295158e-02
  1.055493e+00    1.458245e+00   2.297457e-02
  1.057703e+00    1.477093e+00   2.312104e-02
  1.059914e+00    1.474517e+00   2.309665e-02
  1.062124e+00    1.479044e+00   2.312802e-02
  1.064335e+00    1.482971e+00   2.315528e-02
  1.066545e+00    1.469746e+00   2.304581e-02
  1.068756e+00    1.496600e+00   2.325165e-02
  1.070966e+00    1.540163e+00   2.358094e-02
  1.073177e+00    1.575260e+00   2.384186e-02
  1.075387e+00    1.546222e+00   2.361573e-02
  1.077597e+00    1.574010e+00   2.381946e-02
  1.079808e+00    1.629114e+00   2.409281e-02
  1.082018e+00    1.609451e+00   2.374866e-02
  1.084229e+00    1.709882e+00   2.435929e-02
  1.086439e+00    2.050099e+00   2.656900e-02
  1.088650e+00    2.245271e+00   2.771104e-02
  1.090860e+00    2.136670e+00   2.695067e-02
  1.093071e+00    1.787102e+00   2.457866e-02
  1.095281e+00    1.538655e+00   2.274716e-02
  1.097492e+00    1.449079e+00   2.202007e-02
  1.099702e+00    1.429316e+00   2.181821e-02
  1.101912e+00    1.429952e+00   2.177437e-02
  1.104123e+00    1.440025e+00   2.180262e-02
  1.106333e+00    1.466140e+00   2.195450e-02
  1.108544e+00    1.427883e+00   2.162197e-02
  1.110754e+00    1.413887e+00   2.147288e-02
  1.112965e+00    1.417699e+00   2.146135e-02
  1.115175e+00    1.415221e+00   2.140147e-02
  1.117386e+00    1.399031e+00   2.123968e-02
  1.119596e+00    1.384531e+00   2.109180e-02
  1.121807e+00    1.379174e+00   2.101257e-02
  1.124017e+00    1.373422e+00   2.093251e-02
  1.126228e+00    1.383090e+00   2.097055e-02
  1.128438e+00    1.380348e+00   2.091329e-02
  1.130648e+00    1.379151e+00   2.087013e-02
  1.132859e+00    1.361027e+00   2.069864e-02
  1.135069e+00    1.332909e+00   2.044974e-02
  1.137280e+00    1.343934e+00   2.050167e-02
  1.139490e+00    1.343942e+00   2.046921e-02
  1.141701e+00    1.333484e+00   2.035690e-02
  1.143911e+00    1.347484e+00   2.043204e-02
  1.146122e+00    1.323874e+00   2.022091e-02
  1.148332e+00    1.361325e+00   2.047324e-02
  1.150543e+00    1.377470e+00   2.056348e-02
  1.152753e+00    1.328028e+00   2.016076e-02
  1.154963e+00    1.322582e+00   2.008891e-02
  1.157174e+00    1.337175e+00   2.016966e-02
  1.159384e+00    1.332210e+00   2.010279e-02
  1.161595e+00    1.330082e+00   2.005730e-02
  1.163805e+00    1.372602e+00   2.034606e-02
  1.166016e+00    1.363432e+00   2.024865e-02
  1.168226e+00    1.335708e+00   2.001306e-02
  1.170437e+00    1.348783e+00   2.008234e-02
  1.172647e+00    1.338701e+00   1.997853e-02
  1.174858e+00    1.363217e+00   2.013255e-02
  1.177068e+00    1.344632e+00   1.996678e-02
  1.179278e+00    1.354825e+00   2.001382e-02
  1.181489e+00    1.317257e+00   1.970781e-02
  1.183699e+00    1.319834e+00   1.969989e-02
  1.185910e+00    1.317873e+00   1.965789e-02
  1.188120e+00    1.335781e+00   1.976452e-02
  1.190331e+00    1.325482e+00   1.966171e-02
  1.192541e+00    1.352210e+00   1.983159e-02
  1.194752e+00    1.361494e+00   1.987244e-02
  1.196962e+00    1.316353e+00   1.951482e-02
  1.199173e+00    1.307364e+00   1.942198e-02
  1.201383e+00    1.342937e+00   1.965735e-02
  1.203593e+00    1.345623e+00   1.965223e-02
  1.205804e+00    1.333109e+00   1.953489e-02
  1.208014e+00    1.310317e+00   1.934069e-02
  1.210225e+00    1.344634e+00   1.956708e-02
  1.212435e+00    1.339552e+00   1.950534e-02
  1.214646e+00    1.378665e+00   1.976170e-02
  1.216856e+00    1.329688e+00   1.938223e-02
  1.219067e+00    1.336389e+00   1.940665e-02
  1.221277e+00    1.348520e+00   1.946952e-02
  1.223488e+00    1.334339e+00   1.934130e-02
  1.225698e+00    1.324763e+00   1.924511e-02
  1.227909e+00    1.333371e+00   1.927756e-02
  1.230119e+00    1.316381e+00   1.912288e-02
  1.232329e+00    1.317321e+00   1.909938e-02
  1.234540e+00    1.302924e+00   1.896494e-02
  1.236750e+00    1.319663e+00   1.905647e-02
  1.238961e+00    1.337306e+00   1.915658e-02
  1.241171e+00    1.333966e+00   1.910862e-02
  1.243382e+00    1.343382e+00   1.915246e-02
  1.245592e+00    1.368664e+00   1.930760e-02
  1.247803e+00    1.366036e+00   1.926526e-02
  1.250013e+00    1.335472e+00   1.902511e-02
  1.252224e+00    1.326253e+00   1.893628e-02
  1.254434e+00    1.322602e+00   1.888669e-02
  1.256644e+00    1.344385e+00   1.901842e-02
  1.258855e+00    1.338856e+00   1.895612e-02
  1.261065e+00    1.336663e+00   1.891731e-02
  1.263276e+00    1.349192e+00   1.898284e-02
  1.265486e+00    1.328191e+00   1.881183e-02
  1.267697e+00    1.301595e+00   1.859992e-02
  1.269907e+00    1.333984e+00   1.880736e-02
  1.272118e+00    1.318414e+00   1.867498e-02
  1.274328e+00    1.343046e+00   1.882596e-02
  1.276539e+00    1.314091e+00   1.859943e-02
  1.278749e+00    1.328936e+00   1.868207e-02
  1.280959e+00    1.332602e+00   1.868543e-02
  1.283170e+00    1.309133e+00   1.849810e-02
  1.285380e+00    1.300224e+00   1.841298e-02
  1.287591e+00    1.325053e+00   1.856614e-02
  1.289801e+00    1.332087e+00   1.859428e-02
  1.292012e+00    1.323697e+00   1.851869e-02
  1.294222e+00    1.313307e+00   1.842987e-02
  1.296433e+00    1.309348e+00   1.838669e-02
  1.298643e+00    1.346368e+00   1.862836e-02
  1.300854e+00    1.330250e+00   1.850024e-02
  1.303064e+00    1.338745e+00   1.854006e-02
  1.305274e+00    1.324607e+00   1.842068e-02
  1.307485e+00    1.320186e+00   1.836860e-02
  1.309695e+00    1.326584e+00   1.839101e-02
  1.311906e+00    1.343055e+00   1.848318e-02
  1.314116e+00    1.305621e+00   1.820334e-02
  1.316327e+00    1.313311e+00   1.823545e-02
  1.318537e+00    1.332920e+00   1.834934e-02
  1.320748e+00    1.344267e+00   1.840579e-02
  1.322958e+00    1.339403e+00   1.835200e-02
  1.325169e+00    1.354968e+00   1.843728e-02
  1.327379e+00    1.351893e+00   1.839452e-02
  1.329589e+00    1.348604e+00   1.835107e-02
  1.331800e+00    1.344473e+00   1.830230e-02
  1.334010e+00    1.324846e+00   1.814775e-02
  1.336221e+00    1.346919e+00   1.827657e-02
  1.338431e+00    1.337855e+00   1.819422e-02
  1.340642e+00    1.322394e+00   1.815226e-02
  1.342852e+00    1.315036e+00   1.820107e-02
  1.345063e+00    1.341957e+00   1.843575e-02
  1.347273e+00    1.330377e+00   1.839104e-02
  1.349484e+00    1.320822e+00   1.835225e-02
  1.351694e+00    1.327147e+00   1.841863e-02
  1.353905e+00    1.314503e+00   1.834848e-02
  1.356115e+00    1.311682e+00   1.834357e-02
  1.358325e+00    1.305806e+00   1.831556e-02
  1.360536e+00    1.275815e+00   1.811530e-02
  1.362746e+00    1.288698e+00   1.821587e-02
  1.364957e+00    1.293904e+00   1.826014e-02
  1.367167e+00    1.315979e+00   1.842231e-02
  1.369378e+00    1.302588e+00   1.833428e-02
  1.371588e+00    1.271792e+00   1.812124e-02
  1.373799e+00    1.267745e+00   1.809595e-02
  1.376009e+00    1.285141e+00   1.822299e-02
  1.378220e+00    1.294969e+00   1.829506e-02
  1.380430e+00    1.278322e+00   1.817974e-02
  1.382640e+00    1.257422e+00   1.803138e-02
  1.384851e+00    1.250839e+00   1.798498e-02
  1.387061e+00    1.286021e+00   1.823643e-02
  1.389272e+00    1.276384e+00   1.816819e-02
  1.391482e+00    1.268633e+00   1.811228e-02
  1.393693e+00    1.274441e+00   1.815281e-02
  1.395903e+00    1.280645e+00   1.819545e-02
  1.398114e+00    1.269536e+00   1.811500e-02
  1.400324e+00    1.261171e+00   1.805310e-02
  1.402535e+00    1.238695e+00   1.788923e-02
  1.404745e+00    1.271072e+00   1.811915e-02
  1.406955e+00    1.256020e+00   1.800889e-02
  1.409166e+00    1.256108e+00   1.800621e-02
  1.411376e+00    1.274773e+00   1.813639e-02
  1.413587e+00    1.245394e+00   1.792241e-02
  1.415797e+00    1.236805e+00   1.785701e-02
  1.418008e+00    1.229123e+00   1.776027e-02
  1.420218e+00    1.233796e+00   1.764642e-02
  1.422429e+00    1.251532e+00   1.768810e-02
  1.424639e+00    1.233634e+00   1.749743e-02
  1.426850e+00    1.245247e+00   1.752541e-02
  1.429060e+00    1.265736e+00   1.762010e-02
  1.431270e+00    1.262722e+00   1.755494e-02
  1.433481e+00    1.243342e+00   1.737918e-02
  1.435691e+00    1.253832e+00   1.741414e-02
  1.437902e+00    1.263127e+00   1.744222e-02
  1.440112e+00    1.242208e+00   1.726222e-02
  1.442323e+00    1.254575e+00   1.731509e-02
  1.444533e+00    1.260864e+00   1.732601e-02
  1.446744e+00    1.235501e+00   1.712017e-02
  1.448954e+00    1.235939e+00   1.709340e-02
  1.451165e+00    1.256318e+00   1.720416e-02
  1.453375e+00    1.263722e+00   1.722680e-02
  1.455586e+00    1.227444e+00   1.695006e-02
  1.457796e+00    1.217551e+00   1.685465e-02
  1.460006e+00    1.240824e+00   1.698806e-02
  1.462217e+00    1.226142e+00   1.686147e-02
  1.464427e+00    1.242315e+00   1.694699e-02
  1.466638e+00    1.265313e+00   1.707784e-02
  1.468848e+00    1.246824e+00   1.692751e-02
  1.471059e+00    1.253050e+00   1.694479e-02
  1.473269e+00    1.262254e+00   1.698259e-02
  1.475480e+00    1.258517e+00   1.693377e-02
  1.477690e+00    1.255720e+00   1.689123e-02
  1.479901e+00    1.232998e+00   1.671420e-02
  1.482111e+00    1.233932e+00   1.669751e-02
  1.484321e+00    1.256798e+00   1.682849e-02
  1.486532e+00    1.254856e+00   1.679325e-02
  1.488742e+00    1.252634e+00   1.675584e-02
  1.490953e+00    1.224376e+00   1.654353e-02
  1.493163e+00    1.234758e+00   1.659148e-02
  1.495374e+00    1.222649e+00   1.648878e-02
  1.497584e+00    1.252881e+00   1.666982e-02
  1.499795e+00    1.247365e+00   1.661154e-02
  1.502005e+00    1.242641e+00   1.655854e-02
  1.504216e+00    1.216711e+00   1.636417e-02
  1.506426e+00    1.214157e+00   1.632655e-02
  1.508636e+00    1.206753e+00   1.625665e-02
  1.510847e+00    1.233865e+00   1.641663e-02
  1.513057e+00    1.256096e+00   1.653878e-02
  1.515268e+00    1.221972e+00   1.628722e-02
  1.517478e+00    1.213282e+00   1.620445e-02
  1.519689e+00    1.221401e+00   1.623393e-02
  1.521899e+00    1.248891e+00   1.639256e-02
  1.524110e+00    1.241999e+00   1.632701e-02
  1.526320e+00    1.251762e+00   1.637148e-02
  1.528531e+00    1.222490e+00   1.615940e-02
  1.530741e+00    1.220887e+00   1.612986e-02
  1.532951e+00    1.231409e+00   1.617978e-02
  1.535162e+00    1.231194e+00   1.626434e-02
  1.537372e+00    1.199937e+00   1.612213e-02
  1.539583e+00    1.202976e+00   1.617613e-02
  1.541793e+00    1.206693e+00   1.620792e-02
  1.544004e+00    1.219790e+00   1.629591e-02
  1.546214e+00    1.220683e+00   1.630039e-02
  1.548425e+00    1.218331e+00   1.628493e-02
  1.550635e+00    1.205694e+00   1.620979e-02
  1.552846e+00    1.222013e+00   1.632867e-02
  1.555056e+00    1.222540e+00   1.629109e-02
  1.557266e+00    1.199313e+00   1.602715e-02
  1.559477e+00    1.233913e+00   1.619783e-02
  1.561687e+00    1.254110e+00   1.629908e-02
  1.563898e+00    1.230077e+00   1.612511e-02
  1.566108e+00    1.229632e+00   1.610631e-02
  1.568319e+00    1.222073e+00   1.604126e-02
  1.570529e+00    1.225678e+00   1.603995e-02
  1.572740e+00    1.228710e+00   1.603234e-02
  1.574950e+00    1.216323e+00   1.592531e-02
  1.577161e+00    1.224191e+00   1.595145e-02
  1.579371e+00    1.247483e+00   1.607880e-02
  1.581582e+00    1.240721e+00   1.601543e-02
  1.583792e+00    1.233362e+00   1.594993e-02
  1.586002e+00    1.216489e+00   1.582302e-02
  1.588213e+00    1.222274e+00   1.584352e-02
  1.590423e+00    1.211089e+00   1.575105e-02
  1.592634e+00    1.226928e+00   1.583224e-02
  1.594844e+00    1.214287e+00   1.572932e-02
  1.597055e+00    1.199085e+00   1.561042e-02
  1.599265e+00    1.216148e+00   1.570058e-02
  1.601476e+00    1.197485e+00   1.555970e-02
  1.603686e+00    1.226363e+00   1.572655e-02
  1.605897e+00    1.221438e+00   1.567492e-02
  1.608107e+00    1.217952e+00   1.563315e-02
  1.610317e+00    1.199704e+00   1.549657e-02
  1.612528e+00    1.203237e+00   1.550043e-02
  1.614738e+00    1.209984e+00   1.552507e-02
  1.616949e+00    1.190728e+00   1.538233e-02
  1.619159e+00    1.193421e+00   1.538122e-02
  1.621370e+00    1.195542e+00   1.537661e-02
  1.623580e+00    1.180242e+00   1.525981e-02
  1.625791e+00    1.168888e+00   1.516829e-02
  1.628001e+00    1.143098e+00   1.498222e-02
  1.630212e+00    1.123311e+00   1.483474e-02
  1.632422e+00    1.145940e+00   1.496583e-02
  1.634632e+00    1.145401e+00   1.494529e-02
  1.636843e+00    1.133933e+00   1.485306e-02
  1.639053e+00    1.137278e+00   1.485793e-02
  1.641264e+00    1.119308e+00   1.472336e-02
  1.643474e+00    1.123257e+00   1.473220e-02
  1.645685e+00    1.137697e+00   1.481010e-02
  1.647895e+00    1.096772e+00   1.452511e-02
  1.650106e+00    1.094888e+00   1.449604e-02
  1.652316e+00    1.102602e+00   1.453087e-02
  1.654527e+00    1.116884e+00   1.460818e-02
  1.656737e+00    1.102197e+00   1.449553e-02
  1.658947e+00    1.073301e+00   1.428839e-02
  1.661158e+00    1.091846e+00   1.439528e-02
  1.663368e+00    1.096385e+00   1.440935e-02
  1.665579e+00    1.101417e+00   1.442635e-02
  1.667789e+00    1.084808e+00   1.430117e-02
  1.670000e+00    1.095138e+00   1.435374e-02
  1.672210e+00    1.073869e+00   1.419804e-02
  1.674421e+00    1.067462e+00   1.414057e-02
  1.676631e+00    1.084698e+00   1.423849e-02
  1.678842e+00    1.089370e+00   1.425345e-02
  1.681052e+00    1.094828e+00   1.427370e-02
  1.683263e+00    1.097399e+00   1.427527e-02
  1.685473e+00    1.082699e+00   1.416422e-02
  1.687683e+00    1.068756e+00   1.405737e-02
  1.689894e+00    1.076302e+00   1.409120e-02
  1.692104e+00    1.079273e+00   1.409566e-02
  1.694315e+00    1.101338e+00   1.422436e-02
  1.696525e+00    1.073277e+00   1.402679e-02
  1.698736e+00    1.065698e+00   1.396235e-02
  1.700946e+00    1.032770e+00   1.373002e-02
  1.703157e+00    1.012362e+00   1.357936e-02
  1.705367e+00    1.017332e+00   1.359838e-02
  1.707578e+00    1.008913e+00   1.352772e-02
  1.709788e+00    1.019429e+00   1.358409e-02
  1.711998e+00    1.008824e+00   1.349850e-02
  1.714209e+00    1.005204e+00   1.346004e-02
  1.716419e+00    1.005871e+00   1.345044e-02
  1.718630e+00    9.945475e-01   1.336052e-02
  1.720840e+00    9.680288e-01   1.316743e-02
  1.723051e+00    9.743330e-01   1.319670e-02
  1.725261e+00    1.002937e+00   1.337446e-02
  1.727472e+00    1.013436e+00   1.343015e-02
  1.729682e+00    9.895836e-01   1.325789e-02
  1.731893e+00    9.923097e-01   1.326235e-02
  1.734103e+00    9.923588e-01   1.324899e-02
  1.736313e+00    1.099068e+00   1.392845e-02
  1.738524e+00    1.123274e+00   1.406646e-02
  1.740734e+00    1.018253e+00   1.337891e-02
  1.742945e+00    9.844161e-01   1.314134e-02
  1.745155e+00    9.751951e-01   1.306632e-02
  1.747366e+00    9.660851e-01   1.299149e-02
  1.749576e+00    9.585661e-01   1.292736e-02
  1.751787e+00    9.483416e-01   1.284513e-02
  1.753997e+00    9.223336e-01   1.265477e-02
  1.756208e+00    9.495308e-01   1.282696e-02
  1.758418e+00    9.471719e-01   1.279809e-02
  1.760628e+00    9.409840e-01   1.274305e-02
  1.762839e+00    9.241300e-01   1.261549e-02
  1.765049e+00    9.289672e-01   1.263555e-02
  1.767260e+00    9.481202e-01   1.275242e-02
  1.769470e+00    9.378352e-01   1.267021e-02
  1.771681e+00    9.482009e-01   1.272691e-02
  1.773891e+00    9.304274e-01   1.259417e-02
  1.776102e+00    9.494461e-01   1.270933e-02
  1.778312e+00    9.312378e-01   1.257425e-02
  1.780523e+00    9.457937e-01   1.265935e-02
  1.782733e+00    9.712437e-01   1.281565e-02
  1.784944e+00    9.646501e-01   1.275902e-02
  1.787154e+00    9.631134e-01   1.273609e-02
  1.789364e+00    9.755555e-01   1.280532e-02
  1.791575e+00    1.021691e+00   1.309144e-02
  1.793785e+00    9.971414e-01   1.292033e-02
  1.795996e+00    9.730210e-01   1.275023e-02
  1.798206e+00    9.703659e-01   1.271996e-02
  1.800417e+00    9.491591e-01   1.256730e-02
  1.802627e+00    9.155272e-01   1.233069e-02
  1.804838e+00    9.149436e-01   1.231464e-02
  1.807048e+00    8.898690e-01   1.213200e-02
  1.809259e+00    9.058794e-01   1.222707e-02
  1.811469e+00    8.992845e-01   1.216756e-02
  1.813679e+00    8.925718e-01   1.210717e-02
  1.815890e+00    8.607304e-01   1.187481e-02
  1.818100e+00    8.582824e-01   1.184314e-02
  1.820311e+00    8.534418e-01   1.179525e-02
  1.822521e+00    8.691687e-01   1.188876e-02
  1.824732e+00    8.830110e-01   1.196831e-02
  1.826942e+00    8.800564e-01   1.193599e-02
  1.829153e+00    8.919284e-01   1.200449e-02
  1.831363e+00    8.717122e-01   1.185572e-02
  1.833574e+00    8.754334e-01   1.186936e-02
  1.835784e+00    8.599112e-01   1.175235e-02
  1.837994e+00    8.677106e-01   1.179389e-02
  1.840205e+00    8.572485e-01   1.171150e-02
  1.842415e+00    8.378424e-01   1.156668e-02
  1.844626e+00    8.395175e-01   1.156685e-02
  1.846836e+00    8.656685e-01   1.173421e-02
  1.849047e+00    8.723757e-01   1.176795e-02
  1.851257e+00    8.470052e-01   1.158609e-02
  1.853468e+00    8.531845e-01   1.161951e-02
  1.855678e+00    8.431693e-01   1.154233e-02
  1.857889e+00    8.597384e-01   1.164666e-02
  1.860099e+00    8.806674e-01   1.177883e-02
  1.862309e+00    9.045661e-01   1.192884e-02
  1.864520e+00    8.935408e-01   1.184716e-02
  1.866730e+00    8.689085e-01   1.167329e-02
  1.868941e+00    8.358712e-01   1.143837e-02
  1.871151e+00    8.356674e-01   1.142567e-02
  1.873362e+00    8.406384e-01   1.144833e-02
  1.875572e+00    8.242745e-01   1.132559e-02
  1.877783e+00    8.105457e-01   1.121969e-02
  1.879993e+00    8.269275e-01   1.132147e-02
  1.882204e+00    8.257607e-01   1.130274e-02
  1.884414e+00    8.213644e-01   1.126166e-02
  1.886624e+00    8.126819e-01   1.119114e-02
  1.888835e+00    7.977605e-01   1.107721e-02
  1.891045e+00    8.458783e-01   1.139547e-02
  1.893256e+00    8.276498e-01   1.126102e-02
  1.895466e+00    8.233055e-01   1.122034e-02
  1.897677e+00    8.218169e-01   1.119936e-02
  1.899887e+00    8.104507e-01   1.111082e-02
  1.902098e+00    8.202903e-01   1.116730e-02
  1.904308e+00    7.969643e-01   1.099702e-02
  1.906519e+00    7.848288e-01   1.090242e-02
  1.908729e+00    7.885674e-01   1.091802e-02
  1.910940e+00    7.727238e-01   1.079701e-02
  1.913150e+00    8.110515e-01   1.105106e-02
  1.915360e+00    7.971034e-01   1.094518e-02
  1.917571e+00    7.991475e-01   1.094849e-02
  1.919781e+00    8.092948e-01   1.100716e-02
  1.921992e+00    8.084070e-01   1.099059e-02
  1.924202e+00    8.073822e-01   1.097293e-02
  1.926413e+00    8.081163e-01   1.096766e-02
  1.928623e+00    8.029497e-01   1.092209e-02
  1.930834e+00    8.015989e-01   1.090252e-02
  1.933044e+00    8.015327e-01   1.089149e-02
  1.935255e+00    7.903460e-01   1.080501e-02
  1.937465e+00    7.845537e-01   1.075510e-02
  1.939675e+00    7.831337e-01   1.073467e-02
  1.941886e+00    7.900816e-01   1.077200e-02
  1.944096e+00    7.780951e-01   1.067996e-02
  1.946307e+00    7.738283e-01   1.064047e-02
  1.948517e+00    7.769396e-01   1.065155e-02
  1.950728e+00    7.703556e-01   1.059627e-02
  1.952938e+00    7.753382e-01   1.062053e-02
  1.955149e+00    7.636893e-01   1.053042e-02
  1.957359e+00    7.757917e-01   1.060361e-02
  1.959570e+00    7.725806e-01   1.057094e-02
  1.961780e+00    7.576758e-01   1.045878e-02
  1.963990e+00    7.563146e-01   1.043949e-02
  1.966201e+00    7.654458e-01   1.049241e-02
  1.968411e+00    7.830158e-01   1.060206e-02
  1.970622e+00    7.764304e-01   1.054735e-02
  1.972832e+00    7.738066e-01   1.051963e-02
  1.975043e+00    7.754466e-01   1.052079e-02
  1.977253e+00    7.752331e-01   1.050947e-02
  1.979464e+00    7.670594e-01   1.044398e-02
  1.981674e+00    7.600033e-01   1.038573e-02
  1.983885e+00    7.461132e-01   1.028059e-02
  1.986095e+00    7.659143e-01   1.040649e-02
  1.988305e+00    7.749506e-01   1.045785e-02
  1.990516e+00    7.701852e-01   1.041578e-02
  1.992726e+00    7.661925e-01   1.037914e-02
  1.994937e+00    7.757564e-01   1.043361e-02
  1.997147e+00    7.555350e-01   1.028712e-02
  1.999358e+00    7.641314e-01   1.033569e-02
  2.001568e+00    7.620081e-01   1.031058e-02
  2.003779e+00    7.623059e-01   1.030078e-02
  2.005989e+00    7.655811e-01   1.031088e-02
  2.008200e+00    7.825381e-01   1.041285e-02
  2.010410e+00    7.645139e-01   1.028052e-02
  2.012621e+00    7.615542e-01   1.024895e-02
  2.014831e+00    7.668913e-01   1.027332e-02
  2.017041e+00    7.479457e-01   1.013539e-02
  2.019252e+00    7.511066e-01   1.014690e-02
  2.021462e+00    7.416962e-01   1.007380e-02
  2.023673e+00    7.413023e-01   1.006186e-02
  2.025883e+00    7.588030e-01   1.017045e-02
  2.028094e+00    7.556422e-01   1.013966e-02
  2.030304e+00    7.524576e-01   1.010878e-02
  2.032515e+00    7.421491e-01   1.003012e-02
  2.034725e+00    7.323639e-01   9.954493e-03
  2.036936e+00    7.311240e-01   9.936904e-03
  2.039146e+00    7.256916e-01   9.890534e-03
  2.041356e+00    7.397984e-01   9.976671e-03
  2.043567e+00    7.443469e-01   9.998056e-03
  2.045777e+00    7.486446e-01   1.001768e-02
  2.047988e+00    7.413131e-01   9.959229e-03
  2.050198e+00    7.419283e-01   9.954969e-03
  2.052409e+00    7.410441e-01   9.941471e-03
  2.054619e+00    7.406373e-01   9.931392e-03
  2.056830e+00    7.324598e-01   9.869355e-03
  2.059040e+00    7.371505e-01   9.893440e-03
  2.061251e+00    7.405500e-01   9.909041e-03
  2.063461e+00    7.249492e-01   9.796640e-03
  2.065671e+00    7.164395e-01   9.730429e-03
  2.067882e+00    7.357377e-01   9.851680e-03
  2.070092e+00    7.316596e-01   9.815254e-03
  2.072303e+00    7.596125e-01   9.991760e-03
  2.074513e+00    7.366087e-01   9.830051e-03
  2.076724e+00    7.300431e-01   9.776777e-03
  2.078934e+00    7.221109e-01   9.714637e-03
  2.081145e+00    7.219060e-01   9.704298e-03
  2.083355e+00    7.302617e-01   9.751202e-03
  2.085566e+00    7.392952e-01   9.802422e-03
  2.087776e+00    7.290591e-01   9.724891e-03
  2.089986e+00    7.414870e-01   9.798639e-03
  2.092197e+00    7.062912e-01   9.554490e-03
  2.094407e+00    7.121044e-01   9.584635e-03
  2.096618e+00    7.341217e-01   9.722795e-03
  2.098828e+00    7.358475e-01   9.724905e-03
  2.101039e+00    7.428622e-01   9.762102e-03
  2.103249e+00    7.487137e-01   9.791710e-03
  2.105460e+00    7.194167e-01   9.589285e-03
  2.107670e+00    7.023649e-01   9.466372e-03
  2.109881e+00    7.069343e-01   9.488071e-03
  2.112091e+00    7.219146e-01   9.579106e-03
  2.114301e+00    7.237936e-01   9.582808e-03
  2.116512e+00    7.047279e-01   9.447061e-03
  2.118722e+00    7.193689e-01   9.535870e-03
  2.120933e+00    7.182438e-01   9.519590e-03
  2.123143e+00    7.100856e-01   9.456493e-03
  2.125354e+00    7.061528e-01   9.421822e-03
  2.127564e+00    7.013065e-01   9.380796e-03
  2.129775e+00    6.937813e-01   9.321735e-03
  2.131985e+00    6.925429e-01   9.304497e-03
  2.134196e+00    6.860508e-01   9.252353e-03
  2.136406e+00    6.889052e-01   9.262990e-03
  2.138617e+00    6.987636e-01   9.320631e-03
  2.140827e+00    7.031871e-01   9.366106e-03
  2.143037e+00    6.875154e-01   9.305973e-03
  2.145248e+00    6.837649e-01   9.302217e-03
  2.147458e+00    7.012857e-01   9.435738e-03
  2.149669e+00    7.021634e-01   9.453499e-03
  2.151879e+00    6.918077e-01   9.392682e-03
  2.154090e+00    6.834565e-01   9.343035e-03
  2.156300e+00    6.847432e-01   9.358353e-03
  2.158511e+00    6.879058e-01   9.385195e-03
  2.160721e+00    6.974885e-01   9.455170e-03
  2.162932e+00    6.767123e-01   9.316958e-03
  2.165142e+00    6.890983e-01   9.404820e-03
  2.167352e+00    6.920495e-01   9.427882e-03
  2.169563e+00    6.772600e-01   9.328483e-03
  2.171773e+00    6.965816e-01   9.463102e-03
  2.173984e+00    6.726700e-01   9.300645e-03
  2.176194e+00    6.746383e-01   9.315418e-03
  2.178405e+00    6.691254e-01   9.277973e-03
  2.180615e+00    6.767114e-01   9.331076e-03
  2.182826e+00    6.824415e-01   9.371187e-03
  2.185036e+00    6.754082e-01   9.322825e-03
  2.187247e+00    6.746101e-01   9.317249e-03
  2.189457e+00    6.857962e-01   9.393783e-03
  2.191667e+00    6.768107e-01   9.331883e-03
  2.193878e+00    6.521984e-01   9.160067e-03
  2.196088e+00    6.616062e-01   9.225215e-03
  2.198299e+00    6.774259e-01   9.333776e-03
  2.200509e+00    6.805822e-01   9.354451e-03
  2.202720e+00    6.731608e-01   9.302158e-03
  2.204930e+00    6.677395e-01   9.263401e-03
  2.207141e+00    6.643072e-01   9.238467e-03
  2.209351e+00    6.544763e-01   9.167997e-03
  2.211562e+00    6.637359e-01   9.231010e-03
  2.213772e+00    6.609591e-01   9.156875e-03
  2.215982e+00    6.461865e-01   9.010738e-03
  2.218193e+00    6.389171e-01   8.931092e-03
  2.220403e+00    6.473227e-01   8.965558e-03
  2.222614e+00    6.599231e-01   9.031663e-03
  2.224824e+00    6.766626e-01   9.126067e-03
  2.227035e+00    6.639704e-01   9.022771e-03
  2.229245e+00    6.473801e-01   8.892643e-03
  2.231456e+00    6.552180e-01   8.930907e-03
  2.233666e+00    6.393394e-01   8.807287e-03
  2.235877e+00    6.550910e-01   8.901009e-03
  2.238087e+00    6.620729e-01   8.934922e-03
  2.240298e+00    6.642700e-01   8.936024e-03
  2.242508e+00    6.460404e-01   8.797697e-03
  2.244718e+00    6.426296e-01   8.758920e-03
  2.246929e+00    6.485124e-01   8.784728e-03
  2.249139e+00    6.450611e-01   8.749149e-03
  2.251350e+00    6.458119e-01   8.742713e-03
  2.253560e+00    6.513838e-01   8.768913e-03
  2.255771e+00    6.527078e-01   8.766547e-03
  2.257981e+00    6.220099e-01   8.547088e-03
  2.260192e+00    6.376236e-01   8.642799e-03
  2.262402e+00    6.375816e-01   8.631895e-03
  2.264613e+00    6.519086e-01   8.717593e-03
  2.266823e+00    6.505003e-01   8.697885e-03
  2.269033e+00    6.456702e-01   8.655286e-03
  2.271244e+00    6.487697e-01   8.665747e-03
  2.273454e+00    6.641276e-01   8.757438e-03
  2.275665e+00    6.553566e-01   8.689178e-03
  2.277875e+00    6.481584e-01   8.631486e-03
  2.280086e+00    6.474202e-01   8.616635e-03
  2.282296e+00    6.247365e-01   8.455187e-03
  2.284507e+00    6.322123e-01   8.495676e-03
  2.286717e+00    6.372364e-01   8.520066e-03
  2.288928e+00    6.310447e-01   8.468913e-03
  2.291138e+00    6.252475e-01   8.420700e-03
  2.293348e+00    6.450404e-01   8.543495e-03
  2.295559e+00    6.521794e-01   8.581357e-03
  2.297769e+00    6.367653e-01   8.470230e-03
  2.299980e+00    6.319649e-01   8.429051e-03
  2.302190e+00    6.376688e-01   8.457995e-03
  2.304401e+00    6.235150e-01   8.354470e-03
  2.306611e+00    6.392745e-01   8.450303e-03
  2.308822e+00    6.406286e-01   8.450915e-03
  2.311032e+00    6.402803e-01   8.442234e-03
  2.313243e+00    6.294168e-01   8.364125e-03
  2.315453e+00    6.275960e-01   8.344582e-03
  2.317663e+00    6.409817e-01   8.424000e-03
  2.319874e+00    6.429709e-01   8.428377e-03
  2.322084e+00    6.340366e-01   8.360725e-03
  2.324295e+00    6.513745e-01   8.465997e-03
  2.326505e+00    6.368136e-01   8.361868e-03
  2.328716e+00    6.010572e-01   8.115435e-03
  2.330926e+00    6.379798e-01   8.352212e-03
  2.333137e+00    6.388913e-01   8.349841e-03
  2.335347e+00    6.279239e-01   8.269080e-03
  2.337558e+00    6.113434e-01   8.151140e-03
  2.339768e+00    6.220508e-01   8.213742e-03
  2.341979e+00    6.301014e-01   8.258425e-03
  2.344189e+00    6.365769e-01   8.292360e-03
  2.346399e+00    6.242268e-01   8.203126e-03
  2.348610e+00    6.112916e-01   8.109392e-03
  2.350820e+00    6.249440e-01   8.191320e-03
  2.353031e+00    6.297492e-01   8.214492e-03
  2.355241e+00    6.205847e-01   8.146541e-03
  2.357452e+00    6.245339e-01   8.164055e-03
  2.359662e+00    6.154236e-01   8.096154e-03
  2.361873e+00    6.191002e-01   8.112171e-03
  2.364083e+00    6.286952e-01   8.166779e-03
  2.366294e+00    6.228251e-01   8.120504e-03
  2.368504e+00    6.236212e-01   8.117639e-03
  2.370714e+00    6.188489e-01   8.078488e-03
  2.372925e+00    6.122722e-01   8.027500e-03
  2.375135e+00    6.018813e-01   7.951168e-03
  2.377346e+00    5.949303e-01   7.897369e-03
  2.379556e+00    5.899589e-01   7.856616e-03
  2.381767e+00    6.031972e-01   7.936514e-03
  2.383977e+00    5.970924e-01   7.888488e-03
  2.386188e+00    5.967383e-01   7.878356e-03
  2.388398e+00    6.145341e-01   7.987056e-03
  2.390609e+00    6.063108e-01   7.925765e-03
  2.392819e+00    6.084915e-01   7.932295e-03
  2.395029e+00    5.922109e-01   7.817946e-03
  2.397240e+00    5.975152e-01   7.845107e-03
  2.399450e+00    5.942189e-01   7.815770e-03
  2.401661e+00    5.952603e-01   7.815021e-03
  2.403871e+00    5.957155e-01   7.810374e-03
  2.406082e+00    5.936801e-01   7.789669e-03
  2.408292e+00    5.920978e-01   7.771600e-03
  2.410503e+00    5.827166e-01   7.702471e-03
  2.412713e+00    5.888481e-01   7.735192e-03
  2.414924e+00    6.001462e-01   7.801610e-03
  2.417134e+00    5.889900e-01   7.721228e-03
  2.419344e+00    5.967927e-01   7.764819e-03
  2.421555e+00    5.944831e-01   7.742331e-03
  2.423765e+00    5.953023e-01   7.740277e-03
  2.425976e+00    5.802944e-01   7.634431e-03
  2.428186e+00    5.862152e-01   7.666112e-03
  2.430397e+00    5.864807e-01   7.660451e-03
  2.432607e+00    5.894713e-01   7.672708e-03
  2.434818e+00    5.825807e-01   7.620277e-03
  2.437028e+00    5.804927e-01   7.599540e-03
  2.439239e+00    5.716134e-01   7.533686e-03
  2.441449e+00    5.657541e-01   7.487935e-03
  2.443659e+00    5.609311e-01   7.448795e-03
  2.445870e+00    5.666981e-01   7.498989e-03
  2.448080e+00    5.762831e-01   7.596742e-03
  2.450291e+00    5.713066e-01   7.580395e-03
  2.452501e+00    5.778876e-01   7.635119e-03
  2.454712e+00    5.628711e-01   7.543616e-03
  2.456922e+00    5.487210e-01   7.454683e-03
  2.459133e+00    5.478155e-01   7.453854e-03
  2.461343e+00    5.598835e-01   7.539842e-03
  2.463554e+00    5.543955e-01   7.506242e-03
  2.465764e+00    5.534239e-01   7.502760e-03
  2.467975e+00    5.594007e-01   7.545455e-03
  2.470185e+00    5.420750e-01   7.429916e-03
  2.472395e+00    5.518588e-01   7.497872e-03
  2.474606e+00    5.558395e-01   7.526443e-03
  2.476816e+00    5.325763e-01   7.367978e-03
  2.479027e+00    5.442198e-01   7.448921e-03
  2.481237e+00    5.363419e-01   7.395105e-03
  2.483448e+00    5.275842e-01   7.334754e-03
  2.485658e+00    5.264938e-01   7.327047e-03
  2.487869e+00    5.231406e-01   7.303705e-03
  2.490079e+00    5.216873e-01   7.293040e-03
  2.492290e+00    5.378228e-01   7.404529e-03
  2.494500e+00    5.446622e-01   7.450736e-03
  2.496710e+00    5.316946e-01   7.360827e-03
  2.498921e+00    5.208983e-01   7.284711e-03
  2.501131e+00    5.193091e-01   7.272669e-03
  2.503342e+00    5.119183e-01   7.219482e-03
  2.505552e+00    5.198591e-01   7.274130e-03
  2.507763e+00    5.157304e-01   7.243820e-03
  2.509973e+00    5.162319e-01   7.245933e-03
  2.512184e+00    5.224399e-01   7.287778e-03
  2.514394e+00    5.174935e-01   7.243926e-03
  2.516605e+00    5.246676e-01   7.246965e-03
  2.518815e+00    5.284967e-01   7.244989e-03
  2.521025e+00    5.175397e-01   7.148690e-03
  2.523236e+00    5.151352e-01   7.114254e-03
  2.525446e+00    5.178261e-01   7.117315e-03
  2.527657e+00    5.179302e-01   7.103541e-03
  2.529867e+00    5.165305e-01   7.079861e-03
  2.532078e+00    5.099618e-01   7.019890e-03
  2.534288e+00    5.096594e-01   7.004112e-03
  2.536499e+00    5.150841e-01   7.029464e-03
  2.538709e+00    5.095797e-01   6.980969e-03
  2.540920e+00    5.179755e-01   7.027649e-03
  2.543130e+00    5.084208e-01   6.952333e-03
  2.545340e+00    5.079179e-01   6.938984e-03
  2.547551e+00    5.111684e-01   6.951313e-03
  2.549761e+00    5.109043e-01   6.940043e-03
  2.551972e+00    5.134926e-01   6.948324e-03
  2.554182e+00    5.109915e-01   6.922288e-03
  2.556393e+00    5.059655e-01   6.879211e-03
  2.558603e+00    5.147046e-01   6.929327e-03
  2.560814e+00    5.154761e-01   6.925870e-03
  2.563024e+00    5.199127e-01   6.947006e-03
  2.565235e+00    5.111312e-01   6.878680e-03
  2.567445e+00    5.116648e-01   6.872768e-03
  2.569656e+00    4.983779e-01   6.773399e-03
  2.571866e+00    4.958704e-01   6.747163e-03
  2.574076e+00    5.105741e-01   6.837261e-03
  2.576287e+00    5.011767e-01   6.765848e-03
  2.578497e+00    4.976397e-01   6.734223e-03
  2.580708e+00    4.996170e-01   6.739623e-03
  2.582918e+00    5.112588e-01   6.809954e-03
  2.585129e+00    5.138957e-01   6.819766e-03
  2.587339e+00    5.070335e-01   6.766445e-03
  2.589550e+00    5.019844e-01   6.725205e-03
  2.591760e+00    5.052672e-01   6.739453e-03
  2.593971e+00    5.118715e-01   6.775852e-03
  2.596181e+00    5.033570e-01   6.713074e-03
  2.598391e+00    5.113180e-01   6.760770e-03
  2.600602e+00    5.016824e-01   6.690894e-03
  2.602812e+00    4.951244e-01   6.639592e-03
  2.605023e+00    4.860356e-01   6.571357e-03
  2.607233e+00    4.921858e-01   6.605768e-03
  2.609444e+00    4.982780e-01   6.639372e-03
  2.611654e+00    4.966551e-01   6.621300e-03
  2.613865e+00    4.937702e-01   6.595097e-03
  2.616075e+00    4.838283e-01   6.521379e-03
  2.618286e+00    4.886494e-01   6.546914e-03
  2.620496e+00    4.893867e-01   6.545255e-03
  2.622706e+00    4.933558e-01   6.566064e-03
  2.624917e+00    4.961330e-01   6.578728e-03
  2.627127e+00    4.848032e-01   6.497547e-03
  2.629338e+00    4.930789e-01   6.546851e-03
  2.631548e+00    4.964097e-01   6.562800e-03
  2.633759e+00    4.839750e-01   6.473074e-03
  2.635969e+00    4.934138e-01   6.529246e-03
  2.638180e+00    4.946286e-01   6.530357e-03
  2.640390e+00    4.832219e-01   6.448122e-03
  2.642601e+00    4.840826e-01   6.447326e-03
  2.644811e+00    4.850545e-01   6.446810e-03
  2.647021e+00    4.889636e-01   6.466248e-03
  2.649232e+00    4.896003e-01   6.463819e-03
  2.651442e+00    4.881598e-01   6.447848e-03
  2.653653e+00    4.973145e-01   6.501270e-03
  2.655863e+00    4.973018e-01   6.494496e-03
  2.658074e+00    4.966063e-01   6.483359e-03
  2.660284e+00    4.885977e-01   6.424574e-03
  2.662495e+00    4.902247e-01   6.428543e-03
  2.664705e+00    4.829401e-01   6.374143e-03
  2.666916e+00    4.911231e-01   6.421468e-03
  2.669126e+00    4.801931e-01   6.343279e-03
  2.671337e+00    4.744707e-01   6.298913e-03
  2.673547e+00    4.876627e-01   6.379550e-03
  2.675757e+00    4.978169e-01   6.439162e-03
  2.677968e+00    4.783599e-01   6.305658e-03
  2.680178e+00    4.750815e-01   6.277726e-03
  2.682389e+00    4.728046e-01   6.256405e-03
  2.684599e+00    4.910714e-01   6.369939e-03
  2.686810e+00    4.903310e-01   6.358551e-03
  2.689020e+00    4.872532e-01   6.332291e-03
  2.691231e+00    4.837375e-01   6.303178e-03
  2.693441e+00    4.771729e-01   6.254192e-03
  2.695652e+00    4.838774e-01   6.291489e-03
  2.697862e+00    4.740902e-01   6.221323e-03
  2.700072e+00    4.805124e-01   6.257278e-03
  2.702283e+00    4.711647e-01   6.190012e-03
  2.704493e+00    4.845166e-01   6.270859e-03
  2.706704e+00    4.822689e-01   6.249923e-03
  2.708914e+00    4.904722e-01   6.296879e-03
  2.711125e+00    4.802563e-01   6.224762e-03
  2.713335e+00    4.875243e-01   6.265580e-03
  2.715546e+00    4.849188e-01   6.242384e-03
  2.717756e+00    4.901046e-01   6.269755e-03
  2.719967e+00    4.838684e-01   6.223553e-03
  2.722177e+00    4.759472e-01   6.166327e-03
  2.724387e+00    4.744613e-01   6.150668e-03
  2.726598e+00    4.609451e-01   6.056523e-03
  2.728808e+00    4.689635e-01   6.102912e-03
  2.731019e+00    4.753824e-01   6.138484e-03
  2.733229e+00    4.666862e-01   6.076374e-03
  2.735440e+00    4.687224e-01   6.083452e-03
  2.737650e+00    4.757023e-01   6.122601e-03
  2.739861e+00    4.775884e-01   6.128711e-03
  2.742071e+00    4.737094e-01   6.098078e-03
  2.744282e+00    4.612946e-01   6.011532e-03
  2.746492e+00    4.632692e-01   6.018460e-03
  2.748702e+00    4.737409e-01   6.080255e-03
  2.750913e+00    4.742022e-01   6.077469e-03
  2.753123e+00    4.704330e-01   6.047219e-03
  2.755334e+00    4.726937e-01   6.055711e-03
  2.757544e+00    4.773038e-01   6.079442e-03
  2.759755e+00    4.699423e-01   6.026565e-03
  2.761965e+00    4.730806e-01   6.040720e-03
  2.764176e+00    4.664736e-01   5.992483e-03
  2.766386e+00    4.769939e-01   6.053901e-03
  2.768597e+00    4.753178e-01   6.037444e-03
  2.770807e+00    4.642849e-01   5.961147e-03
  2.773017e+00    4.793988e-01   6.051435e-03
  2.775228e+00    4.692901e-01   5.981579e-03
  2.777438e+00    4.747023e-01   6.010179e-03
  2.779649e+00    4.718468e-01   5.986231e-03
  2.781859e+00    4.560563e-01   5.879571e-03
  2.784070e+00    4.652794e-01   5.932935e-03
  2.786280e+00    4.743524e-01   5.984755e-03
  2.788491e+00    4.836847e-01   6.037463e-03
  2.790701e+00    4.690431e-01   5.939796e-03
  2.792912e+00    4.624529e-01   5.892024e-03
  2.795122e+00    4.699394e-01   5.933834e-03
  2.797333e+00    4.706410e-01   5.932729e-03
  2.799543e+00    4.674597e-01   5.906835e-03
  2.801753e+00    4.655209e-01   5.888783e-03
  2.803964e+00    4.662572e-01   5.887821e-03
  2.806174e+00    4.758832e-01   5.942137e-03
  2.808385e+00    4.664849e-01   5.876437e-03
  2.810595e+00    4.547489e-01   5.795326e-03
  2.812806e+00    4.706197e-01   5.888999e-03
  2.815016e+00    4.659833e-01   5.855211e-03
  2.817227e+00    4.647587e-01   5.873200e-03
  2.819437e+00    4.656277e-01   5.889664e-03
  2.821648e+00    4.667057e-01   5.898751e-03
  2.823858e+00    4.718298e-01   5.936380e-03
  2.826068e+00    4.609706e-01   5.872587e-03
  2.828279e+00    4.540183e-01   5.832086e-03
  2.830489e+00    4.572983e-01   5.856399e-03
  2.832700e+00    4.588338e-01   5.868746e-03
  2.834910e+00    4.690887e-01   5.936021e-03
  2.837121e+00    4.693730e-01   5.939537e-03
  2.839331e+00    4.625227e-01   5.897252e-03
  2.841542e+00    4.531885e-01   5.838431e-03
  2.843752e+00    4.638547e-01   5.907522e-03
  2.845963e+00    4.545124e-01   5.848117e-03
  2.848173e+00    4.769135e-01   5.990581e-03
  2.850383e+00    4.580220e-01   5.871044e-03
  2.852594e+00    4.590428e-01   5.877481e-03
  2.854804e+00    4.560112e-01   5.857549e-03
  2.857015e+00    4.596059e-01   5.880170e-03
  2.859225e+00    4.587690e-01   5.874559e-03
  2.861436e+00    4.673916e-01   5.928852e-03
  2.863646e+00    4.697798e-01   5.944016e-03
  2.865857e+00    4.619709e-01   5.894758e-03
  2.868067e+00    4.582664e-01   5.871294e-03
  2.870278e+00    4.496770e-01   5.815651e-03
  2.872488e+00    4.552172e-01   5.850230e-03
  2.874698e+00    4.533876e-01   5.837418e-03
  2.876909e+00    4.582371e-01   5.867233e-03
  2.879119e+00    4.514534e-01   5.822058e-03
  2.881330e+00    4.380813e-01   5.733736e-03
  2.883540e+00    4.436238e-01   5.768533e-03
  2.885751e+00    4.514744e-01   5.817720e-03
  2.887961e+00    4.605363e-01   5.873957e-03
  2.890172e+00    4.472601e-01   5.787073e-03
  2.892382e+00    4.603100e-01   5.869091e-03
  2.894593e+00    4.558676e-01   5.838902e-03
  2.896803e+00    4.549086e-01   5.830799e-03
  2.899014e+00    4.387579e-01   5.724480e-03
  2.901224e+00    4.403477e-01   5.732893e-03
  2.903434e+00    4.447568e-01   5.759603e-03
  2.905645e+00    4.542818e-01   5.818746e-03
  2.907855e+00    4.477318e-01   5.774579e-03
  2.910066e+00    4.387862e-01   5.714565e-03
  2.912276e+00    4.452415e-01   5.754358e-03
  2.914487e+00    4.464668e-01   5.759844e-03
  2.916697e+00    4.508716e-01   5.785984e-03
  2.918908e+00    4.355993e-01   5.685198e-03
  2.921118e+00    4.387256e-01   5.702914e-03
  2.923329e+00    4.342658e-01   5.671612e-03
  2.925539e+00    4.334993e-01   5.664369e-03
  2.927749e+00    4.448431e-01   5.735730e-03
  2.929960e+00    4.504434e-01   5.768964e-03
  2.932170e+00    4.412107e-01   5.707250e-03
  2.934381e+00    4.470510e-01   5.742480e-03
  2.936591e+00    4.438123e-01   5.719110e-03
  2.938802e+00    4.408115e-01   5.697060e-03
  2.941012e+00    4.573077e-01   5.800358e-03
  2.943223e+00    4.416681e-01   5.697656e-03
  2.945433e+00    4.440277e-01   5.709154e-03
  2.947644e+00    4.491145e-01   5.737673e-03
  2.949854e+00    4.468831e-01   5.719157e-03
  2.952064e+00    4.522135e-01   5.748962e-03
  2.954275e+00    4.478790e-01   5.716977e-03
  2.956485e+00    4.519413e-01   5.738656e-03
  2.958696e+00    4.504886e-01   5.725093e-03
  2.960906e+00    4.416343e-01   5.664420e-03
  2.963117e+00    4.315055e-01   5.594717e-03
  2.965327e+00    4.298299e-01   5.580053e-03
  2.967538e+00    4.293295e-01   5.573964e-03
  2.969748e+00    4.416634e-01   5.650686e-03
  2.971959e+00    4.431857e-01   5.657328e-03
  2.974169e+00    4.426969e-01   5.651637e-03
  2.976379e+00    4.521303e-01   5.708639e-03
  2.978590e+00    4.479462e-01   5.679059e-03
  2.980800e+00    4.455758e-01   5.661223e-03
  2.983011e+00    4.495739e-01   5.683796e-03
  2.985221e+00    4.552422e-01   5.716337e-03
  2.987432e+00    4.447174e-01   5.646828e-03
  2.989642e+00    4.307983e-01   5.555181e-03
  2.991853e+00    4.489647e-01   5.667820e-03
  2.994063e+00    4.408039e-01   5.613232e-03
  2.996274e+00    4.405301e-01   5.608337e-03
  2.998484e+00    4.536788e-01   5.688723e-03
  3.000694e+00    4.437215e-01   5.622539e-03
  3.002905e+00    4.527813e-01   5.676712e-03
  3.005115e+00    4.485520e-01   5.647174e-03
  3.007326e+00    4.473906e-01   5.636720e-03
  3.009536e+00    4.523359e-01   5.664542e-03
  3.011747e+00    4.461553e-01   5.622816e-03
  3.013957e+00    4.444140e-01   5.608690e-03
  3.016168e+00    4.421637e-01   5.591233e-03
  3.018378e+00    4.541059e-01   5.663210e-03
  3.020589e+00    4.467764e-01   5.614124e-03
  3.022799e+00    4.462075e-01   5.607393e-03
  3.025010e+00    4.526243e-01   5.644356e-03
  3.027220e+00    4.452786e-01   5.595265e-03
  3.029430e+00    4.521065e-01   5.634754e-03
  3.031641e+00    4.526049e-01   5.634726e-03
  3.033851e+00    4.479199e-01   5.601985e-03
  3.036062e+00    4.455803e-01   5.584569e-03
  3.038272e+00    4.487295e-01   5.600708e-03
  3.040483e+00    4.520506e-01   5.618180e-03
  3.042693e+00    4.361505e-01   5.515255e-03
  3.044904e+00    4.463875e-01   5.575643e-03
  3.047114e+00    4.301750e-01   5.468731e-03
  3.049325e+00    4.361747e-01   5.502414e-03
  3.051535e+00    4.495511e-01   5.581762e-03
  3.053745e+00    4.389544e-01   5.510912e-03
  3.055956e+00    4.366058e-01   5.491636e-03
  3.058166e+00    4.439955e-01   5.533677e-03
  3.060377e+00    4.464686e-01   5.544335e-03
  3.062587e+00    4.348976e-01   5.467455e-03
  3.064798e+00    4.375168e-01   5.479708e-03
  3.067008e+00    4.391434e-01   5.485200e-03
  3.069219e+00    4.383362e-01   5.475703e-03
  3.071429e+00    4.483275e-01   5.534252e-03
  3.073640e+00    4.495777e-01   5.538624e-03
  3.075850e+00    4.512480e-01   5.545333e-03
  3.078060e+00    4.545563e-01   5.562486e-03
  3.080271e+00    4.398017e-01   5.468027e-03
  3.082481e+00    4.366221e-01   5.444831e-03
  3.084692e+00    4.292903e-01   5.395610e-03
  3.086902e+00    4.310732e-01   5.403627e-03
  3.089113e+00    4.337878e-01   5.417094e-03
  3.091323e+00    4.315282e-01   5.399664e-03
  3.093534e+00    4.312406e-01   5.394540e-03
  3.095744e+00    4.401676e-01   5.446757e-03
  3.097955e+00    4.402880e-01   5.443972e-03
  3.100165e+00    4.382729e-01   5.428203e-03
  3.102375e+00    4.444877e-01   5.463146e-03
  3.104586e+00    4.364894e-01   5.410325e-03
  3.106796e+00    4.356849e-01   5.401840e-03
  3.109007e+00    4.421763e-01   5.438748e-03
  3.111217e+00    4.416166e-01   5.431631e-03
  3.113428e+00    4.293449e-01   5.352279e-03
  3.115638e+00    4.411197e-01   5.421940e-03
  3.117849e+00    4.471664e-01   5.455271e-03
  3.120059e+00    4.380150e-01   5.395710e-03
  3.122270e+00    4.376268e-01   5.390084e-03
  3.124480e+00    4.400124e-01   5.401098e-03
  3.126691e+00    4.356596e-01   5.370796e-03
  3.128901e+00    4.223089e-01   5.284806e-03
  3.131111e+00    4.238005e-01   5.290390e-03
  3.133322e+00    4.386928e-01   5.379093e-03
  3.135532e+00    4.436804e-01   5.406202e-03
  3.137743e+00    4.517742e-01   5.451782e-03
  3.139953e+00    4.378218e-01   5.363275e-03
  3.142164e+00    4.464236e-01   5.427763e-03
  3.144374e+00    4.362980e-01   5.394073e-03
  3.146585e+00    4.285790e-01   5.360477e-03
  3.148795e+00    4.483795e-01   5.493747e-03
  3.151006e+00    4.345259e-01   5.416694e-03
  3.153216e+00    4.331967e-01   5.415464e-03
  3.155426e+00    4.350427e-01   5.433265e-03
  3.157637e+00    4.430145e-01   5.488344e-03
  3.159847e+00    4.279205e-01   5.398855e-03
  3.162058e+00    4.250418e-01   5.385024e-03
  3.164268e+00    4.147340e-01   5.323255e-03
  3.166479e+00    4.312118e-01   5.431594e-03
  3.168689e+00    4.299178e-01   5.426754e-03
  3.170900e+00    4.370319e-01   5.474660e-03
  3.173110e+00    4.308750e-01   5.438796e-03
  3.175321e+00    4.336343e-01   5.458663e-03
  3.177531e+00    4.329188e-01   5.456875e-03
  3.179741e+00    4.366915e-01   5.482689e-03
  3.181952e+00    4.213406e-01   5.387518e-03
  3.184162e+00    4.245582e-01   5.410212e-03
  3.186373e+00    4.217125e-01   5.393625e-03
  3.188583e+00    4.099308e-01   5.319473e-03
  3.190794e+00    4.157018e-01   5.358494e-03
  3.193004e+00    4.235419e-01   5.410013e-03
  3.195215e+00    4.331509e-01   5.472534e-03
  3.197425e+00    4.302915e-01   5.455669e-03
  3.199636e+00    4.160239e-01   5.363677e-03
  3.201846e+00    4.307757e-01   5.457358e-03
  3.204056e+00    4.145307e-01   5.354336e-03
  3.206267e+00    4.255983e-01   5.426162e-03
  3.208477e+00    4.361494e-01   5.493956e-03
  3.210688e+00    4.189438e-01   5.385337e-03
  3.212898e+00    4.228127e-01   5.410701e-03
  3.215109e+00    4.330936e-01   5.476847e-03
  3.217319e+00    4.165008e-01   5.371548e-03
  3.219530e+00    4.122067e-01   5.344143e-03
  3.221740e+00    4.182409e-01   5.383681e-03
  3.223951e+00    4.103541e-01   5.333144e-03
  3.226161e+00    4.128433e-01   5.349462e-03
  3.228372e+00    4.090116e-01   5.325117e-03
  3.230582e+00    4.199928e-01   5.396239e-03
  3.232792e+00    4.277338e-01   5.445994e-03
  3.235003e+00    4.289667e-01   5.454068e-03
  3.237213e+00    4.241785e-01   5.423648e-03
  3.239424e+00    4.276721e-01   5.445942e-03
  3.241634e+00    4.163304e-01   5.373355e-03
  3.243845e+00    4.253438e-01   5.431289e-03
  3.246055e+00    4.215769e-01   5.406916e-03
  3.248266e+00    4.143558e-01   5.360611e-03
  3.250476e+00    4.016603e-01   5.277541e-03
  3.252687e+00    4.201517e-01   5.397584e-03
  3.254897e+00    4.102509e-01   5.333499e-03
  3.257107e+00    4.040731e-01   5.292880e-03
  3.259318e+00    4.207675e-01   5.400866e-03
  3.261528e+00    4.307336e-01   5.464319e-03
  3.263739e+00    4.258923e-01   5.432968e-03
  3.265949e+00    4.254038e-01   5.429734e-03
  3.268160e+00    4.343142e-01   5.485881e-03
  3.270370e+00    4.225788e-01   5.410749e-03
  3.272581e+00    4.134229e-01   5.351545e-03
  3.274791e+00    4.084793e-01   5.318926e-03
  3.277002e+00    4.074275e-01   5.311539e-03
  3.279212e+00    4.028529e-01   5.281252e-03
  3.281422e+00    4.222491e-01   5.406301e-03
  3.283633e+00    4.174705e-01   5.374962e-03
  3.285843e+00    4.287216e-01   5.446591e-03
  3.288054e+00    3.991810e-01   5.254682e-03
  3.290264e+00    4.066570e-01   5.303326e-03
  3.292475e+00    4.178907e-01   5.375274e-03
  3.294685e+00    4.045335e-01   5.288029e-03
  3.296896e+00    4.250259e-01   5.419574e-03
  3.299106e+00    4.239423e-01   5.412090e-03
  3.301317e+00    4.237451e-01   5.409823e-03
  3.303527e+00    4.203000e-01   5.387325e-03
  3.305737e+00    4.104965e-01   5.323064e-03
  3.307948e+00    4.211389e-01   5.390985e-03
  3.310158e+00    4.101949e-01   5.319623e-03
  3.312369e+00    4.257617e-01   5.418743e-03
  3.314579e+00    4.215792e-01   5.391161e-03
  3.316790e+00    4.150615e-01   5.348617e-03
  3.319000e+00    4.112473e-01   5.322810e-03
  3.321211e+00    4.146286e-01   5.344054e-03
  3.323421e+00    4.125227e-01   5.329267e-03
  3.325632e+00    4.151957e-01   5.345635e-03
  3.327842e+00    4.140005e-01   5.337017e-03
  3.330052e+00    4.009653e-01   5.251309e-03
  3.332263e+00    3.984814e-01   5.234001e-03
  3.334473e+00    4.046743e-01   5.273634e-03
  3.336684e+00    4.089723e-01   5.300318e-03
  3.338894e+00    4.220785e-01   5.383725e-03
  3.341105e+00    4.151991e-01   5.338481e-03
  3.343315e+00    4.123778e-01   5.319182e-03
  3.345526e+00    4.051878e-01   5.271741e-03
  3.347736e+00    3.952588e-01   5.205357e-03
  3.349947e+00    4.022542e-01   5.250312e-03
  3.352157e+00    4.067756e-01   5.278574e-03
  3.354368e+00    4.201022e-01   5.363063e-03
  3.356578e+00    4.075179e-01   5.281125e-03
  3.358788e+00    3.991842e-01   5.225554e-03
  3.360999e+00    3.946121e-01   5.194307e-03
  3.363209e+00    4.102360e-01   5.295128e-03
  3.365420e+00    4.089335e-01   5.285242e-03
  3.367630e+00    4.104484e-01   5.294010e-03
  3.369841e+00    4.046478e-01   5.255061e-03
  3.372051e+00    4.041943e-01   5.250163e-03
  3.374262e+00    4.107498e-01   5.290148e-03
  3.376472e+00    4.009992e-01   5.224588e-03
  3.378683e+00    3.984728e-01   5.205646e-03
  3.380893e+00    4.028676e-01   5.231959e-03
  3.383103e+00    4.052587e-01   5.244798e-03
  3.385314e+00    4.235587e-01   5.359664e-03
  3.387524e+00    4.128494e-01   5.288757e-03
  3.389735e+00    4.223419e-01   5.346552e-03
  3.391945e+00    4.047976e-01   5.230685e-03
  3.394156e+00    4.033219e-01   5.216976e-03
  3.396366e+00    4.103262e-01   5.258660e-03
  3.398577e+00    4.128993e-01   5.272087e-03
  3.400787e+00    3.939826e-01   5.161584e-03
  3.402998e+00    3.825668e-01   5.122997e-03
  3.405208e+00    3.958015e-01   5.231268e-03
  3.407418e+00    3.858835e-01   5.180814e-03
  3.409629e+00    3.934554e-01   5.245200e-03
  3.411839e+00    3.793385e-01   5.161745e-03
  3.414050e+00    3.925867e-01   5.262010e-03
  3.416260e+00    3.974168e-01   5.303988e-03
  3.418471e+00    3.866645e-01   5.241052e-03
  3.420681e+00    3.788407e-01   5.196144e-03
  3.422892e+00    3.758631e-01   5.183489e-03
  3.425102e+00    3.905634e-01   5.291717e-03
  3.427313e+00    3.925268e-01   5.312229e-03
  3.429523e+00    3.856876e-01   5.272805e-03
  3.431733e+00    3.897905e-01   5.307457e-03
  3.433944e+00    3.840812e-01   5.274934e-03
  3.436154e+00    3.772092e-01   5.233752e-03
  3.438365e+00    3.627731e-01   5.138363e-03
  3.440575e+00    3.718575e-01   5.208180e-03
  3.442786e+00    3.719698e-01   5.214527e-03
  3.444996e+00    3.650306e-01   5.171068e-03
  3.447207e+00    3.538997e-01   5.096757e-03
  3.449417e+00    3.502144e-01   5.109764e-03
  3.451628e+00    3.553996e-01   5.176364e-03
  3.453838e+00    3.582389e-01   5.217895e-03
  3.456049e+00    3.503100e-01   5.183146e-03
  3.458259e+00    3.615260e-01   5.287292e-03
  3.460469e+00    3.479688e-01   5.206480e-03
  3.462680e+00    3.652028e-01   5.352890e-03
  3.464890e+00    3.493637e-01   5.252875e-03
  3.467101e+00    3.726808e-01   5.442949e-03
  3.469311e+00    3.720703e-01   5.455080e-03
  3.471522e+00    3.780022e-01   5.514839e-03
  3.473732e+00    3.920435e-01   5.632569e-03
  3.475943e+00    3.843492e-01   5.592774e-03
  3.478153e+00    3.907497e-01   5.654619e-03
  3.480364e+00    4.026246e-01   5.755252e-03
  3.482574e+00    4.280329e-01   5.949819e-03
  3.484784e+00    4.257622e-01   5.949207e-03
  3.486995e+00    4.308637e-01   6.000100e-03
  3.489205e+00    4.178707e-01   5.923527e-03
  3.491416e+00    4.214971e-01   5.963983e-03
  3.493626e+00    4.268341e-01   6.016056e-03
  3.495837e+00    4.517394e-01   6.204030e-03
  3.498047e+00    4.538245e-01   6.232970e-03
  3.500258e+00    4.540608e-01   6.249231e-03
  3.502468e+00    4.596008e-01   6.301719e-03
  3.504679e+00    4.671019e-01   6.367537e-03
  3.506889e+00    4.622698e-01   6.348920e-03
  3.509099e+00    4.495391e-01   6.274886e-03
  3.511310e+00    4.694031e-01   6.426376e-03
  3.513520e+00    4.722996e-01   6.460475e-03
  3.515731e+00    4.859165e-01   6.567279e-03
  3.517941e+00    4.817909e-01   6.553606e-03
  3.520152e+00    4.941748e-01   6.651598e-03
  3.522362e+00    4.999301e-01   6.704684e-03
  3.524573e+00    5.108836e-01   6.792112e-03
  3.526783e+00    4.899469e-01   6.664560e-03
  3.528994e+00    5.005004e-01   6.747965e-03
  3.531204e+00    5.102115e-01   6.825459e-03
  3.533414e+00    5.235384e-01   6.926082e-03
  3.535625e+00    5.184046e-01   6.904302e-03
  3.537835e+00    5.147977e-01   6.892120e-03
  3.540046e+00    5.479563e-01   7.119690e-03
  3.542256e+00    5.423675e-01   7.090861e-03
  3.544467e+00    5.308430e-01   7.022717e-03
  3.546677e+00    5.365009e-01   7.067611e-03
  3.548888e+00    5.315585e-01   7.042462e-03
  3.551098e+00    5.125394e-01   6.922449e-03
  3.553309e+00    5.143295e-01   6.942510e-03
  3.555519e+00    5.366042e-01   7.102529e-03
  3.557729e+00    5.393088e-01   7.132208e-03
  3.559940e+00    5.274746e-01   7.064986e-03
  3.562150e+00    5.276843e-01   7.077964e-03
  3.564361e+00    5.277372e-01   7.091582e-03
  3.566571e+00    5.190695e-01   7.046691e-03
  3.568782e+00    5.310766e-01   7.141773e-03
  3.570992e+00    5.366945e-01   7.193210e-03
  3.573203e+00    5.400417e-01   7.229804e-03
  3.575413e+00    5.590822e-01   7.370232e-03
  3.577624e+00    5.435935e-01   7.281650e-03
  3.579834e+00    5.291744e-01   7.198208e-03
  3.582045e+00    5.418978e-01   7.298358e-03
  3.584255e+00    5.267845e-01   7.209792e-03
  3.586465e+00    5.200064e-01   7.176971e-03
  3.588676e+00    5.291522e-01   7.253909e-03
  3.590886e+00    5.133578e-01   7.158284e-03
  3.593097e+00    5.108403e-01   7.154820e-03
  3.595307e+00    5.186862e-01   7.223260e-03
  3.597518e+00    5.332189e-01   7.337958e-03
  3.599728e+00    5.363681e-01   7.373702e-03
  3.601939e+00    5.349229e-01   7.377810e-03
  3.604149e+00    5.301557e-01   7.359202e-03
  3.606360e+00    5.265293e-01   7.348022e-03
  3.608570e+00    5.239516e-01   7.344000e-03
  3.610780e+00    5.292994e-01   7.392400e-03
  3.612991e+00    5.479344e-01   7.531514e-03
  3.615201e+00    5.365329e-01   7.462606e-03
  3.617412e+00    5.307946e-01   7.429818e-03
  3.619622e+00    5.325708e-01   7.448166e-03
  3.621833e+00    5.449128e-01   7.540766e-03
  3.624043e+00    5.284294e-01   7.435293e-03
  3.626254e+00    5.226665e-01   7.404219e-03
  3.628464e+00    5.451630e-01   7.572995e-03
  3.630675e+00    5.361610e-01   7.524346e-03
  3.632885e+00    5.260746e-01   7.467592e-03
  3.635095e+00    5.163369e-01   7.412309e-03
  3.637306e+00    5.205798e-01   7.456865e-03
  3.639516e+00    5.316519e-01   7.550301e-03
  3.641727e+00    5.311361e-01   7.561147e-03
  3.643937e+00    5.273676e-01   7.548735e-03
  3.646148e+00    5.410144e-01   7.660527e-03
  3.648358e+00    5.230992e-01   7.547342e-03
  3.650569e+00    5.367513e-01   7.659970e-03
  3.652779e+00    5.254111e-01   7.593283e-03
  3.654990e+00    5.233067e-01   7.592849e-03
  3.657200e+00    5.288228e-01   7.647557e-03
  3.659410e+00    5.397671e-01   7.741405e-03
  3.661621e+00    5.274549e-01   7.667633e-03
  3.663831e+00    5.317293e-01   7.713756e-03
  3.666042e+00    5.353025e-01   7.754846e-03
  3.668252e+00    5.207174e-01   7.663577e-03
  3.670463e+00    5.274169e-01   7.727861e-03
  3.672673e+00    5.280869e-01   7.748178e-03
  3.674884e+00    5.247647e-01   7.739061e-03
  3.677094e+00    5.265154e-01   7.767433e-03
  3.679305e+00    5.141917e-01   7.691316e-03
  3.681515e+00    5.029455e-01   7.621915e-03
  3.683726e+00    5.030284e-01   7.637983e-03
  3.685936e+00    5.196329e-01   7.778553e-03
  3.688146e+00    5.263891e-01   7.844712e-03
  3.690357e+00    5.313800e-01   7.897839e-03
  3.692567e+00    5.263741e-01   7.876646e-03
  3.694778e+00    5.234491e-01   7.870730e-03
  3.696988e+00    5.059478e-01   7.753741e-03
  3.699199e+00    4.963017e-01   7.695222e-03
  3.701409e+00    5.099787e-01   7.816678e-03
  3.703620e+00    5.138826e-01   7.862679e-03
  3.705830e+00    5.032395e-01   7.796891e-03
  3.708041e+00    4.994352e-01   7.783570e-03
  3.710251e+00    5.282905e-01   8.022022e-03
  3.712461e+00    5.341670e-01   8.083482e-03
  3.714672e+00    5.308406e-01   8.075139e-03
  3.716882e+00    5.169812e-01   7.985661e-03
  3.719093e+00    5.244474e-01   8.060314e-03
  3.721303e+00    5.325414e-01   8.139458e-03
  3.723514e+00    5.249496e-01   8.098651e-03
  3.725724e+00    5.028909e-01   7.943514e-03
  3.727935e+00    5.169889e-01   8.071529e-03
  3.730145e+00    5.014015e-01   7.965991e-03
  3.732356e+00    5.087314e-01   8.041402e-03
  3.734566e+00    4.993409e-01   7.984101e-03
  3.736776e+00    5.100070e-01   8.086621e-03
  3.738987e+00    5.049246e-01   8.063774e-03
  3.741197e+00    5.010071e-01   8.050274e-03
  3.743408e+00    4.986824e-01   8.049327e-03
  3.745618e+00    5.120916e-01   8.175135e-03
  3.747829e+00    4.979450e-01   8.079275e-03
  3.750039e+00    5.019925e-01   8.130241e-03
  3.752250e+00    5.111043e-01   8.222189e-03
  3.754460e+00    5.044292e-01   8.186735e-03
  3.756671e+00    5.138215e-01   8.281514e-03
  3.758881e+00    4.972290e-01   8.165122e-03
  3.761091e+00    4.889050e-01   8.115222e-03
  3.763302e+00    4.880793e-01   8.127112e-03
  3.765512e+00    4.946140e-01   8.200296e-03
  3.767723e+00    5.188905e-01   8.418738e-03
  3.769933e+00    5.028202e-01   8.306589e-03
  3.772144e+00    4.917815e-01   8.234232e-03
  3.774354e+00    5.127800e-01   8.428118e-03
  3.776565e+00    5.166782e-01   8.480223e-03
  3.778775e+00    5.202019e-01   8.529315e-03
  3.780986e+00    5.052038e-01   8.425847e-03
  3.783196e+00    5.002347e-01   8.404437e-03
  3.785407e+00    4.958537e-01   8.387880e-03
  3.787617e+00    5.116501e-01   8.541302e-03
  3.789827e+00    4.947635e-01   8.419611e-03
  3.792038e+00    4.821666e-01   8.332138e-03
  3.794248e+00    4.973439e-01   8.483301e-03
  3.796459e+00    5.050837e-01   8.570519e-03
  3.798669e+00    4.929048e-01   8.487759e-03
  3.800880e+00    4.929729e-01   8.509659e-03
  3.803090e+00    4.839687e-01   8.453068e-03
  3.805301e+00    4.707648e-01   8.358331e-03
  3.807511e+00    4.803094e-01   8.464214e-03
  3.809722e+00    4.897174e-01   8.568767e-03
  3.811932e+00    4.786474e-01   8.493029e-03
  3.814142e+00    4.899307e-01   8.615294e-03
  3.816353e+00    4.767536e-01   8.520966e-03
  3.818563e+00    4.863645e-01   8.629149e-03
  3.820774e+00    5.161725e-01   8.913288e-03
  3.822984e+00    5.017495e-01   8.811375e-03
  3.825195e+00    5.012491e-01   8.830750e-03
  3.827405e+00    5.042955e-01   8.881570e-03
  3.829616e+00    5.050831e-01   8.912777e-03
  3.831826e+00    5.132757e-01   9.009285e-03
  3.834037e+00    4.918077e-01   8.843285e-03
  3.836247e+00    4.981294e-01   8.924624e-03
  3.838457e+00    4.904111e-01   8.880123e-03
  3.840668e+00    5.052353e-01   9.038721e-03
  3.842878e+00    4.803317e-01   8.838287e-03
  3.845089e+00    4.934600e-01   8.983734e-03
  3.847299e+00    4.905293e-01   8.982689e-03
  3.849510e+00    4.993696e-01   9.089227e-03
  3.851720e+00    5.023999e-01   9.138336e-03
  3.853931e+00    5.064126e-01   9.194022e-03
  3.856141e+00    4.958500e-01   9.116624e-03
  3.858352e+00    4.698502e-01   8.893145e-03
  3.860562e+00    4.922785e-01   9.122252e-03
  3.862772e+00    4.905751e-01   9.125917e-03
  3.864983e+00    4.809682e-01   9.055566e-03
  3.867193e+00    4.859155e-01   9.121663e-03
  3.869404e+00    4.896345e-01   9.176188e-03
  3.871614e+00    4.810067e-01   9.114726e-03
  3.873825e+00    5.030277e-01   9.341527e-03
  3.876035e+00    5.002454e-01   9.336450e-03
  3.878246e+00    4.845697e-01   9.214575e-03
  3.880456e+00    4.619397e-01   9.024807e-03
  3.882667e+00    4.883419e-01   9.308451e-03
  3.884877e+00    4.699125e-01   9.160144e-03
  3.887087e+00    4.955567e-01   9.436842e-03
  3.889298e+00    4.963719e-01   9.475145e-03
  3.891508e+00    4.767191e-01   9.315711e-03
  3.893719e+00    5.054401e-01   9.623735e-03
  3.895929e+00    5.040693e-01   9.642536e-03
  3.898140e+00    4.573382e-01   9.215295e-03
  3.900350e+00    4.894542e-01   9.565436e-03
  3.902561e+00    4.959352e-01   9.661129e-03
  3.904771e+00    4.895442e-01   9.631470e-03
  3.906982e+00    5.192930e-01   9.953992e-03
  3.909192e+00    5.088660e-01   9.887663e-03
  3.911403e+00    5.003558e-01   9.839051e-03
  3.913613e+00    4.825495e-01   9.696454e-03
  3.915823e+00    5.032377e-01   9.937492e-03
  3.918034e+00    4.642719e-01   9.579356e-03
  3.920244e+00    4.773626e-01   9.748718e-03
  3.922455e+00    4.789493e-01   9.800805e-03
  3.924665e+00    4.895233e-01   9.944752e-03
  3.926876e+00    4.799671e-01   9.884072e-03
  3.929086e+00    4.968057e-01   1.009361e-02
  3.931297e+00    4.827584e-01   9.984598e-03
  3.933507e+00    4.838894e-01   1.002510e-02
  3.935718e+00    4.646612e-01   9.851962e-03
  3.937928e+00    4.863850e-01   1.010894e-02
  3.940138e+00    4.967991e-01   1.024633e-02
  3.942349e+00    4.875754e-01   1.018063e-02
  3.944559e+00    4.742143e-01   1.006978e-02
  3.946770e+00    4.787194e-01   1.014738e-02
  3.948980e+00    4.769871e-01   1.015941e-02
  3.951191e+00    4.804816e-01   1.022728e-02
  3.953401e+00    4.634386e-01   1.007485e-02
  3.955612e+00    4.937254e-01   1.043071e-02
  3.957822e+00    4.818572e-01   1.033613e-02
  3.960033e+00    4.734609e-01   1.027784e-02
  3.962243e+00    4.940933e-01   1.053260e-02
  3.964453e+00    4.730247e-01   1.033824e-02
  3.966664e+00    4.784504e-01   1.043050e-02
  3.968874e+00    5.008810e-01   1.070103e-02
  3.971085e+00    4.905989e-01   1.061272e-02
  3.973295e+00    4.849105e-01   1.057243e-02
  3.975506e+00    4.722588e-01   1.045492e-02
  3.977716e+00    4.693113e-01   1.044391e-02
  3.979927e+00    4.373790e-01   1.010327e-02
  3.982137e+00    4.990045e-01   1.081420e-02
  3.984348e+00    4.649092e-01   1.046033e-02
  3.986558e+00    4.853867e-01   1.071054e-02
  3.988768e+00    4.668048e-01   1.052604e-02
  3.990979e+00    4.649836e-01   1.052787e-02
  3.993189e+00    4.717478e-01   1.062678e-02
  3.995400e+00    4.965803e-01   1.092687e-02
  3.997610e+00    4.514281e-01   1.044693e-02
  3.999821e+00    4.875030e-01   1.089395e-02
  4.002031e+00    4.815536e-01   1.086561e-02
  4.004242e+00    4.740331e-01   1.081843e-02
  4.006452e+00    4.709716e-01   1.082223e-02
  4.008663e+00    4.838016e-01   1.100860e-02
  4.010873e+00    4.899999e-01   1.111911e-02
  4.013084e+00    5.108470e-01   1.139527e-02
  4.015294e+00    4.606919e-01   1.086141e-02
  4.017504e+00    4.381237e-01   1.063178e-02
  4.019715e+00    4.565383e-01   1.089413e-02
  4.021925e+00    4.718607e-01   1.111794e-02
  4.024136e+00    4.679721e-01   1.111500e-02
  4.026346e+00    4.532428e-01   1.098139e-02
  4.028557e+00    4.704629e-01   1.123169e-02
  4.030767e+00    4.690020e-01   1.125928e-02
  4.032978e+00    4.692939e-01   1.130837e-02
  4.035188e+00    4.617172e-01   1.126175e-02
  4.037399e+00    4.695837e-01   1.140427e-02
  4.039609e+00    4.703794e-01   1.146092e-02
  4.041819e+00    4.658872e-01   1.145400e-02
  4.044030e+00    4.540747e-01   1.135617e-02
  4.046240e+00    4.569823e-01   1.144095e-02
  4.048451e+00    4.918519e-01   1.192084e-02
  4.050661e+00    5.200857e-01   1.231163e-02
  4.052872e+00    4.664873e-01   1.171194e-02
  4.055082e+00    4.511256e-01   1.156912e-02
  4.057293e+00    4.599111e-01   1.173369e-02
  4.059503e+00    4.514267e-01   1.167771e-02
  4.061714e+00    5.042898e-01   1.240045e-02
  4.063924e+00    4.874045e-01   1.224809e-02
  4.066134e+00    4.754027e-01   1.215336e-02
  4.068345e+00    4.619965e-01   1.203853e-02
  4.070555e+00    4.512836e-01   1.195546e-02
  4.072766e+00    4.964909e-01   1.260166e-02
  4.074976e+00    4.863985e-01   1.253522e-02
  4.077187e+00    5.143561e-01   1.295461e-02
  4.079397e+00    4.586788e-01   1.229577e-02
  4.081608e+00    5.055953e-01   1.297649e-02
  4.083818e+00    4.999546e-01   1.297096e-02
  4.086029e+00    4.469530e-01   1.232891e-02
  4.088239e+00    4.507118e-01   1.244728e-02
  4.090449e+00    4.431826e-01   1.240974e-02
  4.092660e+00    4.806485e-01   1.299479e-02
  4.094870e+00    4.689309e-01   1.290678e-02
  4.097081e+00    4.699607e-01   1.299170e-02
  4.099291e+00    5.027424e-01   1.349272e-02
  4.101502e+00    4.787581e-01   1.321621e-02
  4.103712e+00    4.893859e-01   1.341173e-02
  4.105923e+00    4.829134e-01   1.337455e-02
  4.108133e+00    5.115709e-01   1.381845e-02
  4.110344e+00    4.644727e-01   1.321755e-02
  4.112554e+00    4.990069e-01   1.375427e-02
  4.114764e+00    4.862829e-01   1.363206e-02
  4.116975e+00    5.512476e-01   1.457159e-02
  4.119185e+00    4.461278e-01   1.316217e-02
  4.121396e+00    4.725164e-01   1.360154e-02
  4.123606e+00    4.972102e-01   1.400964e-02
  4.125817e+00    4.770657e-01   1.378056e-02
  4.128027e+00    4.785180e-01   1.385955e-02
  4.130238e+00    4.683430e-01   1.377029e-02
  4.132448e+00    4.834685e-01   1.405147e-02
  4.134659e+00    4.316559e-01   1.333451e-02
  4.136869e+00    4.681803e-01   1.394901e-02
  4.139080e+00    4.931607e-01   1.438080e-02
  4.141290e+00    4.679872e-01   1.407115e-02
  4.143500e+00    4.849339e-01   1.438951e-02
  4.145711e+00    5.148322e-01   1.489594e-02
  4.147921e+00    5.211913e-01   1.505615e-02
  4.150132e+00    4.976111e-01   1.478220e-02
  4.152342e+00    4.785263e-01   1.456588e-02
  4.154553e+00    4.908790e-01   1.482305e-02
  4.156763e+00    5.129092e-01   1.522672e-02
  4.158974e+00    5.342760e-01   1.561895e-02
  4.161184e+00    4.770540e-01   1.483193e-02
  4.163395e+00    5.072315e-01   1.537222e-02
  4.165605e+00    5.245537e-01   1.571351e-02
  4.167815e+00    5.029601e-01   1.546723e-02
  4.170026e+00    4.594355e-01   1.486074e-02
  4.172236e+00    4.520172e-01   1.481975e-02
  4.174447e+00    4.760238e-01   1.529095e-02
  4.176657e+00    4.680336e-01   1.524508e-02
  4.178868e+00    4.819678e-01   1.555768e-02
  4.181078e+00    4.945925e-01   1.584932e-02
  4.183289e+00    4.435379e-01   1.509456e-02
  4.185499e+00    4.579241e-01   1.542803e-02
  4.187710e+00    4.444685e-01   1.528887e-02
  4.189920e+00    4.503669e-01   1.548242e-02
  4.192130e+00    4.698209e-01   1.590993e-02
  4.194341e+00    5.331045e-01   1.705162e-02
  4.196551e+00    4.501042e-01   1.576728e-02
  4.198762e+00    4.385780e-01   1.566320e-02
  4.200972e+00    4.654854e-01   1.624036e-02
  4.203183e+00    4.610753e-01   1.627007e-02
  4.205393e+00    4.603237e-01   1.636531e-02
  4.207604e+00    4.238898e-01   1.581104e-02
  4.209814e+00    4.874309e-01   1.707110e-02
  4.212025e+00    4.460700e-01   1.644654e-02
  4.214235e+00    4.945866e-01   1.744064e-02
  4.216445e+00    4.878942e-01   1.744734e-02
  4.218656e+00    4.864646e-01   1.755276e-02
  4.220866e+00    4.749613e-01   1.747205e-02
  4.223077e+00    4.941466e-01   1.795849e-02
  4.225287e+00    4.561805e-01   1.739086e-02
  4.227498e+00    4.983212e-01   1.831849e-02
  4.229708e+00    4.739194e-01   1.801000e-02
  4.231919e+00    4.526545e-01   1.774688e-02
  4.234129e+00    4.713942e-01   1.826215e-02
  4.236340e+00    4.539669e-01   1.807483e-02
  4.238550e+00    4.590150e-01   1.833555e-02
  4.240761e+00    5.080151e-01   1.945957e-02
  4.242971e+00    5.122578e-01   1.971993e-02
  4.245181e+00    4.892171e-01   1.945227e-02
  4.247392e+00    4.693640e-01   1.923170e-02
  4.249602e+00    4.539673e-01   1.910145e-02
  4.251813e+00    4.413215e-01   1.901937e-02
  4.254023e+00    4.167345e-01   1.866759e-02
  4.256234e+00    4.954039e-01   2.057138e-02
  4.258444e+00    4.959284e-01   2.079734e-02
  4.260655e+00    5.166225e-01   2.146072e-02
  4.262865e+00    4.435533e-01   2.011046e-02
  4.265076e+00    4.374317e-01   2.019836e-02
  4.267286e+00    4.853636e-01   2.152830e-02
  4.269496e+00    4.534015e-01   2.106181e-02
  4.271707e+00    4.962428e-01   2.230641e-02
  4.273917e+00    5.117487e-01   2.294503e-02
  4.276128e+00    4.367253e-01   2.147828e-02
  4.278338e+00    4.055528e-01   2.097408e-02
  4.280549e+00    4.419694e-01   2.220891e-02
  4.282759e+00    4.370798e-01   2.240326e-02
  4.284970e+00    4.015305e-01   2.179113e-02
  4.287180e+00    4.125901e-01   2.235392e-02
  4.289391e+00    4.147392e-01   2.257993e-02
  4.291601e+00    4.686919e-01   2.419529e-02
  4.293811e+00    4.873408e-01   2.486533e-02
  4.296022e+00    4.285037e-01   2.350296e-02
  4.298232e+00    5.242761e-01   2.621480e-02
  4.300443e+00    5.643464e-01   2.742314e-02
  4.302653e+00    4.600534e-01   2.497412e-02
  4.304864e+00    4.172347e-01   2.398899e-02
  4.307074e+00    4.468480e-01   2.504962e-02
  4.309285e+00    4.459879e-01   2.525203e-02
  4.311495e+00    5.459841e-01   2.820164e-02
  4.313706e+00    4.450809e-01   2.570243e-02
  4.315916e+00    4.232243e-01   2.530969e-02
  4.318126e+00    4.091937e-01   2.513221e-02
  4.320337e+00    3.665640e-01   2.402903e-02
  4.322547e+00    3.265786e-01   2.292021e-02
  4.324758e+00    4.328777e-01   2.666231e-02
  4.326968e+00    4.130124e-01   2.633684e-02
  4.329179e+00    5.462303e-01   3.062151e-02
  4.331389e+00    4.974077e-01   2.955858e-02
  4.333600e+00    3.733831e-01   2.591511e-02
  4.335810e+00    3.889517e-01   2.676492e-02
  4.338021e+00    4.346830e-01   2.865598e-02
  4.340231e+00    3.935239e-01   2.760905e-02
  4.342442e+00    4.920765e-01   3.128586e-02
  4.344652e+00    4.203206e-01   2.930878e-02
  4.346862e+00    4.032100e-01   2.910732e-02
  4.349073e+00    3.745225e-01   2.846052e-02
  4.351283e+00    4.885627e-01   3.299290e-02
  4.353494e+00    4.126507e-01   3.078930e-02
  4.355704e+00    4.326176e-01   3.203201e-02
  4.357915e+00    4.618776e-01   3.365093e-02
  4.360125e+00    4.379774e-01   3.332566e-02
  4.362336e+00    4.352168e-01   3.382790e-02
  4.364546e+00    4.360341e-01   3.447502e-02
  4.366757e+00    3.988322e-01   3.362745e-02
  4.368967e+00    3.116810e-01   3.031958e-02
  4.371177e+00    5.529847e-01   4.124502e-02
  4.373388e+00    4.680677e-01   3.879482e-02
  4.375598e+00    5.700465e-01   4.378983e-02
  4.377809e+00    2.838491e-01   3.168271e-02
  4.380019e+00    5.146124e-01   4.372975e-02
  4.382230e+00    3.600358e-01   3.760338e-02
  4.384440e+00    1.939777e-01   2.839046e-02
  4.386651e+00    4.629506e-01   4.521252e-02
  4.388861e+00    5.030629e-01   4.871547e-02
  4.391072e+00    3.541455e-01   4.231117e-02
  4.393282e+00    3.459969e-01   4.343871e-02
  4.395492e+00    4.027046e-01   4.880808e-02
  4.397703e+00    3.592548e-01   4.820918e-02
  4.399913e+00    1.805050e-01   3.590027e-02
  4.402124e+00    1.320196e-01   3.244034e-02
  4.404334e+00    2.574642e-01   4.815914e-02
  4.406545e+00    1.321261e-01   3.707848e-02
  4.408755e+00    3.251049e-01   6.305611e-02
  4.410966e+00    3.981126e-01   7.723432e-02
  4.413176e+00    1.730535e-01   5.765807e-02
  4.415387e+00   -9.398333e-01            nan
  4.417597e+00   -2.044852e+00            nan
  4.419807e+00   -3.766224e-01            nan
