# == pyFAI calibration ==
# Distance Sample to Detector: 0.216 m
# PONI: 1.166e-01, 1.308e-01 m
# Rotations: 0.000000 0.000000 0.000000 rad
# 
# == Fit2d calibration ==
# Distance Sample-beamCenter: 216.000 mm
# Center: x=1744.293, y=1555.000 pix
# Tilt: 0.000 deg  TiltPlanRot: 0.000 deg
# 
# Detector Eiger 9M	 PixelSize= 7.500e-05, 7.500e-05 m
#    Detector has a mask: True 
#    Detector has a dark current: False 
#    detector has a flat field: False 
# 
# Wavelength: 9.8e-11 m
# Mask applied: from detector
# Dark current applied: False
# Flat field applied: False
# Polarization factor: None
# Normalization factor: 1.0
# 
# Headers of the input frame:
# {
# "_array_data.header_convention": "SLS_1.0",
# "_array_data.header_contents": "# Detector: Dectris Eiger 9M, S/N E-18-0102\r\n# Pixel_size 75e-6 m x 75e-6 m\r\n# Silicon sensor, thickness 0.000450 m\r\n# Exposure_time 0.024997 s\r\n# Exposure_period 0.025000 s\r\n# Count_cutoff 62318 counts\r\n# Wavelength 0.980106 A\r\n# Detector_distance 0.215992 m\r\n# Beam_xy (1555, 1744) pixels\r\n# Start_angle 0.000000 deg.\r\n# Angle_increment 0.000000 deg.",
# "Content-Type": "application/octet-stream;",
# "conversions": "x-CBF_BYTE_OFFSET",
# "Content-Transfer-Encoding": "BINARY",
# "X-Binary-Size": "10166720",
# "X-Binary-ID": "1",
# "X-Binary-Element-Type": "signed 32-bit integer",
# "X-Binary-Element-Byte-Order": "LITTLE_ENDIAN",
# "Content-MD5": "colIL6YFkwTnj+mLdeQspQ==",
# "X-Binary-Number-of-Elements": "10166590",
# "X-Binary-Size-Fastest-Dimension": "3110",
# "X-Binary-Size-Second-Dimension": "3269",
# "X-Binary-Size-Padding": "4095"
# }
# --> H:/Proxima2a_2019-04-05/RAW_DATA/C5_gel17_position5/C5_mesh_1_data.cbf/C5_mesh_1_data.cbf000047.dat
#        q_A^-1              I           sigma 
  1.105228e-03    2.188257e+00   8.004537e-01
  3.315685e-03    1.353573e+00   3.827245e-01
  5.526141e-03    1.707129e+00   3.323573e-01
  7.736597e-03    1.368632e+00   2.513990e-01
  9.947054e-03    1.599693e+00   2.396044e-01
  1.215751e-02    1.627351e+00   2.185291e-01
  1.436797e-02    1.426185e+00   1.881758e-01
  1.657842e-02    1.628543e+00   1.871733e-01
  1.878888e-02    1.296326e+00   1.568631e-01
  2.099934e-02    1.173469e+00   1.412010e-01
  2.320979e-02    1.258042e+00   1.390530e-01
  2.542025e-02    1.242168e+00   1.320382e-01
  2.763070e-02    1.398481e+00   1.343750e-01
  2.984116e-02    1.336907e+00   1.264233e-01
  3.205162e-02    1.351162e+00   1.226422e-01
  3.426207e-02    1.507711e+00   1.252951e-01
  3.647253e-02    1.469455e+00   1.198858e-01
  3.868299e-02    1.434004e+00   1.150061e-01
  4.089344e-02    1.518613e+00   1.151077e-01
  4.310390e-02    1.472009e+00   1.103771e-01
  4.531436e-02    1.439985e+00   1.064743e-01
  4.752481e-02    1.340536e+00   1.003132e-01
  4.973527e-02    1.381911e+00   9.956160e-02
  5.194572e-02    1.289121e+00   9.409137e-02
  5.415618e-02    1.330125e+00   9.360197e-02
  5.636664e-02    1.349605e+00   9.242055e-02
  5.857709e-02    1.414747e+00   9.282261e-02
  6.078755e-02    1.540119e+00   9.506804e-02
  6.299801e-02    1.467280e+00   9.114922e-02
  6.520846e-02    1.519571e+00   9.117405e-02
  6.741892e-02    1.527744e+00   8.990319e-02
  6.962938e-02    1.475226e+00   8.693518e-02
  7.183983e-02    1.483130e+00   8.581471e-02
  7.405029e-02    1.546055e+00   8.629658e-02
  7.626074e-02    1.430032e+00   8.178305e-02
  7.847120e-02    1.450336e+00   8.119107e-02
  8.068166e-02    1.495734e+00   8.131401e-02
  8.289211e-02    1.542363e+00   8.146293e-02
  8.510257e-02    1.410444e+00   7.688249e-02
  8.731303e-02    1.330684e+00   7.372285e-02
  8.952348e-02    1.458040e+00   7.621355e-02
  9.173394e-02    1.519175e+00   7.684892e-02
  9.394439e-02    1.476263e+00   7.485679e-02
  9.615485e-02    1.499851e+00   7.457851e-02
  9.836531e-02    1.520514e+00   7.423995e-02
  1.005758e-01    1.455801e+00   7.184067e-02
  1.027862e-01    1.500206e+00   7.213788e-02
  1.049967e-01    1.482631e+00   7.095393e-02
  1.072071e-01    1.566794e+00   7.218328e-02
  1.094176e-01    1.612881e+00   7.249259e-02
  1.116280e-01    1.525622e+00   6.980125e-02
  1.138385e-01    1.587824e+00   7.051387e-02
  1.160490e-01    1.454737e+00   6.684735e-02
  1.182594e-01    1.525453e+00   6.780860e-02
  1.204699e-01    1.528078e+00   6.724088e-02
  1.226803e-01    1.591539e+00   6.799909e-02
  1.248908e-01    1.572440e+00   6.698824e-02
  1.271012e-01    1.566973e+00   6.628633e-02
  1.293117e-01    1.508546e+00   6.447972e-02
  1.315222e-01    1.588549e+00   6.560750e-02
  1.337326e-01    1.536608e+00   6.398928e-02
  1.359431e-01    1.563056e+00   6.457540e-02
  1.381535e-01    1.623288e+00   6.669117e-02
  1.403640e-01    1.642543e+00   6.737521e-02
  1.425744e-01    1.718286e+00   6.902122e-02
  1.447849e-01    1.553938e+00   6.565257e-02
  1.469953e-01    1.559460e+00   6.572793e-02
  1.492058e-01    1.559120e+00   6.564440e-02
  1.514163e-01    1.549357e+00   6.532988e-02
  1.536267e-01    1.608640e+00   6.643804e-02
  1.558372e-01    1.586873e+00   6.584132e-02
  1.580476e-01    1.627561e+00   6.651827e-02
  1.602581e-01    1.580239e+00   6.537767e-02
  1.624685e-01    1.615591e+00   6.592391e-02
  1.646790e-01    1.725016e+00   6.792428e-02
  1.668895e-01    1.707854e+00   6.739036e-02
  1.690999e-01    1.715104e+00   6.733046e-02
  1.713104e-01    1.788935e+00   6.855096e-02
  1.735208e-01    1.842828e+00   6.935956e-02
  1.757313e-01    1.823798e+00   6.878423e-02
  1.779417e-01    1.805861e+00   6.822194e-02
  1.801522e-01    1.837205e+00   6.859229e-02
  1.823626e-01    1.840824e+00   6.843123e-02
  1.845731e-01    1.847019e+00   6.832426e-02
  1.867836e-01    1.989491e+00   7.067111e-02
  1.889940e-01    2.019349e+00   7.096682e-02
  1.912045e-01    1.981141e+00   7.005750e-02
  1.934149e-01    2.034067e+00   7.074952e-02
  1.956254e-01    2.014756e+00   7.018066e-02
  1.978358e-01    2.044795e+00   7.045959e-02
  2.000463e-01    2.091938e+00   7.103103e-02
  2.022568e-01    1.934566e+00   6.808287e-02
  2.044672e-01    1.970052e+00   6.846905e-02
  2.066777e-01    1.999733e+00   6.875399e-02
  2.088881e-01    1.949895e+00   6.766967e-02
  2.110986e-01    2.004406e+00   6.837376e-02
  2.133090e-01    1.946600e+00   6.716160e-02
  2.155195e-01    1.893955e+00   6.602742e-02
  2.177300e-01    1.845453e+00   6.466450e-02
  2.199404e-01    1.851944e+00   6.307118e-02
  2.221509e-01    2.061285e+00   6.544787e-02
  2.243613e-01    1.997674e+00   6.361335e-02
  2.265718e-01    1.932099e+00   6.187098e-02
  2.287822e-01    2.063389e+00   6.330571e-02
  2.309927e-01    2.092838e+00   6.317508e-02
  2.332031e-01    2.065132e+00   6.221839e-02
  2.354136e-01    2.195252e+00   6.362865e-02
  2.376241e-01    2.171326e+00   6.278981e-02
  2.398345e-01    2.170863e+00   6.231845e-02
  2.420450e-01    2.155032e+00   6.164709e-02
  2.442554e-01    2.169061e+00   6.142132e-02
  2.464659e-01    2.106998e+00   6.012980e-02
  2.486763e-01    2.162961e+00   6.052263e-02
  2.508868e-01    2.138570e+00   5.980079e-02
  2.530973e-01    2.182248e+00   6.003385e-02
  2.553077e-01    2.189890e+00   5.977410e-02
  2.575182e-01    2.097033e+00   5.814700e-02
  2.597286e-01    2.138736e+00   5.838097e-02
  2.619391e-01    2.100016e+00   5.751706e-02
  2.641495e-01    2.056600e+00   5.660435e-02
  2.663600e-01    2.076880e+00   5.656995e-02
  2.685704e-01    1.980546e+00   5.494295e-02
  2.707809e-01    2.078537e+00   5.598696e-02
  2.729914e-01    2.092518e+00   5.588222e-02
  2.752018e-01    2.070326e+00   5.529576e-02
  2.774123e-01    2.056439e+00   5.482851e-02
  2.796227e-01    2.013261e+00   5.398150e-02
  2.818332e-01    2.007953e+00   5.364136e-02
  2.840436e-01    2.027488e+00   5.364037e-02
  2.862541e-01    2.020220e+00   5.328675e-02
  2.884646e-01    1.951570e+00   5.212501e-02
  2.906750e-01    1.944592e+00   5.178501e-02
  2.928855e-01    2.016913e+00   5.249481e-02
  2.950959e-01    1.997741e+00   5.200473e-02
  2.973064e-01    1.991315e+00   5.168769e-02
  2.995168e-01    1.988441e+00   5.141643e-02
  3.017273e-01    1.898250e+00   5.001536e-02
  3.039377e-01    1.919601e+00   5.007562e-02
  3.061482e-01    1.881458e+00   4.936115e-02
  3.083587e-01    1.935928e+00   4.985385e-02
  3.105691e-01    1.887834e+00   4.902041e-02
  3.127796e-01    1.882441e+00   4.874456e-02
  3.149900e-01    1.879461e+00   4.850301e-02
  3.172005e-01    1.902425e+00   4.859890e-02
  3.194109e-01    1.927598e+00   4.871742e-02
  3.216214e-01    1.834169e+00   4.732821e-02
  3.238319e-01    1.867098e+00   4.756198e-02
  3.260423e-01    1.846282e+00   4.710771e-02
  3.282528e-01    1.847263e+00   4.693264e-02
  3.304632e-01    1.775339e+00   4.583165e-02
  3.326737e-01    1.920701e+00   4.748504e-02
  3.348841e-01    1.888113e+00   4.689795e-02
  3.370946e-01    1.788632e+00   4.547401e-02
  3.393050e-01    1.860949e+00   4.620846e-02
  3.415155e-01    1.862000e+00   4.604774e-02
  3.437260e-01    1.822546e+00   4.538840e-02
  3.459364e-01    1.809922e+00   4.506362e-02
  3.481469e-01    1.784933e+00   4.458812e-02
  3.503573e-01    1.860001e+00   4.535024e-02
  3.525678e-01    1.811746e+00   4.459862e-02
  3.547782e-01    1.807190e+00   4.438149e-02
  3.569887e-01    1.818133e+00   4.435794e-02
  3.591992e-01    1.844423e+00   4.451940e-02
  3.614096e-01    1.765560e+00   4.340624e-02
  3.636201e-01    1.731461e+00   4.283395e-02
  3.658305e-01    1.796790e+00   4.348570e-02
  3.680410e-01    1.788340e+00   4.323413e-02
  3.702514e-01    1.735821e+00   4.245133e-02
  3.724619e-01    1.762692e+00   4.263295e-02
  3.746724e-01    1.806515e+00   4.301565e-02
  3.768828e-01    1.859029e+00   4.348956e-02
  3.790933e-01    1.779370e+00   4.240897e-02
  3.813037e-01    1.769074e+00   4.214772e-02
  3.835142e-01    1.806206e+00   4.244790e-02
  3.857246e-01    1.784337e+00   4.205358e-02
  3.879351e-01    1.762510e+00   4.166033e-02
  3.901455e-01    1.774873e+00   4.167306e-02
  3.923560e-01    1.797574e+00   4.180544e-02
  3.945665e-01    1.772833e+00   4.138508e-02
  3.967769e-01    1.774971e+00   4.128036e-02
  3.989874e-01    1.752843e+00   4.089412e-02
  4.011978e-01    1.797816e+00   4.128806e-02
  4.034083e-01    1.807752e+00   4.127490e-02
  4.056187e-01    1.732862e+00   4.028643e-02
  4.078292e-01    1.794578e+00   4.087345e-02
  4.100397e-01    1.809324e+00   4.091576e-02
  4.122501e-01    1.764161e+00   4.028101e-02
  4.144606e-01    1.783605e+00   4.038225e-02
  4.166710e-01    1.795089e+00   4.039161e-02
  4.188815e-01    1.824172e+00   4.059720e-02
  4.210919e-01    1.850787e+00   4.077245e-02
  4.233024e-01    1.851250e+00   4.065762e-02
  4.255128e-01    1.803676e+00   4.001580e-02
  4.277233e-01    1.806449e+00   3.993149e-02
  4.299338e-01    1.767033e+00   3.937979e-02
  4.321442e-01    1.836456e+00   4.003104e-02
  4.343547e-01    1.820584e+00   3.974498e-02
  4.365651e-01    1.797284e+00   3.937762e-02
  4.387756e-01    1.780949e+00   3.908852e-02
  4.409860e-01    1.745688e+00   3.859242e-02
  4.431965e-01    1.703927e+00   3.802258e-02
  4.454070e-01    1.742263e+00   3.834094e-02
  4.476174e-01    1.760846e+00   3.843905e-02
  4.498279e-01    1.754703e+00   3.826754e-02
  4.520383e-01    1.718479e+00   3.776656e-02
  4.542488e-01    1.763460e+00   3.815447e-02
  4.564592e-01    1.732392e+00   3.771544e-02
  4.586697e-01    1.713224e+00   3.740665e-02
  4.608801e-01    1.722649e+00   3.740892e-02
  4.630906e-01    1.718901e+00   3.726928e-02
  4.653011e-01    1.722103e+00   3.720586e-02
  4.675115e-01    1.749205e+00   3.739874e-02
  4.697220e-01    1.717416e+00   3.696032e-02
  4.719324e-01    1.692967e+00   3.660138e-02
  4.741429e-01    1.735760e+00   3.696557e-02
  4.763533e-01    1.741270e+00   3.692929e-02
  4.785638e-01    1.742095e+00   3.684262e-02
  4.807743e-01    1.699872e+00   3.630085e-02
  4.829847e-01    1.699433e+00   3.620448e-02
  4.851952e-01    1.682131e+00   3.592854e-02
  4.874056e-01    1.701999e+00   3.604898e-02
  4.896161e-01    1.688707e+00   3.581890e-02
  4.918265e-01    1.707620e+00   3.592946e-02
  4.940370e-01    1.719871e+00   3.596910e-02
  4.962475e-01    1.713400e+00   3.581271e-02
  4.984579e-01    1.680820e+00   3.538318e-02
  5.006684e-01    1.649217e+00   3.496348e-02
  5.028788e-01    1.675190e+00   3.515236e-02
  5.050893e-01    1.655963e+00   3.486502e-02
  5.072997e-01    1.692949e+00   3.516709e-02
  5.095102e-01    1.677366e+00   3.492105e-02
  5.117206e-01    1.633926e+00   3.438393e-02
  5.139311e-01    1.651262e+00   3.448405e-02
  5.161416e-01    1.614130e+00   3.401357e-02
  5.183520e-01    1.651949e+00   3.432792e-02
  5.205625e-01    1.632832e+00   3.404880e-02
  5.227729e-01    1.637470e+00   3.401757e-02
  5.249834e-01    1.650365e+00   3.407198e-02
  5.271938e-01    1.714054e+00   3.464216e-02
  5.294043e-01    1.780087e+00   3.522167e-02
  5.316148e-01    1.772148e+00   3.506257e-02
  5.338252e-01    1.757160e+00   3.483418e-02
  5.360357e-01    1.764365e+00   3.482606e-02
  5.382461e-01    1.736220e+00   3.446909e-02
  5.404566e-01    1.770537e+00   3.472884e-02
  5.426670e-01    1.743167e+00   3.438172e-02
  5.448775e-01    1.746084e+00   3.433361e-02
  5.470879e-01    1.753606e+00   3.433075e-02
  5.492984e-01    1.727282e+00   3.399633e-02
  5.515089e-01    1.761603e+00   3.425626e-02
  5.537193e-01    1.799829e+00   3.454966e-02
  5.559298e-01    1.849993e+00   3.495102e-02
  5.581402e-01    1.786243e+00   3.426848e-02
  5.603507e-01    1.823945e+00   3.455289e-02
  5.625611e-01    1.797539e+00   3.422741e-02
  5.647716e-01    1.823086e+00   3.439495e-02
  5.669821e-01    1.767187e+00   3.379054e-02
  5.691925e-01    1.745990e+00   3.351516e-02
  5.714030e-01    1.747376e+00   3.345699e-02
  5.736134e-01    1.739992e+00   3.331521e-02
  5.758239e-01    1.733703e+00   3.318397e-02
  5.780343e-01    1.736457e+00   3.314007e-02
  5.802448e-01    1.700864e+00   3.273000e-02
  5.824552e-01    1.674867e+00   3.241077e-02
  5.846657e-01    1.621360e+00   3.182237e-02
  5.868762e-01    1.601882e+00   3.156478e-02
  5.890866e-01    1.654545e+00   3.201288e-02
  5.912971e-01    1.669828e+00   3.209383e-02
  5.935075e-01    1.605500e+00   3.140454e-02
  5.957180e-01    1.598407e+00   3.127078e-02
  5.979284e-01    1.643014e+00   3.163940e-02
  6.001389e-01    1.601124e+00   3.116988e-02
  6.023494e-01    1.610848e+00   3.120087e-02
  6.045598e-01    1.626893e+00   3.129205e-02
  6.067703e-01    1.639816e+00   3.135290e-02
  6.089807e-01    1.662500e+00   3.150555e-02
  6.111912e-01    1.692350e+00   3.172366e-02
  6.134016e-01    1.734381e+00   3.205113e-02
  6.156121e-01    1.710499e+00   3.176645e-02
  6.178226e-01    1.663187e+00   3.126203e-02
  6.200330e-01    1.678094e+00   3.133984e-02
  6.222435e-01    1.728916e+00   3.174787e-02
  6.244539e-01    1.723620e+00   3.163717e-02
  6.266644e-01    1.666662e+00   3.104933e-02
  6.288748e-01    1.707685e+00   3.136796e-02
  6.310853e-01    1.706999e+00   3.130077e-02
  6.332957e-01    1.755453e+00   3.168061e-02
  6.355062e-01    1.730961e+00   3.139774e-02
  6.377167e-01    1.723523e+00   3.127008e-02
  6.399271e-01    1.710978e+00   3.109637e-02
  6.421376e-01    1.680737e+00   3.076151e-02
  6.443480e-01    1.679460e+00   3.069132e-02
  6.465585e-01    1.700246e+00   3.082216e-02
  6.487689e-01    1.691805e+00   3.068751e-02
  6.509794e-01    1.678501e+00   3.050896e-02
  6.531899e-01    1.645698e+00   3.015257e-02
  6.554003e-01    1.632855e+00   2.997820e-02
  6.576108e-01    1.650916e+00   3.008742e-02
  6.598212e-01    1.615019e+00   2.970323e-02
  6.620317e-01    1.613144e+00   2.963095e-02
  6.642421e-01    1.601216e+00   2.946659e-02
  6.664526e-01    1.578289e+00   2.920096e-02
  6.686630e-01    1.598041e+00   2.932880e-02
  6.708735e-01    1.606072e+00   2.934846e-02
  6.730840e-01    1.603450e+00   2.927104e-02
  6.752944e-01    1.606609e+00   2.924655e-02
  6.775049e-01    1.647346e+00   2.956126e-02
  6.797153e-01    1.618130e+00   2.924490e-02
  6.819258e-01    1.608291e+00   2.910328e-02
  6.841362e-01    1.572466e+00   2.872556e-02
  6.863467e-01    1.602679e+00   2.894826e-02
  6.885572e-01    1.607190e+00   2.893702e-02
  6.907676e-01    1.617606e+00   2.897862e-02
  6.929781e-01    1.602780e+00   2.879426e-02
  6.951885e-01    1.616111e+00   2.886252e-02
  6.973990e-01    1.612839e+00   2.878233e-02
  6.996094e-01    1.593323e+00   2.855732e-02
  7.018199e-01    1.593405e+00   2.850794e-02
  7.040303e-01    1.599000e+00   2.850779e-02
  7.062408e-01    1.601299e+00   2.847830e-02
  7.084513e-01    1.579679e+00   2.823620e-02
  7.106617e-01    1.597085e+00   2.834198e-02
  7.128722e-01    1.610947e+00   2.841549e-02
  7.150826e-01    1.567404e+00   2.798052e-02
  7.172931e-01    1.583140e+00   2.807213e-02
  7.195035e-01    1.595017e+00   2.812881e-02
  7.217140e-01    1.561798e+00   2.788358e-02
  7.239245e-01    1.598271e+00   2.843574e-02
  7.261349e-01    1.582373e+00   2.840284e-02
  7.283454e-01    1.566229e+00   2.832977e-02
  7.305558e-01    1.559894e+00   2.832617e-02
  7.327663e-01    1.555139e+00   2.832519e-02
  7.349767e-01    1.623089e+00   2.895400e-02
  7.371872e-01    1.624195e+00   2.895254e-02
  7.393976e-01    1.573748e+00   2.848511e-02
  7.416081e-01    1.566916e+00   2.840706e-02
  7.438186e-01    1.592242e+00   2.849060e-02
  7.460290e-01    1.585642e+00   2.813622e-02
  7.482395e-01    1.559709e+00   2.773483e-02
  7.504499e-01    1.599681e+00   2.795062e-02
  7.526604e-01    1.552504e+00   2.741967e-02
  7.548708e-01    1.577624e+00   2.755109e-02
  7.570813e-01    1.595039e+00   2.765144e-02
  7.592918e-01    1.573724e+00   2.743091e-02
  7.615022e-01    1.558576e+00   2.726493e-02
  7.637127e-01    1.543421e+00   2.709959e-02
  7.659231e-01    1.575829e+00   2.735062e-02
  7.681336e-01    1.579986e+00   2.735501e-02
  7.703440e-01    1.569902e+00   2.723642e-02
  7.725545e-01    1.567712e+00   2.718657e-02
  7.747650e-01    1.633581e+00   2.771294e-02
  7.769754e-01    1.606098e+00   2.742562e-02
  7.791859e-01    1.601125e+00   2.732922e-02
  7.813963e-01    1.576796e+00   2.706823e-02
  7.836068e-01    1.576508e+00   2.701388e-02
  7.858172e-01    1.617723e+00   2.731355e-02
  7.880277e-01    1.690881e+00   2.787118e-02
  7.902381e-01    1.775660e+00   2.850949e-02
  7.924486e-01    1.717120e+00   2.798368e-02
  7.946591e-01    1.692407e+00   2.773190e-02
  7.968695e-01    1.645206e+00   2.729355e-02
  7.990800e-01    1.625835e+00   2.708388e-02
  8.012904e-01    1.639508e+00   2.715047e-02
  8.035009e-01    1.676301e+00   2.740459e-02
  8.057113e-01    1.652622e+00   2.716331e-02
  8.079218e-01    1.619673e+00   2.684474e-02
  8.101323e-01    1.679262e+00   2.728768e-02
  8.123427e-01    1.713337e+00   2.751615e-02
  8.145532e-01    1.897172e+00   2.890514e-02
  8.167636e-01    2.197111e+00   3.105399e-02
  8.189741e-01    2.014160e+00   2.968354e-02
  8.211845e-01    1.819942e+00   2.816875e-02
  8.233950e-01    1.879980e+00   2.858305e-02
  8.256054e-01    1.814855e+00   2.803710e-02
  8.278159e-01    1.742800e+00   2.742952e-02
  8.300264e-01    1.706173e+00   2.709577e-02
  8.322368e-01    1.662563e+00   2.670382e-02
  8.344473e-01    1.634892e+00   2.643732e-02
  8.366577e-01    1.668426e+00   2.666412e-02
  8.388682e-01    1.656535e+00   2.652646e-02
  8.410786e-01    1.644184e+00   2.638527e-02
  8.432891e-01    1.623896e+00   2.618033e-02
  8.454996e-01    1.644005e+00   2.630022e-02
  8.477100e-01    1.667998e+00   2.644941e-02
  8.499205e-01    1.678815e+00   2.649336e-02
  8.521309e-01    1.635795e+00   2.611095e-02
  8.543414e-01    1.623151e+00   2.596924e-02
  8.565518e-01    1.650231e+00   2.614421e-02
  8.587623e-01    1.642587e+00   2.604297e-02
  8.609727e-01    1.670352e+00   2.622144e-02
  8.631832e-01    1.657313e+00   2.607863e-02
  8.653937e-01    1.615773e+00   2.571015e-02
  8.676041e-01    1.653105e+00   2.596621e-02
  8.698146e-01    1.777328e+00   2.688299e-02
  8.720250e-01    1.838189e+00   2.729777e-02
  8.742355e-01    1.752392e+00   2.661255e-02
  8.764459e-01    1.638859e+00   2.569678e-02
  8.786564e-01    1.568618e+00   2.510256e-02
  8.808669e-01    1.586906e+00   2.521018e-02
  8.830773e-01    1.586832e+00   2.517164e-02
  8.852878e-01    1.615933e+00   2.536333e-02
  8.874982e-01    1.606849e+00   2.525523e-02
  8.897087e-01    1.623112e+00   2.534477e-02
  8.919191e-01    1.609926e+00   2.520375e-02
  8.941296e-01    1.605774e+00   2.513389e-02
  8.963401e-01    1.584637e+00   2.493166e-02
  8.985505e-01    1.606292e+00   2.506441e-02
  9.007610e-01    1.584081e+00   2.485395e-02
  9.029714e-01    1.592857e+00   2.488694e-02
  9.051819e-01    1.586169e+00   2.479759e-02
  9.073923e-01    1.590889e+00   2.479797e-02
  9.096028e-01    1.602750e+00   2.485531e-02
  9.118132e-01    1.579332e+00   2.463708e-02
  9.140237e-01    1.582934e+00   2.462870e-02
  9.162342e-01    1.624269e+00   2.491340e-02
  9.184446e-01    1.609768e+00   2.476607e-02
  9.206551e-01    1.627604e+00   2.486699e-02
  9.228655e-01    1.619769e+00   2.477161e-02
  9.250760e-01    1.588493e+00   2.449609e-02
  9.272864e-01    1.582832e+00   2.441834e-02
  9.294969e-01    1.577521e+00   2.434182e-02
  9.317074e-01    1.620201e+00   2.463403e-02
  9.339178e-01    1.606053e+00   2.449278e-02
  9.361283e-01    1.590449e+00   2.433755e-02
  9.383387e-01    1.645097e+00   2.471846e-02
  9.405492e-01    1.699521e+00   2.508894e-02
  9.427596e-01    1.763307e+00   2.551861e-02
  9.449701e-01    1.757243e+00   2.544012e-02
  9.471805e-01    1.682324e+00   2.485665e-02
  9.493910e-01    1.647899e+00   2.456722e-02
  9.516015e-01    1.674641e+00   2.473120e-02
  9.538119e-01    1.663993e+00   2.461866e-02
  9.560224e-01    1.716594e+00   2.496952e-02
  9.582328e-01    1.769898e+00   2.532025e-02
  9.604433e-01    1.764102e+00   2.524296e-02
  9.626537e-01    1.793594e+00   2.541885e-02
  9.648642e-01    1.805633e+00   2.546912e-02
  9.670747e-01    1.812418e+00   2.548171e-02
  9.692851e-01    1.853037e+00   2.573143e-02
  9.714956e-01    1.854122e+00   2.570268e-02
  9.737060e-01    1.820816e+00   2.543732e-02
  9.759165e-01    1.796915e+00   2.523419e-02
  9.781269e-01    1.800464e+00   2.522604e-02
  9.803374e-01    1.812755e+00   2.527699e-02
  9.825478e-01    1.866661e+00   2.561622e-02
  9.847583e-01    1.853539e+00   2.549139e-02
  9.869688e-01    1.811653e+00   2.516798e-02
  9.891792e-01    1.779908e+00   2.491335e-02
  9.913897e-01    1.765705e+00   2.478025e-02
  9.936001e-01    1.766918e+00   2.475630e-02
  9.958106e-01    1.739098e+00   2.452729e-02
  9.980210e-01    1.696271e+00   2.419193e-02
  1.000231e+00    1.687493e+00   2.426146e-02
  1.002442e+00    1.656747e+00   2.416714e-02
  1.004652e+00    1.612639e+00   2.390981e-02
  1.006863e+00    1.581773e+00   2.372898e-02
  1.009073e+00    1.624041e+00   2.408073e-02
  1.011284e+00    1.638871e+00   2.422279e-02
  1.013494e+00    1.609663e+00   2.402978e-02
  1.015705e+00    1.570196e+00   2.375579e-02
  1.017915e+00    1.563195e+00   2.371909e-02
  1.020126e+00    1.571010e+00   2.379439e-02
  1.022336e+00    1.532734e+00   2.351432e-02
  1.024547e+00    1.495941e+00   2.324139e-02
  1.026757e+00    1.506093e+00   2.332837e-02
  1.028967e+00    1.516834e+00   2.341902e-02
  1.031178e+00    1.529113e+00   2.351979e-02
  1.033388e+00    1.512903e+00   2.339980e-02
  1.035599e+00    1.576027e+00   2.388642e-02
  1.037809e+00    1.687471e+00   2.471997e-02
  1.040020e+00    1.604310e+00   2.410452e-02
  1.042230e+00    1.529051e+00   2.353426e-02
  1.044441e+00    1.554429e+00   2.372852e-02
  1.046651e+00    1.552711e+00   2.371560e-02
  1.048862e+00    1.522015e+00   2.347920e-02
  1.051072e+00    1.600472e+00   2.407428e-02
  1.053282e+00    1.717680e+00   2.493920e-02
  1.055493e+00    1.866939e+00   2.599541e-02
  1.057703e+00    1.765123e+00   2.527504e-02
  1.059914e+00    1.678443e+00   2.464211e-02
  1.062124e+00    1.553223e+00   2.370093e-02
  1.064335e+00    1.502825e+00   2.330977e-02
  1.066545e+00    1.496499e+00   2.325462e-02
  1.068756e+00    1.474588e+00   2.308004e-02
  1.070966e+00    1.459730e+00   2.295696e-02
  1.073177e+00    1.446933e+00   2.285010e-02
  1.075387e+00    1.471618e+00   2.303896e-02
  1.077597e+00    1.473221e+00   2.304425e-02
  1.079808e+00    1.456774e+00   2.278285e-02
  1.082018e+00    1.425657e+00   2.235156e-02
  1.084229e+00    1.439872e+00   2.235344e-02
  1.086439e+00    1.469732e+00   2.249615e-02
  1.088650e+00    1.532107e+00   2.289091e-02
  1.090860e+00    1.525868e+00   2.277498e-02
  1.093071e+00    1.546078e+00   2.286112e-02
  1.095281e+00    1.523309e+00   2.263341e-02
  1.097492e+00    1.472691e+00   2.219876e-02
  1.099702e+00    1.427210e+00   2.180213e-02
  1.101912e+00    1.409956e+00   2.162158e-02
  1.104123e+00    1.440162e+00   2.180366e-02
  1.106333e+00    1.411409e+00   2.154083e-02
  1.108544e+00    1.436463e+00   2.168681e-02
  1.110754e+00    1.396192e+00   2.133811e-02
  1.112965e+00    1.416004e+00   2.144850e-02
  1.115175e+00    1.408962e+00   2.135410e-02
  1.117386e+00    1.407850e+00   2.130650e-02
  1.119596e+00    1.405114e+00   2.124802e-02
  1.121807e+00    1.400685e+00   2.117579e-02
  1.124017e+00    1.430973e+00   2.136657e-02
  1.126228e+00    1.404488e+00   2.113217e-02
  1.128438e+00    1.419529e+00   2.120800e-02
  1.130648e+00    1.428125e+00   2.123746e-02
  1.132859e+00    1.423816e+00   2.117069e-02
  1.135069e+00    1.455919e+00   2.137254e-02
  1.137280e+00    1.402351e+00   2.094253e-02
  1.139490e+00    1.385893e+00   2.078621e-02
  1.141701e+00    1.390893e+00   2.079048e-02
  1.143911e+00    1.388480e+00   2.074052e-02
  1.146122e+00    1.391931e+00   2.073415e-02
  1.148332e+00    1.354745e+00   2.042372e-02
  1.150543e+00    1.333307e+00   2.023114e-02
  1.152753e+00    1.371633e+00   2.048906e-02
  1.154963e+00    1.373824e+00   2.047436e-02
  1.157174e+00    1.373165e+00   2.043931e-02
  1.159384e+00    1.379760e+00   2.045838e-02
  1.161595e+00    1.382118e+00   2.044591e-02
  1.163805e+00    1.376617e+00   2.037581e-02
  1.166016e+00    1.357162e+00   2.020203e-02
  1.168226e+00    1.369590e+00   2.026528e-02
  1.170437e+00    1.431928e+00   2.069206e-02
  1.172647e+00    1.400114e+00   2.043166e-02
  1.174858e+00    1.460329e+00   2.083727e-02
  1.177068e+00    1.665154e+00   2.221936e-02
  1.179278e+00    2.143877e+00   2.517592e-02
  1.181489e+00    2.533091e+00   2.732928e-02
  1.183699e+00    2.084719e+00   2.475891e-02
  1.185910e+00    1.542287e+00   2.126594e-02
  1.188120e+00    1.415461e+00   2.034547e-02
  1.190331e+00    1.394790e+00   2.016921e-02
  1.192541e+00    1.407272e+00   2.023135e-02
  1.194752e+00    1.372979e+00   1.995607e-02
  1.196962e+00    1.357694e+00   1.981889e-02
  1.199173e+00    1.376604e+00   1.992966e-02
  1.201383e+00    1.373859e+00   1.988238e-02
  1.203593e+00    1.381807e+00   1.991471e-02
  1.205804e+00    1.369327e+00   1.979847e-02
  1.208014e+00    1.368638e+00   1.976644e-02
  1.210225e+00    1.375732e+00   1.979205e-02
  1.212435e+00    1.340820e+00   1.951459e-02
  1.214646e+00    1.392547e+00   1.986092e-02
  1.216856e+00    1.380261e+00   1.974738e-02
  1.219067e+00    1.382485e+00   1.973851e-02
  1.221277e+00    1.380661e+00   1.970017e-02
  1.223488e+00    1.369101e+00   1.959161e-02
  1.225698e+00    1.338341e+00   1.934350e-02
  1.227909e+00    1.317963e+00   1.916584e-02
  1.230119e+00    1.358849e+00   1.942889e-02
  1.232329e+00    1.365925e+00   1.944853e-02
  1.234540e+00    1.364753e+00   1.940971e-02
  1.236750e+00    1.377872e+00   1.947221e-02
  1.238961e+00    1.438516e+00   1.986824e-02
  1.241171e+00    1.472635e+00   2.007727e-02
  1.243382e+00    1.404701e+00   1.958473e-02
  1.245592e+00    1.329621e+00   1.903024e-02
  1.247803e+00    1.321228e+00   1.894665e-02
  1.250013e+00    1.343602e+00   1.908291e-02
  1.252224e+00    1.356202e+00   1.914888e-02
  1.254434e+00    1.378899e+00   1.928446e-02
  1.256644e+00    1.370047e+00   1.919908e-02
  1.258855e+00    1.375686e+00   1.921507e-02
  1.261065e+00    1.342853e+00   1.896107e-02
  1.263276e+00    1.341282e+00   1.892712e-02
  1.265486e+00    1.337252e+00   1.887588e-02
  1.267697e+00    1.354744e+00   1.897587e-02
  1.269907e+00    1.357920e+00   1.897536e-02
  1.272118e+00    1.336677e+00   1.880387e-02
  1.274328e+00    1.313641e+00   1.861873e-02
  1.276539e+00    1.313781e+00   1.859722e-02
  1.278749e+00    1.361088e+00   1.890669e-02
  1.280959e+00    1.381360e+00   1.902421e-02
  1.283170e+00    1.347189e+00   1.876502e-02
  1.285380e+00    1.353673e+00   1.878764e-02
  1.287591e+00    1.341041e+00   1.867782e-02
  1.289801e+00    1.352870e+00   1.873877e-02
  1.292012e+00    1.376310e+00   1.888314e-02
  1.294222e+00    1.368876e+00   1.881573e-02
  1.296433e+00    1.368102e+00   1.879469e-02
  1.298643e+00    1.360795e+00   1.872791e-02
  1.300854e+00    1.342671e+00   1.858640e-02
  1.303064e+00    1.334504e+00   1.851068e-02
  1.305274e+00    1.346176e+00   1.857004e-02
  1.307485e+00    1.359759e+00   1.864185e-02
  1.309695e+00    1.365726e+00   1.866037e-02
  1.311906e+00    1.349975e+00   1.853073e-02
  1.314116e+00    1.346753e+00   1.848784e-02
  1.316327e+00    1.345187e+00   1.845543e-02
  1.318537e+00    1.362218e+00   1.854991e-02
  1.320748e+00    1.339286e+00   1.837165e-02
  1.322958e+00    1.358315e+00   1.848111e-02
  1.325169e+00    1.374892e+00   1.857233e-02
  1.327379e+00    1.385432e+00   1.862128e-02
  1.329589e+00    1.398417e+00   1.868693e-02
  1.331800e+00    1.395418e+00   1.864582e-02
  1.334010e+00    1.389811e+00   1.858737e-02
  1.336221e+00    1.369154e+00   1.842682e-02
  1.338431e+00    1.342674e+00   1.822695e-02
  1.340642e+00    1.349310e+00   1.833607e-02
  1.342852e+00    1.357279e+00   1.849108e-02
  1.345063e+00    1.357636e+00   1.854314e-02
  1.347273e+00    1.374821e+00   1.869569e-02
  1.349484e+00    1.381787e+00   1.877101e-02
  1.351694e+00    1.384018e+00   1.880914e-02
  1.353905e+00    1.380375e+00   1.880258e-02
  1.356115e+00    1.371192e+00   1.875509e-02
  1.358325e+00    1.351613e+00   1.863405e-02
  1.360536e+00    1.328093e+00   1.848271e-02
  1.362746e+00    1.351941e+00   1.865749e-02
  1.364957e+00    1.381301e+00   1.886676e-02
  1.367167e+00    1.339180e+00   1.858401e-02
  1.369378e+00    1.334305e+00   1.855614e-02
  1.371588e+00    1.324363e+00   1.849198e-02
  1.373799e+00    1.309591e+00   1.839219e-02
  1.376009e+00    1.305446e+00   1.836641e-02
  1.378220e+00    1.309409e+00   1.839676e-02
  1.380430e+00    1.308470e+00   1.839285e-02
  1.382640e+00    1.310348e+00   1.840694e-02
  1.384851e+00    1.302045e+00   1.834942e-02
  1.387061e+00    1.284602e+00   1.822638e-02
  1.389272e+00    1.282400e+00   1.821094e-02
  1.391482e+00    1.294801e+00   1.829812e-02
  1.393693e+00    1.279552e+00   1.818918e-02
  1.395903e+00    1.295344e+00   1.829956e-02
  1.398114e+00    1.280377e+00   1.819219e-02
  1.400324e+00    1.291080e+00   1.826590e-02
  1.402535e+00    1.280143e+00   1.818607e-02
  1.404745e+00    1.292183e+00   1.826899e-02
  1.406955e+00    1.299434e+00   1.831746e-02
  1.409166e+00    1.322896e+00   1.847872e-02
  1.411376e+00    1.330362e+00   1.852762e-02
  1.413587e+00    1.285936e+00   1.821178e-02
  1.415797e+00    1.274145e+00   1.812457e-02
  1.418008e+00    1.287539e+00   1.817741e-02
  1.420218e+00    1.283531e+00   1.799858e-02
  1.422429e+00    1.267825e+00   1.780288e-02
  1.424639e+00    1.270216e+00   1.775496e-02
  1.426850e+00    1.274262e+00   1.772842e-02
  1.429060e+00    1.297462e+00   1.783956e-02
  1.431270e+00    1.300588e+00   1.781621e-02
  1.433481e+00    1.273973e+00   1.759196e-02
  1.435691e+00    1.266599e+00   1.750258e-02
  1.437902e+00    1.290808e+00   1.763229e-02
  1.440112e+00    1.303755e+00   1.768471e-02
  1.442323e+00    1.267920e+00   1.740694e-02
  1.444533e+00    1.271404e+00   1.739827e-02
  1.446744e+00    1.271963e+00   1.737094e-02
  1.448954e+00    1.261536e+00   1.726951e-02
  1.451165e+00    1.275961e+00   1.733814e-02
  1.453375e+00    1.268882e+00   1.726194e-02
  1.455586e+00    1.250713e+00   1.710997e-02
  1.457796e+00    1.264307e+00   1.717523e-02
  1.460006e+00    1.250486e+00   1.705407e-02
  1.462217e+00    1.259635e+00   1.709021e-02
  1.464427e+00    1.289656e+00   1.726686e-02
  1.466638e+00    1.271064e+00   1.711663e-02
  1.468848e+00    1.269772e+00   1.708257e-02
  1.471059e+00    1.281310e+00   1.713480e-02
  1.473269e+00    1.262989e+00   1.698755e-02
  1.475480e+00    1.234520e+00   1.677155e-02
  1.477690e+00    1.249991e+00   1.685264e-02
  1.479901e+00    1.252349e+00   1.684484e-02
  1.482111e+00    1.268722e+00   1.693126e-02
  1.484321e+00    1.264182e+00   1.687785e-02
  1.486532e+00    1.275456e+00   1.693052e-02
  1.488742e+00    1.303047e+00   1.708969e-02
  1.490953e+00    1.258783e+00   1.677438e-02
  1.493163e+00    1.252806e+00   1.671230e-02
  1.495374e+00    1.255737e+00   1.671040e-02
  1.497584e+00    1.273184e+00   1.680434e-02
  1.499795e+00    1.301766e+00   1.696992e-02
  1.502005e+00    1.295194e+00   1.690505e-02
  1.504216e+00    1.301592e+00   1.692534e-02
  1.506426e+00    1.427717e+00   1.770421e-02
  1.508636e+00    1.493795e+00   1.808705e-02
  1.510847e+00    1.417049e+00   1.759316e-02
  1.513057e+00    1.317529e+00   1.693843e-02
  1.515268e+00    1.269875e+00   1.660339e-02
  1.517478e+00    1.240138e+00   1.638282e-02
  1.519689e+00    1.246580e+00   1.640041e-02
  1.521899e+00    1.273111e+00   1.655073e-02
  1.524110e+00    1.287409e+00   1.662282e-02
  1.526320e+00    1.282265e+00   1.656976e-02
  1.528531e+00    1.259306e+00   1.640091e-02
  1.530741e+00    1.245571e+00   1.629211e-02
  1.532951e+00    1.278575e+00   1.648673e-02
  1.535162e+00    1.248401e+00   1.637761e-02
  1.537372e+00    1.245173e+00   1.642320e-02
  1.539583e+00    1.233564e+00   1.638050e-02
  1.541793e+00    1.257415e+00   1.654506e-02
  1.544004e+00    1.262115e+00   1.657623e-02
  1.546214e+00    1.253724e+00   1.651952e-02
  1.548425e+00    1.261605e+00   1.657161e-02
  1.550635e+00    1.254896e+00   1.653722e-02
  1.552846e+00    1.241192e+00   1.645633e-02
  1.555056e+00    1.223189e+00   1.629540e-02
  1.557266e+00    1.246343e+00   1.633838e-02
  1.559477e+00    1.213317e+00   1.606209e-02
  1.561687e+00    1.237109e+00   1.618821e-02
  1.563898e+00    1.274867e+00   1.641604e-02
  1.566108e+00    1.268550e+00   1.635922e-02
  1.568319e+00    1.249868e+00   1.622266e-02
  1.570529e+00    1.236159e+00   1.610839e-02
  1.572740e+00    1.253454e+00   1.619295e-02
  1.574950e+00    1.258298e+00   1.619776e-02
  1.577161e+00    1.272633e+00   1.626401e-02
  1.579371e+00    1.253707e+00   1.611888e-02
  1.581582e+00    1.223783e+00   1.590573e-02
  1.583792e+00    1.240097e+00   1.599342e-02
  1.586002e+00    1.236346e+00   1.595164e-02
  1.588213e+00    1.254200e+00   1.604911e-02
  1.590423e+00    1.211682e+00   1.575491e-02
  1.592634e+00    1.225663e+00   1.582408e-02
  1.594844e+00    1.269220e+00   1.608116e-02
  1.597055e+00    1.234355e+00   1.583835e-02
  1.599265e+00    1.245014e+00   1.588582e-02
  1.601476e+00    1.228416e+00   1.575938e-02
  1.603686e+00    1.211548e+00   1.563127e-02
  1.605897e+00    1.216938e+00   1.564602e-02
  1.608107e+00    1.234525e+00   1.573914e-02
  1.610317e+00    1.227489e+00   1.567498e-02
  1.612528e+00    1.216393e+00   1.558497e-02
  1.614738e+00    1.211208e+00   1.553291e-02
  1.616949e+00    1.195754e+00   1.541476e-02
  1.619159e+00    1.190146e+00   1.536010e-02
  1.621370e+00    1.175083e+00   1.524447e-02
  1.623580e+00    1.181409e+00   1.526736e-02
  1.625791e+00    1.172736e+00   1.519323e-02
  1.628001e+00    1.162445e+00   1.510847e-02
  1.630212e+00    1.179676e+00   1.520237e-02
  1.632422e+00    1.165845e+00   1.509527e-02
  1.634632e+00    1.147628e+00   1.495980e-02
  1.636843e+00    1.136485e+00   1.486977e-02
  1.639053e+00    1.136782e+00   1.485469e-02
  1.641264e+00    1.133679e+00   1.481757e-02
  1.643474e+00    1.150278e+00   1.490835e-02
  1.645685e+00    1.161990e+00   1.496736e-02
  1.647895e+00    1.143948e+00   1.483422e-02
  1.650106e+00    1.139827e+00   1.479054e-02
  1.652316e+00    1.111694e+00   1.459068e-02
  1.654527e+00    1.095986e+00   1.447087e-02
  1.656737e+00    1.089382e+00   1.441101e-02
  1.658947e+00    1.102501e+00   1.448144e-02
  1.661158e+00    1.083335e+00   1.433907e-02
  1.663368e+00    1.091409e+00   1.437661e-02
  1.665579e+00    1.097276e+00   1.439921e-02
  1.667789e+00    1.106860e+00   1.444580e-02
  1.670000e+00    1.093134e+00   1.434059e-02
  1.672210e+00    1.121091e+00   1.450684e-02
  1.674421e+00    1.098689e+00   1.434591e-02
  1.676631e+00    1.088860e+00   1.426580e-02
  1.678842e+00    1.102006e+00   1.433587e-02
  1.681052e+00    1.092729e+00   1.426001e-02
  1.683263e+00    1.268036e+00   1.534493e-02
  1.685473e+00    1.448406e+00   1.638261e-02
  1.687683e+00    1.212076e+00   1.497039e-02
  1.689894e+00    1.074233e+00   1.407766e-02
  1.692104e+00    1.075598e+00   1.407166e-02
  1.694315e+00    1.055748e+00   1.392683e-02
  1.696525e+00    1.041105e+00   1.381496e-02
  1.698736e+00    1.026071e+00   1.370030e-02
  1.700946e+00    1.031518e+00   1.372169e-02
  1.703157e+00    1.021127e+00   1.363801e-02
  1.705367e+00    1.019007e+00   1.360958e-02
  1.707578e+00    1.034556e+00   1.369854e-02
  1.709788e+00    1.037129e+00   1.370153e-02
  1.711998e+00    1.019083e+00   1.356695e-02
  1.714209e+00    1.026751e+00   1.360354e-02
  1.716419e+00    1.015579e+00   1.351521e-02
  1.718630e+00    1.023756e+00   1.355526e-02
  1.720840e+00    1.026204e+00   1.355732e-02
  1.723051e+00    1.068676e+00   1.382084e-02
  1.725261e+00    1.413834e+00   1.587954e-02
  1.727472e+00    1.256196e+00   1.495245e-02
  1.729682e+00    1.015355e+00   1.342942e-02
  1.731893e+00    9.875721e-01   1.323065e-02
  1.734103e+00    1.016430e+00   1.340873e-02
  1.736313e+00    9.684755e-01   1.307486e-02
  1.738524e+00    9.791085e-01   1.313277e-02
  1.740734e+00    9.623207e-01   1.300624e-02
  1.742945e+00    9.807208e-01   1.311664e-02
  1.745155e+00    9.871759e-01   1.314634e-02
  1.747366e+00    9.773105e-01   1.306676e-02
  1.749576e+00    1.001777e+00   1.321550e-02
  1.751787e+00    1.053775e+00   1.354032e-02
  1.753997e+00    1.130571e+00   1.401068e-02
  1.756208e+00    1.086939e+00   1.372375e-02
  1.758418e+00    1.070556e+00   1.360615e-02
  1.760628e+00    1.010941e+00   1.320825e-02
  1.762839e+00    9.945142e-01   1.308710e-02
  1.765049e+00    9.581541e-01   1.283253e-02
  1.767260e+00    9.639656e-01   1.285854e-02
  1.769470e+00    9.673855e-01   1.286827e-02
  1.771681e+00    9.592397e-01   1.280078e-02
  1.773891e+00    9.560979e-01   1.276671e-02
  1.776102e+00    9.535782e-01   1.273697e-02
  1.778312e+00    9.531243e-01   1.272114e-02
  1.780523e+00    1.083438e+00   1.354917e-02
  1.782733e+00    1.295983e+00   1.480389e-02
  1.784944e+00    1.197271e+00   1.421446e-02
  1.787154e+00    1.002409e+00   1.299337e-02
  1.789364e+00    9.473314e-01   1.261872e-02
  1.791575e+00    9.270908e-01   1.247066e-02
  1.793785e+00    9.149330e-01   1.237626e-02
  1.795996e+00    9.254933e-01   1.243493e-02
  1.798206e+00    9.199612e-01   1.238519e-02
  1.800417e+00    9.114022e-01   1.231480e-02
  1.802627e+00    9.018607e-01   1.223831e-02
  1.804838e+00    9.081662e-01   1.226893e-02
  1.807048e+00    9.710363e-01   1.267317e-02
  1.809259e+00    1.262382e+00   1.443375e-02
  1.811469e+00    1.432630e+00   1.535756e-02
  1.813679e+00    1.152369e+00   1.375691e-02
  1.815890e+00    9.175265e-01   1.226038e-02
  1.818100e+00    8.690121e-01   1.191693e-02
  1.820311e+00    8.857625e-01   1.201654e-02
  1.822521e+00    8.605294e-01   1.182954e-02
  1.824732e+00    8.628573e-01   1.183093e-02
  1.826942e+00    8.777208e-01   1.192014e-02
  1.829153e+00    8.949331e-01   1.202469e-02
  1.831363e+00    8.743567e-01   1.187370e-02
  1.833574e+00    8.772724e-01   1.188180e-02
  1.835784e+00    8.680198e-01   1.180765e-02
  1.837994e+00    8.398123e-01   1.160276e-02
  1.840205e+00    8.304008e-01   1.152665e-02
  1.842415e+00    8.420373e-01   1.159558e-02
  1.844626e+00    8.651631e-01   1.174220e-02
  1.846836e+00    8.575644e-01   1.167919e-02
  1.849047e+00    8.428402e-01   1.156701e-02
  1.851257e+00    8.445764e-01   1.156947e-02
  1.853468e+00    8.508964e-01   1.160391e-02
  1.855678e+00    8.539095e-01   1.161561e-02
  1.857889e+00    8.504032e-01   1.158327e-02
  1.860099e+00    8.442830e-01   1.153295e-02
  1.862309e+00    8.544347e-01   1.159358e-02
  1.864520e+00    8.369056e-01   1.146556e-02
  1.866730e+00    8.456076e-01   1.151568e-02
  1.868941e+00    8.723086e-01   1.168499e-02
  1.871151e+00    8.839166e-01   1.175090e-02
  1.873362e+00    8.602697e-01   1.158124e-02
  1.875572e+00    8.575496e-01   1.155192e-02
  1.877783e+00    8.753757e-01   1.165975e-02
  1.879993e+00    8.722705e-01   1.162774e-02
  1.882204e+00    8.684834e-01   1.159143e-02
  1.884414e+00    8.522036e-01   1.147114e-02
  1.886624e+00    8.336092e-01   1.133431e-02
  1.888835e+00    8.482541e-01   1.142239e-02
  1.891045e+00    8.701524e-01   1.155784e-02
  1.893256e+00    8.617442e-01   1.149062e-02
  1.895466e+00    8.437391e-01   1.135873e-02
  1.897677e+00    8.368309e-01   1.130120e-02
  1.899887e+00    8.446301e-01   1.134269e-02
  1.902098e+00    8.518622e-01   1.138017e-02
  1.904308e+00    8.640153e-01   1.145026e-02
  1.906519e+00    8.994952e-01   1.167170e-02
  1.908729e+00    9.559656e-01   1.202111e-02
  1.910940e+00    9.743442e-01   1.212407e-02
  1.913150e+00    9.318336e-01   1.184540e-02
  1.915360e+00    9.503621e-01   1.195115e-02
  1.917571e+00    9.181713e-01   1.173557e-02
  1.919781e+00    8.497055e-01   1.127865e-02
  1.921992e+00    8.355608e-01   1.117365e-02
  1.924202e+00    8.261699e-01   1.109987e-02
  1.926413e+00    8.123420e-01   1.099630e-02
  1.928623e+00    8.099257e-01   1.096942e-02
  1.930834e+00    8.100339e-01   1.095975e-02
  1.933044e+00    7.976171e-01   1.086484e-02
  1.935255e+00    7.992274e-01   1.086555e-02
  1.937465e+00    8.039454e-01   1.088719e-02
  1.939675e+00    8.114682e-01   1.092715e-02
  1.941886e+00    7.998343e-01   1.083828e-02
  1.944096e+00    7.939883e-01   1.078848e-02
  1.946307e+00    7.977582e-01   1.080373e-02
  1.948517e+00    8.121620e-01   1.089032e-02
  1.950728e+00    7.985364e-01   1.078835e-02
  1.952938e+00    7.852101e-01   1.068792e-02
  1.955149e+00    7.936190e-01   1.073478e-02
  1.957359e+00    8.006139e-01   1.077193e-02
  1.959570e+00    7.869583e-01   1.066883e-02
  1.961780e+00    7.811456e-01   1.061953e-02
  1.963990e+00    7.930698e-01   1.069015e-02
  1.966201e+00    7.678705e-01   1.050903e-02
  1.968411e+00    7.774913e-01   1.056457e-02
  1.970622e+00    7.964581e-01   1.068251e-02
  1.972832e+00    7.916306e-01   1.064010e-02
  1.975043e+00    7.932918e-01   1.064115e-02
  1.977253e+00    7.852060e-01   1.057687e-02
  1.979464e+00    7.741196e-01   1.049193e-02
  1.981674e+00    7.878231e-01   1.057410e-02
  1.983885e+00    7.953000e-01   1.061405e-02
  1.986095e+00    7.772444e-01   1.048320e-02
  1.988305e+00    7.918498e-01   1.057125e-02
  1.990516e+00    7.897450e-01   1.054722e-02
  1.992726e+00    7.660147e-01   1.037794e-02
  1.994937e+00    7.762019e-01   1.043660e-02
  1.997147e+00    7.704031e-01   1.038784e-02
  1.999358e+00    7.719859e-01   1.038869e-02
  2.001568e+00    7.845284e-01   1.046183e-02
  2.003779e+00    7.656597e-01   1.032342e-02
  2.005989e+00    7.616208e-01   1.028419e-02
  2.008200e+00    7.764965e-01   1.037256e-02
  2.010410e+00    7.754571e-01   1.035384e-02
  2.012621e+00    7.766699e-01   1.035016e-02
  2.014831e+00    7.660468e-01   1.026768e-02
  2.017041e+00    7.532820e-01   1.017147e-02
  2.019252e+00    7.604162e-01   1.020960e-02
  2.021462e+00    7.691045e-01   1.025823e-02
  2.023673e+00    7.550795e-01   1.015494e-02
  2.025883e+00    7.632216e-01   1.020002e-02
  2.028094e+00    7.506815e-01   1.010632e-02
  2.030304e+00    7.438968e-01   1.005111e-02
  2.032515e+00    7.583352e-01   1.013889e-02
  2.034725e+00    7.571411e-01   1.012149e-02
  2.036936e+00    7.469237e-01   1.004369e-02
  2.039146e+00    7.615794e-01   1.013215e-02
  2.041356e+00    7.574395e-01   1.009492e-02
  2.043567e+00    7.495811e-01   1.003317e-02
  2.045777e+00    7.343475e-01   9.921543e-03
  2.047988e+00    7.501742e-01   1.001856e-02
  2.050198e+00    7.465148e-01   9.985714e-03
  2.052409e+00    7.327580e-01   9.885713e-03
  2.054619e+00    7.561771e-01   1.003504e-02
  2.056830e+00    7.633665e-01   1.007541e-02
  2.059040e+00    7.589856e-01   1.003891e-02
  2.061251e+00    7.726432e-01   1.012147e-02
  2.063461e+00    7.524297e-01   9.980595e-03
  2.065671e+00    7.357873e-01   9.860951e-03
  2.067882e+00    7.413861e-01   9.889423e-03
  2.070092e+00    7.552779e-01   9.972412e-03
  2.072303e+00    7.587869e-01   9.986334e-03
  2.074513e+00    7.548565e-01   9.951063e-03
  2.076724e+00    7.360763e-01   9.817097e-03
  2.078934e+00    7.386813e-01   9.825454e-03
  2.081145e+00    7.696611e-01   1.002013e-02
  2.083355e+00    7.806674e-01   1.008212e-02
  2.085566e+00    7.443994e-01   9.836229e-03
  2.087776e+00    7.232247e-01   9.685896e-03
  2.089986e+00    7.398565e-01   9.787849e-03
  2.092197e+00    7.434945e-01   9.802888e-03
  2.094407e+00    7.504409e-01   9.839267e-03
  2.096618e+00    7.390798e-01   9.755575e-03
  2.098828e+00    7.368731e-01   9.731670e-03
  2.101039e+00    7.386191e-01   9.734190e-03
  2.103249e+00    7.336121e-01   9.692458e-03
  2.105460e+00    7.189263e-01   9.586002e-03
  2.107670e+00    7.145612e-01   9.548205e-03
  2.109881e+00    7.268200e-01   9.620596e-03
  2.112091e+00    7.190628e-01   9.560180e-03
  2.114301e+00    7.053621e-01   9.460004e-03
  2.116512e+00    7.187949e-01   9.540872e-03
  2.118722e+00    7.245431e-01   9.570112e-03
  2.120933e+00    7.365066e-01   9.639844e-03
  2.123143e+00    7.194247e-01   9.518485e-03
  2.125354e+00    7.107909e-01   9.452715e-03
  2.127564e+00    6.989241e-01   9.364853e-03
  2.129775e+00    6.857699e-01   9.267762e-03
  2.131985e+00    7.014883e-01   9.364373e-03
  2.134196e+00    6.985403e-01   9.336215e-03
  2.136406e+00    7.013184e-01   9.346049e-03
  2.138617e+00    7.233800e-01   9.483405e-03
  2.140827e+00    6.968473e-01   9.323778e-03
  2.143037e+00    7.248901e-01   9.555563e-03
  2.145248e+00    7.152853e-01   9.514217e-03
  2.147458e+00    6.998950e-01   9.426396e-03
  2.149669e+00    7.048142e-01   9.471298e-03
  2.151879e+00    7.186068e-01   9.572889e-03
  2.154090e+00    7.023616e-01   9.471383e-03
  2.156300e+00    6.898637e-01   9.393277e-03
  2.158511e+00    7.062389e-01   9.509429e-03
  2.160721e+00    7.167058e-01   9.584534e-03
  2.162932e+00    6.949290e-01   9.441536e-03
  2.165142e+00    7.002034e-01   9.480313e-03
  2.167352e+00    6.969664e-01   9.461300e-03
  2.169563e+00    6.738040e-01   9.304674e-03
  2.171773e+00    7.010093e-01   9.493103e-03
  2.173984e+00    6.974578e-01   9.470462e-03
  2.176194e+00    6.964995e-01   9.465142e-03
  2.178405e+00    7.068714e-01   9.536068e-03
  2.180615e+00    6.827754e-01   9.372815e-03
  2.182826e+00    6.810209e-01   9.361424e-03
  2.185036e+00    6.860498e-01   9.395964e-03
  2.187247e+00    6.921248e-01   9.437451e-03
  2.189457e+00    6.879305e-01   9.408383e-03
  2.191667e+00    6.855517e-01   9.391935e-03
  2.193878e+00    6.845642e-01   9.384599e-03
  2.196088e+00    6.911600e-01   9.429022e-03
  2.198299e+00    6.854975e-01   9.389224e-03
  2.200509e+00    6.746252e-01   9.313418e-03
  2.202720e+00    6.823483e-01   9.365415e-03
  2.204930e+00    6.807360e-01   9.353121e-03
  2.207141e+00    6.854354e-01   9.384213e-03
  2.209351e+00    6.876752e-01   9.397651e-03
  2.211562e+00    6.871135e-01   9.392173e-03
  2.213772e+00    6.854376e-01   9.324897e-03
  2.215982e+00    6.714871e-01   9.185433e-03
  2.218193e+00    6.829363e-01   9.233621e-03
  2.220403e+00    6.904675e-01   9.259542e-03
  2.222614e+00    6.748641e-01   9.133333e-03
  2.224824e+00    6.714602e-01   9.090924e-03
  2.227035e+00    6.794739e-01   9.127479e-03
  2.229245e+00    6.704454e-01   9.049688e-03
  2.231456e+00    6.741936e-01   9.059312e-03
  2.233666e+00    6.550529e-01   8.914860e-03
  2.235877e+00    6.676112e-01   8.985659e-03
  2.238087e+00    6.886184e-01   9.112276e-03
  2.240298e+00    7.136087e-01   9.261925e-03
  2.242508e+00    7.313003e-01   9.360233e-03
  2.244718e+00    6.960347e-01   9.115630e-03
  2.246929e+00    6.838294e-01   9.020764e-03
  2.249139e+00    6.832568e-01   9.004450e-03
  2.251350e+00    6.899113e-01   9.036281e-03
  2.253560e+00    7.069491e-01   9.135262e-03
  2.255771e+00    7.384607e-01   9.324626e-03
  2.257981e+00    7.571112e-01   9.429705e-03
  2.260192e+00    7.720336e-01   9.510240e-03
  2.262402e+00    7.235869e-01   9.195708e-03
  2.264613e+00    6.932366e-01   8.989674e-03
  2.266823e+00    7.000360e-01   9.022987e-03
  2.269033e+00    7.000129e-01   9.012152e-03
  2.271244e+00    7.052726e-01   9.035230e-03
  2.273454e+00    7.110782e-01   9.061701e-03
  2.275665e+00    7.411281e-01   9.240299e-03
  2.277875e+00    7.122230e-01   9.048035e-03
  2.280086e+00    6.821437e-01   8.844695e-03
  2.282296e+00    6.561071e-01   8.664866e-03
  2.284507e+00    6.495069e-01   8.611112e-03
  2.286717e+00    6.667786e-01   8.715308e-03
  2.288928e+00    6.561059e-01   8.635435e-03
  2.291138e+00    6.468124e-01   8.564706e-03
  2.293348e+00    6.505785e-01   8.580088e-03
  2.295559e+00    6.546065e-01   8.597308e-03
  2.297769e+00    6.559674e-01   8.596987e-03
  2.299980e+00    6.554039e-01   8.583939e-03
  2.302190e+00    6.554375e-01   8.575021e-03
  2.304401e+00    6.577177e-01   8.580557e-03
  2.306611e+00    6.474764e-01   8.504342e-03
  2.308822e+00    6.405054e-01   8.450110e-03
  2.311032e+00    6.530323e-01   8.525877e-03
  2.313243e+00    6.423318e-01   8.449512e-03
  2.315453e+00    6.407337e-01   8.431456e-03
  2.317663e+00    6.404952e-01   8.420817e-03
  2.319874e+00    6.478452e-01   8.460253e-03
  2.322084e+00    6.554891e-01   8.500993e-03
  2.324295e+00    6.412789e-01   8.400148e-03
  2.326505e+00    6.378959e-01   8.368948e-03
  2.328716e+00    6.499735e-01   8.439194e-03
  2.330926e+00    6.636134e-01   8.518366e-03
  2.333137e+00    6.457186e-01   8.394348e-03
  2.335347e+00    6.376166e-01   8.332649e-03
  2.337558e+00    6.530125e-01   8.424350e-03
  2.339768e+00    6.340314e-01   8.292472e-03
  2.341979e+00    6.311576e-01   8.265349e-03
  2.344189e+00    6.216669e-01   8.194677e-03
  2.346399e+00    6.249505e-01   8.207872e-03
  2.348610e+00    6.242758e-01   8.195061e-03
  2.350820e+00    6.271319e-01   8.205645e-03
  2.353031e+00    6.321097e-01   8.229876e-03
  2.355241e+00    6.430186e-01   8.292478e-03
  2.357452e+00    6.212937e-01   8.142857e-03
  2.359662e+00    6.226954e-01   8.143848e-03
  2.361873e+00    6.273038e-01   8.165731e-03
  2.364083e+00    6.284493e-01   8.165189e-03
  2.366294e+00    6.310361e-01   8.173846e-03
  2.368504e+00    6.328439e-01   8.177441e-03
  2.370714e+00    6.143747e-01   8.049239e-03
  2.372925e+00    6.477584e-01   8.256830e-03
  2.375135e+00    6.341805e-01   8.161741e-03
  2.377346e+00    6.166208e-01   8.040042e-03
  2.379556e+00    6.259611e-01   8.092771e-03
  2.381767e+00    6.309600e-01   8.117117e-03
  2.383977e+00    6.213053e-01   8.046848e-03
  2.386188e+00    6.252964e-01   8.064671e-03
  2.388398e+00    6.142796e-01   7.985410e-03
  2.390609e+00    5.976685e-01   7.869093e-03
  2.392819e+00    6.105770e-01   7.945853e-03
  2.395029e+00    6.077640e-01   7.919954e-03
  2.397240e+00    6.054232e-01   7.896842e-03
  2.399450e+00    6.197729e-01   7.982046e-03
  2.401661e+00    6.204423e-01   7.978635e-03
  2.403871e+00    6.186577e-01   7.959330e-03
  2.406082e+00    6.103508e-01   7.898288e-03
  2.408292e+00    6.136482e-01   7.911770e-03
  2.410503e+00    5.962231e-01   7.791222e-03
  2.412713e+00    6.113960e-01   7.881899e-03
  2.414924e+00    5.965058e-01   7.777922e-03
  2.417134e+00    5.959377e-01   7.766616e-03
  2.419344e+00    5.987338e-01   7.777452e-03
  2.421555e+00    5.967547e-01   7.757105e-03
  2.423765e+00    5.974225e-01   7.754057e-03
  2.425976e+00    5.988977e-01   7.755806e-03
  2.428186e+00    6.214757e-01   7.893317e-03
  2.430397e+00    6.006243e-01   7.752269e-03
  2.432607e+00    5.947352e-01   7.706894e-03
  2.434818e+00    5.898385e-01   7.667604e-03
  2.437028e+00    5.886375e-01   7.652668e-03
  2.439239e+00    5.922867e-01   7.668703e-03
  2.441449e+00    5.751536e-01   7.549898e-03
  2.443659e+00    5.834842e-01   7.597046e-03
  2.445870e+00    5.981148e-01   7.704057e-03
  2.448080e+00    5.731788e-01   7.576271e-03
  2.450291e+00    5.639059e-01   7.531134e-03
  2.452501e+00    5.830277e-01   7.668987e-03
  2.454712e+00    5.674638e-01   7.574334e-03
  2.456922e+00    5.628271e-01   7.549892e-03
  2.459133e+00    5.594900e-01   7.532863e-03
  2.461343e+00    5.734307e-01   7.630518e-03
  2.463554e+00    5.637895e-01   7.569570e-03
  2.465764e+00    5.597207e-01   7.545332e-03
  2.467975e+00    5.782390e-01   7.671431e-03
  2.470185e+00    5.714338e-01   7.628484e-03
  2.472395e+00    5.544776e-01   7.515635e-03
  2.474606e+00    5.592369e-01   7.549415e-03
  2.476816e+00    5.386785e-01   7.410067e-03
  2.479027e+00    5.521345e-01   7.502878e-03
  2.481237e+00    5.463820e-01   7.464005e-03
  2.483448e+00    5.251989e-01   7.318163e-03
  2.485658e+00    5.368814e-01   7.398956e-03
  2.487869e+00    5.487355e-01   7.480233e-03
  2.490079e+00    5.486702e-01   7.479278e-03
  2.492290e+00    5.427497e-01   7.438378e-03
  2.494500e+00    5.352396e-01   7.386011e-03
  2.496710e+00    5.418977e-01   7.431097e-03
  2.498921e+00    5.354372e-01   7.385682e-03
  2.501131e+00    5.479680e-01   7.470626e-03
  2.503342e+00    5.585824e-01   7.541359e-03
  2.505552e+00    5.578747e-01   7.535416e-03
  2.507763e+00    5.507156e-01   7.485480e-03
  2.509973e+00    5.246835e-01   7.305033e-03
  2.512184e+00    5.190561e-01   7.264133e-03
  2.514394e+00    5.310305e-01   7.338055e-03
  2.516605e+00    5.271150e-01   7.263858e-03
  2.518815e+00    5.372284e-01   7.304588e-03
  2.521025e+00    5.308726e-01   7.240180e-03
  2.523236e+00    5.332823e-01   7.238466e-03
  2.525446e+00    5.376544e-01   7.252322e-03
  2.527657e+00    5.325463e-01   7.203064e-03
  2.529867e+00    5.340660e-01   7.199038e-03
  2.532078e+00    5.305340e-01   7.160079e-03
  2.534288e+00    5.373295e-01   7.191735e-03
  2.536499e+00    5.194086e-01   7.058920e-03
  2.538709e+00    5.162792e-01   7.026701e-03
  2.540920e+00    5.157370e-01   7.012448e-03
  2.543130e+00    5.264982e-01   7.074845e-03
  2.545340e+00    5.069750e-01   6.932550e-03
  2.547551e+00    5.131651e-01   6.964872e-03
  2.549761e+00    5.142981e-01   6.963063e-03
  2.551972e+00    5.100114e-01   6.924723e-03
  2.554182e+00    5.230396e-01   7.003422e-03
  2.556393e+00    5.214571e-01   6.983733e-03
  2.558603e+00    5.120090e-01   6.911163e-03
  2.560814e+00    5.358826e-01   7.061610e-03
  2.563024e+00    5.282782e-01   7.002703e-03
  2.565235e+00    5.204048e-01   6.940778e-03
  2.567445e+00    5.271427e-01   6.975939e-03
  2.569656e+00    5.259821e-01   6.958458e-03
  2.571866e+00    5.102777e-01   6.844487e-03
  2.574076e+00    5.160739e-01   6.873985e-03
  2.576287e+00    5.262928e-01   6.933299e-03
  2.578497e+00    5.108303e-01   6.822902e-03
  2.580708e+00    5.068753e-01   6.788400e-03
  2.582918e+00    5.327112e-01   6.951367e-03
  2.585129e+00    5.206445e-01   6.864400e-03
  2.587339e+00    5.014839e-01   6.729312e-03
  2.589550e+00    5.093515e-01   6.774371e-03
  2.591760e+00    4.952055e-01   6.672026e-03
  2.593971e+00    5.047595e-01   6.728604e-03
  2.596181e+00    5.111272e-01   6.764690e-03
  2.598391e+00    5.259785e-01   6.856992e-03
  2.600602e+00    5.240174e-01   6.838219e-03
  2.602812e+00    5.133829e-01   6.760903e-03
  2.605023e+00    5.168260e-01   6.776304e-03
  2.607233e+00    5.066110e-01   6.701889e-03
  2.609444e+00    5.045758e-01   6.681188e-03
  2.611654e+00    5.120687e-01   6.723260e-03
  2.613865e+00    5.124051e-01   6.718388e-03
  2.616075e+00    5.160987e-01   6.735344e-03
  2.618286e+00    5.118681e-01   6.700662e-03
  2.620496e+00    4.977000e-01   6.600609e-03
  2.622706e+00    5.205470e-01   6.744589e-03
  2.624917e+00    5.103518e-01   6.672329e-03
  2.627127e+00    5.085970e-01   6.655078e-03
  2.629338e+00    5.049707e-01   6.625338e-03
  2.631548e+00    5.143561e-01   6.680367e-03
  2.633759e+00    5.176573e-01   6.694538e-03
  2.635969e+00    4.987768e-01   6.564640e-03
  2.638180e+00    5.052568e-01   6.600140e-03
  2.640390e+00    5.105224e-01   6.627767e-03
  2.642601e+00    4.940021e-01   6.513041e-03
  2.644811e+00    5.068241e-01   6.589902e-03
  2.647021e+00    5.079845e-01   6.590823e-03
  2.649232e+00    4.950914e-01   6.499963e-03
  2.651442e+00    4.998791e-01   6.524793e-03
  2.653653e+00    5.166387e-01   6.626362e-03
  2.655863e+00    5.091641e-01   6.571510e-03
  2.658074e+00    4.990720e-01   6.499434e-03
  2.660284e+00    4.992763e-01   6.494384e-03
  2.662495e+00    5.172701e-01   6.603501e-03
  2.664705e+00    5.178642e-01   6.600589e-03
  2.666916e+00    5.091943e-01   6.538553e-03
  2.669126e+00    5.032778e-01   6.493956e-03
  2.671337e+00    4.977860e-01   6.451826e-03
  2.673547e+00    5.147533e-01   6.554354e-03
  2.675757e+00    4.909266e-01   6.394448e-03
  2.677968e+00    4.929504e-01   6.401100e-03
  2.680178e+00    4.955772e-01   6.411708e-03
  2.682389e+00    5.052044e-01   6.467219e-03
  2.684599e+00    4.915431e-01   6.373009e-03
  2.686810e+00    4.969824e-01   6.401518e-03
  2.689020e+00    5.111341e-01   6.485620e-03
  2.691231e+00    4.920539e-01   6.357122e-03
  2.693441e+00    4.885103e-01   6.328051e-03
  2.695652e+00    4.897383e-01   6.329492e-03
  2.697862e+00    4.866679e-01   6.303292e-03
  2.700072e+00    5.008924e-01   6.388597e-03
  2.702283e+00    4.816444e-01   6.258481e-03
  2.704493e+00    4.996973e-01   6.368327e-03
  2.706704e+00    4.922413e-01   6.314224e-03
  2.708914e+00    4.883376e-01   6.283167e-03
  2.711125e+00    4.803606e-01   6.225423e-03
  2.713335e+00    4.890961e-01   6.275682e-03
  2.715546e+00    4.838563e-01   6.235540e-03
  2.717756e+00    4.815004e-01   6.214479e-03
  2.719967e+00    4.742106e-01   6.161134e-03
  2.722177e+00    4.817979e-01   6.204097e-03
  2.724387e+00    4.880338e-01   6.238010e-03
  2.726598e+00    5.053306e-01   6.341407e-03
  2.728808e+00    5.015237e-01   6.311231e-03
  2.731019e+00    4.967404e-01   6.274868e-03
  2.733229e+00    4.962403e-01   6.265823e-03
  2.735440e+00    4.979477e-01   6.270240e-03
  2.737650e+00    4.856559e-01   6.186335e-03
  2.739861e+00    4.919939e-01   6.220443e-03
  2.742071e+00    4.986179e-01   6.256347e-03
  2.744282e+00    5.000968e-01   6.259263e-03
  2.746492e+00    4.822326e-01   6.140423e-03
  2.748702e+00    4.805382e-01   6.123709e-03
  2.750913e+00    4.797739e-01   6.113068e-03
  2.753123e+00    4.867874e-01   6.151435e-03
  2.755334e+00    4.852119e-01   6.135368e-03
  2.757544e+00    4.867728e-01   6.139467e-03
  2.759755e+00    4.868508e-01   6.134006e-03
  2.761965e+00    4.951389e-01   6.179951e-03
  2.764176e+00    4.813113e-01   6.087044e-03
  2.766386e+00    4.734235e-01   6.031215e-03
  2.768597e+00    4.768447e-01   6.047115e-03
  2.770807e+00    4.787214e-01   6.053119e-03
  2.773017e+00    4.868745e-01   6.098441e-03
  2.775228e+00    4.915192e-01   6.121588e-03
  2.777438e+00    4.802743e-01   6.045368e-03
  2.779649e+00    4.834715e-01   6.059498e-03
  2.781859e+00    4.819783e-01   6.044375e-03
  2.784070e+00    4.659256e-01   5.937055e-03
  2.786280e+00    4.803111e-01   6.022224e-03
  2.788491e+00    4.864243e-01   6.054543e-03
  2.790701e+00    4.797179e-01   6.006997e-03
  2.792912e+00    4.688503e-01   5.932640e-03
  2.795122e+00    4.756614e-01   5.969848e-03
  2.797333e+00    4.728189e-01   5.946442e-03
  2.799543e+00    4.746654e-01   5.952181e-03
  2.801753e+00    4.703368e-01   5.919172e-03
  2.803964e+00    4.710846e-01   5.918211e-03
  2.806174e+00    4.789195e-01   5.961068e-03
  2.808385e+00    4.786832e-01   5.952776e-03
  2.810595e+00    4.633639e-01   5.849962e-03
  2.812806e+00    4.654824e-01   5.856770e-03
  2.815016e+00    4.664522e-01   5.858166e-03
  2.817227e+00    4.734356e-01   5.927761e-03
  2.819437e+00    4.675117e-01   5.901575e-03
  2.821648e+00    4.721513e-01   5.933058e-03
  2.823858e+00    4.744992e-01   5.953160e-03
  2.826068e+00    4.797815e-01   5.991186e-03
  2.828279e+00    4.729607e-01   5.952525e-03
  2.830489e+00    4.729368e-01   5.955685e-03
  2.832700e+00    4.656535e-01   5.912209e-03
  2.834910e+00    4.576324e-01   5.863088e-03
  2.837121e+00    4.689849e-01   5.937074e-03
  2.839331e+00    4.772379e-01   5.990321e-03
  2.841542e+00    4.676123e-01   5.930621e-03
  2.843752e+00    4.761892e-01   5.985546e-03
  2.845963e+00    4.761069e-01   5.985424e-03
  2.848173e+00    4.766725e-01   5.989082e-03
  2.850383e+00    4.692949e-01   5.942847e-03
  2.852594e+00    4.605877e-01   5.887366e-03
  2.854804e+00    4.674938e-01   5.930837e-03
  2.857015e+00    4.630066e-01   5.901885e-03
  2.859225e+00    4.651890e-01   5.915518e-03
  2.861436e+00    4.690461e-01   5.939338e-03
  2.863646e+00    4.632933e-01   5.902844e-03
  2.865857e+00    4.561192e-01   5.857301e-03
  2.868067e+00    4.633412e-01   5.903702e-03
  2.870278e+00    4.599476e-01   5.881701e-03
  2.872488e+00    4.604388e-01   5.883675e-03
  2.874698e+00    4.620994e-01   5.893236e-03
  2.876909e+00    4.719928e-01   5.954648e-03
  2.879119e+00    4.673160e-01   5.923447e-03
  2.881330e+00    4.548821e-01   5.842657e-03
  2.883540e+00    4.606496e-01   5.878174e-03
  2.885751e+00    4.824834e-01   6.014205e-03
  2.887961e+00    4.583140e-01   5.859767e-03
  2.890172e+00    4.647496e-01   5.899136e-03
  2.892382e+00    4.658408e-01   5.904250e-03
  2.894593e+00    4.713093e-01   5.936975e-03
  2.896803e+00    4.562916e-01   5.839637e-03
  2.899014e+00    4.625915e-01   5.877906e-03
  2.901224e+00    4.474864e-01   5.779182e-03
  2.903434e+00    4.568993e-01   5.837697e-03
  2.905645e+00    4.688414e-01   5.911256e-03
  2.907855e+00    4.511980e-01   5.796889e-03
  2.910066e+00    4.630207e-01   5.870241e-03
  2.912276e+00    4.571731e-01   5.830959e-03
  2.914487e+00    4.523455e-01   5.797637e-03
  2.916697e+00    4.580393e-01   5.831793e-03
  2.918908e+00    4.614668e-01   5.851554e-03
  2.921118e+00    4.636869e-01   5.862916e-03
  2.923329e+00    4.704417e-01   5.903101e-03
  2.925539e+00    4.616504e-01   5.845427e-03
  2.927749e+00    4.498786e-01   5.768087e-03
  2.929960e+00    4.577656e-01   5.815668e-03
  2.932170e+00    4.571220e-01   5.809252e-03
  2.934381e+00    4.482944e-01   5.750468e-03
  2.936591e+00    4.430138e-01   5.713952e-03
  2.938802e+00    4.436798e-01   5.715570e-03
  2.941012e+00    4.503604e-01   5.756125e-03
  2.943223e+00    4.506736e-01   5.755451e-03
  2.945433e+00    4.619609e-01   5.823298e-03
  2.947644e+00    4.672529e-01   5.852386e-03
  2.949854e+00    4.555085e-01   5.774098e-03
  2.952064e+00    4.446976e-01   5.701000e-03
  2.954275e+00    4.485274e-01   5.721102e-03
  2.956485e+00    4.602874e-01   5.791402e-03
  2.958696e+00    4.594756e-01   5.781905e-03
  2.960906e+00    4.565374e-01   5.759201e-03
  2.963117e+00    4.505851e-01   5.717073e-03
  2.965327e+00    4.534748e-01   5.731470e-03
  2.967538e+00    4.566392e-01   5.748520e-03
  2.969748e+00    4.600218e-01   5.766929e-03
  2.971959e+00    4.588887e-01   5.756686e-03
  2.974169e+00    4.541350e-01   5.724192e-03
  2.976379e+00    4.636695e-01   5.781020e-03
  2.978590e+00    4.562353e-01   5.731358e-03
  2.980800e+00    4.706204e-01   5.818153e-03
  2.983011e+00    4.594578e-01   5.745932e-03
  2.985221e+00    4.551603e-01   5.715839e-03
  2.987432e+00    4.608721e-01   5.748454e-03
  2.989642e+00    4.603355e-01   5.742462e-03
  2.991853e+00    4.509094e-01   5.680108e-03
  2.994063e+00    4.483295e-01   5.660933e-03
  2.996274e+00    4.602059e-01   5.732213e-03
  2.998484e+00    4.562560e-01   5.704869e-03
  3.000694e+00    4.490745e-01   5.656354e-03
  3.002905e+00    4.469598e-01   5.640092e-03
  3.005115e+00    4.622275e-01   5.732605e-03
  3.007326e+00    4.659143e-01   5.752232e-03
  3.009536e+00    4.650536e-01   5.743627e-03
  3.011747e+00    4.534546e-01   5.668626e-03
  3.013957e+00    4.625859e-01   5.722195e-03
  3.016168e+00    4.573225e-01   5.686291e-03
  3.018378e+00    4.493207e-01   5.633283e-03
  3.020589e+00    4.424749e-01   5.587036e-03
  3.022799e+00    4.524051e-01   5.646208e-03
  3.025010e+00    4.593013e-01   5.685817e-03
  3.027220e+00    4.547159e-01   5.654254e-03
  3.029430e+00    4.621343e-01   5.696893e-03
  3.031641e+00    4.793242e-01   5.798662e-03
  3.033851e+00    4.614277e-01   5.685832e-03
  3.036062e+00    4.630220e-01   5.692815e-03
  3.038272e+00    4.521966e-01   5.622316e-03
  3.040483e+00    4.495517e-01   5.602608e-03
  3.042693e+00    4.579812e-01   5.651616e-03
  3.044904e+00    4.534675e-01   5.619664e-03
  3.047114e+00    4.534467e-01   5.614717e-03
  3.049325e+00    4.674621e-01   5.696339e-03
  3.051535e+00    4.715094e-01   5.716459e-03
  3.053745e+00    4.633393e-01   5.661918e-03
  3.055956e+00    4.454608e-01   5.547054e-03
  3.058166e+00    4.515066e-01   5.580289e-03
  3.060377e+00    4.559402e-01   5.602825e-03
  3.062587e+00    4.598952e-01   5.622403e-03
  3.064798e+00    4.472920e-01   5.540577e-03
  3.067008e+00    4.489117e-01   5.545869e-03
  3.069219e+00    4.502225e-01   5.549461e-03
  3.071429e+00    4.503649e-01   5.546813e-03
  3.073640e+00    4.578897e-01   5.589593e-03
  3.075850e+00    4.516030e-01   5.547514e-03
  3.078060e+00    4.578312e-01   5.582475e-03
  3.080271e+00    4.619821e-01   5.604215e-03
  3.082481e+00    4.625376e-01   5.604083e-03
  3.084692e+00    4.565226e-01   5.564116e-03
  3.086902e+00    4.573590e-01   5.565933e-03
  3.089113e+00    4.535074e-01   5.538854e-03
  3.091323e+00    4.509620e-01   5.519916e-03
  3.093534e+00    4.525312e-01   5.526108e-03
  3.095744e+00    4.463350e-01   5.484775e-03
  3.097955e+00    4.465598e-01   5.482620e-03
  3.100165e+00    4.473713e-01   5.484256e-03
  3.102375e+00    4.428244e-01   5.452915e-03
  3.104586e+00    4.397207e-01   5.430312e-03
  3.106796e+00    4.433472e-01   5.449136e-03
  3.109007e+00    4.535174e-01   5.508056e-03
  3.111217e+00    4.492316e-01   5.478249e-03
  3.113428e+00    4.480960e-01   5.467911e-03
  3.115638e+00    4.509981e-01   5.482322e-03
  3.117849e+00    4.485180e-01   5.463493e-03
  3.120059e+00    4.389833e-01   5.401686e-03
  3.122270e+00    4.518070e-01   5.476711e-03
  3.124480e+00    4.418988e-01   5.412661e-03
  3.126691e+00    4.464883e-01   5.437121e-03
  3.128901e+00    4.554122e-01   5.488034e-03
  3.131111e+00    4.472846e-01   5.434992e-03
  3.133322e+00    4.363843e-01   5.364949e-03
  3.135532e+00    4.467254e-01   5.424697e-03
  3.137743e+00    4.477377e-01   5.427387e-03
  3.139953e+00    4.397746e-01   5.375220e-03
  3.142164e+00    4.433984e-01   5.409339e-03
  3.144374e+00    4.463596e-01   5.455913e-03
  3.146585e+00    4.536472e-01   5.515006e-03
  3.148795e+00    4.547685e-01   5.532765e-03
  3.151006e+00    4.372919e-01   5.433915e-03
  3.153216e+00    4.396573e-01   5.455688e-03
  3.155426e+00    4.424433e-01   5.479277e-03
  3.157637e+00    4.414626e-01   5.478736e-03
  3.159847e+00    4.372382e-01   5.457311e-03
  3.162058e+00    4.395535e-01   5.476166e-03
  3.164268e+00    4.424924e-01   5.498513e-03
  3.166479e+00    4.519973e-01   5.560958e-03
  3.168689e+00    4.412081e-01   5.497579e-03
  3.170900e+00    4.272750e-01   5.413197e-03
  3.173110e+00    4.336446e-01   5.456234e-03
  3.175321e+00    4.520771e-01   5.573532e-03
  3.177531e+00    4.413977e-01   5.510059e-03
  3.179741e+00    4.453437e-01   5.536729e-03
  3.181952e+00    4.505181e-01   5.570934e-03
  3.184162e+00    4.480201e-01   5.557686e-03
  3.186373e+00    4.387458e-01   5.501475e-03
  3.188583e+00    4.584347e-01   5.625375e-03
  3.190794e+00    4.508263e-01   5.580295e-03
  3.193004e+00    4.439553e-01   5.538860e-03
  3.195215e+00    4.530773e-01   5.596989e-03
  3.197425e+00    4.490736e-01   5.573473e-03
  3.199636e+00    4.326491e-01   5.469799e-03
  3.201846e+00    4.420500e-01   5.528312e-03
  3.204056e+00    4.370311e-01   5.497731e-03
  3.206267e+00    4.333000e-01   5.475039e-03
  3.208477e+00    4.393914e-01   5.514340e-03
  3.210688e+00    4.319877e-01   5.468530e-03
  3.212898e+00    4.272283e-01   5.438872e-03
  3.215109e+00    4.271345e-01   5.439048e-03
  3.217319e+00    4.374242e-01   5.504793e-03
  3.219530e+00    4.466039e-01   5.562645e-03
  3.221740e+00    4.472034e-01   5.566985e-03
  3.223951e+00    4.223726e-01   5.410681e-03
  3.226161e+00    4.220111e-01   5.408541e-03
  3.228372e+00    4.323175e-01   5.474705e-03
  3.230582e+00    4.320033e-01   5.472883e-03
  3.232792e+00    4.317768e-01   5.471668e-03
  3.235003e+00    4.224908e-01   5.412736e-03
  3.237213e+00    4.339412e-01   5.485700e-03
  3.239424e+00    4.389632e-01   5.517357e-03
  3.241634e+00    4.238067e-01   5.421418e-03
  3.243845e+00    4.197660e-01   5.395526e-03
  3.246055e+00    4.375851e-01   5.508620e-03
  3.248266e+00    4.233139e-01   5.418242e-03
  3.250476e+00    4.339638e-01   5.485677e-03
  3.252687e+00    4.239164e-01   5.421704e-03
  3.254897e+00    4.335289e-01   5.482717e-03
  3.257107e+00    4.218553e-01   5.408087e-03
  3.259318e+00    4.253659e-01   5.430307e-03
  3.261528e+00    4.167261e-01   5.374748e-03
  3.263739e+00    4.306505e-01   5.463223e-03
  3.265949e+00    4.331703e-01   5.479072e-03
  3.268160e+00    4.226097e-01   5.411468e-03
  3.270370e+00    4.156972e-01   5.366507e-03
  3.272581e+00    4.388681e-01   5.513767e-03
  3.274791e+00    4.209952e-01   5.399805e-03
  3.277002e+00    4.329699e-01   5.475470e-03
  3.279212e+00    4.274254e-01   5.439959e-03
  3.281422e+00    4.286467e-01   5.447094e-03
  3.283633e+00    4.575455e-01   5.627042e-03
  3.285843e+00    4.483096e-01   5.569623e-03
  3.288054e+00    4.298317e-01   5.452682e-03
  3.290264e+00    4.239281e-01   5.414785e-03
  3.292475e+00    4.408541e-01   5.520970e-03
  3.294685e+00    4.370975e-01   5.496773e-03
  3.296896e+00    4.310864e-01   5.458067e-03
  3.299106e+00    4.346239e-01   5.479849e-03
  3.301317e+00    4.351355e-01   5.482048e-03
  3.303527e+00    4.232271e-01   5.406048e-03
  3.305737e+00    4.307493e-01   5.452799e-03
  3.307948e+00    4.373482e-01   5.493737e-03
  3.310158e+00    4.339499e-01   5.471507e-03
  3.312369e+00    4.385137e-01   5.499285e-03
  3.314579e+00    4.272203e-01   5.427111e-03
  3.316790e+00    4.183827e-01   5.369981e-03
  3.319000e+00    4.127818e-01   5.332736e-03
  3.321211e+00    4.270474e-01   5.423479e-03
  3.323421e+00    4.244849e-01   5.405989e-03
  3.325632e+00    4.296688e-01   5.438010e-03
  3.327842e+00    4.181407e-01   5.363646e-03
  3.330052e+00    4.182292e-01   5.363137e-03
  3.332263e+00    4.249975e-01   5.405354e-03
  3.334473e+00    4.202282e-01   5.374033e-03
  3.336684e+00    4.370980e-01   5.479516e-03
  3.338894e+00    4.291478e-01   5.428642e-03
  3.341105e+00    4.337838e-01   5.456654e-03
  3.343315e+00    4.325517e-01   5.447731e-03
  3.345526e+00    4.302112e-01   5.432080e-03
  3.347736e+00    4.192490e-01   5.361012e-03
  3.349947e+00    4.125529e-01   5.317111e-03
  3.352157e+00    4.093627e-01   5.295330e-03
  3.354368e+00    4.264615e-01   5.403497e-03
  3.356578e+00    4.271759e-01   5.406993e-03
  3.358788e+00    4.198212e-01   5.358921e-03
  3.360999e+00    4.077511e-01   5.280094e-03
  3.363209e+00    4.192627e-01   5.353068e-03
  3.365420e+00    4.274435e-01   5.403521e-03
  3.367630e+00    4.163908e-01   5.332191e-03
  3.369841e+00    4.178812e-01   5.340303e-03
  3.372051e+00    4.112400e-01   5.295729e-03
  3.374262e+00    4.278610e-01   5.399191e-03
  3.376472e+00    4.347295e-01   5.439893e-03
  3.378683e+00    4.156029e-01   5.316372e-03
  3.380893e+00    4.130353e-01   5.297571e-03
  3.383103e+00    4.138727e-01   5.300265e-03
  3.385314e+00    4.177727e-01   5.322934e-03
  3.387524e+00    4.184540e-01   5.324522e-03
  3.389735e+00    4.174940e-01   5.315774e-03
  3.391945e+00    4.241943e-01   5.354539e-03
  3.394156e+00    4.110055e-01   5.266429e-03
  3.396366e+00    4.258710e-01   5.357343e-03
  3.398577e+00    4.166468e-01   5.295966e-03
  3.400787e+00    4.162372e-01   5.305336e-03
  3.402998e+00    4.196703e-01   5.365682e-03
  3.405208e+00    3.947673e-01   5.224452e-03
  3.407418e+00    3.997303e-01   5.272925e-03
  3.409629e+00    4.092332e-01   5.349344e-03
  3.411839e+00    4.100571e-01   5.366656e-03
  3.414050e+00    3.984985e-01   5.301525e-03
  3.416260e+00    3.905201e-01   5.257730e-03
  3.418471e+00    3.888550e-01   5.255901e-03
  3.420681e+00    3.931285e-01   5.293188e-03
  3.422892e+00    3.874612e-01   5.262887e-03
  3.425102e+00    3.742222e-01   5.179834e-03
  3.427313e+00    3.858384e-01   5.266764e-03
  3.429523e+00    3.926164e-01   5.319952e-03
  3.431733e+00    3.822142e-01   5.255652e-03
  3.433944e+00    3.748649e-01   5.211256e-03
  3.436154e+00    3.828759e-01   5.272870e-03
  3.438365e+00    3.930793e-01   5.348713e-03
  3.440575e+00    3.911870e-01   5.341826e-03
  3.442786e+00    3.829818e-01   5.291159e-03
  3.444996e+00    3.823518e-01   5.292317e-03
  3.447207e+00    3.596011e-01   5.137657e-03
  3.449417e+00    3.678235e-01   5.236656e-03
  3.451628e+00    3.644592e-01   5.241912e-03
  3.453838e+00    3.598950e-01   5.229949e-03
  3.456049e+00    3.558885e-01   5.224280e-03
  3.458259e+00    3.612573e-01   5.285290e-03
  3.460469e+00    3.688533e-01   5.360457e-03
  3.462680e+00    3.629295e-01   5.336182e-03
  3.464890e+00    3.717510e-01   5.418600e-03
  3.467101e+00    3.631174e-01   5.372650e-03
  3.469311e+00    3.811941e-01   5.521543e-03
  3.471522e+00    3.929137e-01   5.622573e-03
  3.473732e+00    3.915564e-01   5.629076e-03
  3.475943e+00    4.011351e-01   5.713578e-03
  3.478153e+00    4.033243e-01   5.744917e-03
  3.480364e+00    4.149527e-01   5.842670e-03
  3.482574e+00    4.105482e-01   5.827051e-03
  3.484784e+00    4.283999e-01   5.967609e-03
  3.486995e+00    4.247126e-01   5.957112e-03
  3.489205e+00    4.213276e-01   5.947954e-03
  3.491416e+00    4.433119e-01   6.116361e-03
  3.493626e+00    4.473208e-01   6.158758e-03
  3.495837e+00    4.497332e-01   6.190242e-03
  3.498047e+00    4.605815e-01   6.279199e-03
  3.500258e+00    4.759533e-01   6.398104e-03
  3.502468e+00    4.673396e-01   6.354571e-03
  3.504679e+00    4.679757e-01   6.373483e-03
  3.506889e+00    4.756129e-01   6.439880e-03
  3.509099e+00    4.782689e-01   6.472292e-03
  3.511310e+00    4.821576e-01   6.513124e-03
  3.513520e+00    4.709881e-01   6.451477e-03
  3.515731e+00    4.816754e-01   6.538580e-03
  3.517941e+00    4.912932e-01   6.617900e-03
  3.520152e+00    5.174394e-01   6.806356e-03
  3.522362e+00    5.047815e-01   6.737180e-03
  3.524573e+00    5.016113e-01   6.730177e-03
  3.526783e+00    5.112757e-01   6.808050e-03
  3.528994e+00    5.146268e-01   6.842558e-03
  3.531204e+00    5.160007e-01   6.864058e-03
  3.533414e+00    5.354063e-01   7.004153e-03
  3.535625e+00    5.399430e-01   7.046246e-03
  3.537835e+00    5.509304e-01   7.129914e-03
  3.540046e+00    5.628132e-01   7.215558e-03
  3.542256e+00    5.564871e-01   7.182579e-03
  3.544467e+00    5.445433e-01   7.112760e-03
  3.546677e+00    5.421174e-01   7.104501e-03
  3.548888e+00    5.289351e-01   7.025060e-03
  3.551098e+00    5.464260e-01   7.147611e-03
  3.553309e+00    5.485015e-01   7.169428e-03
  3.555519e+00    5.449855e-01   7.157822e-03
  3.557729e+00    5.313789e-01   7.079574e-03
  3.559940e+00    5.306897e-01   7.086469e-03
  3.562150e+00    5.355208e-01   7.130336e-03
  3.564361e+00    5.469843e-01   7.219708e-03
  3.566571e+00    5.451770e-01   7.221746e-03
  3.568782e+00    5.365178e-01   7.178289e-03
  3.570992e+00    5.342770e-01   7.176993e-03
  3.573203e+00    5.378600e-01   7.215211e-03
  3.575413e+00    5.115967e-01   7.050305e-03
  3.577624e+00    5.173857e-01   7.103913e-03
  3.579834e+00    5.310303e-01   7.210819e-03
  3.582045e+00    5.495674e-01   7.349799e-03
  3.584255e+00    5.356897e-01   7.270500e-03
  3.586465e+00    5.196066e-01   7.174193e-03
  3.588676e+00    5.465999e-01   7.372548e-03
  3.590886e+00    5.309584e-01   7.279920e-03
  3.593097e+00    5.411661e-01   7.364140e-03
  3.595307e+00    5.529326e-01   7.457909e-03
  3.597518e+00    5.458287e-01   7.424235e-03
  3.599728e+00    5.337417e-01   7.355625e-03
  3.601939e+00    5.420892e-01   7.427081e-03
  3.604149e+00    5.281420e-01   7.345193e-03
  3.606360e+00    5.412793e-01   7.450228e-03
  3.608570e+00    5.499316e-01   7.523871e-03
  3.610780e+00    5.372579e-01   7.447782e-03
  3.612991e+00    5.423909e-01   7.493321e-03
  3.615201e+00    5.446590e-01   7.518885e-03
  3.617412e+00    5.391341e-01   7.487975e-03
  3.619622e+00    5.313430e-01   7.439585e-03
  3.621833e+00    5.346344e-01   7.469308e-03
  3.624043e+00    5.375149e-01   7.498931e-03
  3.626254e+00    5.138543e-01   7.341563e-03
  3.628464e+00    5.292016e-01   7.461280e-03
  3.630675e+00    5.563429e-01   7.664635e-03
  3.632885e+00    5.497492e-01   7.633782e-03
  3.635095e+00    5.324515e-01   7.527075e-03
  3.637306e+00    5.501522e-01   7.665768e-03
  3.639516e+00    5.373646e-01   7.590740e-03
  3.641727e+00    5.274979e-01   7.535221e-03
  3.643937e+00    5.250367e-01   7.532048e-03
  3.646148e+00    5.465184e-01   7.699377e-03
  3.648358e+00    5.413781e-01   7.678082e-03
  3.650569e+00    5.207632e-01   7.545016e-03
  3.652779e+00    5.376222e-01   7.681006e-03
  3.654990e+00    5.356382e-01   7.681783e-03
  3.657200e+00    5.295104e-01   7.652571e-03
  3.659410e+00    5.228645e-01   7.619194e-03
  3.661621e+00    5.538962e-01   7.857474e-03
  3.663831e+00    5.305851e-01   7.705454e-03
  3.666042e+00    5.348331e-01   7.751466e-03
  3.668252e+00    5.205962e-01   7.662666e-03
  3.670463e+00    5.123233e-01   7.616499e-03
  3.672673e+00    5.391768e-01   7.829068e-03
  3.674884e+00    5.404566e-01   7.853941e-03
  3.677094e+00    5.347695e-01   7.828065e-03
  3.679305e+00    5.433875e-01   7.906660e-03
  3.681515e+00    5.109411e-01   7.682290e-03
  3.683726e+00    5.190077e-01   7.758311e-03
  3.685936e+00    5.445677e-01   7.963019e-03
  3.688146e+00    5.339613e-01   7.900936e-03
  3.690357e+00    5.366541e-01   7.936937e-03
  3.692567e+00    5.326839e-01   7.923728e-03
  3.694778e+00    5.249081e-01   7.881695e-03
  3.696988e+00    5.071607e-01   7.762992e-03
  3.699199e+00    5.368568e-01   8.003470e-03
  3.701409e+00    5.130326e-01   7.840081e-03
  3.703620e+00    4.956060e-01   7.721572e-03
  3.705830e+00    5.166475e-01   7.900076e-03
  3.708041e+00    5.012193e-01   7.797451e-03
  3.710251e+00    5.195187e-01   7.955176e-03
  3.712461e+00    5.046215e-01   7.856737e-03
  3.714672e+00    5.130037e-01   7.938299e-03
  3.716882e+00    5.316893e-01   8.098471e-03
  3.719093e+00    5.211808e-01   8.035180e-03
  3.721303e+00    5.448101e-01   8.232681e-03
  3.723514e+00    5.276102e-01   8.119084e-03
  3.725724e+00    5.317044e-01   8.167920e-03
  3.727935e+00    5.278085e-01   8.155581e-03
  3.730145e+00    5.207434e-01   8.118168e-03
  3.732356e+00    5.180997e-01   8.115112e-03
  3.734566e+00    5.235916e-01   8.175706e-03
  3.736776e+00    5.035684e-01   8.035404e-03
  3.738987e+00    5.276535e-01   8.243285e-03
  3.741197e+00    5.109745e-01   8.129895e-03
  3.743408e+00    5.084481e-01   8.127806e-03
  3.745618e+00    5.206546e-01   8.243173e-03
  3.747829e+00    5.121340e-01   8.193589e-03
  3.750039e+00    5.262592e-01   8.324425e-03
  3.752250e+00    5.185814e-01   8.282099e-03
  3.754460e+00    5.093048e-01   8.226244e-03
  3.756671e+00    5.025743e-01   8.190362e-03
  3.758881e+00    5.104877e-01   8.273234e-03
  3.761091e+00    5.225280e-01   8.389666e-03
  3.763302e+00    4.864571e-01   8.113583e-03
  3.765512e+00    5.198690e-01   8.407042e-03
  3.767723e+00    5.300850e-01   8.509031e-03
  3.769933e+00    5.218256e-01   8.462184e-03
  3.772144e+00    4.936427e-01   8.249751e-03
  3.774354e+00    5.296392e-01   8.565564e-03
  3.776565e+00    4.972439e-01   8.319231e-03
  3.778775e+00    4.947333e-01   8.317880e-03
  3.780986e+00    5.211495e-01   8.557728e-03
  3.783196e+00    5.310193e-01   8.659237e-03
  3.785407e+00    5.153103e-01   8.550801e-03
  3.787617e+00    5.215794e-01   8.623806e-03
  3.789827e+00    5.091020e-01   8.540754e-03
  3.792038e+00    5.085634e-01   8.557147e-03
  3.794248e+00    5.176011e-01   8.654410e-03
  3.796459e+00    4.715585e-01   8.281244e-03
  3.798669e+00    4.793984e-01   8.370608e-03
  3.800880e+00    4.915653e-01   8.497486e-03
  3.803090e+00    5.035979e-01   8.622743e-03
  3.805301e+00    5.017123e-01   8.628679e-03
  3.807511e+00    5.135039e-01   8.751854e-03
  3.809722e+00    4.991524e-01   8.650918e-03
  3.811932e+00    5.092479e-01   8.760294e-03
  3.814142e+00    5.012733e-01   8.714454e-03
  3.816353e+00    5.111294e-01   8.822800e-03
  3.818563e+00    4.980199e-01   8.731962e-03
  3.820774e+00    4.978367e-01   8.753563e-03
  3.822984e+00    5.052185e-01   8.841770e-03
  3.825195e+00    4.785125e-01   8.628150e-03
  3.827405e+00    5.096242e-01   8.928364e-03
  3.829616e+00    5.093418e-01   8.950242e-03
  3.831826e+00    5.205457e-01   9.072920e-03
  3.834037e+00    4.981853e-01   8.900389e-03
  3.836247e+00    4.958614e-01   8.904327e-03
  3.838457e+00    4.650289e-01   8.647247e-03
  3.840668e+00    5.038291e-01   9.026110e-03
  3.842878e+00    5.033519e-01   9.047600e-03
  3.845089e+00    4.701396e-01   8.768901e-03
  3.847299e+00    4.851852e-01   8.933615e-03
  3.849510e+00    4.962118e-01   9.060472e-03
  3.851720e+00    4.763827e-01   8.898576e-03
  3.853931e+00    5.079353e-01   9.207790e-03
  3.856141e+00    5.017845e-01   9.171051e-03
  3.858352e+00    4.640535e-01   8.838162e-03
  3.860562e+00    4.706752e-01   8.919786e-03
  3.862772e+00    4.750918e-01   8.980749e-03
  3.864983e+00    4.893823e-01   9.134454e-03
  3.867193e+00    4.829518e-01   9.093726e-03
  3.869404e+00    5.108892e-01   9.373293e-03
  3.871614e+00    4.705751e-01   9.015335e-03
  3.873825e+00    4.956349e-01   9.272656e-03
  3.876035e+00    4.773720e-01   9.120472e-03
  3.878246e+00    5.012860e-01   9.372086e-03
  3.880456e+00    5.200323e-01   9.575532e-03
  3.882667e+00    5.167568e-01   9.575442e-03
  3.884877e+00    4.753441e-01   9.212956e-03
  3.887087e+00    4.929608e-01   9.412102e-03
  3.889298e+00    5.003484e-01   9.513023e-03
  3.891508e+00    4.754353e-01   9.303137e-03
  3.893719e+00    5.131710e-01   9.697057e-03
  3.895929e+00    4.779035e-01   9.388960e-03
  3.898140e+00    4.848079e-01   9.487982e-03
  3.900350e+00    4.930665e-01   9.600678e-03
  3.902561e+00    5.031701e-01   9.731322e-03
  3.904771e+00    4.947040e-01   9.682136e-03
  3.906982e+00    5.082439e-01   9.847532e-03
  3.909192e+00    4.970166e-01   9.771884e-03
  3.911403e+00    5.120711e-01   9.953515e-03
  3.913613e+00    5.135877e-01   1.000348e-02
  3.915823e+00    5.001611e-01   9.906979e-03
  3.918034e+00    5.161864e-01   1.010074e-02
  3.920244e+00    5.010087e-01   9.987314e-03
  3.922455e+00    5.297511e-01   1.030739e-02
  3.924665e+00    4.927546e-01   9.977635e-03
  3.926876e+00    5.282896e-01   1.036967e-02
  3.929086e+00    4.923932e-01   1.004872e-02
  3.931297e+00    4.710346e-01   9.862627e-03
  3.933507e+00    4.754727e-01   9.937505e-03
  3.935718e+00    4.838711e-01   1.005356e-02
  3.937928e+00    4.868059e-01   1.011338e-02
  3.940138e+00    5.093318e-01   1.037468e-02
  3.942349e+00    5.082962e-01   1.039477e-02
  3.944559e+00    4.870807e-01   1.020544e-02
  3.946770e+00    5.140662e-01   1.051533e-02
  3.948980e+00    5.150739e-01   1.055726e-02
  3.951191e+00    5.055472e-01   1.049064e-02
  3.953401e+00    5.001859e-01   1.046666e-02
  3.955612e+00    4.706698e-01   1.018428e-02
  3.957822e+00    5.026389e-01   1.055667e-02
  3.960033e+00    4.915746e-01   1.047263e-02
  3.962243e+00    4.977700e-01   1.057171e-02
  3.964453e+00    5.004497e-01   1.063363e-02
  3.966664e+00    5.173580e-01   1.084636e-02
  3.968874e+00    5.331792e-01   1.104064e-02
  3.971085e+00    5.254451e-01   1.098314e-02
  3.973295e+00    5.172949e-01   1.091974e-02
  3.975506e+00    5.390972e-01   1.117021e-02
  3.977716e+00    5.596965e-01   1.140535e-02
  3.979927e+00    5.204161e-01   1.102076e-02
  3.982137e+00    4.981145e-01   1.080459e-02
  3.984348e+00    4.945197e-01   1.078827e-02
  3.986558e+00    4.782717e-01   1.063178e-02
  3.988768e+00    4.367076e-01   1.018111e-02
  3.990979e+00    4.776932e-01   1.067073e-02
  3.993189e+00    4.631791e-01   1.052986e-02
  3.995400e+00    4.860497e-01   1.081028e-02
  3.997610e+00    4.835495e-01   1.081224e-02
  3.999821e+00    4.883081e-01   1.090294e-02
  4.002031e+00    4.849798e-01   1.090415e-02
  4.004242e+00    4.825720e-01   1.091548e-02
  4.006452e+00    4.787205e-01   1.091092e-02
  4.008663e+00    5.135589e-01   1.134208e-02
  4.010873e+00    4.760029e-01   1.095921e-02
  4.013084e+00    4.708714e-01   1.094031e-02
  4.015294e+00    4.761985e-01   1.104263e-02
  4.017504e+00    4.870891e-01   1.121019e-02
  4.019715e+00    4.733230e-01   1.109261e-02
  4.021925e+00    4.874690e-01   1.130033e-02
  4.024136e+00    4.839221e-01   1.130285e-02
  4.026346e+00    4.865144e-01   1.137721e-02
  4.028557e+00    5.090848e-01   1.168359e-02
  4.030767e+00    5.399643e-01   1.208114e-02
  4.032978e+00    4.780687e-01   1.141358e-02
  4.035188e+00    5.192710e-01   1.194303e-02
  4.037399e+00    4.858695e-01   1.160031e-02
  4.039609e+00    4.836762e-01   1.162185e-02
  4.041819e+00    5.137082e-01   1.202740e-02
  4.044030e+00    4.846984e-01   1.173292e-02
  4.046240e+00    4.929275e-01   1.188250e-02
  4.048451e+00    4.706628e-01   1.166129e-02
  4.050661e+00    4.874877e-01   1.191954e-02
  4.052872e+00    4.737208e-01   1.180216e-02
  4.055082e+00    4.973527e-01   1.214749e-02
  4.057293e+00    4.603429e-01   1.173926e-02
  4.059503e+00    4.733474e-01   1.195789e-02
  4.061714e+00    5.212122e-01   1.260679e-02
  4.063924e+00    4.974535e-01   1.237367e-02
  4.066134e+00    4.976265e-01   1.243420e-02
  4.068345e+00    4.841658e-01   1.232399e-02
  4.070555e+00    5.100867e-01   1.271054e-02
  4.072766e+00    4.754919e-01   1.233230e-02
  4.074976e+00    5.220160e-01   1.298613e-02
  4.077187e+00    4.505868e-01   1.212499e-02
  4.079397e+00    4.923206e-01   1.273868e-02
  4.081608e+00    4.709816e-01   1.252444e-02
  4.083818e+00    5.135903e-01   1.314659e-02
  4.086029e+00    4.886793e-01   1.289153e-02
  4.088239e+00    4.907609e-01   1.298855e-02
  4.090449e+00    4.924042e-01   1.308069e-02
  4.092660e+00    5.067936e-01   1.334353e-02
  4.094870e+00    4.910441e-01   1.320765e-02
  4.097081e+00    4.689585e-01   1.297789e-02
  4.099291e+00    4.882763e-01   1.329723e-02
  4.101502e+00    4.710107e-01   1.310888e-02
  4.103712e+00    4.291481e-01   1.255943e-02
  4.105923e+00    4.625632e-01   1.308941e-02
  4.108133e+00    4.354708e-01   1.274948e-02
  4.110344e+00    4.467190e-01   1.296234e-02
  4.112554e+00    4.877262e-01   1.359798e-02
  4.114764e+00    4.458840e-01   1.305366e-02
  4.116975e+00    4.724757e-01   1.349019e-02
  4.119185e+00    4.631057e-01   1.341025e-02
  4.121396e+00    4.479983e-01   1.324407e-02
  4.123606e+00    4.652276e-01   1.355145e-02
  4.125817e+00    5.037735e-01   1.416108e-02
  4.128027e+00    4.871629e-01   1.398430e-02
  4.130238e+00    4.621044e-01   1.367825e-02
  4.132448e+00    4.609605e-01   1.372054e-02
  4.134659e+00    4.888605e-01   1.419039e-02
  4.136869e+00    5.231153e-01   1.474470e-02
  4.139080e+00    4.741091e-01   1.410038e-02
  4.141290e+00    4.992653e-01   1.453365e-02
  4.143500e+00    4.570241e-01   1.396949e-02
  4.145711e+00    4.794425e-01   1.437460e-02
  4.147921e+00    5.131516e-01   1.493982e-02
  4.150132e+00    5.090906e-01   1.495146e-02
  4.152342e+00    4.796737e-01   1.458345e-02
  4.154553e+00    4.626805e-01   1.439093e-02
  4.156763e+00    4.897558e-01   1.487907e-02
  4.158974e+00    5.160478e-01   1.535006e-02
  4.161184e+00    5.179482e-01   1.545481e-02
  4.163395e+00    5.106087e-01   1.542314e-02
  4.165605e+00    5.043267e-01   1.540756e-02
  4.167815e+00    5.523898e-01   1.620944e-02
  4.170026e+00    4.477183e-01   1.466995e-02
  4.172236e+00    4.631431e-01   1.500113e-02
  4.174447e+00    4.807171e-01   1.536604e-02
  4.176657e+00    4.565110e-01   1.505628e-02
  4.178868e+00    4.338731e-01   1.476121e-02
  4.181078e+00    4.586404e-01   1.526217e-02
  4.183289e+00    4.958354e-01   1.595980e-02
  4.185499e+00    4.738421e-01   1.569388e-02
  4.187710e+00    5.105241e-01   1.638555e-02
  4.189920e+00    4.502864e-01   1.548106e-02
  4.192130e+00    4.551660e-01   1.565990e-02
  4.194341e+00    5.240401e-01   1.690585e-02
  4.196551e+00    5.178674e-01   1.691270e-02
  4.198762e+00    5.194465e-01   1.704582e-02
  4.200972e+00    5.319715e-01   1.736183e-02
  4.203183e+00    3.928157e-01   1.501773e-02
  4.205393e+00    4.135309e-01   1.551088e-02
  4.207604e+00    4.528618e-01   1.634259e-02
  4.209814e+00    5.226712e-01   1.767725e-02
  4.212025e+00    5.045953e-01   1.749254e-02
  4.214235e+00    4.029575e-01   1.574230e-02
  4.216445e+00    4.741377e-01   1.719984e-02
  4.218656e+00    4.455169e-01   1.679744e-02
  4.220866e+00    4.775357e-01   1.751945e-02
  4.223077e+00    4.997126e-01   1.805959e-02
  4.225287e+00    4.772143e-01   1.778692e-02
  4.227498e+00    5.050036e-01   1.844125e-02
  4.229708e+00    4.951404e-01   1.840859e-02
  4.231919e+00    4.834074e-01   1.833969e-02
  4.234129e+00    4.365815e-01   1.757515e-02
  4.236340e+00    4.822673e-01   1.862954e-02
  4.238550e+00    4.574309e-01   1.830406e-02
  4.240761e+00    4.748699e-01   1.881414e-02
  4.242971e+00    4.774681e-01   1.903853e-02
  4.245181e+00    4.625467e-01   1.891451e-02
  4.247392e+00    4.545631e-01   1.892606e-02
  4.249602e+00    4.515710e-01   1.905092e-02
  4.251813e+00    4.583941e-01   1.938359e-02
  4.254023e+00    4.144200e-01   1.861622e-02
  4.256234e+00    4.319875e-01   1.920920e-02
  4.258444e+00    5.142082e-01   2.117735e-02
  4.260655e+00    4.676041e-01   2.041744e-02
  4.262865e+00    4.310292e-01   1.982433e-02
  4.265076e+00    4.354022e-01   2.015148e-02
  4.267286e+00    4.421084e-01   2.054698e-02
  4.269496e+00    4.494699e-01   2.097007e-02
  4.271707e+00    4.297422e-01   2.075798e-02
  4.273917e+00    3.692012e-01   1.948908e-02
  4.276128e+00    4.094389e-01   2.079659e-02
  4.278338e+00    5.511299e-01   2.444970e-02
  4.280549e+00    5.100284e-01   2.385806e-02
  4.282759e+00    4.705047e-01   2.324441e-02
  4.284970e+00    4.670580e-01   2.350178e-02
  4.287180e+00    5.001999e-01   2.461275e-02
  4.289391e+00    4.300447e-01   2.299304e-02
  4.291601e+00    4.073432e-01   2.255652e-02
  4.293811e+00    4.247277e-01   2.321257e-02
  4.296022e+00    4.904748e-01   2.514537e-02
  4.298232e+00    4.612347e-01   2.458809e-02
  4.300443e+00    5.363585e-01   2.673450e-02
  4.302653e+00    4.563303e-01   2.487251e-02
  4.304864e+00    4.888693e-01   2.596753e-02
  4.307074e+00    4.174388e-01   2.421120e-02
  4.309285e+00    4.974554e-01   2.666952e-02
  4.311495e+00    5.545905e-01   2.842292e-02
  4.313706e+00    5.053944e-01   2.738868e-02
  4.315916e+00    4.401075e-01   2.580897e-02
  4.318126e+00    5.109325e-01   2.808438e-02
  4.320337e+00    4.496913e-01   2.661401e-02
  4.322547e+00    4.630969e-01   2.729380e-02
  4.324758e+00    5.131294e-01   2.902946e-02
  4.326968e+00    4.577537e-01   2.772611e-02
  4.329179e+00    5.037674e-01   2.940820e-02
  4.331389e+00    5.139970e-01   3.004692e-02
  4.333600e+00    4.951753e-01   2.984345e-02
  4.335810e+00    4.917965e-01   3.009578e-02
  4.338021e+00    5.612969e-01   3.256333e-02
  4.340231e+00    4.707360e-01   3.019557e-02
  4.342442e+00    4.326705e-01   2.933765e-02
  4.344652e+00    3.899264e-01   2.822938e-02
  4.346862e+00    4.132278e-01   2.946573e-02
  4.349073e+00    4.983369e-01   3.283045e-02
  4.351283e+00    4.365667e-01   3.118742e-02
  4.353494e+00    4.632114e-01   3.262046e-02
  4.355704e+00    4.178141e-01   3.147991e-02
  4.357915e+00    5.285914e-01   3.599816e-02
  4.360125e+00    5.196826e-01   3.630224e-02
  4.362336e+00    4.463969e-01   3.425971e-02
  4.364546e+00    3.853504e-01   3.240910e-02
  4.366757e+00    4.570606e-01   3.599825e-02
  4.368967e+00    5.021216e-01   3.848437e-02
  4.371177e+00    4.721236e-01   3.810987e-02
  4.373388e+00    5.241851e-01   4.105357e-02
  4.375598e+00    5.940080e-01   4.470133e-02
  4.377809e+00    3.089275e-01   3.305034e-02
  4.380019e+00    5.942003e-01   4.699232e-02
  4.382230e+00    2.517351e-01   3.143892e-02
  4.384440e+00    4.413852e-01   4.283002e-02
  4.386651e+00    4.626866e-01   4.520256e-02
  4.388861e+00    5.208734e-01   4.956878e-02
  4.391072e+00    5.159430e-01   5.106709e-02
  4.393282e+00    5.706887e-01   5.578788e-02
  4.395492e+00    3.550047e-01   4.582331e-02
  4.397703e+00    5.256976e-01   5.831655e-02
  4.399913e+00    3.232445e-01   4.804656e-02
  4.402124e+00    4.011720e-01   5.654998e-02
  4.404334e+00    3.973195e-01   5.983207e-02
  4.406545e+00    2.365493e-01   4.959290e-02
  4.408755e+00    4.765604e-01   7.635450e-02
  4.410966e+00    3.713763e-01   7.458748e-02
  4.413176e+00    5.003619e-01   9.801807e-02
  4.415387e+00   -5.858935e-01            nan
  4.417597e+00   -1.904158e+00            nan
  4.419807e+00    2.807437e-01   1.902519e-01
