# == pyFAI calibration ==
# Distance Sample to Detector: 0.216 m
# PONI: 1.166e-01, 1.308e-01 m
# Rotations: 0.000000 0.000000 0.000000 rad
# 
# == Fit2d calibration ==
# Distance Sample-beamCenter: 216.000 mm
# Center: x=1744.293, y=1555.000 pix
# Tilt: 0.000 deg  TiltPlanRot: 0.000 deg
# 
# Detector Eiger 9M	 PixelSize= 7.500e-05, 7.500e-05 m
#    Detector has a mask: True 
#    Detector has a dark current: False 
#    detector has a flat field: False 
# 
# Wavelength: 9.8e-11 m
# Mask applied: from detector
# Dark current applied: False
# Flat field applied: False
# Polarization factor: None
# Normalization factor: 1.0
# 
# Headers of the input frame:
# {
# "_array_data.header_convention": "SLS_1.0",
# "_array_data.header_contents": "# Detector: Dectris Eiger 9M, S/N E-18-0102\r\n# Pixel_size 75e-6 m x 75e-6 m\r\n# Silicon sensor, thickness 0.000450 m\r\n# Exposure_time 0.024997 s\r\n# Exposure_period 0.025000 s\r\n# Count_cutoff 62318 counts\r\n# Wavelength 0.980106 A\r\n# Detector_distance 0.215992 m\r\n# Beam_xy (1555, 1744) pixels\r\n# Start_angle 0.000000 deg.\r\n# Angle_increment 0.000000 deg.",
# "Content-Type": "application/octet-stream;",
# "conversions": "x-CBF_BYTE_OFFSET",
# "Content-Transfer-Encoding": "BINARY",
# "X-Binary-Size": "10166618",
# "X-Binary-ID": "1",
# "X-Binary-Element-Type": "signed 32-bit integer",
# "X-Binary-Element-Byte-Order": "LITTLE_ENDIAN",
# "Content-MD5": "NUrhglpMcxOdhQOwHKe3RA==",
# "X-Binary-Number-of-Elements": "10166590",
# "X-Binary-Size-Fastest-Dimension": "3110",
# "X-Binary-Size-Second-Dimension": "3269",
# "X-Binary-Size-Padding": "4095"
# }
# --> H:/Proxima2a_2019-04-05/RAW_DATA/C5_gel17_position5/C5_mesh_1_data.cbf/C5_mesh_1_data.cbf000102.dat
#        q_A^-1              I           sigma 
  1.105228e-03    9.515287e-01   5.278347e-01
  3.315685e-03    1.015672e+00   3.315295e-01
  5.526141e-03    1.111978e+00   2.682379e-01
  7.736597e-03    1.278895e+00   2.430176e-01
  9.947054e-03    1.238144e+00   2.107959e-01
  1.215751e-02    1.238945e+00   1.906753e-01
  1.436797e-02    1.434649e+00   1.887333e-01
  1.657842e-02    1.405497e+00   1.738839e-01
  1.878888e-02    1.442214e+00   1.654544e-01
  2.099934e-02    1.508855e+00   1.601127e-01
  2.320979e-02    1.590124e+00   1.563322e-01
  2.542025e-02    1.539491e+00   1.469935e-01
  2.763070e-02    1.447745e+00   1.367214e-01
  2.984116e-02    1.376220e+00   1.282686e-01
  3.205162e-02    1.358805e+00   1.229886e-01
  3.426207e-02    1.460291e+00   1.233089e-01
  3.647253e-02    1.453729e+00   1.192426e-01
  3.868299e-02    1.452960e+00   1.157637e-01
  4.089344e-02    1.508882e+00   1.147383e-01
  4.310390e-02    1.429548e+00   1.087735e-01
  4.531436e-02    1.492490e+00   1.083981e-01
  4.752481e-02    1.283841e+00   9.816905e-02
  4.973527e-02    1.426993e+00   1.011726e-01
  5.194572e-02    1.389978e+00   9.770277e-02
  5.415618e-02    1.414473e+00   9.652419e-02
  5.636664e-02    1.314423e+00   9.120797e-02
  5.857709e-02    1.337373e+00   9.024867e-02
  6.078755e-02    1.452302e+00   9.231786e-02
  6.299801e-02    1.443562e+00   9.040952e-02
  6.520846e-02    1.475369e+00   8.983818e-02
  6.741892e-02    1.546461e+00   9.045225e-02
  6.962938e-02    1.480304e+00   8.708470e-02
  7.183983e-02    1.509776e+00   8.658212e-02
  7.405029e-02    1.505493e+00   8.515707e-02
  7.626074e-02    1.495939e+00   8.364639e-02
  7.847120e-02    1.506874e+00   8.275849e-02
  8.068166e-02    1.485317e+00   8.103038e-02
  8.289211e-02    1.516757e+00   8.078386e-02
  8.510257e-02    1.526697e+00   7.998819e-02
  8.731303e-02    1.407354e+00   7.581699e-02
  8.952348e-02    1.421530e+00   7.525331e-02
  9.173394e-02    1.453537e+00   7.517040e-02
  9.394439e-02    1.439986e+00   7.393132e-02
  9.615485e-02    1.519555e+00   7.506680e-02
  9.836531e-02    1.512248e+00   7.403789e-02
  1.005758e-01    1.416930e+00   7.087507e-02
  1.027862e-01    1.508285e+00   7.233184e-02
  1.049967e-01    1.541261e+00   7.234326e-02
  1.072071e-01    1.559550e+00   7.201624e-02
  1.094176e-01    1.586672e+00   7.190118e-02
  1.116280e-01    1.585726e+00   7.116294e-02
  1.138385e-01    1.508733e+00   6.873524e-02
  1.160490e-01    1.477738e+00   6.737375e-02
  1.182594e-01    1.529201e+00   6.789183e-02
  1.204699e-01    1.551452e+00   6.775321e-02
  1.226803e-01    1.538525e+00   6.685695e-02
  1.248908e-01    1.602913e+00   6.763423e-02
  1.271012e-01    1.577509e+00   6.650881e-02
  1.293117e-01    1.640593e+00   6.724256e-02
  1.315222e-01    1.644983e+00   6.676271e-02
  1.337326e-01    1.644010e+00   6.618780e-02
  1.359431e-01    1.629018e+00   6.592388e-02
  1.381535e-01    1.544814e+00   6.505919e-02
  1.403640e-01    1.453887e+00   6.338801e-02
  1.425744e-01    1.484346e+00   6.415084e-02
  1.447849e-01    1.572631e+00   6.604627e-02
  1.469953e-01    1.597557e+00   6.652594e-02
  1.492058e-01    1.627426e+00   6.706695e-02
  1.514163e-01    1.605252e+00   6.649785e-02
  1.536267e-01    1.635063e+00   6.698144e-02
  1.558372e-01    1.683084e+00   6.780793e-02
  1.580476e-01    1.668859e+00   6.735690e-02
  1.602581e-01    1.668847e+00   6.718563e-02
  1.624685e-01    1.610742e+00   6.582491e-02
  1.646790e-01    1.686208e+00   6.715588e-02
  1.668895e-01    1.704145e+00   6.731715e-02
  1.690999e-01    1.664460e+00   6.632893e-02
  1.713104e-01    1.761477e+00   6.802283e-02
  1.735208e-01    1.887137e+00   7.018845e-02
  1.757313e-01    1.819908e+00   6.871085e-02
  1.779417e-01    1.917361e+00   7.029650e-02
  1.801522e-01    1.917094e+00   7.006775e-02
  1.823626e-01    1.860185e+00   6.879015e-02
  1.845731e-01    2.030574e+00   7.163884e-02
  1.867836e-01    1.975023e+00   7.041371e-02
  1.889940e-01    1.978733e+00   7.024948e-02
  1.912045e-01    1.991666e+00   7.024334e-02
  1.934149e-01    2.019990e+00   7.050428e-02
  1.956254e-01    2.014523e+00   7.017660e-02
  1.978358e-01    1.973955e+00   6.922837e-02
  2.000463e-01    1.945092e+00   6.849262e-02
  2.022568e-01    1.999666e+00   6.921888e-02
  2.044672e-01    2.052288e+00   6.988354e-02
  2.066777e-01    1.949218e+00   6.788003e-02
  2.088881e-01    1.942699e+00   6.754470e-02
  2.110986e-01    1.972840e+00   6.783323e-02
  2.133090e-01    2.041126e+00   6.877292e-02
  2.155195e-01    2.041912e+00   6.855799e-02
  2.177300e-01    2.038822e+00   6.796790e-02
  2.199404e-01    2.039139e+00   6.618211e-02
  2.221509e-01    2.002886e+00   6.451413e-02
  2.243613e-01    1.966697e+00   6.311820e-02
  2.265718e-01    2.030169e+00   6.342179e-02
  2.287822e-01    2.110164e+00   6.401923e-02
  2.309927e-01    2.127986e+00   6.370336e-02
  2.332031e-01    2.177432e+00   6.388769e-02
  2.354136e-01    2.167197e+00   6.322076e-02
  2.376241e-01    2.184591e+00   6.298131e-02
  2.398345e-01    2.143603e+00   6.192593e-02
  2.420450e-01    2.251217e+00   6.300778e-02
  2.442554e-01    2.261853e+00   6.272136e-02
  2.464659e-01    2.188210e+00   6.127766e-02
  2.486763e-01    2.208254e+00   6.115303e-02
  2.508868e-01    2.204746e+00   6.071899e-02
  2.530973e-01    2.090402e+00   5.875694e-02
  2.553077e-01    2.173221e+00   5.954615e-02
  2.575182e-01    2.166340e+00   5.910010e-02
  2.597286e-01    2.094387e+00   5.777251e-02
  2.619391e-01    2.062762e+00   5.700459e-02
  2.641495e-01    2.050055e+00   5.651420e-02
  2.663600e-01    2.124612e+00   5.721630e-02
  2.685704e-01    2.096189e+00   5.652424e-02
  2.707809e-01    2.034578e+00   5.539176e-02
  2.729914e-01    1.999837e+00   5.463062e-02
  2.752018e-01    2.008001e+00   5.445711e-02
  2.774123e-01    2.006716e+00   5.416158e-02
  2.796227e-01    2.070742e+00   5.474669e-02
  2.818332e-01    2.077758e+00   5.456579e-02
  2.840436e-01    2.032245e+00   5.370327e-02
  2.862541e-01    1.976153e+00   5.270237e-02
  2.884646e-01    2.023270e+00   5.307388e-02
  2.906750e-01    2.000618e+00   5.252571e-02
  2.928855e-01    1.979814e+00   5.200980e-02
  2.950959e-01    1.910197e+00   5.085251e-02
  2.973064e-01    1.947608e+00   5.111728e-02
  2.995168e-01    1.971957e+00   5.120287e-02
  3.017273e-01    1.984015e+00   5.113273e-02
  3.039377e-01    1.973552e+00   5.077444e-02
  3.061482e-01    1.872709e+00   4.924626e-02
  3.083587e-01    1.906222e+00   4.946987e-02
  3.105691e-01    1.935764e+00   4.963879e-02
  3.127796e-01    1.985698e+00   5.006360e-02
  3.149900e-01    1.970989e+00   4.967000e-02
  3.172005e-01    1.949891e+00   4.920144e-02
  3.194109e-01    1.903345e+00   4.840999e-02
  3.216214e-01    1.861988e+00   4.768576e-02
  3.238319e-01    1.983417e+00   4.902112e-02
  3.260423e-01    1.958285e+00   4.851556e-02
  3.282528e-01    1.829383e+00   4.670498e-02
  3.304632e-01    1.838311e+00   4.663739e-02
  3.326737e-01    1.889383e+00   4.709633e-02
  3.348841e-01    1.855192e+00   4.648728e-02
  3.370946e-01    1.881603e+00   4.664087e-02
  3.393050e-01    1.851175e+00   4.608697e-02
  3.415155e-01    1.887154e+00   4.635770e-02
  3.437260e-01    1.887244e+00   4.618701e-02
  3.459364e-01    1.810039e+00   4.506508e-02
  3.481469e-01    1.837899e+00   4.524481e-02
  3.503573e-01    1.892746e+00   4.574770e-02
  3.525678e-01    1.879718e+00   4.542752e-02
  3.547782e-01    1.838689e+00   4.476662e-02
  3.569887e-01    1.816910e+00   4.434301e-02
  3.591992e-01    1.844044e+00   4.451483e-02
  3.614096e-01    1.853510e+00   4.447420e-02
  3.636201e-01    1.822372e+00   4.394410e-02
  3.658305e-01    1.830954e+00   4.389717e-02
  3.680410e-01    1.860679e+00   4.409988e-02
  3.702514e-01    1.788471e+00   4.309032e-02
  3.724619e-01    1.818273e+00   4.329989e-02
  3.746724e-01    1.782692e+00   4.273109e-02
  3.768828e-01    1.783039e+00   4.259145e-02
  3.790933e-01    1.816107e+00   4.284450e-02
  3.813037e-01    1.821953e+00   4.277301e-02
  3.835142e-01    1.784502e+00   4.219208e-02
  3.857246e-01    1.813521e+00   4.239609e-02
  3.879351e-01    1.851941e+00   4.270416e-02
  3.901455e-01    1.833359e+00   4.235412e-02
  3.923560e-01    1.832876e+00   4.221395e-02
  3.945665e-01    1.816478e+00   4.189140e-02
  3.967769e-01    1.789691e+00   4.145117e-02
  3.989874e-01    1.830933e+00   4.179514e-02
  4.011978e-01    1.805864e+00   4.138039e-02
  4.034083e-01    1.786260e+00   4.102881e-02
  4.056187e-01    1.816580e+00   4.124810e-02
  4.078292e-01    1.809980e+00   4.104851e-02
  4.100397e-01    1.750543e+00   4.024563e-02
  4.122501e-01    1.794890e+00   4.063030e-02
  4.144606e-01    1.795031e+00   4.051140e-02
  4.166710e-01    1.823057e+00   4.070504e-02
  4.188815e-01    1.782135e+00   4.012671e-02
  4.210919e-01    1.820530e+00   4.043780e-02
  4.233024e-01    1.803461e+00   4.012941e-02
  4.255128e-01    1.800383e+00   3.997924e-02
  4.277233e-01    1.778076e+00   3.961666e-02
  4.299338e-01    1.790159e+00   3.963665e-02
  4.321442e-01    1.806360e+00   3.970166e-02
  4.343547e-01    1.777802e+00   3.927521e-02
  4.365651e-01    1.825322e+00   3.968358e-02
  4.387756e-01    1.830397e+00   3.962746e-02
  4.409860e-01    1.770069e+00   3.886097e-02
  4.431965e-01    1.805578e+00   3.914030e-02
  4.454070e-01    1.802884e+00   3.900228e-02
  4.476174e-01    1.763710e+00   3.847030e-02
  4.498279e-01    1.766089e+00   3.839150e-02
  4.520383e-01    1.736037e+00   3.795899e-02
  4.542488e-01    1.733480e+00   3.782877e-02
  4.564592e-01    1.739508e+00   3.779281e-02
  4.586697e-01    1.747185e+00   3.777558e-02
  4.608801e-01    1.761401e+00   3.782735e-02
  4.630906e-01    1.742087e+00   3.751979e-02
  4.653011e-01    1.704581e+00   3.701610e-02
  4.675115e-01    1.716972e+00   3.705255e-02
  4.697220e-01    1.719799e+00   3.698596e-02
  4.719324e-01    1.714329e+00   3.683157e-02
  4.741429e-01    1.774312e+00   3.737383e-02
  4.763533e-01    1.732203e+00   3.683302e-02
  4.785638e-01    1.724803e+00   3.665930e-02
  4.807743e-01    1.713017e+00   3.644093e-02
  4.829847e-01    1.707876e+00   3.629429e-02
  4.851952e-01    1.731004e+00   3.644675e-02
  4.874056e-01    1.686875e+00   3.588846e-02
  4.896161e-01    1.684058e+00   3.576956e-02
  4.918265e-01    1.720044e+00   3.605991e-02
  4.940370e-01    1.718511e+00   3.595489e-02
  4.962475e-01    1.691229e+00   3.558025e-02
  4.984579e-01    1.723979e+00   3.583455e-02
  5.006684e-01    1.748197e+00   3.599739e-02
  5.028788e-01    1.767410e+00   3.610697e-02
  5.050893e-01    1.720787e+00   3.554090e-02
  5.072997e-01    1.650560e+00   3.472406e-02
  5.095102e-01    1.670133e+00   3.484566e-02
  5.117206e-01    1.691815e+00   3.498772e-02
  5.139311e-01    1.668200e+00   3.466046e-02
  5.161416e-01    1.659493e+00   3.448820e-02
  5.183520e-01    1.687464e+00   3.469498e-02
  5.205625e-01    1.658299e+00   3.431329e-02
  5.227729e-01    1.704610e+00   3.470796e-02
  5.249834e-01    1.713102e+00   3.471356e-02
  5.271938e-01    1.704205e+00   3.454249e-02
  5.294043e-01    1.758249e+00   3.500497e-02
  5.316148e-01    1.725240e+00   3.459540e-02
  5.338252e-01    1.784545e+00   3.510457e-02
  5.360357e-01    1.773611e+00   3.491719e-02
  5.382461e-01    1.765595e+00   3.475945e-02
  5.404566e-01    1.748509e+00   3.451213e-02
  5.426670e-01    1.708243e+00   3.403557e-02
  5.448775e-01    1.729766e+00   3.417279e-02
  5.470879e-01    1.732813e+00   3.412660e-02
  5.492984e-01    1.749972e+00   3.421889e-02
  5.515089e-01    1.773563e+00   3.437236e-02
  5.537193e-01    1.870771e+00   3.522399e-02
  5.559298e-01    1.822349e+00   3.468890e-02
  5.581402e-01    1.816229e+00   3.455492e-02
  5.603507e-01    1.845855e+00   3.475979e-02
  5.625611e-01    1.853145e+00   3.475279e-02
  5.647716e-01    1.799008e+00   3.416708e-02
  5.669821e-01    1.797783e+00   3.408178e-02
  5.691925e-01    1.773659e+00   3.377970e-02
  5.714030e-01    1.762009e+00   3.359676e-02
  5.736134e-01    1.773560e+00   3.363505e-02
  5.758239e-01    1.745579e+00   3.329743e-02
  5.780343e-01    1.717702e+00   3.296061e-02
  5.802448e-01    1.705102e+00   3.277075e-02
  5.824552e-01    1.691752e+00   3.257373e-02
  5.846657e-01    1.637164e+00   3.197709e-02
  5.868762e-01    1.632890e+00   3.186884e-02
  5.890866e-01    1.639194e+00   3.186403e-02
  5.912971e-01    1.654378e+00   3.194501e-02
  5.935075e-01    1.645631e+00   3.179461e-02
  5.957180e-01    1.669834e+00   3.196184e-02
  5.979284e-01    1.673897e+00   3.193538e-02
  6.001389e-01    1.663708e+00   3.177319e-02
  6.023494e-01    1.644781e+00   3.152781e-02
  6.045598e-01    1.657818e+00   3.158806e-02
  6.067703e-01    1.669597e+00   3.163633e-02
  6.089807e-01    1.664637e+00   3.152580e-02
  6.111912e-01    1.701837e+00   3.181245e-02
  6.134016e-01    1.725911e+00   3.197278e-02
  6.156121e-01    1.716311e+00   3.182035e-02
  6.178226e-01    1.727740e+00   3.186292e-02
  6.200330e-01    1.706819e+00   3.160695e-02
  6.222435e-01    1.717012e+00   3.163840e-02
  6.244539e-01    1.696871e+00   3.139069e-02
  6.266644e-01    1.693552e+00   3.129880e-02
  6.288748e-01    1.720993e+00   3.148995e-02
  6.310853e-01    1.756353e+00   3.175004e-02
  6.332957e-01    1.755261e+00   3.167889e-02
  6.355062e-01    1.723493e+00   3.132993e-02
  6.377167e-01    1.737795e+00   3.139928e-02
  6.399271e-01    1.730525e+00   3.127350e-02
  6.421376e-01    1.721071e+00   3.112842e-02
  6.443480e-01    1.735863e+00   3.120244e-02
  6.465585e-01    1.681407e+00   3.065095e-02
  6.487689e-01    1.689646e+00   3.066791e-02
  6.509794e-01    1.677261e+00   3.049769e-02
  6.531899e-01    1.664123e+00   3.032090e-02
  6.554003e-01    1.612617e+00   2.979186e-02
  6.576108e-01    1.581754e+00   2.945044e-02
  6.598212e-01    1.582084e+00   2.939881e-02
  6.620317e-01    1.581189e+00   2.933598e-02
  6.642421e-01    1.625409e+00   2.968836e-02
  6.664526e-01    1.618856e+00   2.957386e-02
  6.686630e-01    1.631565e+00   2.963484e-02
  6.708735e-01    1.649986e+00   2.974697e-02
  6.730840e-01    1.631623e+00   2.952707e-02
  6.752944e-01    1.638566e+00   2.953601e-02
  6.775049e-01    1.616895e+00   2.928678e-02
  6.797153e-01    1.589270e+00   2.898293e-02
  6.819258e-01    1.600163e+00   2.902963e-02
  6.841362e-01    1.637066e+00   2.930966e-02
  6.863467e-01    1.604803e+00   2.896745e-02
  6.885572e-01    1.613012e+00   2.898939e-02
  6.907676e-01    1.581200e+00   2.865069e-02
  6.929781e-01    1.583221e+00   2.861801e-02
  6.951885e-01    1.573135e+00   2.847620e-02
  6.973990e-01    1.600572e+00   2.867264e-02
  6.996094e-01    1.620280e+00   2.879791e-02
  7.018199e-01    1.600772e+00   2.857376e-02
  7.040303e-01    1.630520e+00   2.878738e-02
  7.062408e-01    1.621991e+00   2.866171e-02
  7.084513e-01    1.631453e+00   2.869519e-02
  7.106617e-01    1.630766e+00   2.863928e-02
  7.128722e-01    1.633442e+00   2.861320e-02
  7.150826e-01    1.624741e+00   2.848770e-02
  7.172931e-01    1.617687e+00   2.837677e-02
  7.195035e-01    1.613558e+00   2.829182e-02
  7.217140e-01    1.605426e+00   2.827038e-02
  7.239245e-01    1.568279e+00   2.816767e-02
  7.261349e-01    1.565059e+00   2.824701e-02
  7.283454e-01    1.574181e+00   2.840161e-02
  7.305558e-01    1.566077e+00   2.838226e-02
  7.327663e-01    1.551632e+00   2.829323e-02
  7.349767e-01    1.582729e+00   2.859178e-02
  7.371872e-01    1.558773e+00   2.836343e-02
  7.393976e-01    1.606529e+00   2.878023e-02
  7.416081e-01    1.582510e+00   2.854810e-02
  7.438186e-01    1.577535e+00   2.835870e-02
  7.460290e-01    1.581604e+00   2.810039e-02
  7.482395e-01    1.555717e+00   2.769932e-02
  7.504499e-01    1.574267e+00   2.772771e-02
  7.526604e-01    1.593595e+00   2.778014e-02
  7.548708e-01    1.603772e+00   2.777850e-02
  7.570813e-01    1.568632e+00   2.742158e-02
  7.592918e-01    1.640272e+00   2.800487e-02
  7.615022e-01    1.627499e+00   2.786127e-02
  7.637127e-01    1.600700e+00   2.759788e-02
  7.659231e-01    1.559968e+00   2.721263e-02
  7.681336e-01    1.577794e+00   2.733603e-02
  7.703440e-01    1.572840e+00   2.726187e-02
  7.725545e-01    1.579697e+00   2.729030e-02
  7.747650e-01    1.658570e+00   2.792409e-02
  7.769754e-01    1.617692e+00   2.752446e-02
  7.791859e-01    1.571436e+00   2.707465e-02
  7.813963e-01    1.598683e+00   2.725542e-02
  7.836068e-01    1.639507e+00   2.754836e-02
  7.858172e-01    1.612055e+00   2.726568e-02
  7.880277e-01    1.616660e+00   2.725265e-02
  7.902381e-01    1.612514e+00   2.716823e-02
  7.924486e-01    1.622082e+00   2.719823e-02
  7.946591e-01    1.632058e+00   2.723298e-02
  7.968695e-01    1.602505e+00   2.693700e-02
  7.990800e-01    1.654901e+00   2.732488e-02
  8.012904e-01    1.713573e+00   2.775696e-02
  8.035009e-01    1.796869e+00   2.837301e-02
  8.057113e-01    1.732196e+00   2.780960e-02
  8.079218e-01    1.676787e+00   2.731395e-02
  8.101323e-01    1.644944e+00   2.700744e-02
  8.123427e-01    1.674198e+00   2.720004e-02
  8.145532e-01    1.693874e+00   2.731261e-02
  8.167636e-01    1.685192e+00   2.719672e-02
  8.189741e-01    1.657874e+00   2.693043e-02
  8.211845e-01    1.641236e+00   2.675003e-02
  8.233950e-01    1.628419e+00   2.660204e-02
  8.256054e-01    1.636915e+00   2.662716e-02
  8.278159e-01    1.704498e+00   2.712640e-02
  8.300264e-01    1.684118e+00   2.692009e-02
  8.322368e-01    1.668416e+00   2.675075e-02
  8.344473e-01    1.691980e+00   2.689495e-02
  8.366577e-01    1.674487e+00   2.671250e-02
  8.388682e-01    1.772813e+00   2.744165e-02
  8.410786e-01    1.760685e+00   2.730408e-02
  8.432891e-01    1.671794e+00   2.656362e-02
  8.454996e-01    1.647734e+00   2.633004e-02
  8.477100e-01    1.689222e+00   2.661715e-02
  8.499205e-01    1.684047e+00   2.653462e-02
  8.521309e-01    1.679898e+00   2.646059e-02
  8.543414e-01    1.687016e+00   2.647519e-02
  8.565518e-01    1.730318e+00   2.677110e-02
  8.587623e-01    1.722290e+00   2.666733e-02
  8.609727e-01    1.672045e+00   2.623474e-02
  8.631832e-01    1.642549e+00   2.596221e-02
  8.653937e-01    1.633999e+00   2.585475e-02
  8.676041e-01    1.594672e+00   2.550318e-02
  8.698146e-01    1.609410e+00   2.558160e-02
  8.720250e-01    1.590970e+00   2.539588e-02
  8.742355e-01    1.606571e+00   2.548121e-02
  8.764459e-01    1.606882e+00   2.544484e-02
  8.786564e-01    1.566971e+00   2.508937e-02
  8.808669e-01    1.589780e+00   2.523301e-02
  8.830773e-01    1.582461e+00   2.513695e-02
  8.852878e-01    1.622501e+00   2.541482e-02
  8.874982e-01    1.626224e+00   2.540704e-02
  8.897087e-01    1.616713e+00   2.529477e-02
  8.919191e-01    1.622998e+00   2.530586e-02
  8.941296e-01    1.613891e+00   2.519733e-02
  8.963401e-01    1.581749e+00   2.490893e-02
  8.985505e-01    1.581221e+00   2.486804e-02
  9.007610e-01    1.578749e+00   2.481209e-02
  9.029714e-01    1.598837e+00   2.493360e-02
  9.051819e-01    1.608666e+00   2.497283e-02
  9.073923e-01    1.617587e+00   2.500518e-02
  9.096028e-01    1.649623e+00   2.521614e-02
  9.118132e-01    1.665123e+00   2.529738e-02
  9.140237e-01    1.647858e+00   2.512873e-02
  9.162342e-01    1.617770e+00   2.486351e-02
  9.184446e-01    1.628185e+00   2.490733e-02
  9.206551e-01    1.618665e+00   2.479862e-02
  9.228655e-01    1.615918e+00   2.474214e-02
  9.250760e-01    1.650441e+00   2.496916e-02
  9.272864e-01    1.618955e+00   2.469542e-02
  9.294969e-01    1.630645e+00   2.474828e-02
  9.317074e-01    1.636387e+00   2.475679e-02
  9.339178e-01    1.666645e+00   2.495050e-02
  9.361283e-01    1.665778e+00   2.490724e-02
  9.383387e-01    1.677985e+00   2.496434e-02
  9.405492e-01    1.642310e+00   2.466305e-02
  9.427596e-01    1.631023e+00   2.454276e-02
  9.449701e-01    1.677295e+00   2.485464e-02
  9.471805e-01    1.668660e+00   2.475549e-02
  9.493910e-01    1.673186e+00   2.475499e-02
  9.516015e-01    1.733512e+00   2.516214e-02
  9.538119e-01    1.717114e+00   2.500854e-02
  9.560224e-01    1.728968e+00   2.505938e-02
  9.582328e-01    1.732239e+00   2.504944e-02
  9.604433e-01    1.736239e+00   2.504281e-02
  9.626537e-01    1.770227e+00   2.525273e-02
  9.648642e-01    1.806375e+00   2.547434e-02
  9.670747e-01    1.772688e+00   2.520088e-02
  9.692851e-01    1.793959e+00   2.531793e-02
  9.714956e-01    1.793530e+00   2.527919e-02
  9.737060e-01    1.848920e+00   2.563286e-02
  9.759165e-01    1.826178e+00   2.543883e-02
  9.781269e-01    1.851119e+00   2.557843e-02
  9.803374e-01    1.830259e+00   2.539874e-02
  9.825478e-01    1.828254e+00   2.535133e-02
  9.847583e-01    1.775657e+00   2.495009e-02
  9.869688e-01    1.803882e+00   2.511393e-02
  9.891792e-01    1.767615e+00   2.482717e-02
  9.913897e-01    1.752722e+00   2.468898e-02
  9.936001e-01    1.755546e+00   2.467650e-02
  9.958106e-01    1.872947e+00   2.545360e-02
  9.980210e-01    1.857490e+00   2.531554e-02
  1.000231e+00    1.693475e+00   2.430442e-02
  1.002442e+00    1.663209e+00   2.421423e-02
  1.004652e+00    1.633348e+00   2.406281e-02
  1.006863e+00    1.627800e+00   2.407175e-02
  1.009073e+00    1.620352e+00   2.405339e-02
  1.011284e+00    1.588444e+00   2.384722e-02
  1.013494e+00    1.600052e+00   2.395791e-02
  1.015705e+00    1.566887e+00   2.373074e-02
  1.017915e+00    1.569362e+00   2.376583e-02
  1.020126e+00    1.576812e+00   2.383829e-02
  1.022336e+00    1.538952e+00   2.356197e-02
  1.024547e+00    1.567018e+00   2.378711e-02
  1.026757e+00    1.533112e+00   2.353672e-02
  1.028967e+00    1.541151e+00   2.360598e-02
  1.031178e+00    1.548297e+00   2.366687e-02
  1.033388e+00    1.517008e+00   2.343152e-02
  1.035599e+00    1.522008e+00   2.347353e-02
  1.037809e+00    1.510867e+00   2.339069e-02
  1.040020e+00    1.531370e+00   2.355015e-02
  1.042230e+00    1.548628e+00   2.368443e-02
  1.044441e+00    1.570238e+00   2.384889e-02
  1.046651e+00    1.580399e+00   2.392611e-02
  1.048862e+00    1.526474e+00   2.351358e-02
  1.051072e+00    1.546415e+00   2.366425e-02
  1.053282e+00    1.515930e+00   2.342892e-02
  1.055493e+00    1.484122e+00   2.317751e-02
  1.057703e+00    1.512071e+00   2.339319e-02
  1.059914e+00    1.548256e+00   2.366711e-02
  1.062124e+00    1.629094e+00   2.427283e-02
  1.064335e+00    1.827245e+00   2.570282e-02
  1.066545e+00    1.928308e+00   2.639730e-02
  1.068756e+00    1.833238e+00   2.573419e-02
  1.070966e+00    1.908910e+00   2.625247e-02
  1.073177e+00    2.012471e+00   2.694812e-02
  1.075387e+00    1.968598e+00   2.664676e-02
  1.077597e+00    1.769407e+00   2.525478e-02
  1.079808e+00    1.590993e+00   2.380929e-02
  1.082018e+00    1.638026e+00   2.395853e-02
  1.084229e+00    1.578853e+00   2.340746e-02
  1.086439e+00    1.491749e+00   2.266405e-02
  1.088650e+00    1.464751e+00   2.238208e-02
  1.090860e+00    1.446376e+00   2.217382e-02
  1.093071e+00    1.448411e+00   2.212725e-02
  1.095281e+00    1.438048e+00   2.199087e-02
  1.097492e+00    1.451545e+00   2.203879e-02
  1.099702e+00    1.424535e+00   2.178169e-02
  1.101912e+00    1.430076e+00   2.177531e-02
  1.104123e+00    1.416505e+00   2.162385e-02
  1.106333e+00    1.432603e+00   2.170195e-02
  1.108544e+00    1.426728e+00   2.161319e-02
  1.110754e+00    1.429300e+00   2.158962e-02
  1.112965e+00    1.408135e+00   2.138883e-02
  1.115175e+00    1.413974e+00   2.139204e-02
  1.117386e+00    1.376726e+00   2.106968e-02
  1.119596e+00    1.377379e+00   2.103724e-02
  1.121807e+00    1.395756e+00   2.113851e-02
  1.124017e+00    1.409197e+00   2.120337e-02
  1.126228e+00    1.417138e+00   2.122713e-02
  1.128438e+00    1.401299e+00   2.107140e-02
  1.130648e+00    1.390700e+00   2.095733e-02
  1.132859e+00    1.392450e+00   2.093622e-02
  1.135069e+00    1.380947e+00   2.081497e-02
  1.137280e+00    1.392787e+00   2.087098e-02
  1.139490e+00    1.393109e+00   2.084027e-02
  1.141701e+00    1.352396e+00   2.050075e-02
  1.143911e+00    1.384582e+00   2.071138e-02
  1.146122e+00    1.365910e+00   2.053943e-02
  1.148332e+00    1.361153e+00   2.047196e-02
  1.150543e+00    1.374634e+00   2.054228e-02
  1.152753e+00    1.401456e+00   2.071061e-02
  1.154963e+00    1.397422e+00   2.064946e-02
  1.157174e+00    1.409182e+00   2.070562e-02
  1.159384e+00    1.460602e+00   2.104917e-02
  1.161595e+00    1.535574e+00   2.155105e-02
  1.163805e+00    1.583299e+00   2.185194e-02
  1.166016e+00    1.559192e+00   2.165353e-02
  1.168226e+00    1.566396e+00   2.167248e-02
  1.170437e+00    1.560428e+00   2.160056e-02
  1.172647e+00    1.535320e+00   2.139545e-02
  1.174858e+00    1.471818e+00   2.091914e-02
  1.177068e+00    1.434223e+00   2.062124e-02
  1.179278e+00    1.437747e+00   2.061718e-02
  1.181489e+00    1.438784e+00   2.059685e-02
  1.183699e+00    1.418561e+00   2.042341e-02
  1.185910e+00    1.383434e+00   2.014094e-02
  1.188120e+00    1.340487e+00   1.979929e-02
  1.190331e+00    1.376295e+00   2.003505e-02
  1.192541e+00    1.343908e+00   1.977063e-02
  1.194752e+00    1.345020e+00   1.975184e-02
  1.196962e+00    1.324780e+00   1.957718e-02
  1.199173e+00    1.345170e+00   1.970080e-02
  1.201383e+00    1.349776e+00   1.970735e-02
  1.203593e+00    1.376103e+00   1.987355e-02
  1.205804e+00    1.369834e+00   1.980215e-02
  1.208014e+00    1.348949e+00   1.962375e-02
  1.210225e+00    1.383818e+00   1.985011e-02
  1.212435e+00    1.386656e+00   1.984535e-02
  1.214646e+00    1.362165e+00   1.964310e-02
  1.216856e+00    1.337205e+00   1.943693e-02
  1.219067e+00    1.363059e+00   1.959934e-02
  1.221277e+00    1.365790e+00   1.959379e-02
  1.223488e+00    1.377116e+00   1.964887e-02
  1.225698e+00    1.318352e+00   1.919850e-02
  1.227909e+00    1.338940e+00   1.931775e-02
  1.230119e+00    1.381973e+00   1.959349e-02
  1.232329e+00    1.434778e+00   1.993267e-02
  1.234540e+00    1.417508e+00   1.978133e-02
  1.236750e+00    1.391101e+00   1.956547e-02
  1.238961e+00    1.385707e+00   1.950018e-02
  1.241171e+00    1.395357e+00   1.954336e-02
  1.243382e+00    1.402598e+00   1.957005e-02
  1.245592e+00    1.348646e+00   1.916591e-02
  1.247803e+00    1.308273e+00   1.885355e-02
  1.250013e+00    1.331717e+00   1.899831e-02
  1.252224e+00    1.358370e+00   1.916419e-02
  1.254434e+00    1.332238e+00   1.895538e-02
  1.256644e+00    1.333576e+00   1.894181e-02
  1.258855e+00    1.341607e+00   1.897558e-02
  1.261065e+00    1.354899e+00   1.904592e-02
  1.263276e+00    1.349761e+00   1.898685e-02
  1.265486e+00    1.362900e+00   1.905604e-02
  1.267697e+00    1.337841e+00   1.885713e-02
  1.269907e+00    1.350627e+00   1.892432e-02
  1.272118e+00    1.346201e+00   1.887075e-02
  1.274328e+00    1.340189e+00   1.880592e-02
  1.276539e+00    1.349535e+00   1.884859e-02
  1.278749e+00    1.335409e+00   1.872752e-02
  1.280959e+00    1.351333e+00   1.881628e-02
  1.283170e+00    1.375734e+00   1.896278e-02
  1.285380e+00    1.370980e+00   1.890736e-02
  1.287591e+00    1.339387e+00   1.866631e-02
  1.289801e+00    1.340360e+00   1.865192e-02
  1.292012e+00    1.343483e+00   1.865659e-02
  1.294222e+00    1.341522e+00   1.862678e-02
  1.296433e+00    1.351275e+00   1.867875e-02
  1.298643e+00    1.353877e+00   1.868024e-02
  1.300854e+00    1.348809e+00   1.862884e-02
  1.303064e+00    1.362189e+00   1.870168e-02
  1.305274e+00    1.386272e+00   1.884457e-02
  1.307485e+00    1.370859e+00   1.871781e-02
  1.309695e+00    1.353922e+00   1.857954e-02
  1.311906e+00    1.344441e+00   1.849271e-02
  1.314116e+00    1.364908e+00   1.861202e-02
  1.316327e+00    1.404949e+00   1.886093e-02
  1.318537e+00    1.387090e+00   1.871850e-02
  1.320748e+00    1.389041e+00   1.870978e-02
  1.322958e+00    1.380017e+00   1.862817e-02
  1.325169e+00    1.360480e+00   1.847476e-02
  1.327379e+00    1.357332e+00   1.843148e-02
  1.329589e+00    1.355188e+00   1.839581e-02
  1.331800e+00    1.380802e+00   1.854792e-02
  1.334010e+00    1.381843e+00   1.853401e-02
  1.336221e+00    1.365813e+00   1.840432e-02
  1.338431e+00    1.360196e+00   1.834549e-02
  1.340642e+00    1.366146e+00   1.845011e-02
  1.342852e+00    1.354002e+00   1.846876e-02
  1.345063e+00    1.335076e+00   1.838843e-02
  1.347273e+00    1.354054e+00   1.855396e-02
  1.349484e+00    1.351517e+00   1.856426e-02
  1.351694e+00    1.369697e+00   1.871158e-02
  1.353905e+00    1.396180e+00   1.890989e-02
  1.356115e+00    1.418664e+00   1.907699e-02
  1.358325e+00    1.357957e+00   1.867773e-02
  1.360536e+00    1.338610e+00   1.855576e-02
  1.362746e+00    1.336882e+00   1.855331e-02
  1.364957e+00    1.334101e+00   1.854159e-02
  1.367167e+00    1.363800e+00   1.875406e-02
  1.369378e+00    1.333891e+00   1.855327e-02
  1.371588e+00    1.299589e+00   1.831820e-02
  1.373799e+00    1.325588e+00   1.850417e-02
  1.376009e+00    1.332348e+00   1.855468e-02
  1.378220e+00    1.315410e+00   1.843888e-02
  1.380430e+00    1.301808e+00   1.834597e-02
  1.382640e+00    1.311781e+00   1.841701e-02
  1.384851e+00    1.306978e+00   1.838413e-02
  1.387061e+00    1.306755e+00   1.838286e-02
  1.389272e+00    1.309322e+00   1.840112e-02
  1.391482e+00    1.293646e+00   1.828995e-02
  1.393693e+00    1.284530e+00   1.822454e-02
  1.395903e+00    1.283899e+00   1.821856e-02
  1.398114e+00    1.275621e+00   1.815835e-02
  1.400324e+00    1.279396e+00   1.818308e-02
  1.402535e+00    1.287809e+00   1.824042e-02
  1.404745e+00    1.271671e+00   1.812344e-02
  1.406955e+00    1.261861e+00   1.805069e-02
  1.409166e+00    1.291735e+00   1.825980e-02
  1.411376e+00    1.268625e+00   1.809259e-02
  1.413587e+00    1.293332e+00   1.826407e-02
  1.415797e+00    1.312342e+00   1.839422e-02
  1.418008e+00    1.300874e+00   1.827131e-02
  1.420218e+00    1.276086e+00   1.794630e-02
  1.422429e+00    1.274391e+00   1.784892e-02
  1.424639e+00    1.272505e+00   1.777095e-02
  1.426850e+00    1.266980e+00   1.767769e-02
  1.429060e+00    1.272071e+00   1.766415e-02
  1.431270e+00    1.253906e+00   1.749354e-02
  1.433481e+00    1.281595e+00   1.764448e-02
  1.435691e+00    1.303281e+00   1.775422e-02
  1.437902e+00    1.285871e+00   1.759856e-02
  1.440112e+00    1.273389e+00   1.747753e-02
  1.442323e+00    1.281921e+00   1.750279e-02
  1.444533e+00    1.312872e+00   1.767972e-02
  1.446744e+00    1.290377e+00   1.749625e-02
  1.448954e+00    1.239720e+00   1.711954e-02
  1.451165e+00    1.248448e+00   1.715018e-02
  1.453375e+00    1.257845e+00   1.718670e-02
  1.455586e+00    1.290541e+00   1.738024e-02
  1.457796e+00    1.270153e+00   1.721491e-02
  1.460006e+00    1.243771e+00   1.700822e-02
  1.462217e+00    1.234635e+00   1.691976e-02
  1.464427e+00    1.259471e+00   1.706360e-02
  1.466638e+00    1.278953e+00   1.716965e-02
  1.468848e+00    1.280700e+00   1.715592e-02
  1.471059e+00    1.268052e+00   1.704593e-02
  1.473269e+00    1.245856e+00   1.687192e-02
  1.475480e+00    1.260979e+00   1.695032e-02
  1.477690e+00    1.242682e+00   1.680330e-02
  1.479901e+00    1.258111e+00   1.688355e-02
  1.482111e+00    1.261630e+00   1.688386e-02
  1.484321e+00    1.278000e+00   1.696984e-02
  1.486532e+00    1.275705e+00   1.693219e-02
  1.488742e+00    1.252752e+00   1.675663e-02
  1.490953e+00    1.266556e+00   1.682606e-02
  1.493163e+00    1.273625e+00   1.685059e-02
  1.495374e+00    1.261050e+00   1.674573e-02
  1.497584e+00    1.260390e+00   1.671970e-02
  1.499795e+00    1.253903e+00   1.665503e-02
  1.502005e+00    1.266512e+00   1.671681e-02
  1.504216e+00    1.262033e+00   1.666619e-02
  1.506426e+00    1.226411e+00   1.640872e-02
  1.508636e+00    1.269471e+00   1.667375e-02
  1.510847e+00    1.277065e+00   1.670155e-02
  1.513057e+00    1.274901e+00   1.666213e-02
  1.515268e+00    1.269016e+00   1.659776e-02
  1.517478e+00    1.303070e+00   1.679333e-02
  1.519689e+00    1.309600e+00   1.680988e-02
  1.521899e+00    1.302747e+00   1.674228e-02
  1.524110e+00    1.273634e+00   1.653366e-02
  1.526320e+00    1.257733e+00   1.641047e-02
  1.528531e+00    1.285778e+00   1.657239e-02
  1.530741e+00    1.268196e+00   1.643943e-02
  1.532951e+00    1.233173e+00   1.619137e-02
  1.535162e+00    1.224265e+00   1.621849e-02
  1.537372e+00    1.252546e+00   1.647174e-02
  1.539583e+00    1.285680e+00   1.672295e-02
  1.541793e+00    1.229621e+00   1.636121e-02
  1.544004e+00    1.234084e+00   1.639111e-02
  1.546214e+00    1.269953e+00   1.662609e-02
  1.548425e+00    1.273529e+00   1.664975e-02
  1.550635e+00    1.302283e+00   1.684655e-02
  1.552846e+00    1.285460e+00   1.674723e-02
  1.555056e+00    1.249843e+00   1.647200e-02
  1.557266e+00    1.273104e+00   1.651286e-02
  1.559477e+00    1.279154e+00   1.649210e-02
  1.561687e+00    1.292512e+00   1.654675e-02
  1.563898e+00    1.295416e+00   1.654781e-02
  1.566108e+00    1.334411e+00   1.677850e-02
  1.568319e+00    1.347239e+00   1.684271e-02
  1.570529e+00    1.323722e+00   1.666916e-02
  1.572740e+00    1.309578e+00   1.655153e-02
  1.574950e+00    1.272654e+00   1.628991e-02
  1.577161e+00    1.257780e+00   1.616882e-02
  1.579371e+00    1.245182e+00   1.606398e-02
  1.581582e+00    1.240027e+00   1.601094e-02
  1.583792e+00    1.257563e+00   1.610565e-02
  1.586002e+00    1.222783e+00   1.586391e-02
  1.588213e+00    1.231671e+00   1.590430e-02
  1.590423e+00    1.236636e+00   1.591631e-02
  1.592634e+00    1.260977e+00   1.605042e-02
  1.594844e+00    1.227266e+00   1.581317e-02
  1.597055e+00    1.242036e+00   1.588754e-02
  1.599265e+00    1.231049e+00   1.579650e-02
  1.601476e+00    1.203934e+00   1.560155e-02
  1.603686e+00    1.208375e+00   1.561079e-02
  1.605897e+00    1.228710e+00   1.572150e-02
  1.608107e+00    1.239531e+00   1.577102e-02
  1.610317e+00    1.228109e+00   1.567895e-02
  1.612528e+00    1.237590e+00   1.572016e-02
  1.614738e+00    1.224952e+00   1.562079e-02
  1.616949e+00    1.213328e+00   1.552763e-02
  1.619159e+00    1.195331e+00   1.539352e-02
  1.621370e+00    1.191226e+00   1.534882e-02
  1.623580e+00    1.180021e+00   1.525840e-02
  1.625791e+00    1.162363e+00   1.512588e-02
  1.628001e+00    1.175495e+00   1.519304e-02
  1.630212e+00    1.169123e+00   1.513423e-02
  1.632422e+00    1.161580e+00   1.506762e-02
  1.634632e+00    1.176709e+00   1.514815e-02
  1.636843e+00    1.168981e+00   1.508086e-02
  1.639053e+00    1.160199e+00   1.500690e-02
  1.641264e+00    1.164358e+00   1.501673e-02
  1.643474e+00    1.162220e+00   1.498555e-02
  1.645685e+00    1.153612e+00   1.491331e-02
  1.647895e+00    1.153373e+00   1.489519e-02
  1.650106e+00    1.135095e+00   1.475982e-02
  1.652316e+00    1.130718e+00   1.471496e-02
  1.654527e+00    1.125058e+00   1.466156e-02
  1.656737e+00    1.118544e+00   1.460261e-02
  1.658947e+00    1.115399e+00   1.456592e-02
  1.661158e+00    1.118103e+00   1.456735e-02
  1.663368e+00    1.113567e+00   1.452181e-02
  1.665579e+00    1.108189e+00   1.447065e-02
  1.667789e+00    1.092893e+00   1.435436e-02
  1.670000e+00    1.125728e+00   1.455281e-02
  1.672210e+00    1.101709e+00   1.438092e-02
  1.674421e+00    1.095930e+00   1.432787e-02
  1.676631e+00    1.086286e+00   1.424894e-02
  1.678842e+00    1.073319e+00   1.414805e-02
  1.681052e+00    1.077913e+00   1.416301e-02
  1.683263e+00    1.090730e+00   1.423182e-02
  1.685473e+00    1.079366e+00   1.414240e-02
  1.687683e+00    1.075204e+00   1.409972e-02
  1.689894e+00    1.064018e+00   1.401054e-02
  1.692104e+00    1.063163e+00   1.399009e-02
  1.694315e+00    1.043277e+00   1.384433e-02
  1.696525e+00    1.084785e+00   1.410176e-02
  1.698736e+00    1.143962e+00   1.446596e-02
  1.700946e+00    1.094043e+00   1.413144e-02
  1.703157e+00    1.077773e+00   1.401120e-02
  1.705367e+00    1.045632e+00   1.378623e-02
  1.707578e+00    1.039835e+00   1.373346e-02
  1.709788e+00    1.020248e+00   1.358955e-02
  1.711998e+00    1.029056e+00   1.363318e-02
  1.714209e+00    9.992790e-01   1.342032e-02
  1.716419e+00    1.006988e+00   1.345791e-02
  1.718630e+00    1.020428e+00   1.353323e-02
  1.720840e+00    1.012956e+00   1.346951e-02
  1.723051e+00    1.004695e+00   1.340075e-02
  1.725261e+00    9.913304e-01   1.329685e-02
  1.727472e+00    9.961883e-01   1.331539e-02
  1.729682e+00    9.753166e-01   1.316196e-02
  1.731893e+00    9.967667e-01   1.329209e-02
  1.734103e+00    1.010774e+00   1.337137e-02
  1.736313e+00    1.044743e+00   1.357987e-02
  1.738524e+00    1.139349e+00   1.416672e-02
  1.740734e+00    1.075986e+00   1.375297e-02
  1.742945e+00    1.011274e+00   1.331942e-02
  1.745155e+00    9.997948e-01   1.323009e-02
  1.747366e+00    1.001508e+00   1.322752e-02
  1.749576e+00    9.751498e-01   1.303871e-02
  1.751787e+00    9.684184e-01   1.298037e-02
  1.753997e+00    9.879379e-01   1.309710e-02
  1.756208e+00    9.917516e-01   1.310904e-02
  1.758418e+00    1.009732e+00   1.321398e-02
  1.760628e+00    9.914277e-01   1.308017e-02
  1.762839e+00    9.581860e-01   1.284583e-02
  1.765049e+00    9.469115e-01   1.275703e-02
  1.767260e+00    9.269337e-01   1.260914e-02
  1.769470e+00    9.289340e-01   1.260992e-02
  1.771681e+00    9.306822e-01   1.260880e-02
  1.773891e+00    9.369281e-01   1.263808e-02
  1.776102e+00    9.414130e-01   1.265545e-02
  1.778312e+00    9.420487e-01   1.264702e-02
  1.780523e+00    9.441845e-01   1.264860e-02
  1.782733e+00    9.436390e-01   1.263223e-02
  1.784944e+00    9.178683e-01   1.244577e-02
  1.787154e+00    9.337858e-01   1.254068e-02
  1.789364e+00    9.369469e-01   1.254937e-02
  1.791575e+00    9.327053e-01   1.250836e-02
  1.793785e+00    9.541224e-01   1.263851e-02
  1.795996e+00    1.073522e+00   1.339247e-02
  1.798206e+00    1.078115e+00   1.340760e-02
  1.800417e+00    1.000026e+00   1.289969e-02
  1.802627e+00    9.447304e-01   1.252581e-02
  1.804838e+00    9.412330e-01   1.249029e-02
  1.807048e+00    9.600213e-01   1.260113e-02
  1.809259e+00    1.041955e+00   1.311326e-02
  1.811469e+00    1.016364e+00   1.293543e-02
  1.813679e+00    9.369130e-01   1.240427e-02
  1.815890e+00    9.084854e-01   1.219977e-02
  1.818100e+00    9.155518e-01   1.223188e-02
  1.820311e+00    8.894831e-01   1.204175e-02
  1.822521e+00    8.680459e-01   1.188109e-02
  1.824732e+00    8.863492e-01   1.199090e-02
  1.826942e+00    8.791826e-01   1.193008e-02
  1.829153e+00    8.618577e-01   1.180038e-02
  1.831363e+00    8.915287e-01   1.198972e-02
  1.833574e+00    9.044878e-01   1.206469e-02
  1.835784e+00    9.437701e-01   1.231208e-02
  1.837994e+00    8.929596e-01   1.196427e-02
  1.840205e+00    8.798123e-01   1.186463e-02
  1.842415e+00    8.785644e-01   1.184442e-02
  1.844626e+00    8.576643e-01   1.169121e-02
  1.846836e+00    8.498123e-01   1.162627e-02
  1.849047e+00    8.431681e-01   1.156926e-02
  1.851257e+00    8.491830e-01   1.160098e-02
  1.853468e+00    8.545883e-01   1.162907e-02
  1.855678e+00    8.542575e-01   1.161796e-02
  1.857889e+00    8.438477e-01   1.153856e-02
  1.860099e+00    8.528042e-01   1.159099e-02
  1.862309e+00    8.560728e-01   1.160470e-02
  1.864520e+00    8.519946e-01   1.156846e-02
  1.866730e+00    8.463287e-01   1.152060e-02
  1.868941e+00    8.427208e-01   1.148513e-02
  1.871151e+00    8.370773e-01   1.143532e-02
  1.873362e+00    8.365694e-01   1.142059e-02
  1.875572e+00    8.210018e-01   1.130308e-02
  1.877783e+00    8.593369e-01   1.155244e-02
  1.879993e+00    8.565305e-01   1.152236e-02
  1.882204e+00    8.508248e-01   1.147297e-02
  1.884414e+00    8.655143e-01   1.156037e-02
  1.886624e+00    8.733629e-01   1.160141e-02
  1.888835e+00    8.637252e-01   1.152612e-02
  1.891045e+00    8.413612e-01   1.136502e-02
  1.893256e+00    8.404429e-01   1.134771e-02
  1.895466e+00    8.449306e-01   1.136674e-02
  1.897677e+00    8.527137e-01   1.140795e-02
  1.899887e+00    8.288687e-01   1.123637e-02
  1.902098e+00    8.117787e-01   1.110920e-02
  1.904308e+00    8.134278e-01   1.111002e-02
  1.906519e+00    8.339928e-01   1.123870e-02
  1.908729e+00    8.525317e-01   1.135218e-02
  1.910940e+00    8.496119e-01   1.132146e-02
  1.913150e+00    8.339910e-01   1.120626e-02
  1.915360e+00    8.410022e-01   1.124253e-02
  1.917571e+00    8.376666e-01   1.120924e-02
  1.919781e+00    8.371132e-01   1.119476e-02
  1.921992e+00    8.049680e-01   1.096720e-02
  1.924202e+00    8.199826e-01   1.105820e-02
  1.926413e+00    8.263189e-01   1.109050e-02
  1.928623e+00    8.250667e-01   1.107148e-02
  1.930834e+00    8.244745e-01   1.105701e-02
  1.933044e+00    8.023825e-01   1.089725e-02
  1.935255e+00    8.157321e-01   1.097717e-02
  1.937465e+00    8.004636e-01   1.086361e-02
  1.939675e+00    7.939928e-01   1.080885e-02
  1.941886e+00    7.915456e-01   1.078197e-02
  1.944096e+00    7.947387e-01   1.079358e-02
  1.946307e+00    7.868987e-01   1.072996e-02
  1.948517e+00    7.755431e-01   1.064198e-02
  1.950728e+00    7.899355e-01   1.073007e-02
  1.952938e+00    8.012558e-01   1.079657e-02
  1.955149e+00    8.039510e-01   1.080444e-02
  1.957359e+00    8.024264e-01   1.078411e-02
  1.959570e+00    7.930865e-01   1.071029e-02
  1.961780e+00    7.875010e-01   1.066265e-02
  1.963990e+00    7.789618e-01   1.059464e-02
  1.966201e+00    7.786245e-01   1.058236e-02
  1.968411e+00    7.871666e-01   1.063011e-02
  1.970622e+00    7.872165e-01   1.062036e-02
  1.972832e+00    7.839191e-01   1.058815e-02
  1.975043e+00    7.839944e-01   1.057862e-02
  1.977253e+00    8.018917e-01   1.068864e-02
  1.979464e+00    7.931947e-01   1.062041e-02
  1.981674e+00    8.089760e-01   1.071512e-02
  1.983885e+00    7.921891e-01   1.059328e-02
  1.986095e+00    7.765130e-01   1.047826e-02
  1.988305e+00    7.937051e-01   1.058362e-02
  1.990516e+00    7.876629e-01   1.053331e-02
  1.992726e+00    7.806582e-01   1.047667e-02
  1.994937e+00    7.771021e-01   1.044265e-02
  1.997147e+00    7.653479e-01   1.035371e-02
  1.999358e+00    7.710916e-01   1.038265e-02
  2.001568e+00    7.675104e-01   1.034775e-02
  2.003779e+00    7.858931e-01   1.045891e-02
  2.005989e+00    7.719544e-01   1.035374e-02
  2.008200e+00    7.705168e-01   1.033255e-02
  2.010410e+00    7.650931e-01   1.028442e-02
  2.012621e+00    7.514998e-01   1.018106e-02
  2.014831e+00    7.830310e-01   1.038085e-02
  2.017041e+00    7.777315e-01   1.033524e-02
  2.019252e+00    7.654813e-01   1.024353e-02
  2.021462e+00    7.727964e-01   1.028283e-02
  2.023673e+00    7.500878e-01   1.012132e-02
  2.025883e+00    7.576094e-01   1.016245e-02
  2.028094e+00    7.706133e-01   1.023959e-02
  2.030304e+00    7.721127e-01   1.023996e-02
  2.032515e+00    7.900002e-01   1.034840e-02
  2.034725e+00    7.840890e-01   1.030005e-02
  2.036936e+00    7.693914e-01   1.019363e-02
  2.039146e+00    7.691718e-01   1.018254e-02
  2.041356e+00    7.524893e-01   1.006188e-02
  2.043567e+00    7.456738e-01   1.000696e-02
  2.045777e+00    7.621937e-01   1.010792e-02
  2.047988e+00    7.687150e-01   1.014162e-02
  2.050198e+00    7.527216e-01   1.002713e-02
  2.052409e+00    7.640616e-01   1.009467e-02
  2.054619e+00    7.578974e-01   1.004646e-02
  2.056830e+00    7.618299e-01   1.006526e-02
  2.059040e+00    7.777246e-01   1.016207e-02
  2.061251e+00    7.686270e-01   1.009514e-02
  2.063461e+00    7.441612e-01   9.925588e-03
  2.065671e+00    7.595487e-01   1.001890e-02
  2.067882e+00    7.676113e-01   1.006282e-02
  2.070092e+00    7.471353e-01   9.918525e-03
  2.072303e+00    7.277785e-01   9.780157e-03
  2.074513e+00    7.496775e-01   9.916855e-03
  2.076724e+00    7.330181e-01   9.796687e-03
  2.078934e+00    7.290823e-01   9.761404e-03
  2.081145e+00    7.346262e-01   9.789426e-03
  2.083355e+00    7.336150e-01   9.773562e-03
  2.085566e+00    7.526945e-01   9.890854e-03
  2.087776e+00    7.518360e-01   9.875641e-03
  2.089986e+00    7.471330e-01   9.835863e-03
  2.092197e+00    7.420819e-01   9.793573e-03
  2.094407e+00    7.368286e-01   9.749626e-03
  2.096618e+00    7.265870e-01   9.672772e-03
  2.098828e+00    7.260041e-01   9.659643e-03
  2.101039e+00    7.147033e-01   9.575300e-03
  2.103249e+00    7.316450e-01   9.679428e-03
  2.105460e+00    7.297971e-01   9.658218e-03
  2.107670e+00    7.264307e-01   9.627175e-03
  2.109881e+00    7.367342e-01   9.685987e-03
  2.112091e+00    7.396835e-01   9.696283e-03
  2.114301e+00    7.338429e-01   9.649107e-03
  2.116512e+00    7.031002e-01   9.436153e-03
  2.118722e+00    7.073168e-01   9.455658e-03
  2.120933e+00    7.122786e-01   9.479961e-03
  2.123143e+00    7.202218e-01   9.523752e-03
  2.125354e+00    7.172310e-01   9.495442e-03
  2.127564e+00    7.154765e-01   9.475087e-03
  2.129775e+00    7.139800e-01   9.456454e-03
  2.131985e+00    7.313657e-01   9.561732e-03
  2.134196e+00    7.225322e-01   9.495179e-03
  2.136406e+00    7.231632e-01   9.490509e-03
  2.138617e+00    7.254586e-01   9.497005e-03
  2.140827e+00    7.266006e-01   9.520761e-03
  2.143037e+00    6.936947e-01   9.347711e-03
  2.145248e+00    6.988758e-01   9.404436e-03
  2.147458e+00    7.021945e-01   9.441853e-03
  2.149669e+00    7.069956e-01   9.485978e-03
  2.151879e+00    6.990003e-01   9.441369e-03
  2.154090e+00    7.098334e-01   9.521619e-03
  2.156300e+00    7.044373e-01   9.491985e-03
  2.158511e+00    7.060758e-01   9.508335e-03
  2.160721e+00    7.013835e-01   9.481530e-03
  2.162932e+00    6.966475e-01   9.453194e-03
  2.165142e+00    6.888318e-01   9.403016e-03
  2.167352e+00    6.995412e-01   9.478760e-03
  2.169563e+00    6.919270e-01   9.428969e-03
  2.171773e+00    7.241530e-01   9.648539e-03
  2.173984e+00    7.065812e-01   9.532203e-03
  2.176194e+00    6.770152e-01   9.331832e-03
  2.178405e+00    6.898232e-01   9.420356e-03
  2.180615e+00    7.001864e-01   9.491560e-03
  2.182826e+00    6.968833e-01   9.469816e-03
  2.185036e+00    6.918467e-01   9.435606e-03
  2.187247e+00    6.879343e-01   9.408809e-03
  2.189457e+00    6.868171e-01   9.400781e-03
  2.191667e+00    6.877066e-01   9.406670e-03
  2.193878e+00    7.043571e-01   9.519310e-03
  2.196088e+00    6.945934e-01   9.452411e-03
  2.198299e+00    6.944863e-01   9.450583e-03
  2.200509e+00    6.851856e-01   9.386029e-03
  2.202720e+00    7.044355e-01   9.515784e-03
  2.204930e+00    6.904578e-01   9.419680e-03
  2.207141e+00    6.779449e-01   9.332798e-03
  2.209351e+00    6.846206e-01   9.376760e-03
  2.211562e+00    6.808245e-01   9.349087e-03
  2.213772e+00    6.902287e-01   9.357429e-03
  2.215982e+00    6.763546e-01   9.218663e-03
  2.218193e+00    6.810017e-01   9.220543e-03
  2.220403e+00    6.706765e-01   9.125867e-03
  2.222614e+00    6.752016e-01   9.135612e-03
  2.224824e+00    6.698214e-01   9.079823e-03
  2.227035e+00    6.854568e-01   9.167586e-03
  2.229245e+00    6.674330e-01   9.029338e-03
  2.231456e+00    6.553242e-01   8.931623e-03
  2.233666e+00    6.600987e-01   8.949133e-03
  2.235877e+00    6.673442e-01   8.983864e-03
  2.238087e+00    6.762630e-01   9.030165e-03
  2.240298e+00    6.704047e-01   8.977190e-03
  2.242508e+00    6.820270e-01   9.039395e-03
  2.244718e+00    6.597168e-01   8.874619e-03
  2.246929e+00    6.668924e-01   8.908346e-03
  2.249139e+00    6.700092e-01   8.916724e-03
  2.251350e+00    6.670942e-01   8.885602e-03
  2.253560e+00    6.814147e-01   8.968781e-03
  2.255771e+00    6.779116e-01   8.934181e-03
  2.257981e+00    6.595022e-01   8.800915e-03
  2.260192e+00    6.795133e-01   8.922179e-03
  2.262402e+00    6.868814e-01   8.959411e-03
  2.264613e+00    6.848884e-01   8.935377e-03
  2.266823e+00    7.020665e-01   9.036053e-03
  2.269033e+00    6.871191e-01   8.928789e-03
  2.271244e+00    6.817681e-01   8.883389e-03
  2.273454e+00    7.302311e-01   9.182905e-03
  2.275665e+00    7.769252e-01   9.460826e-03
  2.277875e+00    7.404221e-01   9.225423e-03
  2.280086e+00    6.930366e-01   8.915038e-03
  2.282296e+00    6.727977e-01   8.774378e-03
  2.284507e+00    6.618769e-01   8.692741e-03
  2.286717e+00    6.470217e-01   8.585226e-03
  2.288928e+00    6.572484e-01   8.642934e-03
  2.291138e+00    6.647130e-01   8.682418e-03
  2.293348e+00    6.543605e-01   8.604988e-03
  2.295559e+00    6.693912e-01   8.693849e-03
  2.297769e+00    6.620473e-01   8.636742e-03
  2.299980e+00    6.602603e-01   8.615689e-03
  2.302190e+00    6.603582e-01   8.607144e-03
  2.304401e+00    6.635221e-01   8.618345e-03
  2.306611e+00    6.724466e-01   8.666757e-03
  2.308822e+00    6.660860e-01   8.617211e-03
  2.311032e+00    6.642132e-01   8.598546e-03
  2.313243e+00    6.682066e-01   8.618022e-03
  2.315453e+00    6.519152e-01   8.504710e-03
  2.317663e+00    6.589441e-01   8.541234e-03
  2.319874e+00    6.416671e-01   8.419828e-03
  2.322084e+00    6.435837e-01   8.423431e-03
  2.324295e+00    6.478983e-01   8.443384e-03
  2.326505e+00    6.470796e-01   8.428972e-03
  2.328716e+00    6.394835e-01   8.370841e-03
  2.330926e+00    6.399138e-01   8.364868e-03
  2.333137e+00    6.377913e-01   8.342650e-03
  2.335347e+00    6.524852e-01   8.429234e-03
  2.337558e+00    6.526553e-01   8.422055e-03
  2.339768e+00    6.311285e-01   8.273464e-03
  2.341979e+00    6.394080e-01   8.319196e-03
  2.344189e+00    6.323886e-01   8.265028e-03
  2.346399e+00    6.519023e-01   8.382991e-03
  2.348610e+00    6.440403e-01   8.323777e-03
  2.350820e+00    6.422311e-01   8.303847e-03
  2.353031e+00    6.277905e-01   8.201719e-03
  2.355241e+00    6.364702e-01   8.250135e-03
  2.357452e+00    6.464464e-01   8.306039e-03
  2.359662e+00    6.380876e-01   8.243892e-03
  2.361873e+00    6.265011e-01   8.160504e-03
  2.364083e+00    6.241490e-01   8.137212e-03
  2.366294e+00    6.387266e-01   8.223505e-03
  2.368504e+00    6.258774e-01   8.132304e-03
  2.370714e+00    6.250981e-01   8.119184e-03
  2.372925e+00    6.205354e-01   8.081483e-03
  2.375135e+00    6.088414e-01   7.997011e-03
  2.377346e+00    6.228354e-01   8.080452e-03
  2.379556e+00    6.224344e-01   8.069948e-03
  2.381767e+00    6.133934e-01   8.003329e-03
  2.383977e+00    6.241928e-01   8.065499e-03
  2.386188e+00    6.292669e-01   8.090255e-03
  2.388398e+00    6.138803e-01   7.982804e-03
  2.390609e+00    6.185885e-01   8.005616e-03
  2.392819e+00    6.133646e-01   7.964000e-03
  2.395029e+00    6.048871e-01   7.901159e-03
  2.397240e+00    6.213488e-01   8.000049e-03
  2.399450e+00    6.344081e-01   8.075730e-03
  2.401661e+00    6.252258e-01   8.009333e-03
  2.403871e+00    6.161582e-01   7.943253e-03
  2.406082e+00    6.024652e-01   7.847090e-03
  2.408292e+00    6.169642e-01   7.933116e-03
  2.410503e+00    6.075544e-01   7.864911e-03
  2.412713e+00    6.079547e-01   7.859686e-03
  2.414924e+00    6.207543e-01   7.934426e-03
  2.417134e+00    6.235580e-01   7.944567e-03
  2.419344e+00    6.140035e-01   7.876000e-03
  2.421555e+00    5.974797e-01   7.761815e-03
  2.423765e+00    6.071898e-01   7.817185e-03
  2.425976e+00    5.980259e-01   7.750174e-03
  2.428186e+00    6.010336e-01   7.762415e-03
  2.430397e+00    5.891413e-01   7.677807e-03
  2.432607e+00    6.002594e-01   7.742593e-03
  2.434818e+00    5.948034e-01   7.699803e-03
  2.437028e+00    5.988278e-01   7.718616e-03
  2.439239e+00    5.934701e-01   7.676376e-03
  2.441449e+00    5.929762e-01   7.665967e-03
  2.443659e+00    5.852507e-01   7.608545e-03
  2.445870e+00    5.845929e-01   7.616482e-03
  2.448080e+00    5.844737e-01   7.650528e-03
  2.450291e+00    5.818002e-01   7.649718e-03
  2.452501e+00    5.721832e-01   7.597326e-03
  2.454712e+00    5.771882e-01   7.638950e-03
  2.456922e+00    5.798848e-01   7.663442e-03
  2.459133e+00    5.755916e-01   7.640494e-03
  2.461343e+00    5.747020e-01   7.638977e-03
  2.463554e+00    5.657693e-01   7.582848e-03
  2.465764e+00    5.698599e-01   7.613359e-03
  2.467975e+00    5.529464e-01   7.501817e-03
  2.470185e+00    5.401863e-01   7.416946e-03
  2.472395e+00    5.491612e-01   7.479532e-03
  2.474606e+00    5.563015e-01   7.529563e-03
  2.476816e+00    5.556400e-01   7.525824e-03
  2.479027e+00    5.383543e-01   7.408679e-03
  2.481237e+00    5.401441e-01   7.421257e-03
  2.483448e+00    5.512769e-01   7.497647e-03
  2.485658e+00    5.371439e-01   7.400785e-03
  2.487869e+00    5.452014e-01   7.456102e-03
  2.490079e+00    5.378640e-01   7.405260e-03
  2.492290e+00    5.515725e-01   7.498589e-03
  2.494500e+00    5.549853e-01   7.521002e-03
  2.496710e+00    5.595564e-01   7.551209e-03
  2.498921e+00    5.548461e-01   7.518351e-03
  2.501131e+00    5.521198e-01   7.498889e-03
  2.503342e+00    5.490830e-01   7.476969e-03
  2.505552e+00    5.308949e-01   7.350954e-03
  2.507763e+00    5.180368e-01   7.259982e-03
  2.509973e+00    5.329818e-01   7.362552e-03
  2.512184e+00    5.250261e-01   7.305804e-03
  2.514394e+00    5.215287e-01   7.272105e-03
  2.516605e+00    5.257558e-01   7.254484e-03
  2.518815e+00    5.319338e-01   7.268503e-03
  2.521025e+00    5.249476e-01   7.199667e-03
  2.523236e+00    5.304399e-01   7.219161e-03
  2.525446e+00    5.342005e-01   7.228971e-03
  2.527657e+00    5.316746e-01   7.197167e-03
  2.529867e+00    5.288067e-01   7.163514e-03
  2.532078e+00    5.347494e-01   7.188444e-03
  2.534288e+00    5.478942e-01   7.262105e-03
  2.536499e+00    5.311601e-01   7.138328e-03
  2.538709e+00    5.188197e-01   7.043967e-03
  2.540920e+00    5.280108e-01   7.095403e-03
  2.543130e+00    5.314876e-01   7.108289e-03
  2.545340e+00    5.301371e-01   7.089143e-03
  2.547551e+00    5.352142e-01   7.112918e-03
  2.549761e+00    5.381873e-01   7.122948e-03
  2.551972e+00    5.419268e-01   7.138108e-03
  2.554182e+00    5.392137e-01   7.110891e-03
  2.556393e+00    5.267904e-01   7.019352e-03
  2.558603e+00    5.205678e-01   6.968689e-03
  2.560814e+00    5.247809e-01   6.988096e-03
  2.563024e+00    5.190017e-01   6.940934e-03
  2.565235e+00    5.156273e-01   6.908850e-03
  2.567445e+00    5.171788e-01   6.909710e-03
  2.569656e+00    5.025069e-01   6.801383e-03
  2.571866e+00    5.151067e-01   6.876797e-03
  2.574076e+00    4.976503e-01   6.750192e-03
  2.576287e+00    4.961390e-01   6.731734e-03
  2.578497e+00    5.210792e-01   6.890995e-03
  2.580708e+00    5.042691e-01   6.770946e-03
  2.582918e+00    5.047907e-01   6.766745e-03
  2.585129e+00    5.113942e-01   6.803127e-03
  2.587339e+00    5.211720e-01   6.860141e-03
  2.589550e+00    5.123370e-01   6.794198e-03
  2.591760e+00    5.150844e-01   6.804614e-03
  2.593971e+00    5.269083e-01   6.874651e-03
  2.596181e+00    5.092648e-01   6.752364e-03
  2.598391e+00    5.094538e-01   6.748426e-03
  2.600602e+00    5.071756e-01   6.727423e-03
  2.602812e+00    5.278680e-01   6.855603e-03
  2.605023e+00    5.304044e-01   6.864748e-03
  2.607233e+00    5.106065e-01   6.728261e-03
  2.609444e+00    5.193800e-01   6.778489e-03
  2.611654e+00    5.226553e-01   6.792407e-03
  2.613865e+00    5.181156e-01   6.755722e-03
  2.616075e+00    5.189712e-01   6.754069e-03
  2.618286e+00    5.124389e-01   6.704397e-03
  2.620496e+00    4.953723e-01   6.585158e-03
  2.622706e+00    5.004401e-01   6.613050e-03
  2.624917e+00    5.011252e-01   6.611732e-03
  2.627127e+00    5.049006e-01   6.630855e-03
  2.629338e+00    5.019928e-01   6.605761e-03
  2.631548e+00    5.069586e-01   6.632171e-03
  2.633759e+00    4.982265e-01   6.567688e-03
  2.635969e+00    4.918450e-01   6.518863e-03
  2.638180e+00    4.922177e-01   6.514411e-03
  2.640390e+00    4.996601e-01   6.556887e-03
  2.642601e+00    5.095338e-01   6.614627e-03
  2.644811e+00    5.021096e-01   6.559185e-03
  2.647021e+00    4.975387e-01   6.522710e-03
  2.649232e+00    5.061987e-01   6.572455e-03
  2.651442e+00    4.990565e-01   6.519433e-03
  2.653653e+00    4.925891e-01   6.470313e-03
  2.655863e+00    4.955836e-01   6.483259e-03
  2.658074e+00    5.126069e-01   6.586968e-03
  2.660284e+00    5.175611e-01   6.612253e-03
  2.662495e+00    4.979820e-01   6.479226e-03
  2.664705e+00    4.959788e-01   6.459590e-03
  2.666916e+00    5.027655e-01   6.497161e-03
  2.669126e+00    4.973424e-01   6.455536e-03
  2.671337e+00    4.993361e-01   6.461861e-03
  2.673547e+00    4.962757e-01   6.435650e-03
  2.675757e+00    4.983524e-01   6.442616e-03
  2.677968e+00    4.919475e-01   6.394583e-03
  2.680178e+00    4.991128e-01   6.434538e-03
  2.682389e+00    5.060701e-01   6.472758e-03
  2.684599e+00    5.029187e-01   6.446328e-03
  2.686810e+00    4.922212e-01   6.370788e-03
  2.689020e+00    5.020418e-01   6.427677e-03
  2.691231e+00    5.020369e-01   6.421280e-03
  2.693441e+00    4.955418e-01   6.373445e-03
  2.695652e+00    4.735238e-01   6.223836e-03
  2.697862e+00    4.810981e-01   6.267112e-03
  2.700072e+00    4.897766e-01   6.317311e-03
  2.702283e+00    4.999955e-01   6.376589e-03
  2.704493e+00    4.911063e-01   6.313361e-03
  2.706704e+00    4.808278e-01   6.240583e-03
  2.708914e+00    4.861884e-01   6.269315e-03
  2.711125e+00    4.793439e-01   6.218846e-03
  2.713335e+00    4.850264e-01   6.249515e-03
  2.715546e+00    4.745283e-01   6.175146e-03
  2.717756e+00    4.798466e-01   6.203787e-03
  2.719967e+00    4.908303e-01   6.268156e-03
  2.722177e+00    4.915693e-01   6.266708e-03
  2.724387e+00    4.906574e-01   6.254767e-03
  2.726598e+00    4.868528e-01   6.224390e-03
  2.728808e+00    4.865643e-01   6.216395e-03
  2.731019e+00    4.909332e-01   6.238067e-03
  2.733229e+00    4.866172e-01   6.204778e-03
  2.735440e+00    4.869075e-01   6.200343e-03
  2.737650e+00    4.762073e-01   6.125865e-03
  2.739861e+00    4.811291e-01   6.151369e-03
  2.742071e+00    4.754180e-01   6.109071e-03
  2.744282e+00    4.791150e-01   6.126534e-03
  2.746492e+00    5.061484e-01   6.290834e-03
  2.748702e+00    4.836127e-01   6.143297e-03
  2.750913e+00    4.745525e-01   6.079698e-03
  2.753123e+00    4.728478e-01   6.062731e-03
  2.755334e+00    4.741661e-01   6.065128e-03
  2.757544e+00    4.814495e-01   6.105789e-03
  2.759755e+00    4.936878e-01   6.176944e-03
  2.761965e+00    4.916726e-01   6.158268e-03
  2.764176e+00    4.865884e-01   6.120327e-03
  2.766386e+00    4.767787e-01   6.052543e-03
  2.768597e+00    4.814653e-01   6.076348e-03
  2.770807e+00    4.702746e-01   5.999485e-03
  2.773017e+00    4.798751e-01   6.054438e-03
  2.775228e+00    4.800270e-01   6.049609e-03
  2.777438e+00    4.835938e-01   6.066204e-03
  2.779649e+00    4.866438e-01   6.079367e-03
  2.781859e+00    4.817518e-01   6.042933e-03
  2.784070e+00    4.831257e-01   6.045658e-03
  2.786280e+00    4.773927e-01   6.003900e-03
  2.788491e+00    4.829445e-01   6.032858e-03
  2.790701e+00    4.807698e-01   6.013560e-03
  2.792912e+00    4.863850e-01   6.042562e-03
  2.795122e+00    4.826686e-01   6.013672e-03
  2.797333e+00    4.752733e-01   5.961849e-03
  2.799543e+00    4.779735e-01   5.972895e-03
  2.801753e+00    4.758870e-01   5.953974e-03
  2.803964e+00    4.727098e-01   5.928439e-03
  2.806174e+00    4.657289e-01   5.878389e-03
  2.808385e+00    4.720520e-01   5.911405e-03
  2.810595e+00    4.746541e-01   5.920789e-03
  2.812806e+00    4.834785e-01   5.968916e-03
  2.815016e+00    4.817807e-01   5.953646e-03
  2.817227e+00    4.776396e-01   5.954016e-03
  2.819437e+00    4.883009e-01   6.031361e-03
  2.821648e+00    4.740142e-01   5.944767e-03
  2.823858e+00    4.747412e-01   5.954660e-03
  2.826068e+00    4.778422e-01   5.979082e-03
  2.828279e+00    4.787092e-01   5.988582e-03
  2.830489e+00    4.745145e-01   5.965611e-03
  2.832700e+00    4.653047e-01   5.909995e-03
  2.834910e+00    4.652263e-01   5.911534e-03
  2.837121e+00    4.641293e-01   5.906260e-03
  2.839331e+00    4.726865e-01   5.961692e-03
  2.841542e+00    4.641476e-01   5.908614e-03
  2.843752e+00    4.671941e-01   5.928729e-03
  2.845963e+00    4.824840e-01   6.025384e-03
  2.848173e+00    4.738572e-01   5.971373e-03
  2.850383e+00    4.702760e-01   5.949041e-03
  2.852594e+00    4.695299e-01   5.944254e-03
  2.854804e+00    4.723372e-01   5.961494e-03
  2.857015e+00    4.592333e-01   5.877774e-03
  2.859225e+00    4.694106e-01   5.942304e-03
  2.861436e+00    4.606804e-01   5.886131e-03
  2.863646e+00    4.693278e-01   5.941164e-03
  2.865857e+00    4.687125e-01   5.937602e-03
  2.868067e+00    4.616935e-01   5.893199e-03
  2.870278e+00    4.694340e-01   5.942044e-03
  2.872488e+00    4.718407e-01   5.956082e-03
  2.874698e+00    4.626072e-01   5.896482e-03
  2.876909e+00    4.719626e-01   5.954452e-03
  2.879119e+00    4.586922e-01   5.868538e-03
  2.881330e+00    4.639738e-01   5.900753e-03
  2.883540e+00    4.713175e-01   5.945852e-03
  2.885751e+00    4.876052e-01   6.046038e-03
  2.887961e+00    4.636284e-01   5.893646e-03
  2.890172e+00    4.691460e-01   5.926977e-03
  2.892382e+00    4.633780e-01   5.888616e-03
  2.894593e+00    4.658315e-01   5.902374e-03
  2.896803e+00    4.464919e-01   5.776597e-03
  2.899014e+00    4.528037e-01   5.815382e-03
  2.901224e+00    4.551208e-01   5.828266e-03
  2.903434e+00    4.625492e-01   5.873674e-03
  2.905645e+00    4.744402e-01   5.946453e-03
  2.907855e+00    4.555944e-01   5.825066e-03
  2.910066e+00    4.614820e-01   5.860480e-03
  2.912276e+00    4.651197e-01   5.881413e-03
  2.914487e+00    4.584779e-01   5.836803e-03
  2.916697e+00    4.757731e-01   5.943616e-03
  2.918908e+00    4.537925e-01   5.802711e-03
  2.921118e+00    4.633745e-01   5.860934e-03
  2.923329e+00    4.503542e-01   5.775706e-03
  2.925539e+00    4.600414e-01   5.835203e-03
  2.927749e+00    4.760675e-01   5.933614e-03
  2.929960e+00    4.607220e-01   5.834425e-03
  2.932170e+00    4.549459e-01   5.795404e-03
  2.934381e+00    4.596821e-01   5.823051e-03
  2.936591e+00    4.639386e-01   5.847319e-03
  2.938802e+00    4.621704e-01   5.833486e-03
  2.941012e+00    4.353898e-01   5.659648e-03
  2.943223e+00    4.568191e-01   5.794534e-03
  2.945433e+00    4.632209e-01   5.831263e-03
  2.947644e+00    4.483496e-01   5.732783e-03
  2.949854e+00    4.471299e-01   5.720727e-03
  2.952064e+00    4.596886e-01   5.796290e-03
  2.954275e+00    4.523155e-01   5.745209e-03
  2.956485e+00    4.697903e-01   5.850888e-03
  2.958696e+00    4.622200e-01   5.799148e-03
  2.960906e+00    4.577665e-01   5.766948e-03
  2.963117e+00    4.534316e-01   5.735098e-03
  2.965327e+00    4.659291e-01   5.809645e-03
  2.967538e+00    4.641551e-01   5.795628e-03
  2.969748e+00    4.582426e-01   5.755772e-03
  2.971959e+00    4.499678e-01   5.700466e-03
  2.974169e+00    4.466162e-01   5.676601e-03
  2.976379e+00    4.591356e-01   5.752693e-03
  2.978590e+00    4.544658e-01   5.720228e-03
  2.980800e+00    4.531294e-01   5.709016e-03
  2.983011e+00    4.556862e-01   5.722295e-03
  2.985221e+00    4.455514e-01   5.655174e-03
  2.987432e+00    4.605432e-01   5.746411e-03
  2.989642e+00    4.562454e-01   5.716886e-03
  2.991853e+00    4.581890e-01   5.725776e-03
  2.994063e+00    4.568320e-01   5.714357e-03
  2.996274e+00    4.519093e-01   5.680318e-03
  2.998484e+00    4.636579e-01   5.750948e-03
  3.000694e+00    4.586199e-01   5.716157e-03
  3.002905e+00    4.528330e-01   5.677021e-03
  3.005115e+00    4.724213e-01   5.795491e-03
  3.007326e+00    4.437836e-01   5.613953e-03
  3.009536e+00    4.612693e-01   5.720201e-03
  3.011747e+00    4.587342e-01   5.701522e-03
  3.013957e+00    4.592824e-01   5.701744e-03
  3.016168e+00    4.475984e-01   5.625507e-03
  3.018378e+00    4.483688e-01   5.627311e-03
  3.020589e+00    4.490468e-01   5.628364e-03
  3.022799e+00    4.480520e-01   5.618994e-03
  3.025010e+00    4.510823e-01   5.634712e-03
  3.027220e+00    4.501445e-01   5.625755e-03
  3.029430e+00    4.590506e-01   5.677869e-03
  3.031641e+00    4.401720e-01   5.556802e-03
  3.033851e+00    4.585395e-01   5.667984e-03
  3.036062e+00    4.559924e-01   5.649453e-03
  3.038272e+00    4.415596e-01   5.555789e-03
  3.040483e+00    4.458770e-01   5.579672e-03
  3.042693e+00    4.495381e-01   5.599278e-03
  3.044904e+00    4.547749e-01   5.627754e-03
  3.047114e+00    4.470045e-01   5.574699e-03
  3.049325e+00    4.571613e-01   5.633226e-03
  3.051535e+00    4.584291e-01   5.636609e-03
  3.053745e+00    4.488356e-01   5.572596e-03
  3.055956e+00    4.462752e-01   5.552112e-03
  3.058166e+00    4.572619e-01   5.615749e-03
  3.060377e+00    4.534507e-01   5.587506e-03
  3.062587e+00    4.623351e-01   5.637292e-03
  3.064798e+00    4.553130e-01   5.590042e-03
  3.067008e+00    4.459783e-01   5.527730e-03
  3.069219e+00    4.517625e-01   5.558924e-03
  3.071429e+00    4.606828e-01   5.609998e-03
  3.073640e+00    4.509922e-01   5.547349e-03
  3.075850e+00    4.430564e-01   5.494756e-03
  3.078060e+00    4.557323e-01   5.569671e-03
  3.080271e+00    4.469234e-01   5.512123e-03
  3.082481e+00    4.507417e-01   5.532168e-03
  3.084692e+00    4.384284e-01   5.452739e-03
  3.086902e+00    4.397584e-01   5.457783e-03
  3.089113e+00    4.489532e-01   5.510982e-03
  3.091323e+00    4.458056e-01   5.488251e-03
  3.093534e+00    4.483668e-01   5.500625e-03
  3.095744e+00    4.548246e-01   5.536679e-03
  3.097955e+00    4.603437e-01   5.566603e-03
  3.100165e+00    4.478289e-01   5.487052e-03
  3.102375e+00    4.556749e-01   5.531484e-03
  3.104586e+00    4.403045e-01   5.433900e-03
  3.106796e+00    4.358186e-01   5.402692e-03
  3.109007e+00    4.358549e-01   5.399710e-03
  3.111217e+00    4.645982e-01   5.571158e-03
  3.113428e+00    4.572240e-01   5.523324e-03
  3.115638e+00    4.575685e-01   5.522120e-03
  3.117849e+00    4.503804e-01   5.474827e-03
  3.120059e+00    4.586684e-01   5.521447e-03
  3.122270e+00    4.554718e-01   5.498894e-03
  3.124480e+00    4.417023e-01   5.411456e-03
  3.126691e+00    4.508235e-01   5.463465e-03
  3.128901e+00    4.511471e-01   5.462263e-03
  3.131111e+00    4.360462e-01   5.366288e-03
  3.133322e+00    4.527711e-01   5.464719e-03
  3.135532e+00    4.604471e-01   5.507402e-03
  3.137743e+00    4.517035e-01   5.451366e-03
  3.139953e+00    4.425810e-01   5.392344e-03
  3.142164e+00    4.556120e-01   5.483329e-03
  3.144374e+00    4.624961e-01   5.553657e-03
  3.146585e+00    4.599132e-01   5.552974e-03
  3.148795e+00    4.530918e-01   5.522547e-03
  3.151006e+00    4.554472e-01   5.545563e-03
  3.153216e+00    4.411414e-01   5.464905e-03
  3.155426e+00    4.495869e-01   5.523325e-03
  3.157637e+00    4.509153e-01   5.537085e-03
  3.159847e+00    4.540829e-01   5.561428e-03
  3.162058e+00    4.446134e-01   5.507623e-03
  3.164268e+00    4.280998e-01   5.408337e-03
  3.166479e+00    4.390009e-01   5.480442e-03
  3.168689e+00    4.482065e-01   5.540983e-03
  3.170900e+00    4.481875e-01   5.544089e-03
  3.173110e+00    4.449271e-01   5.526775e-03
  3.175321e+00    4.330560e-01   5.455023e-03
  3.177531e+00    4.371248e-01   5.483332e-03
  3.179741e+00    4.413999e-01   5.512131e-03
  3.181952e+00    4.463255e-01   5.544980e-03
  3.184162e+00    4.270863e-01   5.426291e-03
  3.186373e+00    4.331173e-01   5.466065e-03
  3.188583e+00    4.307558e-01   5.452914e-03
  3.190794e+00    4.289716e-01   5.443361e-03
  3.193004e+00    4.287623e-01   5.443258e-03
  3.195215e+00    4.320359e-01   5.465479e-03
  3.197425e+00    4.366640e-01   5.495920e-03
  3.199636e+00    4.276974e-01   5.438412e-03
  3.201846e+00    4.269952e-01   5.433361e-03
  3.204056e+00    4.307217e-01   5.457890e-03
  3.206267e+00    4.403228e-01   5.519230e-03
  3.208477e+00    4.451167e-01   5.550147e-03
  3.210688e+00    4.370178e-01   5.500277e-03
  3.212898e+00    4.365721e-01   5.498037e-03
  3.215109e+00    4.283140e-01   5.446540e-03
  3.217319e+00    4.346127e-01   5.487085e-03
  3.219530e+00    4.259353e-01   5.432412e-03
  3.221740e+00    4.448138e-01   5.552075e-03
  3.223951e+00    4.294502e-01   5.455839e-03
  3.226161e+00    4.201544e-01   5.396613e-03
  3.228372e+00    4.424038e-01   5.538225e-03
  3.230582e+00    4.389182e-01   5.516492e-03
  3.232792e+00    4.223358e-01   5.411510e-03
  3.235003e+00    4.343992e-01   5.488491e-03
  3.237213e+00    4.227702e-01   5.414653e-03
  3.239424e+00    4.122379e-01   5.346755e-03
  3.241634e+00    4.239649e-01   5.422408e-03
  3.243845e+00    4.246576e-01   5.426905e-03
  3.246055e+00    4.290636e-01   5.454700e-03
  3.248266e+00    4.323300e-01   5.475642e-03
  3.250476e+00    4.204763e-01   5.399757e-03
  3.252687e+00    4.249293e-01   5.428177e-03
  3.254897e+00    4.233496e-01   5.417964e-03
  3.257107e+00    4.312626e-01   5.468053e-03
  3.259318e+00    4.286272e-01   5.451091e-03
  3.261528e+00    4.216436e-01   5.406357e-03
  3.263739e+00    4.258932e-01   5.432977e-03
  3.265949e+00    4.286299e-01   5.450278e-03
  3.268160e+00    4.262647e-01   5.434800e-03
  3.270370e+00    4.280557e-01   5.445707e-03
  3.272581e+00    4.310307e-01   5.464314e-03
  3.274791e+00    4.097506e-01   5.327206e-03
  3.277002e+00    4.325227e-01   5.472647e-03
  3.279212e+00    4.306014e-01   5.460117e-03
  3.281422e+00    4.309248e-01   5.461576e-03
  3.283633e+00    4.387175e-01   5.510035e-03
  3.285843e+00    4.483637e-01   5.569948e-03
  3.288054e+00    4.371630e-01   5.498992e-03
  3.290264e+00    4.251803e-01   5.422776e-03
  3.292475e+00    4.366939e-01   5.494866e-03
  3.294685e+00    4.322126e-01   5.465954e-03
  3.296896e+00    4.228753e-01   5.405854e-03
  3.299106e+00    4.141018e-01   5.348917e-03
  3.301317e+00    4.163464e-01   5.362378e-03
  3.303527e+00    4.174439e-01   5.368981e-03
  3.305737e+00    4.206817e-01   5.388704e-03
  3.307948e+00    4.244343e-01   5.412021e-03
  3.310158e+00    4.206244e-01   5.386852e-03
  3.312369e+00    4.254433e-01   5.416696e-03
  3.314579e+00    4.194757e-01   5.377709e-03
  3.316790e+00    4.218867e-01   5.392399e-03
  3.319000e+00    4.279698e-01   5.429957e-03
  3.321211e+00    4.315076e-01   5.451733e-03
  3.323421e+00    4.268537e-01   5.421070e-03
  3.325632e+00    4.139842e-01   5.337808e-03
  3.327842e+00    4.317805e-01   5.450413e-03
  3.330052e+00    4.417084e-01   5.511647e-03
  3.332263e+00    4.176823e-01   5.358636e-03
  3.334473e+00    4.208031e-01   5.377687e-03
  3.336684e+00    4.153644e-01   5.341589e-03
  3.338894e+00    4.178395e-01   5.356629e-03
  3.341105e+00    4.150014e-01   5.337194e-03
  3.343315e+00    4.273755e-01   5.415048e-03
  3.345526e+00    4.346327e-01   5.459916e-03
  3.347736e+00    4.145536e-01   5.330907e-03
  3.349947e+00    4.215212e-01   5.374575e-03
  3.352157e+00    4.226328e-01   5.380491e-03
  3.354368e+00    4.168513e-01   5.342278e-03
  3.356578e+00    3.999795e-01   5.232045e-03
  3.358788e+00    4.217629e-01   5.371275e-03
  3.360999e+00    4.365099e-01   5.463102e-03
  3.363209e+00    4.407160e-01   5.488338e-03
  3.365420e+00    4.171909e-01   5.338339e-03
  3.367630e+00    4.169638e-01   5.335843e-03
  3.369841e+00    4.194043e-01   5.350042e-03
  3.372051e+00    4.111867e-01   5.295365e-03
  3.374262e+00    4.226612e-01   5.366307e-03
  3.376472e+00    4.367782e-01   5.452686e-03
  3.378683e+00    4.251223e-01   5.376902e-03
  3.380893e+00    4.330416e-01   5.424367e-03
  3.383103e+00    3.996025e-01   5.208088e-03
  3.385314e+00    4.168040e-01   5.316749e-03
  3.387524e+00    4.302345e-01   5.398945e-03
  3.389735e+00    4.135838e-01   5.290844e-03
  3.391945e+00    4.356038e-01   5.426045e-03
  3.394156e+00    4.133880e-01   5.281683e-03
  3.396366e+00    4.170032e-01   5.301291e-03
  3.398577e+00    4.114014e-01   5.262509e-03
  3.400787e+00    4.091356e-01   5.259892e-03
  3.402998e+00    4.093604e-01   5.299368e-03
  3.405208e+00    3.961608e-01   5.233663e-03
  3.407418e+00    3.963386e-01   5.250499e-03
  3.409629e+00    4.106778e-01   5.358776e-03
  3.411839e+00    3.953487e-01   5.269544e-03
  3.414050e+00    3.988802e-01   5.304028e-03
  3.416260e+00    4.004994e-01   5.324516e-03
  3.418471e+00    4.047137e-01   5.361989e-03
  3.420681e+00    4.010401e-01   5.346200e-03
  3.422892e+00    3.836144e-01   5.236675e-03
  3.425102e+00    3.881657e-01   5.275459e-03
  3.427313e+00    3.835220e-01   5.250946e-03
  3.429523e+00    3.752105e-01   5.200694e-03
  3.431733e+00    3.742444e-01   5.200548e-03
  3.433944e+00    3.884900e-01   5.305124e-03
  3.436154e+00    3.864450e-01   5.297391e-03
  3.438365e+00    4.012968e-01   5.404327e-03
  3.440575e+00    3.937634e-01   5.359409e-03
  3.442786e+00    3.697589e-01   5.198993e-03
  3.444996e+00    3.879691e-01   5.331066e-03
  3.447207e+00    3.635349e-01   5.165674e-03
  3.449417e+00    3.749801e-01   5.287354e-03
  3.451628e+00    3.704403e-01   5.284758e-03
  3.453838e+00    3.624529e-01   5.248488e-03
  3.456049e+00    3.706597e-01   5.331585e-03
  3.458259e+00    3.708670e-01   5.355158e-03
  3.460469e+00    3.601395e-01   5.296739e-03
  3.462680e+00    3.618882e-01   5.328542e-03
  3.464890e+00    3.798720e-01   5.477428e-03
  3.467101e+00    3.734297e-01   5.448448e-03
  3.469311e+00    3.685956e-01   5.429532e-03
  3.471522e+00    3.749287e-01   5.492384e-03
  3.473732e+00    4.005874e-01   5.693595e-03
  3.475943e+00    4.051488e-01   5.742101e-03
  3.478153e+00    4.073018e-01   5.773160e-03
  3.480364e+00    4.180613e-01   5.864529e-03
  3.482574e+00    4.041657e-01   5.781603e-03
  3.484784e+00    4.166777e-01   5.885368e-03
  3.486995e+00    4.444680e-01   6.094086e-03
  3.489205e+00    4.422688e-01   6.094001e-03
  3.491416e+00    4.312322e-01   6.032439e-03
  3.493626e+00    4.453509e-01   6.145176e-03
  3.495837e+00    4.536478e-01   6.217130e-03
  3.498047e+00    4.546493e-01   6.238638e-03
  3.500258e+00    4.637894e-01   6.315815e-03
  3.502468e+00    4.524513e-01   6.252517e-03
  3.504679e+00    4.605666e-01   6.322852e-03
  3.506889e+00    4.464286e-01   6.239155e-03
  3.509099e+00    4.705696e-01   6.419979e-03
  3.511310e+00    4.775153e-01   6.481688e-03
  3.513520e+00    4.927511e-01   6.598836e-03
  3.515731e+00    4.956077e-01   6.632481e-03
  3.517941e+00    4.838232e-01   6.567412e-03
  3.520152e+00    5.147054e-01   6.788352e-03
  3.522362e+00    5.242953e-01   6.866140e-03
  3.524573e+00    5.075807e-01   6.770106e-03
  3.526783e+00    5.212341e-01   6.874049e-03
  3.528994e+00    5.157134e-01   6.849762e-03
  3.531204e+00    5.084940e-01   6.813976e-03
  3.533414e+00    5.329781e-01   6.988224e-03
  3.535625e+00    5.598554e-01   7.175000e-03
  3.537835e+00    5.472074e-01   7.105818e-03
  3.540046e+00    5.262558e-01   6.977266e-03
  3.542256e+00    5.328777e-01   7.028564e-03
  3.544467e+00    5.448613e-01   7.114822e-03
  3.546677e+00    5.596727e-01   7.218614e-03
  3.548888e+00    5.495000e-01   7.160321e-03
  3.551098e+00    5.510714e-01   7.177933e-03
  3.553309e+00    5.511860e-01   7.186967e-03
  3.555519e+00    5.471780e-01   7.172191e-03
  3.557729e+00    5.490655e-01   7.196414e-03
  3.559940e+00    5.560900e-01   7.254079e-03
  3.562150e+00    5.447539e-01   7.191580e-03
  3.564361e+00    5.243278e-01   7.068607e-03
  3.566571e+00    5.606436e-01   7.323415e-03
  3.568782e+00    5.577402e-01   7.318915e-03
  3.570992e+00    5.425494e-01   7.232319e-03
  3.573203e+00    5.594552e-01   7.358614e-03
  3.575413e+00    5.503318e-01   7.312339e-03
  3.577624e+00    5.393108e-01   7.252905e-03
  3.579834e+00    5.262402e-01   7.178229e-03
  3.582045e+00    5.312538e-01   7.226309e-03
  3.584255e+00    5.344653e-01   7.262155e-03
  3.586465e+00    5.486340e-01   7.371880e-03
  3.588676e+00    5.288975e-01   7.252195e-03
  3.590886e+00    5.256633e-01   7.243508e-03
  3.593097e+00    5.287583e-01   7.279248e-03
  3.595307e+00    5.250409e-01   7.267385e-03
  3.597518e+00    5.382329e-01   7.372369e-03
  3.599728e+00    5.352971e-01   7.366332e-03
  3.601939e+00    5.354597e-01   7.381523e-03
  3.604149e+00    5.485870e-01   7.486002e-03
  3.606360e+00    5.476581e-01   7.494022e-03
  3.608570e+00    5.464913e-01   7.500289e-03
  3.610780e+00    5.494266e-01   7.531663e-03
  3.612991e+00    5.382091e-01   7.464387e-03
  3.615201e+00    5.478941e-01   7.541187e-03
  3.617412e+00    5.449625e-01   7.528307e-03
  3.619622e+00    5.486560e-01   7.559814e-03
  3.621833e+00    5.343730e-01   7.467491e-03
  3.624043e+00    5.422836e-01   7.532110e-03
  3.626254e+00    5.496498e-01   7.592949e-03
  3.628464e+00    5.361711e-01   7.510315e-03
  3.630675e+00    5.346158e-01   7.513477e-03
  3.632885e+00    5.179462e-01   7.409671e-03
  3.635095e+00    5.171707e-01   7.418292e-03
  3.637306e+00    5.317669e-01   7.536578e-03
  3.639516e+00    5.360308e-01   7.581295e-03
  3.641727e+00    5.358524e-01   7.594648e-03
  3.643937e+00    5.348065e-01   7.601803e-03
  3.646148e+00    5.323914e-01   7.599255e-03
  3.648358e+00    5.569591e-01   7.787732e-03
  3.650569e+00    5.444617e-01   7.714829e-03
  3.652779e+00    5.093207e-01   7.476100e-03
  3.654990e+00    5.510304e-01   7.791338e-03
  3.657200e+00    5.360180e-01   7.699459e-03
  3.659410e+00    5.377037e-01   7.726588e-03
  3.661621e+00    5.222108e-01   7.629427e-03
  3.663831e+00    5.094526e-01   7.550456e-03
  3.666042e+00    5.309335e-01   7.723114e-03
  3.668252e+00    5.362650e-01   7.777118e-03
  3.670463e+00    5.397341e-01   7.817599e-03
  3.672673e+00    5.329018e-01   7.783406e-03
  3.674884e+00    5.230698e-01   7.726585e-03
  3.677094e+00    5.277279e-01   7.776356e-03
  3.679305e+00    5.300482e-01   7.808982e-03
  3.681515e+00    5.288258e-01   7.815611e-03
  3.683726e+00    5.224718e-01   7.784123e-03
  3.685936e+00    5.501673e-01   8.003878e-03
  3.688146e+00    5.160260e-01   7.767153e-03
  3.690357e+00    5.030347e-01   7.684273e-03
  3.692567e+00    5.172684e-01   7.808212e-03
  3.694778e+00    5.321301e-01   7.935702e-03
  3.696988e+00    5.445487e-01   8.044071e-03
  3.699199e+00    5.220404e-01   7.892259e-03
  3.701409e+00    5.281700e-01   7.954873e-03
  3.703620e+00    5.207222e-01   7.914815e-03
  3.705830e+00    5.164999e-01   7.898976e-03
  3.708041e+00    5.295180e-01   8.014495e-03
  3.710251e+00    5.451584e-01   8.149162e-03
  3.712461e+00    5.618963e-01   8.290581e-03
  3.714672e+00    5.506343e-01   8.224328e-03
  3.716882e+00    5.449848e-01   8.199128e-03
  3.719093e+00    5.360875e-01   8.149258e-03
  3.721303e+00    5.326940e-01   8.140660e-03
  3.723514e+00    5.020669e-01   7.920142e-03
  3.725724e+00    5.096494e-01   7.996703e-03
  3.727935e+00    5.255131e-01   8.137796e-03
  3.730145e+00    5.337735e-01   8.219112e-03
  3.732356e+00    5.255023e-01   8.172898e-03
  3.734566e+00    5.128599e-01   8.091478e-03
  3.736776e+00    5.117769e-01   8.100623e-03
  3.738987e+00    5.247753e-01   8.220752e-03
  3.741197e+00    5.236773e-01   8.230388e-03
  3.743408e+00    5.075576e-01   8.120659e-03
  3.745618e+00    5.231102e-01   8.262591e-03
  3.747829e+00    5.256143e-01   8.300708e-03
  3.750039e+00    5.211380e-01   8.283864e-03
  3.752250e+00    4.954174e-01   8.095034e-03
  3.754460e+00    4.935439e-01   8.097908e-03
  3.756671e+00    5.093734e-01   8.245567e-03
  3.758881e+00    5.127316e-01   8.291434e-03
  3.761091e+00    5.105088e-01   8.292580e-03
  3.763302e+00    5.164249e-01   8.359774e-03
  3.765512e+00    5.115439e-01   8.339477e-03
  3.767723e+00    4.917810e-01   8.195873e-03
  3.769933e+00    5.002244e-01   8.285116e-03
  3.772144e+00    5.140461e-01   8.418532e-03
  3.774354e+00    4.952718e-01   8.283040e-03
  3.776565e+00    5.017165e-01   8.356513e-03
  3.778775e+00    5.078939e-01   8.427834e-03
  3.780986e+00    5.056337e-01   8.429389e-03
  3.783196e+00    5.168245e-01   8.542671e-03
  3.785407e+00    5.076520e-01   8.487071e-03
  3.787617e+00    4.996708e-01   8.440750e-03
  3.789827e+00    4.909912e-01   8.387427e-03
  3.792038e+00    5.287691e-01   8.725497e-03
  3.794248e+00    5.256499e-01   8.721382e-03
  3.796459e+00    5.085256e-01   8.599699e-03
  3.798669e+00    4.984309e-01   8.535176e-03
  3.800880e+00    5.063387e-01   8.624250e-03
  3.803090e+00    5.169106e-01   8.735959e-03
  3.805301e+00    5.242692e-01   8.820563e-03
  3.807511e+00    5.194112e-01   8.801972e-03
  3.809722e+00    5.154970e-01   8.791436e-03
  3.811932e+00    4.781330e-01   8.488504e-03
  3.814142e+00    5.000799e-01   8.704063e-03
  3.816353e+00    5.088003e-01   8.802650e-03
  3.818563e+00    5.071940e-01   8.812070e-03
  3.820774e+00    5.030566e-01   8.799287e-03
  3.822984e+00    5.228196e-01   8.994449e-03
  3.825195e+00    5.108081e-01   8.914570e-03
  3.827405e+00    4.932950e-01   8.784150e-03
  3.829616e+00    5.038242e-01   8.901668e-03
  3.831826e+00    5.141835e-01   9.017280e-03
  3.834037e+00    5.076370e-01   8.984424e-03
  3.836247e+00    5.257695e-01   9.168928e-03
  3.838457e+00    5.114078e-01   9.068176e-03
  3.840668e+00    5.112696e-01   9.092548e-03
  3.842878e+00    5.292025e-01   9.277034e-03
  3.845089e+00    5.030368e-01   9.070502e-03
  3.847299e+00    5.021599e-01   9.088554e-03
  3.849510e+00    4.994112e-01   9.089657e-03
  3.851720e+00    5.047452e-01   9.159603e-03
  3.853931e+00    5.157382e-01   9.278274e-03
  3.856141e+00    4.971870e-01   9.128892e-03
  3.858352e+00    5.326164e-01   9.468550e-03
  3.860562e+00    5.246193e-01   9.417148e-03
  3.862772e+00    5.066754e-01   9.274477e-03
  3.864983e+00    5.092693e-01   9.318137e-03
  3.867193e+00    5.066633e-01   9.314383e-03
  3.869404e+00    5.007131e-01   9.279459e-03
  3.871614e+00    4.975578e-01   9.270213e-03
  3.873825e+00    5.097468e-01   9.403720e-03
  3.876035e+00    4.821321e-01   9.165835e-03
  3.878246e+00    4.938504e-01   9.302330e-03
  3.880456e+00    4.872398e-01   9.268741e-03
  3.882667e+00    5.002130e-01   9.420880e-03
  3.884877e+00    4.821766e-01   9.278907e-03
  3.887087e+00    5.105521e-01   9.578559e-03
  3.889298e+00    4.984181e-01   9.494635e-03
  3.891508e+00    4.953823e-01   9.496383e-03
  3.893719e+00    5.043668e-01   9.613472e-03
  3.895929e+00    5.128138e-01   9.725763e-03
  3.898140e+00    5.257791e-01   9.880777e-03
  3.900350e+00    5.139097e-01   9.801571e-03
  3.902561e+00    4.748431e-01   9.453480e-03
  3.904771e+00    4.819953e-01   9.556945e-03
  3.906982e+00    4.732125e-01   9.502060e-03
  3.909192e+00    5.073590e-01   9.873020e-03
  3.911403e+00    4.734400e-01   9.570797e-03
  3.913613e+00    4.774239e-01   9.644771e-03
  3.915823e+00    4.733557e-01   9.637910e-03
  3.918034e+00    4.705001e-01   9.643379e-03
  3.920244e+00    4.808477e-01   9.784332e-03
  3.922455e+00    4.856103e-01   9.868595e-03
  3.924665e+00    5.134292e-01   1.018471e-02
  3.926876e+00    5.069122e-01   1.015777e-02
  3.929086e+00    4.813790e-01   9.935657e-03
  3.931297e+00    5.158706e-01   1.032135e-02
  3.933507e+00    4.835857e-01   1.002199e-02
  3.935718e+00    4.931372e-01   1.014926e-02
  3.937928e+00    4.815210e-01   1.005843e-02
  3.940138e+00    5.080786e-01   1.036191e-02
  3.942349e+00    4.982154e-01   1.029113e-02
  3.944559e+00    5.037060e-01   1.037811e-02
  3.946770e+00    5.258833e-01   1.063550e-02
  3.948980e+00    5.142652e-01   1.054901e-02
  3.951191e+00    4.857424e-01   1.028311e-02
  3.953401e+00    4.882311e-01   1.034085e-02
  3.955612e+00    4.840258e-01   1.032771e-02
  3.957822e+00    4.824254e-01   1.034225e-02
  3.960033e+00    4.901470e-01   1.045741e-02
  3.962243e+00    4.959779e-01   1.055259e-02
  3.964453e+00    4.934075e-01   1.055868e-02
  3.966664e+00    4.725046e-01   1.036547e-02
  3.968874e+00    5.102524e-01   1.080064e-02
  3.971085e+00    5.139207e-01   1.086199e-02
  3.973295e+00    5.112407e-01   1.085569e-02
  3.975506e+00    4.906733e-01   1.065679e-02
  3.977716e+00    5.028570e-01   1.081070e-02
  3.979927e+00    4.893698e-01   1.068693e-02
  3.982137e+00    4.915113e-01   1.073272e-02
  3.984348e+00    5.037670e-01   1.088870e-02
  3.986558e+00    5.069325e-01   1.094562e-02
  3.988768e+00    4.879372e-01   1.076175e-02
  3.990979e+00    4.845910e-01   1.074750e-02
  3.993189e+00    5.075479e-01   1.102269e-02
  3.995400e+00    4.860649e-01   1.081048e-02
  3.997610e+00    5.089123e-01   1.109213e-02
  3.999821e+00    5.019826e-01   1.105458e-02
  4.002031e+00    4.897787e-01   1.095802e-02
  4.004242e+00    4.362811e-01   1.037871e-02
  4.006452e+00    4.933524e-01   1.107637e-02
  4.008663e+00    4.811870e-01   1.097885e-02
  4.010873e+00    4.641772e-01   1.082217e-02
  4.013084e+00    4.691887e-01   1.092078e-02
  4.015294e+00    4.810467e-01   1.109869e-02
  4.017504e+00    4.749481e-01   1.106948e-02
  4.019715e+00    5.202641e-01   1.162972e-02
  4.021925e+00    4.801274e-01   1.121494e-02
  4.024136e+00    4.872269e-01   1.134129e-02
  4.026346e+00    4.943960e-01   1.146912e-02
  4.028557e+00    4.701475e-01   1.122798e-02
  4.030767e+00    4.680227e-01   1.124751e-02
  4.032978e+00    4.717011e-01   1.133732e-02
  4.035188e+00    4.741994e-01   1.141295e-02
  4.037399e+00    5.327144e-01   1.214667e-02
  4.039609e+00    4.877229e-01   1.167039e-02
  4.041819e+00    4.684415e-01   1.148528e-02
  4.044030e+00    4.860843e-01   1.174969e-02
  4.046240e+00    4.623116e-01   1.150749e-02
  4.048451e+00    4.926399e-01   1.193040e-02
  4.050661e+00    4.861715e-01   1.190345e-02
  4.052872e+00    5.092676e-01   1.223707e-02
  4.055082e+00    5.047593e-01   1.223753e-02
  4.057293e+00    4.668721e-01   1.182224e-02
  4.059503e+00    4.829921e-01   1.207914e-02
  4.061714e+00    4.997683e-01   1.234469e-02
  4.063924e+00    4.946144e-01   1.233843e-02
  4.066134e+00    4.966001e-01   1.242131e-02
  4.068345e+00    4.524895e-01   1.191408e-02
  4.070555e+00    4.487242e-01   1.192146e-02
  4.072766e+00    4.752335e-01   1.232902e-02
  4.074976e+00    5.130253e-01   1.287371e-02
  4.077187e+00    4.795425e-01   1.250857e-02
  4.079397e+00    4.598065e-01   1.231085e-02
  4.081608e+00    4.811614e-01   1.265898e-02
  4.083818e+00    4.858558e-01   1.278683e-02
  4.086029e+00    5.100959e-01   1.317078e-02
  4.088239e+00    5.134780e-01   1.328591e-02
  4.090449e+00    4.763984e-01   1.286635e-02
  4.092660e+00    4.777372e-01   1.295533e-02
  4.094870e+00    4.697975e-01   1.291873e-02
  4.097081e+00    4.542080e-01   1.277229e-02
  4.099291e+00    4.272754e-01   1.243881e-02
  4.101502e+00    4.731462e-01   1.313854e-02
  4.103712e+00    4.791917e-01   1.327135e-02
  4.105923e+00    5.149114e-01   1.381032e-02
  4.108133e+00    4.940370e-01   1.357980e-02
  4.110344e+00    4.765231e-01   1.338793e-02
  4.112554e+00    4.337004e-01   1.282269e-02
  4.114764e+00    4.419479e-01   1.299587e-02
  4.116975e+00    4.519234e-01   1.319361e-02
  4.119185e+00    4.666637e-01   1.346155e-02
  4.121396e+00    4.909477e-01   1.386424e-02
  4.123606e+00    4.886741e-01   1.388896e-02
  4.125817e+00    4.988454e-01   1.409161e-02
  4.128027e+00    4.765442e-01   1.383085e-02
  4.130238e+00    5.207651e-01   1.452051e-02
  4.132448e+00    5.178307e-01   1.454232e-02
  4.134659e+00    5.146704e-01   1.456028e-02
  4.136869e+00    4.761311e-01   1.406702e-02
  4.139080e+00    5.078076e-01   1.459276e-02
  4.141290e+00    5.024735e-01   1.458039e-02
  4.143500e+00    4.947160e-01   1.453401e-02
  4.145711e+00    4.702459e-01   1.423627e-02
  4.147921e+00    4.949482e-01   1.467225e-02
  4.150132e+00    5.231839e-01   1.515711e-02
  4.152342e+00    4.729734e-01   1.448117e-02
  4.154553e+00    5.095348e-01   1.510205e-02
  4.156763e+00    4.570501e-01   1.437382e-02
  4.158974e+00    4.953926e-01   1.503987e-02
  4.161184e+00    4.843520e-01   1.494498e-02
  4.163395e+00    4.620619e-01   1.467167e-02
  4.165605e+00    5.274543e-01   1.575696e-02
  4.167815e+00    4.764600e-01   1.505419e-02
  4.170026e+00    4.690605e-01   1.501538e-02
  4.172236e+00    5.047963e-01   1.566112e-02
  4.174447e+00    4.902466e-01   1.551776e-02
  4.176657e+00    4.668486e-01   1.522595e-02
  4.178868e+00    4.664617e-01   1.530532e-02
  4.181078e+00    4.783852e-01   1.558720e-02
  4.183289e+00    5.040799e-01   1.609179e-02
  4.185499e+00    5.279652e-01   1.656612e-02
  4.187710e+00    4.499339e-01   1.538253e-02
  4.189920e+00    4.874544e-01   1.610723e-02
  4.192130e+00    5.375097e-01   1.701769e-02
  4.194341e+00    5.149869e-01   1.675925e-02
  4.196551e+00    5.436983e-01   1.732923e-02
  4.198762e+00    5.369886e-01   1.733141e-02
  4.200972e+00    4.727901e-01   1.636750e-02
  4.203183e+00    4.596095e-01   1.624427e-02
  4.205393e+00    4.733135e-01   1.659428e-02
  4.207604e+00    4.651144e-01   1.656250e-02
  4.209814e+00    4.248295e-01   1.593716e-02
  4.212025e+00    4.757625e-01   1.698511e-02
  4.214235e+00    5.075977e-01   1.766826e-02
  4.216445e+00    5.788078e-01   1.900362e-02
  4.218656e+00    4.948487e-01   1.770334e-02
  4.220866e+00    5.227426e-01   1.832980e-02
  4.223077e+00    4.994163e-01   1.805442e-02
  4.225287e+00    4.345090e-01   1.697227e-02
  4.227498e+00    5.312135e-01   1.891372e-02
  4.229708e+00    5.268638e-01   1.898903e-02
  4.231919e+00    5.053250e-01   1.875092e-02
  4.234129e+00    4.732878e-01   1.829912e-02
  4.236340e+00    4.324407e-01   1.764114e-02
  4.238550e+00    4.564897e-01   1.828473e-02
  4.240761e+00    4.753410e-01   1.882359e-02
  4.242971e+00    4.849492e-01   1.918722e-02
  4.245181e+00    4.874407e-01   1.941702e-02
  4.247392e+00    4.984080e-01   1.981754e-02
  4.249602e+00    5.499095e-01   2.102325e-02
  4.251813e+00    4.670063e-01   1.956492e-02
  4.254023e+00    3.972724e-01   1.822686e-02
  4.256234e+00    4.887137e-01   2.043156e-02
  4.258444e+00    4.962463e-01   2.080432e-02
  4.260655e+00    4.680602e-01   2.042669e-02
  4.262865e+00    5.000175e-01   2.135248e-02
  4.265076e+00    4.181781e-01   1.974902e-02
  4.267286e+00    5.143840e-01   2.216277e-02
  4.269496e+00    4.859754e-01   2.180495e-02
  4.271707e+00    4.526681e-01   2.130475e-02
  4.273917e+00    5.119538e-01   2.294960e-02
  4.276128e+00    4.485153e-01   2.176596e-02
  4.278338e+00    4.379036e-01   2.179404e-02
  4.280549e+00    4.473531e-01   2.234430e-02
  4.282759e+00    5.188634e-01   2.440928e-02
  4.284970e+00    5.008419e-01   2.433709e-02
  4.287180e+00    5.083634e-01   2.481334e-02
  4.289391e+00    5.074568e-01   2.497608e-02
  4.291601e+00    4.544342e-01   2.382498e-02
  4.293811e+00    4.496000e-01   2.388293e-02
  4.296022e+00    4.150958e-01   2.313266e-02
  4.298232e+00    4.513758e-01   2.432406e-02
  4.300443e+00    4.458484e-01   2.437452e-02
  4.302653e+00    5.449253e-01   2.718005e-02
  4.304864e+00    4.525989e-01   2.498531e-02
  4.307074e+00    5.313560e-01   2.731574e-02
  4.309285e+00    5.511054e-01   2.807061e-02
  4.311495e+00    5.272473e-01   2.771397e-02
  4.313706e+00    4.538429e-01   2.595413e-02
  4.315916e+00    4.065654e-01   2.480656e-02
  4.318126e+00    5.061423e-01   2.795218e-02
  4.320337e+00    4.538785e-01   2.673708e-02
  4.322547e+00    5.056024e-01   2.851807e-02
  4.324758e+00    5.057153e-01   2.881917e-02
  4.326968e+00    5.837290e-01   3.131016e-02
  4.329179e+00    5.223961e-01   2.994672e-02
  4.331389e+00    4.347154e-01   2.763280e-02
  4.333600e+00    5.325062e-01   3.094839e-02
  4.335810e+00    4.592227e-01   2.908245e-02
  4.338021e+00    4.596335e-01   2.946694e-02
  4.340231e+00    5.494186e-01   3.262123e-02
  4.342442e+00    4.768245e-01   3.079855e-02
  4.344652e+00    4.041919e-01   2.874012e-02
  4.346862e+00    3.231775e-01   2.605911e-02
  4.349073e+00    4.259886e-01   3.035318e-02
  4.351283e+00    5.054278e-01   3.355667e-02
  4.353494e+00    5.196481e-01   3.455156e-02
  4.355704e+00    5.399650e-01   3.578791e-02
  4.357915e+00    4.587729e-01   3.353605e-02
  4.360125e+00    4.067962e-01   3.211846e-02
  4.362336e+00    5.251799e-01   3.715916e-02
  4.364546e+00    5.373251e-01   3.826979e-02
  4.366757e+00    4.606950e-01   3.614267e-02
  4.368967e+00    5.862716e-01   4.158421e-02
  4.371177e+00    6.257930e-01   4.387623e-02
  4.373388e+00    4.755199e-01   3.910259e-02
  4.375598e+00    5.557765e-01   4.323866e-02
  4.377809e+00    3.542071e-01   3.539101e-02
  4.380019e+00    3.716035e-01   3.716255e-02
  4.382230e+00    2.539501e-01   3.157531e-02
  4.384440e+00    4.586498e-01   4.365994e-02
  4.386651e+00    4.718552e-01   4.564841e-02
  4.388861e+00    4.496287e-01   4.605398e-02
  4.391072e+00    4.921791e-01   4.987743e-02
  4.393282e+00    3.194216e-01   4.173830e-02
  4.395492e+00    6.236772e-01   6.074010e-02
  4.397703e+00    4.474521e-01   5.380483e-02
  4.399913e+00    4.211927e-01   5.483767e-02
  4.402124e+00    3.687078e-01   5.422144e-02
  4.404334e+00    3.459885e-01   5.583034e-02
  4.406545e+00    2.600084e-01   5.199768e-02
  4.408755e+00    4.149004e-01   7.124157e-02
  4.410966e+00    2.035541e-01   5.522769e-02
  4.413176e+00    1.936246e-01   6.096627e-02
  4.415387e+00   -7.935038e-01            nan
  4.417597e+00   -2.044852e+00            nan
  4.419807e+00    2.807437e-01   1.902519e-01
