# == pyFAI calibration ==
# Distance Sample to Detector: 0.216 m
# PONI: 1.166e-01, 1.308e-01 m
# Rotations: 0.000000 0.000000 0.000000 rad
# 
# == Fit2d calibration ==
# Distance Sample-beamCenter: 216.000 mm
# Center: x=1744.293, y=1555.000 pix
# Tilt: 0.000 deg  TiltPlanRot: 0.000 deg
# 
# Detector Eiger 9M	 PixelSize= 7.500e-05, 7.500e-05 m
#    Detector has a mask: True 
#    Detector has a dark current: False 
#    detector has a flat field: False 
# 
# Wavelength: 9.8e-11 m
# Mask applied: from detector
# Dark current applied: False
# Flat field applied: False
# Polarization factor: None
# Normalization factor: 1.0
# 
# Headers of the input frame:
# {
# "_array_data.header_convention": "SLS_1.0",
# "_array_data.header_contents": "# Detector: Dectris Eiger 9M, S/N E-18-0102\r\n# Pixel_size 75e-6 m x 75e-6 m\r\n# Silicon sensor, thickness 0.000450 m\r\n# Exposure_time 0.024997 s\r\n# Exposure_period 0.025000 s\r\n# Count_cutoff 62318 counts\r\n# Wavelength 0.980106 A\r\n# Detector_distance 0.215992 m\r\n# Beam_xy (1555, 1744) pixels\r\n# Start_angle 0.000000 deg.\r\n# Angle_increment 0.000000 deg.",
# "Content-Type": "application/octet-stream;",
# "conversions": "x-CBF_BYTE_OFFSET",
# "Content-Transfer-Encoding": "BINARY",
# "X-Binary-Size": "10166590",
# "X-Binary-ID": "1",
# "X-Binary-Element-Type": "signed 32-bit integer",
# "X-Binary-Element-Byte-Order": "LITTLE_ENDIAN",
# "Content-MD5": "R93pLHhVOj42VMVVTweVDQ==",
# "X-Binary-Number-of-Elements": "10166590",
# "X-Binary-Size-Fastest-Dimension": "3110",
# "X-Binary-Size-Second-Dimension": "3269",
# "X-Binary-Size-Padding": "4095"
# }
# --> H:/Proxima2a_2019-04-05/RAW_DATA/C5_gel17_position5/C5_mesh_1_data.cbf/C5_mesh_1_data.cbf000179.dat
#        q_A^-1              I           sigma 
  1.105228e-03    1.225504e+00   5.990242e-01
  3.315685e-03    1.657252e+00   4.234866e-01
  5.526141e-03    1.504037e+00   3.119618e-01
  7.736597e-03    1.391491e+00   2.534897e-01
  9.947054e-03    1.180398e+00   2.058215e-01
  1.215751e-02    1.218698e+00   1.891109e-01
  1.436797e-02    1.542430e+00   1.956945e-01
  1.657842e-02    1.173987e+00   1.589191e-01
  1.878888e-02    1.371101e+00   1.613237e-01
  2.099934e-02    1.219483e+00   1.439428e-01
  2.320979e-02    1.175425e+00   1.344096e-01
  2.542025e-02    1.246058e+00   1.322448e-01
  2.763070e-02    1.410500e+00   1.349512e-01
  2.984116e-02    1.402054e+00   1.294669e-01
  3.205162e-02    1.329211e+00   1.216419e-01
  3.426207e-02    1.191042e+00   1.113624e-01
  3.647253e-02    1.228416e+00   1.096131e-01
  3.868299e-02    1.388060e+00   1.131487e-01
  4.089344e-02    1.511304e+00   1.148303e-01
  4.310390e-02    1.434835e+00   1.089745e-01
  4.531436e-02    1.316033e+00   1.017886e-01
  4.752481e-02    1.271530e+00   9.769724e-02
  4.973527e-02    1.376065e+00   9.935080e-02
  5.194572e-02    1.475491e+00   1.006633e-01
  5.415618e-02    1.336176e+00   9.381466e-02
  5.636664e-02    1.308987e+00   9.101917e-02
  5.857709e-02    1.402663e+00   9.242536e-02
  6.078755e-02    1.354868e+00   8.916735e-02
  6.299801e-02    1.454582e+00   9.075392e-02
  6.520846e-02    1.505661e+00   9.075579e-02
  6.741892e-02    1.456018e+00   8.776740e-02
  6.962938e-02    1.469584e+00   8.676881e-02
  7.183983e-02    1.431100e+00   8.429601e-02
  7.405029e-02    1.404496e+00   8.225104e-02
  7.626074e-02    1.419799e+00   8.148991e-02
  7.847120e-02    1.327921e+00   7.768910e-02
  8.068166e-02    1.452675e+00   8.013504e-02
  8.289211e-02    1.475386e+00   7.967453e-02
  8.510257e-02    1.472654e+00   7.855969e-02
  8.731303e-02    1.450583e+00   7.697257e-02
  8.952348e-02    1.448261e+00   7.595755e-02
  9.173394e-02    1.445435e+00   7.496063e-02
  9.394439e-02    1.374914e+00   7.224156e-02
  9.615485e-02    1.476898e+00   7.400565e-02
  9.836531e-02    1.512811e+00   7.405166e-02
  1.005758e-01    1.450621e+00   7.171276e-02
  1.027862e-01    1.428310e+00   7.038807e-02
  1.049967e-01    1.534920e+00   7.219429e-02
  1.072071e-01    1.516749e+00   7.102115e-02
  1.094176e-01    1.353168e+00   6.640007e-02
  1.116280e-01    1.388478e+00   6.659000e-02
  1.138385e-01    1.438662e+00   6.712013e-02
  1.160490e-01    1.443045e+00   6.657819e-02
  1.182594e-01    1.492523e+00   6.707272e-02
  1.204699e-01    1.448475e+00   6.546606e-02
  1.226803e-01    1.485691e+00   6.569898e-02
  1.248908e-01    1.448382e+00   6.429144e-02
  1.271012e-01    1.553097e+00   6.599218e-02
  1.293117e-01    1.540155e+00   6.515176e-02
  1.315222e-01    1.553117e+00   6.487170e-02
  1.337326e-01    1.557199e+00   6.441658e-02
  1.359431e-01    1.536690e+00   6.402843e-02
  1.381535e-01    1.513587e+00   6.439828e-02
  1.403640e-01    1.583829e+00   6.616003e-02
  1.425744e-01    1.568863e+00   6.595193e-02
  1.447849e-01    1.579479e+00   6.618991e-02
  1.469953e-01    1.589330e+00   6.635444e-02
  1.492058e-01    1.589031e+00   6.627107e-02
  1.514163e-01    1.484340e+00   6.394446e-02
  1.536267e-01    1.474992e+00   6.361831e-02
  1.558372e-01    1.524941e+00   6.454372e-02
  1.580476e-01    1.557079e+00   6.506205e-02
  1.602581e-01    1.587937e+00   6.553671e-02
  1.624685e-01    1.537931e+00   6.431995e-02
  1.646790e-01    1.598248e+00   6.538083e-02
  1.668895e-01    1.666446e+00   6.656838e-02
  1.690999e-01    1.696221e+00   6.695878e-02
  1.713104e-01    1.749248e+00   6.778632e-02
  1.735208e-01    1.785709e+00   6.827616e-02
  1.757313e-01    1.866061e+00   6.957664e-02
  1.779417e-01    1.837316e+00   6.881355e-02
  1.801522e-01    1.783213e+00   6.757686e-02
  1.823626e-01    1.837044e+00   6.836095e-02
  1.845731e-01    1.803112e+00   6.750727e-02
  1.867836e-01    1.840835e+00   6.797958e-02
  1.889940e-01    1.875786e+00   6.839764e-02
  1.912045e-01    1.940137e+00   6.932869e-02
  1.934149e-01    1.935043e+00   6.900590e-02
  1.956254e-01    1.959823e+00   6.921729e-02
  1.978358e-01    1.886556e+00   6.767842e-02
  2.000463e-01    1.916211e+00   6.798220e-02
  2.022568e-01    1.969075e+00   6.868739e-02
  2.044672e-01    1.946128e+00   6.805208e-02
  2.066777e-01    1.850573e+00   6.614012e-02
  2.088881e-01    1.851566e+00   6.594137e-02
  2.110986e-01    1.998286e+00   6.826931e-02
  2.133090e-01    1.924101e+00   6.677232e-02
  2.155195e-01    1.960325e+00   6.717437e-02
  2.177300e-01    1.892179e+00   6.547798e-02
  2.199404e-01    1.922842e+00   6.426714e-02
  2.221509e-01    1.919354e+00   6.315450e-02
  2.243613e-01    2.009217e+00   6.379683e-02
  2.265718e-01    2.033492e+00   6.347369e-02
  2.287822e-01    2.050092e+00   6.310140e-02
  2.309927e-01    2.043155e+00   6.242067e-02
  2.332031e-01    2.168727e+00   6.375986e-02
  2.354136e-01    2.125922e+00   6.261583e-02
  2.376241e-01    2.156160e+00   6.257014e-02
  2.398345e-01    2.158943e+00   6.214713e-02
  2.420450e-01    2.110603e+00   6.100829e-02
  2.442554e-01    2.045051e+00   5.963968e-02
  2.464659e-01    2.183640e+00   6.121362e-02
  2.486763e-01    2.104604e+00   5.970062e-02
  2.508868e-01    2.100674e+00   5.926856e-02
  2.530973e-01    2.099826e+00   5.888923e-02
  2.553077e-01    2.015970e+00   5.735140e-02
  2.575182e-01    1.983034e+00   5.654440e-02
  2.597286e-01    2.138275e+00   5.837468e-02
  2.619391e-01    2.085944e+00   5.732404e-02
  2.641495e-01    2.006423e+00   5.590956e-02
  2.663600e-01    2.035949e+00   5.600972e-02
  2.685704e-01    2.019852e+00   5.548546e-02
  2.707809e-01    2.060016e+00   5.573699e-02
  2.729914e-01    1.971073e+00   5.423632e-02
  2.752018e-01    2.042991e+00   5.492950e-02
  2.774123e-01    1.963473e+00   5.357486e-02
  2.796227e-01    1.951571e+00   5.314802e-02
  2.818332e-01    2.004932e+00   5.360099e-02
  2.840436e-01    1.937860e+00   5.244135e-02
  2.862541e-01    1.975165e+00   5.268920e-02
  2.884646e-01    1.951217e+00   5.212028e-02
  2.906750e-01    1.963683e+00   5.203858e-02
  2.928855e-01    1.924004e+00   5.127149e-02
  2.950959e-01    1.971923e+00   5.166759e-02
  2.973064e-01    1.920804e+00   5.076433e-02
  2.995168e-01    1.887191e+00   5.009029e-02
  3.017273e-01    1.811643e+00   4.886106e-02
  3.039377e-01    1.871860e+00   4.944899e-02
  3.061482e-01    1.931769e+00   5.001677e-02
  3.083587e-01    1.873454e+00   4.904285e-02
  3.105691e-01    1.849478e+00   4.851988e-02
  3.127796e-01    1.884579e+00   4.877223e-02
  3.149900e-01    1.844685e+00   4.805219e-02
  3.172005e-01    1.911164e+00   4.871040e-02
  3.194109e-01    1.835862e+00   4.754405e-02
  3.216214e-01    1.798018e+00   4.685948e-02
  3.238319e-01    1.792617e+00   4.660366e-02
  3.260423e-01    1.749506e+00   4.585648e-02
  3.282528e-01    1.771352e+00   4.595819e-02
  3.304632e-01    1.838959e+00   4.664562e-02
  3.326737e-01    1.815526e+00   4.616665e-02
  3.348841e-01    1.821457e+00   4.606268e-02
  3.370946e-01    1.813925e+00   4.579439e-02
  3.393050e-01    1.792372e+00   4.534908e-02
  3.415155e-01    1.849574e+00   4.589381e-02
  3.437260e-01    1.817104e+00   4.532060e-02
  3.459364e-01    1.821533e+00   4.520794e-02
  3.481469e-01    1.773471e+00   4.444470e-02
  3.503573e-01    1.751964e+00   4.401349e-02
  3.525678e-01    1.738204e+00   4.368405e-02
  3.547782e-01    1.704236e+00   4.309878e-02
  3.569887e-01    1.749039e+00   4.350690e-02
  3.591992e-01    1.827016e+00   4.430884e-02
  3.614096e-01    1.750883e+00   4.322544e-02
  3.636201e-01    1.773612e+00   4.335219e-02
  3.658305e-01    1.772015e+00   4.318487e-02
  3.680410e-01    1.748558e+00   4.275055e-02
  3.702514e-01    1.749122e+00   4.261365e-02
  3.724619e-01    1.724959e+00   4.217416e-02
  3.746724e-01    1.799281e+00   4.292944e-02
  3.768828e-01    1.761138e+00   4.232907e-02
  3.790933e-01    1.749346e+00   4.204964e-02
  3.813037e-01    1.748163e+00   4.189789e-02
  3.835142e-01    1.699951e+00   4.118043e-02
  3.857246e-01    1.720840e+00   4.129855e-02
  3.879351e-01    1.735482e+00   4.133964e-02
  3.901455e-01    1.767998e+00   4.159227e-02
  3.923560e-01    1.758467e+00   4.134820e-02
  3.945665e-01    1.751202e+00   4.113183e-02
  3.967769e-01    1.716055e+00   4.058948e-02
  3.989874e-01    1.728248e+00   4.060621e-02
  4.011978e-01    1.795223e+00   4.125828e-02
  4.034083e-01    1.781126e+00   4.096980e-02
  4.056187e-01    1.785094e+00   4.088906e-02
  4.078292e-01    1.785103e+00   4.076543e-02
  4.100397e-01    1.792166e+00   4.072127e-02
  4.122501e-01    1.747012e+00   4.008476e-02
  4.144606e-01    1.714419e+00   3.959130e-02
  4.166710e-01    1.723847e+00   3.958197e-02
  4.188815e-01    1.790238e+00   4.021782e-02
  4.210919e-01    1.794764e+00   4.015063e-02
  4.233024e-01    1.759410e+00   3.963628e-02
  4.255128e-01    1.787515e+00   3.983610e-02
  4.277233e-01    1.775326e+00   3.958601e-02
  4.299338e-01    1.745115e+00   3.913480e-02
  4.321442e-01    1.799045e+00   3.962120e-02
  4.343547e-01    1.749943e+00   3.896628e-02
  4.365651e-01    1.707274e+00   3.837892e-02
  4.387756e-01    1.777934e+00   3.905538e-02
  4.409860e-01    1.780704e+00   3.897756e-02
  4.431965e-01    1.779828e+00   3.886020e-02
  4.454070e-01    1.739771e+00   3.831353e-02
  4.476174e-01    1.710993e+00   3.789101e-02
  4.498279e-01    1.737009e+00   3.807411e-02
  4.520383e-01    1.677993e+00   3.731905e-02
  4.542488e-01    1.623952e+00   3.661416e-02
  4.564592e-01    1.639591e+00   3.669134e-02
  4.586697e-01    1.731798e+00   3.760887e-02
  4.608801e-01    1.707325e+00   3.724218e-02
  4.630906e-01    1.678884e+00   3.683289e-02
  4.653011e-01    1.680014e+00   3.674838e-02
  4.675115e-01    1.700279e+00   3.687200e-02
  4.697220e-01    1.707759e+00   3.685625e-02
  4.719324e-01    1.746436e+00   3.717488e-02
  4.741429e-01    1.690013e+00   3.647520e-02
  4.763533e-01    1.698596e+00   3.647397e-02
  4.785638e-01    1.678770e+00   3.616681e-02
  4.807743e-01    1.713964e+00   3.645099e-02
  4.829847e-01    1.717111e+00   3.639231e-02
  4.851952e-01    1.641286e+00   3.548966e-02
  4.874056e-01    1.690072e+00   3.592245e-02
  4.896161e-01    1.705681e+00   3.599845e-02
  4.918265e-01    1.688870e+00   3.573167e-02
  4.940370e-01    1.669157e+00   3.543483e-02
  4.962475e-01    1.635286e+00   3.498683e-02
  4.984579e-01    1.668176e+00   3.524982e-02
  5.006684e-01    1.660093e+00   3.507860e-02
  5.028788e-01    1.634696e+00   3.472489e-02
  5.050893e-01    1.618670e+00   3.447020e-02
  5.072997e-01    1.674287e+00   3.497274e-02
  5.095102e-01    1.647884e+00   3.461278e-02
  5.117206e-01    1.640318e+00   3.445113e-02
  5.139311e-01    1.662154e+00   3.459758e-02
  5.161416e-01    1.651242e+00   3.440236e-02
  5.183520e-01    1.609889e+00   3.388811e-02
  5.205625e-01    1.671619e+00   3.445081e-02
  5.227729e-01    1.636540e+00   3.400793e-02
  5.249834e-01    1.623073e+00   3.378907e-02
  5.271938e-01    1.666996e+00   3.416333e-02
  5.294043e-01    1.676546e+00   3.418197e-02
  5.316148e-01    1.733637e+00   3.467947e-02
  5.338252e-01    1.795656e+00   3.521369e-02
  5.360357e-01    1.742628e+00   3.461088e-02
  5.382461e-01    1.714910e+00   3.425689e-02
  5.404566e-01    1.735630e+00   3.438479e-02
  5.426670e-01    1.718013e+00   3.413277e-02
  5.448775e-01    1.699529e+00   3.387281e-02
  5.470879e-01    1.688604e+00   3.368846e-02
  5.492984e-01    1.703965e+00   3.376608e-02
  5.515089e-01    1.731600e+00   3.396331e-02
  5.537193e-01    1.727793e+00   3.385120e-02
  5.559298e-01    1.757746e+00   3.406847e-02
  5.581402e-01    1.796377e+00   3.436555e-02
  5.603507e-01    1.793550e+00   3.426379e-02
  5.625611e-01    1.762088e+00   3.388822e-02
  5.647716e-01    1.771049e+00   3.390051e-02
  5.669821e-01    1.740161e+00   3.353116e-02
  5.691925e-01    1.771252e+00   3.375675e-02
  5.714030e-01    1.746941e+00   3.345283e-02
  5.736134e-01    1.684196e+00   3.277670e-02
  5.758239e-01    1.711869e+00   3.297434e-02
  5.780343e-01    1.661358e+00   3.241552e-02
  5.802448e-01    1.671242e+00   3.244374e-02
  5.824552e-01    1.641250e+00   3.208385e-02
  5.846657e-01    1.620511e+00   3.181403e-02
  5.868762e-01    1.657534e+00   3.210840e-02
  5.890866e-01    1.625760e+00   3.173321e-02
  5.912971e-01    1.600474e+00   3.142026e-02
  5.935075e-01    1.644144e+00   3.178023e-02
  5.957180e-01    1.629504e+00   3.157350e-02
  5.979284e-01    1.648499e+00   3.169217e-02
  6.001389e-01    1.590261e+00   3.106396e-02
  6.023494e-01    1.590850e+00   3.100660e-02
  6.045598e-01    1.613729e+00   3.116519e-02
  6.067703e-01    1.617055e+00   3.113456e-02
  6.089807e-01    1.644636e+00   3.133584e-02
  6.111912e-01    1.629297e+00   3.112709e-02
  6.134016e-01    1.618858e+00   3.096532e-02
  6.156121e-01    1.611149e+00   3.083010e-02
  6.178226e-01    1.648155e+00   3.112041e-02
  6.200330e-01    1.678770e+00   3.134618e-02
  6.222435e-01    1.704437e+00   3.152230e-02
  6.244539e-01    1.690377e+00   3.133058e-02
  6.266644e-01    1.686685e+00   3.123528e-02
  6.288748e-01    1.691594e+00   3.121983e-02
  6.310853e-01    1.703508e+00   3.126873e-02
  6.332957e-01    1.685649e+00   3.104437e-02
  6.355062e-01    1.674740e+00   3.088361e-02
  6.377167e-01    1.690749e+00   3.097135e-02
  6.399271e-01    1.708019e+00   3.106947e-02
  6.421376e-01    1.686372e+00   3.081304e-02
  6.443480e-01    1.670436e+00   3.060875e-02
  6.465585e-01    1.683692e+00   3.067175e-02
  6.487689e-01    1.671041e+00   3.049861e-02
  6.509794e-01    1.660305e+00   3.034314e-02
  6.531899e-01    1.606161e+00   2.978817e-02
  6.554003e-01    1.598621e+00   2.966229e-02
  6.576108e-01    1.575925e+00   2.939613e-02
  6.598212e-01    1.589739e+00   2.946983e-02
  6.620317e-01    1.590106e+00   2.941861e-02
  6.642421e-01    1.567000e+00   2.915004e-02
  6.664526e-01    1.580152e+00   2.921820e-02
  6.686630e-01    1.540775e+00   2.879850e-02
  6.708735e-01    1.531986e+00   2.866356e-02
  6.730840e-01    1.589142e+00   2.914014e-02
  6.752944e-01    1.542673e+00   2.865872e-02
  6.775049e-01    1.568049e+00   2.884099e-02
  6.797153e-01    1.576012e+00   2.886179e-02
  6.819258e-01    1.580813e+00   2.885357e-02
  6.841362e-01    1.587331e+00   2.886101e-02
  6.863467e-01    1.568398e+00   2.863700e-02
  6.885572e-01    1.570519e+00   2.860498e-02
  6.907676e-01    1.597955e+00   2.880207e-02
  6.929781e-01    1.607579e+00   2.883733e-02
  6.951885e-01    1.585230e+00   2.858546e-02
  6.973990e-01    1.563955e+00   2.834278e-02
  6.996094e-01    1.576924e+00   2.841000e-02
  7.018199e-01    1.535315e+00   2.798346e-02
  7.040303e-01    1.562321e+00   2.817892e-02
  7.062408e-01    1.568454e+00   2.818470e-02
  7.084513e-01    1.587463e+00   2.830568e-02
  7.106617e-01    1.576919e+00   2.816249e-02
  7.128722e-01    1.575011e+00   2.809675e-02
  7.150826e-01    1.568521e+00   2.799049e-02
  7.172931e-01    1.549698e+00   2.777408e-02
  7.195035e-01    1.483294e+00   2.712578e-02
  7.217140e-01    1.517992e+00   2.748976e-02
  7.239245e-01    1.540023e+00   2.791276e-02
  7.261349e-01    1.547776e+00   2.809061e-02
  7.283454e-01    1.570445e+00   2.836788e-02
  7.305558e-01    1.531704e+00   2.806906e-02
  7.327663e-01    1.516241e+00   2.796871e-02
  7.349767e-01    1.543422e+00   2.823450e-02
  7.371872e-01    1.550318e+00   2.828641e-02
  7.393976e-01    1.547537e+00   2.824689e-02
  7.416081e-01    1.529983e+00   2.807030e-02
  7.438186e-01    1.554028e+00   2.814662e-02
  7.460290e-01    1.578116e+00   2.806938e-02
  7.482395e-01    1.524418e+00   2.741928e-02
  7.504499e-01    1.512459e+00   2.717795e-02
  7.526604e-01    1.551397e+00   2.740987e-02
  7.548708e-01    1.551729e+00   2.732405e-02
  7.570813e-01    1.572350e+00   2.745408e-02
  7.592918e-01    1.555149e+00   2.726853e-02
  7.615022e-01    1.575463e+00   2.741224e-02
  7.637127e-01    1.554722e+00   2.719864e-02
  7.659231e-01    1.554099e+00   2.716139e-02
  7.681336e-01    1.552262e+00   2.711396e-02
  7.703440e-01    1.558902e+00   2.714083e-02
  7.725545e-01    1.527178e+00   2.683284e-02
  7.747650e-01    1.524923e+00   2.677541e-02
  7.769754e-01    1.586872e+00   2.726096e-02
  7.791859e-01    1.588439e+00   2.722073e-02
  7.813963e-01    1.563156e+00   2.695089e-02
  7.836068e-01    1.547082e+00   2.676060e-02
  7.858172e-01    1.524248e+00   2.651271e-02
  7.880277e-01    1.526191e+00   2.647913e-02
  7.902381e-01    1.580070e+00   2.689351e-02
  7.924486e-01    1.560423e+00   2.667631e-02
  7.946591e-01    1.553989e+00   2.657364e-02
  7.968695e-01    1.602571e+00   2.693755e-02
  7.990800e-01    1.607916e+00   2.693423e-02
  8.012904e-01    1.590750e+00   2.674371e-02
  8.035009e-01    1.645764e+00   2.715382e-02
  8.057113e-01    1.633160e+00   2.700290e-02
  8.079218e-01    1.617199e+00   2.682422e-02
  8.101323e-01    1.629197e+00   2.687786e-02
  8.123427e-01    1.615637e+00   2.672011e-02
  8.145532e-01    1.656172e+00   2.700695e-02
  8.167636e-01    1.634839e+00   2.678734e-02
  8.189741e-01    1.597467e+00   2.643525e-02
  8.211845e-01    1.616081e+00   2.654423e-02
  8.233950e-01    1.616049e+00   2.650082e-02
  8.256054e-01    1.636059e+00   2.662019e-02
  8.278159e-01    1.626354e+00   2.649731e-02
  8.300264e-01    1.624269e+00   2.643741e-02
  8.322368e-01    1.650323e+00   2.660532e-02
  8.344473e-01    1.633769e+00   2.642825e-02
  8.366577e-01    1.603638e+00   2.614129e-02
  8.388682e-01    1.609142e+00   2.614425e-02
  8.410786e-01    1.633816e+00   2.630195e-02
  8.432891e-01    1.599420e+00   2.598227e-02
  8.454996e-01    1.620340e+00   2.611025e-02
  8.477100e-01    1.599783e+00   2.590293e-02
  8.499205e-01    1.584763e+00   2.574055e-02
  8.521309e-01    1.618214e+00   2.597023e-02
  8.543414e-01    1.588068e+00   2.568707e-02
  8.565518e-01    1.599397e+00   2.573838e-02
  8.587623e-01    1.606520e+00   2.575548e-02
  8.609727e-01    1.577480e+00   2.548205e-02
  8.631832e-01    1.570891e+00   2.538957e-02
  8.653937e-01    1.602951e+00   2.560793e-02
  8.676041e-01    1.580527e+00   2.538984e-02
  8.698146e-01    1.565876e+00   2.523324e-02
  8.720250e-01    1.570150e+00   2.522914e-02
  8.742355e-01    1.602471e+00   2.544867e-02
  8.764459e-01    1.592364e+00   2.532963e-02
  8.786564e-01    1.567450e+00   2.509321e-02
  8.808669e-01    1.569854e+00   2.507437e-02
  8.830773e-01    1.559392e+00   2.495307e-02
  8.852878e-01    1.530360e+00   2.468263e-02
  8.874982e-01    1.553406e+00   2.483168e-02
  8.897087e-01    1.568802e+00   2.491715e-02
  8.919191e-01    1.561631e+00   2.482283e-02
  8.941296e-01    1.620748e+00   2.525079e-02
  8.963401e-01    1.643750e+00   2.539242e-02
  8.985505e-01    1.613954e+00   2.512412e-02
  9.007610e-01    1.580005e+00   2.482196e-02
  9.029714e-01    1.567708e+00   2.468971e-02
  9.051819e-01    1.571262e+00   2.468078e-02
  9.073923e-01    1.588178e+00   2.477684e-02
  9.096028e-01    1.550722e+00   2.444858e-02
  9.118132e-01    1.543859e+00   2.435878e-02
  9.140237e-01    1.587699e+00   2.466577e-02
  9.162342e-01    1.566507e+00   2.446641e-02
  9.184446e-01    1.572393e+00   2.447687e-02
  9.206551e-01    1.592808e+00   2.459976e-02
  9.228655e-01    1.559880e+00   2.430936e-02
  9.250760e-01    1.575003e+00   2.439184e-02
  9.272864e-01    1.604851e+00   2.458761e-02
  9.294969e-01    1.609231e+00   2.458525e-02
  9.317074e-01    1.593191e+00   2.442786e-02
  9.339178e-01    1.568280e+00   2.420302e-02
  9.361283e-01    1.576044e+00   2.422709e-02
  9.383387e-01    1.601333e+00   2.438745e-02
  9.405492e-01    1.644709e+00   2.468105e-02
  9.427596e-01    1.680893e+00   2.491513e-02
  9.449701e-01    1.725804e+00   2.521150e-02
  9.471805e-01    1.725405e+00   2.517287e-02
  9.493910e-01    1.720835e+00   2.510503e-02
  9.516015e-01    1.701250e+00   2.492690e-02
  9.538119e-01    1.721446e+00   2.504005e-02
  9.560224e-01    1.738969e+00   2.513175e-02
  9.582328e-01    1.764316e+00   2.528029e-02
  9.604433e-01    1.722146e+00   2.494099e-02
  9.626537e-01    1.752132e+00   2.512334e-02
  9.648642e-01    1.789267e+00   2.535341e-02
  9.670747e-01    1.784245e+00   2.528290e-02
  9.692851e-01    1.801335e+00   2.536992e-02
  9.714956e-01    1.842252e+00   2.562025e-02
  9.737060e-01    1.866095e+00   2.575166e-02
  9.759165e-01    1.862492e+00   2.569050e-02
  9.781269e-01    1.847267e+00   2.555183e-02
  9.803374e-01    1.828040e+00   2.538333e-02
  9.825478e-01    1.835546e+00   2.540185e-02
  9.847583e-01    1.787123e+00   2.503051e-02
  9.869688e-01    1.788189e+00   2.500446e-02
  9.891792e-01    1.763437e+00   2.479782e-02
  9.913897e-01    1.729232e+00   2.452298e-02
  9.936001e-01    1.730844e+00   2.450230e-02
  9.958106e-01    1.700397e+00   2.425282e-02
  9.980210e-01    1.702034e+00   2.423301e-02
  1.000231e+00    1.644261e+00   2.394867e-02
  1.002442e+00    1.608232e+00   2.381066e-02
  1.004652e+00    1.594602e+00   2.377569e-02
  1.006863e+00    1.602516e+00   2.388407e-02
  1.009073e+00    1.558539e+00   2.359014e-02
  1.011284e+00    1.517061e+00   2.330523e-02
  1.013494e+00    1.539146e+00   2.349750e-02
  1.015705e+00    1.524049e+00   2.340411e-02
  1.017915e+00    1.523069e+00   2.341270e-02
  1.020126e+00    1.495203e+00   2.321321e-02
  1.022336e+00    1.509302e+00   2.333387e-02
  1.024547e+00    1.507292e+00   2.332941e-02
  1.026757e+00    1.506569e+00   2.333205e-02
  1.028967e+00    1.508433e+00   2.335408e-02
  1.031178e+00    1.525315e+00   2.349055e-02
  1.033388e+00    1.504838e+00   2.333736e-02
  1.035599e+00    1.451613e+00   2.292427e-02
  1.037809e+00    1.452589e+00   2.293513e-02
  1.040020e+00    1.491901e+00   2.324468e-02
  1.042230e+00    1.488249e+00   2.321814e-02
  1.044441e+00    1.495440e+00   2.327394e-02
  1.046651e+00    1.455440e+00   2.296074e-02
  1.048862e+00    1.450159e+00   2.291826e-02
  1.051072e+00    1.452201e+00   2.293208e-02
  1.053282e+00    1.460017e+00   2.299276e-02
  1.055493e+00    1.458158e+00   2.297388e-02
  1.057703e+00    1.458898e+00   2.297821e-02
  1.059914e+00    1.454457e+00   2.293899e-02
  1.062124e+00    1.446641e+00   2.287328e-02
  1.064335e+00    1.451605e+00   2.290909e-02
  1.066545e+00    1.416671e+00   2.262590e-02
  1.068756e+00    1.415344e+00   2.261162e-02
  1.070966e+00    1.449981e+00   2.288017e-02
  1.073177e+00    1.417971e+00   2.262027e-02
  1.075387e+00    1.409012e+00   2.254357e-02
  1.077597e+00    1.406363e+00   2.251528e-02
  1.079808e+00    1.417431e+00   2.247309e-02
  1.082018e+00    1.404101e+00   2.218194e-02
  1.084229e+00    1.390010e+00   2.196299e-02
  1.086439e+00    1.407754e+00   2.201673e-02
  1.088650e+00    1.405940e+00   2.192814e-02
  1.090860e+00    1.413009e+00   2.191655e-02
  1.093071e+00    1.397124e+00   2.173198e-02
  1.095281e+00    1.400294e+00   2.170027e-02
  1.097492e+00    1.392014e+00   2.158213e-02
  1.099702e+00    1.433450e+00   2.184973e-02
  1.101912e+00    1.409326e+00   2.161676e-02
  1.104123e+00    1.405458e+00   2.153935e-02
  1.106333e+00    1.415347e+00   2.157086e-02
  1.108544e+00    1.402569e+00   2.142943e-02
  1.110754e+00    1.411496e+00   2.145473e-02
  1.112965e+00    1.436283e+00   2.160154e-02
  1.115175e+00    1.427899e+00   2.149712e-02
  1.117386e+00    1.423397e+00   2.142382e-02
  1.119596e+00    1.418111e+00   2.134605e-02
  1.121807e+00    1.433908e+00   2.142547e-02
  1.124017e+00    1.424299e+00   2.131668e-02
  1.126228e+00    1.419507e+00   2.124487e-02
  1.128438e+00    1.386770e+00   2.096187e-02
  1.130648e+00    1.402743e+00   2.104788e-02
  1.132859e+00    1.372167e+00   2.078317e-02
  1.135069e+00    1.383419e+00   2.083359e-02
  1.137280e+00    1.360019e+00   2.062402e-02
  1.139490e+00    1.377203e+00   2.072092e-02
  1.141701e+00    1.385891e+00   2.075307e-02
  1.143911e+00    1.354665e+00   2.048642e-02
  1.146122e+00    1.360251e+00   2.049682e-02
  1.148332e+00    1.386464e+00   2.066143e-02
  1.150543e+00    1.363694e+00   2.046039e-02
  1.152753e+00    1.342408e+00   2.026962e-02
  1.154963e+00    1.343271e+00   2.024541e-02
  1.157174e+00    1.346043e+00   2.023644e-02
  1.159384e+00    1.338535e+00   2.015046e-02
  1.161595e+00    1.361452e+00   2.029244e-02
  1.163805e+00    1.366790e+00   2.030297e-02
  1.166016e+00    1.348085e+00   2.013435e-02
  1.168226e+00    1.338011e+00   2.003031e-02
  1.170437e+00    1.342797e+00   2.003772e-02
  1.172647e+00    1.361817e+00   2.015027e-02
  1.174858e+00    1.366583e+00   2.015741e-02
  1.177068e+00    1.337781e+00   1.991585e-02
  1.179278e+00    1.358023e+00   2.003741e-02
  1.181489e+00    1.368906e+00   2.009045e-02
  1.183699e+00    1.364144e+00   2.002785e-02
  1.185910e+00    1.337756e+00   1.980563e-02
  1.188120e+00    1.339716e+00   1.979361e-02
  1.190331e+00    1.332214e+00   1.971158e-02
  1.192541e+00    1.348660e+00   1.980555e-02
  1.194752e+00    1.327590e+00   1.962345e-02
  1.196962e+00    1.311164e+00   1.947630e-02
  1.199173e+00    1.336470e+00   1.963700e-02
  1.201383e+00    1.328119e+00   1.954859e-02
  1.203593e+00    1.315433e+00   1.943054e-02
  1.205804e+00    1.314642e+00   1.939909e-02
  1.208014e+00    1.336538e+00   1.953327e-02
  1.210225e+00    1.346321e+00   1.957933e-02
  1.212435e+00    1.363440e+00   1.967851e-02
  1.214646e+00    1.316094e+00   1.930806e-02
  1.216856e+00    1.316941e+00   1.928908e-02
  1.219067e+00    1.328689e+00   1.935066e-02
  1.221277e+00    1.334781e+00   1.937009e-02
  1.223488e+00    1.323978e+00   1.926606e-02
  1.225698e+00    1.335053e+00   1.931969e-02
  1.227909e+00    1.375737e+00   1.958141e-02
  1.230119e+00    1.365230e+00   1.947447e-02
  1.232329e+00    1.341730e+00   1.927551e-02
  1.234540e+00    1.352252e+00   1.932063e-02
  1.236750e+00    1.326734e+00   1.910746e-02
  1.238961e+00    1.341237e+00   1.918472e-02
  1.241171e+00    1.309261e+00   1.893085e-02
  1.243382e+00    1.294208e+00   1.879868e-02
  1.245592e+00    1.337710e+00   1.908799e-02
  1.247803e+00    1.343015e+00   1.910225e-02
  1.250013e+00    1.336238e+00   1.903055e-02
  1.252224e+00    1.338867e+00   1.902612e-02
  1.254434e+00    1.337939e+00   1.899589e-02
  1.256644e+00    1.304175e+00   1.873186e-02
  1.258855e+00    1.320987e+00   1.882918e-02
  1.261065e+00    1.336715e+00   1.891767e-02
  1.263276e+00    1.351251e+00   1.899732e-02
  1.265486e+00    1.353120e+00   1.898755e-02
  1.267697e+00    1.344657e+00   1.890510e-02
  1.269907e+00    1.363009e+00   1.901088e-02
  1.272118e+00    1.334270e+00   1.878695e-02
  1.274328e+00    1.332137e+00   1.874934e-02
  1.276539e+00    1.332666e+00   1.873040e-02
  1.278749e+00    1.343662e+00   1.878530e-02
  1.280959e+00    1.334531e+00   1.869895e-02
  1.283170e+00    1.340269e+00   1.871676e-02
  1.285380e+00    1.342466e+00   1.870970e-02
  1.287591e+00    1.351785e+00   1.875248e-02
  1.289801e+00    1.340590e+00   1.865354e-02
  1.292012e+00    1.323653e+00   1.851839e-02
  1.294222e+00    1.307181e+00   1.838682e-02
  1.296433e+00    1.357308e+00   1.872040e-02
  1.298643e+00    1.325024e+00   1.848013e-02
  1.300854e+00    1.321417e+00   1.843869e-02
  1.303064e+00    1.342767e+00   1.856789e-02
  1.305274e+00    1.356689e+00   1.864242e-02
  1.307485e+00    1.353421e+00   1.859837e-02
  1.309695e+00    1.345696e+00   1.852301e-02
  1.311906e+00    1.381115e+00   1.874324e-02
  1.314116e+00    1.393517e+00   1.880609e-02
  1.316327e+00    1.358932e+00   1.854948e-02
  1.318537e+00    1.379409e+00   1.866659e-02
  1.320748e+00    1.372486e+00   1.859798e-02
  1.322958e+00    1.329623e+00   1.828489e-02
  1.325169e+00    1.345617e+00   1.837353e-02
  1.327379e+00    1.379510e+00   1.858145e-02
  1.329589e+00    1.367101e+00   1.847649e-02
  1.331800e+00    1.390086e+00   1.861016e-02
  1.334010e+00    1.395822e+00   1.862751e-02
  1.336221e+00    1.421383e+00   1.877499e-02
  1.338431e+00    1.394691e+00   1.857666e-02
  1.340642e+00    1.395489e+00   1.864720e-02
  1.342852e+00    1.377093e+00   1.862559e-02
  1.345063e+00    1.356214e+00   1.853343e-02
  1.347273e+00    1.347375e+00   1.850814e-02
  1.349484e+00    1.386346e+00   1.880193e-02
  1.351694e+00    1.373394e+00   1.873684e-02
  1.353905e+00    1.340514e+00   1.852910e-02
  1.356115e+00    1.332409e+00   1.848796e-02
  1.358325e+00    1.318551e+00   1.840472e-02
  1.360536e+00    1.329046e+00   1.848934e-02
  1.362746e+00    1.339113e+00   1.856878e-02
  1.364957e+00    1.315442e+00   1.841150e-02
  1.367167e+00    1.297624e+00   1.829340e-02
  1.369378e+00    1.312218e+00   1.840189e-02
  1.371588e+00    1.323728e+00   1.848756e-02
  1.373799e+00    1.313381e+00   1.841878e-02
  1.376009e+00    1.322093e+00   1.848315e-02
  1.378220e+00    1.274657e+00   1.815100e-02
  1.380430e+00    1.301287e+00   1.834229e-02
  1.382640e+00    1.322838e+00   1.849446e-02
  1.384851e+00    1.327216e+00   1.852593e-02
  1.387061e+00    1.296808e+00   1.831276e-02
  1.389272e+00    1.284508e+00   1.822592e-02
  1.391482e+00    1.298537e+00   1.832449e-02
  1.393693e+00    1.288705e+00   1.825413e-02
  1.395903e+00    1.312916e+00   1.842326e-02
  1.398114e+00    1.327037e+00   1.852069e-02
  1.400324e+00    1.342590e+00   1.862671e-02
  1.402535e+00    1.317365e+00   1.844858e-02
  1.404745e+00    1.307535e+00   1.837719e-02
  1.406955e+00    1.331271e+00   1.854051e-02
  1.409166e+00    1.298477e+00   1.830740e-02
  1.411376e+00    1.261347e+00   1.804063e-02
  1.413587e+00    1.258141e+00   1.801388e-02
  1.415797e+00    1.288379e+00   1.822552e-02
  1.418008e+00    1.258049e+00   1.796805e-02
  1.420218e+00    1.245220e+00   1.772794e-02
  1.422429e+00    1.231841e+00   1.754839e-02
  1.424639e+00    1.263017e+00   1.770457e-02
  1.426850e+00    1.264267e+00   1.765875e-02
  1.429060e+00    1.261478e+00   1.759045e-02
  1.431270e+00    1.258147e+00   1.752310e-02
  1.433481e+00    1.275672e+00   1.760368e-02
  1.435691e+00    1.267769e+00   1.751065e-02
  1.437902e+00    1.302808e+00   1.771408e-02
  1.440112e+00    1.270344e+00   1.745663e-02
  1.442323e+00    1.297934e+00   1.761175e-02
  1.444533e+00    1.301402e+00   1.760234e-02
  1.446744e+00    1.294356e+00   1.752318e-02
  1.448954e+00    1.284589e+00   1.742659e-02
  1.451165e+00    1.275212e+00   1.733303e-02
  1.453375e+00    1.299984e+00   1.747221e-02
  1.455586e+00    1.294723e+00   1.740838e-02
  1.457796e+00    1.299260e+00   1.741104e-02
  1.460006e+00    1.322234e+00   1.753647e-02
  1.462217e+00    1.326388e+00   1.753723e-02
  1.464427e+00    1.326134e+00   1.750937e-02
  1.466638e+00    1.305828e+00   1.734911e-02
  1.468848e+00    1.300119e+00   1.728550e-02
  1.471059e+00    1.297013e+00   1.723948e-02
  1.473269e+00    1.272870e+00   1.705387e-02
  1.475480e+00    1.278397e+00   1.706699e-02
  1.477690e+00    1.290784e+00   1.712543e-02
  1.479901e+00    1.277453e+00   1.701284e-02
  1.482111e+00    1.288215e+00   1.706084e-02
  1.484321e+00    1.266650e+00   1.689433e-02
  1.486532e+00    1.262208e+00   1.684238e-02
  1.488742e+00    1.245477e+00   1.670790e-02
  1.490953e+00    1.244350e+00   1.667791e-02
  1.493163e+00    1.259023e+00   1.675372e-02
  1.495374e+00    1.240814e+00   1.661082e-02
  1.497584e+00    1.242370e+00   1.659975e-02
  1.499795e+00    1.238326e+00   1.655125e-02
  1.502005e+00    1.239166e+00   1.653536e-02
  1.504216e+00    1.219739e+00   1.638453e-02
  1.506426e+00    1.228238e+00   1.642093e-02
  1.508636e+00    1.259849e+00   1.661044e-02
  1.510847e+00    1.266382e+00   1.663156e-02
  1.513057e+00    1.247740e+00   1.648368e-02
  1.515268e+00    1.235890e+00   1.637970e-02
  1.517478e+00    1.224370e+00   1.627832e-02
  1.519689e+00    1.260077e+00   1.648897e-02
  1.521899e+00    1.247527e+00   1.638361e-02
  1.524110e+00    1.232393e+00   1.626375e-02
  1.526320e+00    1.264211e+00   1.645267e-02
  1.528531e+00    1.272813e+00   1.648864e-02
  1.530741e+00    1.266237e+00   1.642670e-02
  1.532951e+00    1.267642e+00   1.641610e-02
  1.535162e+00    1.255357e+00   1.642316e-02
  1.537372e+00    1.231191e+00   1.633075e-02
  1.539583e+00    1.227464e+00   1.633994e-02
  1.541793e+00    1.239575e+00   1.642727e-02
  1.544004e+00    1.254074e+00   1.652333e-02
  1.546214e+00    1.263967e+00   1.658687e-02
  1.548425e+00    1.236127e+00   1.640346e-02
  1.550635e+00    1.230551e+00   1.637601e-02
  1.552846e+00    1.232748e+00   1.640025e-02
  1.555056e+00    1.231827e+00   1.635285e-02
  1.557266e+00    1.245039e+00   1.632983e-02
  1.559477e+00    1.240061e+00   1.623815e-02
  1.561687e+00    1.277024e+00   1.644730e-02
  1.563898e+00    1.263586e+00   1.634326e-02
  1.566108e+00    1.276203e+00   1.640848e-02
  1.568319e+00    1.269151e+00   1.634731e-02
  1.570529e+00    1.313810e+00   1.660660e-02
  1.572740e+00    1.326817e+00   1.666011e-02
  1.574950e+00    1.325414e+00   1.662413e-02
  1.577161e+00    1.320774e+00   1.656878e-02
  1.579371e+00    1.271777e+00   1.623463e-02
  1.581582e+00    1.276395e+00   1.624403e-02
  1.583792e+00    1.289518e+00   1.630899e-02
  1.586002e+00    1.300876e+00   1.636264e-02
  1.588213e+00    1.303131e+00   1.635917e-02
  1.590423e+00    1.301918e+00   1.633102e-02
  1.592634e+00    1.281587e+00   1.618108e-02
  1.594844e+00    1.274658e+00   1.611558e-02
  1.597055e+00    1.259740e+00   1.600040e-02
  1.599265e+00    1.232652e+00   1.580676e-02
  1.601476e+00    1.243110e+00   1.585334e-02
  1.603686e+00    1.230635e+00   1.575393e-02
  1.605897e+00    1.230483e+00   1.573284e-02
  1.608107e+00    1.256030e+00   1.587563e-02
  1.610317e+00    1.260110e+00   1.588190e-02
  1.612528e+00    1.260550e+00   1.586531e-02
  1.614738e+00    1.225592e+00   1.562488e-02
  1.616949e+00    1.243461e+00   1.571923e-02
  1.619159e+00    1.250694e+00   1.574598e-02
  1.621370e+00    1.241196e+00   1.566744e-02
  1.623580e+00    1.244457e+00   1.566945e-02
  1.625791e+00    1.236893e+00   1.560329e-02
  1.628001e+00    1.221272e+00   1.548604e-02
  1.630212e+00    1.218253e+00   1.544895e-02
  1.632422e+00    1.193106e+00   1.527072e-02
  1.634632e+00    1.182636e+00   1.518626e-02
  1.636843e+00    1.172030e+00   1.510051e-02
  1.639053e+00    1.153408e+00   1.496294e-02
  1.641264e+00    1.144698e+00   1.488940e-02
  1.643474e+00    1.145145e+00   1.487507e-02
  1.645685e+00    1.141459e+00   1.483455e-02
  1.647895e+00    1.152715e+00   1.489094e-02
  1.650106e+00    1.138834e+00   1.478410e-02
  1.652316e+00    1.147045e+00   1.482083e-02
  1.654527e+00    1.104340e+00   1.452594e-02
  1.656737e+00    1.100509e+00   1.448441e-02
  1.658947e+00    1.098770e+00   1.445692e-02
  1.661158e+00    1.091821e+00   1.439513e-02
  1.663368e+00    1.092763e+00   1.438553e-02
  1.665579e+00    1.088479e+00   1.434138e-02
  1.667789e+00    1.086379e+00   1.431152e-02
  1.670000e+00    1.072130e+00   1.420214e-02
  1.672210e+00    1.124822e+00   1.453096e-02
  1.674421e+00    1.134546e+00   1.457812e-02
  1.676631e+00    1.107590e+00   1.438799e-02
  1.678842e+00    1.104888e+00   1.435459e-02
  1.681052e+00    1.089267e+00   1.423743e-02
  1.683263e+00    1.058658e+00   1.402103e-02
  1.685473e+00    1.055843e+00   1.398743e-02
  1.687683e+00    1.058404e+00   1.398914e-02
  1.689894e+00    1.041503e+00   1.386152e-02
  1.692104e+00    1.029827e+00   1.376901e-02
  1.694315e+00    1.041983e+00   1.383572e-02
  1.696525e+00    1.058886e+00   1.393244e-02
  1.698736e+00    1.048903e+00   1.385188e-02
  1.700946e+00    1.054575e+00   1.387419e-02
  1.703157e+00    1.050003e+00   1.382950e-02
  1.705367e+00    1.032027e+00   1.369626e-02
  1.707578e+00    1.042641e+00   1.375198e-02
  1.709788e+00    1.001210e+00   1.346218e-02
  1.711998e+00    9.956279e-01   1.340991e-02
  1.714209e+00    9.970595e-01   1.340541e-02
  1.716419e+00    1.018206e+00   1.353265e-02
  1.718630e+00    1.002111e+00   1.341124e-02
  1.720840e+00    1.009329e+00   1.344536e-02
  1.723051e+00    1.009141e+00   1.343037e-02
  1.725261e+00    1.015326e+00   1.345682e-02
  1.727472e+00    9.980033e-01   1.332752e-02
  1.729682e+00    9.858276e-01   1.323270e-02
  1.731893e+00    9.801537e-01   1.318086e-02
  1.734103e+00    9.870931e-01   1.321380e-02
  1.736313e+00    9.757705e-01   1.312402e-02
  1.738524e+00    9.697201e-01   1.306965e-02
  1.740734e+00    9.525927e-01   1.294035e-02
  1.742945e+00    9.494885e-01   1.290610e-02
  1.745155e+00    9.655671e-01   1.300165e-02
  1.747366e+00    9.650201e-01   1.298435e-02
  1.749576e+00    9.231210e-01   1.268609e-02
  1.751787e+00    9.403450e-01   1.279084e-02
  1.753997e+00    9.432846e-01   1.279769e-02
  1.756208e+00    9.448436e-01   1.279528e-02
  1.758418e+00    9.382183e-01   1.273744e-02
  1.760628e+00    9.393055e-01   1.273168e-02
  1.762839e+00    9.355716e-01   1.269334e-02
  1.765049e+00    9.243784e-01   1.260432e-02
  1.767260e+00    9.081746e-01   1.248090e-02
  1.769470e+00    9.136347e-01   1.250565e-02
  1.771681e+00    9.173657e-01   1.251827e-02
  1.773891e+00    9.263895e-01   1.256679e-02
  1.776102e+00    9.194387e-01   1.250690e-02
  1.778312e+00    9.077740e-01   1.241482e-02
  1.780523e+00    8.893682e-01   1.227594e-02
  1.782733e+00    9.113119e-01   1.241396e-02
  1.784944e+00    9.000830e-01   1.232460e-02
  1.787154e+00    9.023669e-01   1.232791e-02
  1.789364e+00    8.898573e-01   1.222996e-02
  1.791575e+00    8.692383e-01   1.207529e-02
  1.793785e+00    8.814004e-01   1.214734e-02
  1.795996e+00    8.817425e-01   1.213745e-02
  1.798206e+00    8.921824e-01   1.219677e-02
  1.800417e+00    8.657570e-01   1.200247e-02
  1.802627e+00    8.569222e-01   1.192950e-02
  1.804838e+00    8.755712e-01   1.204673e-02
  1.807048e+00    9.015953e-01   1.221167e-02
  1.809259e+00    9.135258e-01   1.227857e-02
  1.811469e+00    8.770737e-01   1.201637e-02
  1.813679e+00    8.667923e-01   1.193105e-02
  1.815890e+00    8.563898e-01   1.184482e-02
  1.818100e+00    8.694465e-01   1.191992e-02
  1.820311e+00    8.720900e-01   1.192342e-02
  1.822521e+00    8.808557e-01   1.196843e-02
  1.824732e+00    8.764797e-01   1.192397e-02
  1.826942e+00    8.706639e-01   1.187212e-02
  1.829153e+00    8.466078e-01   1.169554e-02
  1.831363e+00    8.637825e-01   1.180165e-02
  1.833574e+00    8.777691e-01   1.188519e-02
  1.835784e+00    8.590727e-01   1.174663e-02
  1.837994e+00    8.690935e-01   1.180327e-02
  1.840205e+00    8.711160e-01   1.180586e-02
  1.842415e+00    8.629234e-01   1.173851e-02
  1.844626e+00    8.654583e-01   1.174421e-02
  1.846836e+00    8.664086e-01   1.173924e-02
  1.849047e+00    8.772399e-01   1.180071e-02
  1.851257e+00    8.692370e-01   1.173715e-02
  1.853468e+00    8.802059e-01   1.180208e-02
  1.855678e+00    8.723368e-01   1.174027e-02
  1.857889e+00    8.608865e-01   1.165445e-02
  1.860099e+00    8.500612e-01   1.157236e-02
  1.862309e+00    8.635502e-01   1.165524e-02
  1.864520e+00    8.512641e-01   1.156352e-02
  1.866730e+00    8.279488e-01   1.139481e-02
  1.868941e+00    8.313451e-01   1.140733e-02
  1.871151e+00    8.499759e-01   1.152308e-02
  1.873362e+00    8.573172e-01   1.156135e-02
  1.875572e+00    8.397290e-01   1.143127e-02
  1.877783e+00    8.434315e-01   1.144503e-02
  1.879993e+00    8.547266e-01   1.151021e-02
  1.882204e+00    8.476852e-01   1.145180e-02
  1.884414e+00    8.261212e-01   1.129423e-02
  1.886624e+00    8.301337e-01   1.131065e-02
  1.888835e+00    8.389322e-01   1.135946e-02
  1.891045e+00    8.542932e-01   1.145203e-02
  1.893256e+00    8.394313e-01   1.134088e-02
  1.895466e+00    8.386797e-01   1.132463e-02
  1.897677e+00    8.175513e-01   1.117026e-02
  1.899887e+00    8.349507e-01   1.127750e-02
  1.902098e+00    8.455011e-01   1.133760e-02
  1.904308e+00    8.584157e-01   1.141310e-02
  1.906519e+00    8.394488e-01   1.127544e-02
  1.908729e+00    8.232952e-01   1.115582e-02
  1.910940e+00    8.243130e-01   1.115162e-02
  1.913150e+00    8.268099e-01   1.115790e-02
  1.915360e+00    8.400914e-01   1.123643e-02
  1.917571e+00    8.408396e-01   1.123047e-02
  1.919781e+00    8.161923e-01   1.105398e-02
  1.921992e+00    8.101024e-01   1.100212e-02
  1.924202e+00    8.078444e-01   1.097606e-02
  1.926413e+00    8.171254e-01   1.102862e-02
  1.928623e+00    8.172159e-01   1.101869e-02
  1.930834e+00    8.105166e-01   1.096299e-02
  1.933044e+00    7.993987e-01   1.087699e-02
  1.935255e+00    8.013325e-01   1.087984e-02
  1.937465e+00    7.956437e-01   1.083085e-02
  1.939675e+00    7.945430e-01   1.081259e-02
  1.941886e+00    7.715542e-01   1.064496e-02
  1.944096e+00    7.602316e-01   1.055664e-02
  1.946307e+00    7.823454e-01   1.069887e-02
  1.948517e+00    7.759398e-01   1.064470e-02
  1.950728e+00    7.613059e-01   1.053384e-02
  1.952938e+00    7.742577e-01   1.061312e-02
  1.955149e+00    7.669348e-01   1.055276e-02
  1.957359e+00    7.758173e-01   1.060380e-02
  1.959570e+00    7.666126e-01   1.053002e-02
  1.961780e+00    7.748220e-01   1.057645e-02
  1.963990e+00    7.815194e-01   1.061202e-02
  1.966201e+00    7.775418e-01   1.057500e-02
  1.968411e+00    7.816027e-01   1.059247e-02
  1.970622e+00    7.811154e-01   1.057913e-02
  1.972832e+00    7.675656e-01   1.047712e-02
  1.975043e+00    7.968561e-01   1.066502e-02
  1.977253e+00    8.014948e-01   1.068600e-02
  1.979464e+00    7.837419e-01   1.055695e-02
  1.981674e+00    7.775084e-01   1.050465e-02
  1.983885e+00    7.781456e-01   1.049896e-02
  1.986095e+00    7.991902e-01   1.063014e-02
  1.988305e+00    8.331983e-01   1.084374e-02
  1.990516e+00    8.132571e-01   1.070308e-02
  1.992726e+00    7.712585e-01   1.041342e-02
  1.994937e+00    7.494005e-01   1.025483e-02
  1.997147e+00    7.706267e-01   1.038934e-02
  1.999358e+00    7.478077e-01   1.022472e-02
  2.001568e+00    7.623393e-01   1.031282e-02
  2.003779e+00    7.798009e-01   1.041830e-02
  2.005989e+00    7.724813e-01   1.035727e-02
  2.008200e+00    7.537213e-01   1.021932e-02
  2.010410e+00    7.530639e-01   1.020324e-02
  2.012621e+00    7.606148e-01   1.024262e-02
  2.014831e+00    7.501123e-01   1.016032e-02
  2.017041e+00    7.591521e-01   1.021103e-02
  2.019252e+00    7.507555e-01   1.014454e-02
  2.021462e+00    7.592700e-01   1.019243e-02
  2.023673e+00    7.591458e-01   1.018225e-02
  2.025883e+00    7.565475e-01   1.015532e-02
  2.028094e+00    7.596256e-01   1.016634e-02
  2.030304e+00    7.504260e-01   1.009512e-02
  2.032515e+00    7.644914e-01   1.017997e-02
  2.034725e+00    7.560070e-01   1.011390e-02
  2.036936e+00    7.625946e-01   1.014851e-02
  2.039146e+00    7.636626e-01   1.014599e-02
  2.041356e+00    7.717004e-01   1.018953e-02
  2.043567e+00    7.621070e-01   1.011663e-02
  2.045777e+00    7.706783e-01   1.016402e-02
  2.047988e+00    7.604296e-01   1.008682e-02
  2.050198e+00    7.535949e-01   1.003295e-02
  2.052409e+00    7.637696e-01   1.009273e-02
  2.054619e+00    7.709234e-01   1.013243e-02
  2.056830e+00    7.778987e-01   1.017087e-02
  2.059040e+00    7.454243e-01   9.948823e-03
  2.061251e+00    7.487409e-01   9.963685e-03
  2.063461e+00    7.420619e-01   9.911585e-03
  2.065671e+00    7.502361e-01   9.957290e-03
  2.067882e+00    7.444075e-01   9.909577e-03
  2.070092e+00    7.333219e-01   9.826394e-03
  2.072303e+00    7.535412e-01   9.951748e-03
  2.074513e+00    7.438929e-01   9.878539e-03
  2.076724e+00    7.346203e-01   9.807364e-03
  2.078934e+00    7.363628e-01   9.810042e-03
  2.081145e+00    7.473280e-01   9.873684e-03
  2.083355e+00    7.545006e-01   9.911710e-03
  2.085566e+00    7.387466e-01   9.798803e-03
  2.087776e+00    7.356129e-01   9.768495e-03
  2.089986e+00    7.484841e-01   9.844750e-03
  2.092197e+00    7.288843e-01   9.706119e-03
  2.094407e+00    7.175710e-01   9.621344e-03
  2.096618e+00    7.245360e-01   9.659120e-03
  2.098828e+00    7.279755e-01   9.672747e-03
  2.101039e+00    7.154405e-01   9.580229e-03
  2.103249e+00    7.130127e-01   9.555418e-03
  2.105460e+00    7.018244e-01   9.471288e-03
  2.107670e+00    7.287558e-01   9.642574e-03
  2.109881e+00    7.235262e-01   9.598770e-03
  2.112091e+00    7.245368e-01   9.596499e-03
  2.114301e+00    7.052948e-01   9.459557e-03
  2.116512e+00    7.268330e-01   9.594064e-03
  2.118722e+00    7.247010e-01   9.571169e-03
  2.120933e+00    6.997512e-01   9.396229e-03
  2.123143e+00    7.262200e-01   9.563318e-03
  2.125354e+00    7.083298e-01   9.436344e-03
  2.127564e+00    7.239500e-01   9.531016e-03
  2.129775e+00    7.236606e-01   9.520363e-03
  2.131985e+00    7.113172e-01   9.429770e-03
  2.134196e+00    7.224739e-01   9.494782e-03
  2.136406e+00    7.075894e-01   9.387772e-03
  2.138617e+00    6.946822e-01   9.293390e-03
  2.140827e+00    6.895192e-01   9.274608e-03
  2.143037e+00    7.105407e-01   9.460522e-03
  2.145248e+00    7.150168e-01   9.512428e-03
  2.147458e+00    6.970948e-01   9.407521e-03
  2.149669e+00    6.934888e-01   9.394903e-03
  2.151879e+00    7.386652e-01   9.705532e-03
  2.154090e+00    7.436156e-01   9.745595e-03
  2.156300e+00    6.768653e-01   9.304376e-03
  2.158511e+00    6.932683e-01   9.421689e-03
  2.160721e+00    6.985961e-01   9.462679e-03
  2.162932e+00    6.870586e-01   9.387913e-03
  2.165142e+00    6.762922e-01   9.317037e-03
  2.167352e+00    6.947133e-01   9.445978e-03
  2.169563e+00    6.960984e-01   9.457356e-03
  2.171773e+00    6.947836e-01   9.450868e-03
  2.173984e+00    6.632757e-01   9.235487e-03
  2.176194e+00    6.569235e-01   9.192290e-03
  2.178405e+00    6.978781e-01   9.475197e-03
  2.180615e+00    7.048727e-01   9.523274e-03
  2.182826e+00    6.802791e-01   9.356335e-03
  2.185036e+00    6.617154e-01   9.227838e-03
  2.187247e+00    6.760522e-01   9.327204e-03
  2.189457e+00    6.784267e-01   9.343174e-03
  2.191667e+00    6.843715e-01   9.383848e-03
  2.193878e+00    6.830405e-01   9.374150e-03
  2.196088e+00    6.835124e-01   9.376717e-03
  2.198299e+00    6.634083e-01   9.236705e-03
  2.200509e+00    6.630130e-01   9.232915e-03
  2.202720e+00    6.760582e-01   9.322146e-03
  2.204930e+00    6.857715e-01   9.387640e-03
  2.207141e+00    6.790489e-01   9.340409e-03
  2.209351e+00    6.742949e-01   9.305777e-03
  2.211562e+00    6.551566e-01   9.171171e-03
  2.213772e+00    6.830819e-01   9.308841e-03
  2.215982e+00    6.685806e-01   9.165545e-03
  2.218193e+00    6.647395e-01   9.109785e-03
  2.220403e+00    6.653022e-01   9.089213e-03
  2.222614e+00    6.870376e-01   9.215338e-03
  2.224824e+00    6.819628e-01   9.161753e-03
  2.227035e+00    6.620564e-01   9.009757e-03
  2.229245e+00    6.538333e-01   8.936853e-03
  2.231456e+00    6.661343e-01   9.004985e-03
  2.233666e+00    6.538743e-01   8.906854e-03
  2.235877e+00    6.473287e-01   8.848120e-03
  2.238087e+00    6.468607e-01   8.831681e-03
  2.240298e+00    6.608807e-01   8.913175e-03
  2.242508e+00    6.710750e-01   8.966537e-03
  2.244718e+00    6.584213e-01   8.865900e-03
  2.246929e+00    6.453034e-01   8.762966e-03
  2.249139e+00    6.505910e-01   8.786567e-03
  2.251350e+00    6.532126e-01   8.792665e-03
  2.253560e+00    6.641273e-01   8.854274e-03
  2.255771e+00    6.774771e-01   8.931316e-03
  2.257981e+00    6.511153e-01   8.744790e-03
  2.260192e+00    6.482426e-01   8.714464e-03
  2.262402e+00    6.632439e-01   8.803904e-03
  2.264613e+00    6.626581e-01   8.789164e-03
  2.266823e+00    6.696021e-01   8.824673e-03
  2.269033e+00    6.580539e-01   8.737889e-03
  2.271244e+00    6.673277e-01   8.788818e-03
  2.273454e+00    6.638739e-01   8.755769e-03
  2.275665e+00    6.652759e-01   8.754683e-03
  2.277875e+00    6.573121e-01   8.692240e-03
  2.280086e+00    6.459612e-01   8.606906e-03
  2.282296e+00    6.618584e-01   8.702759e-03
  2.284507e+00    6.513823e-01   8.623525e-03
  2.286717e+00    6.506252e-01   8.609117e-03
  2.288928e+00    6.382531e-01   8.517130e-03
  2.291138e+00    6.565564e-01   8.628966e-03
  2.293348e+00    6.363854e-01   8.485992e-03
  2.295559e+00    6.523314e-01   8.582351e-03
  2.297769e+00    6.479179e-01   8.544074e-03
  2.299980e+00    6.590974e-01   8.608097e-03
  2.302190e+00    6.427562e-01   8.491669e-03
  2.304401e+00    6.371483e-01   8.445326e-03
  2.306611e+00    6.272695e-01   8.370571e-03
  2.308822e+00    6.365544e-01   8.423998e-03
  2.311032e+00    6.473035e-01   8.488399e-03
  2.313243e+00    6.488244e-01   8.492097e-03
  2.315453e+00    6.560030e-01   8.531334e-03
  2.317663e+00    6.415238e-01   8.427587e-03
  2.319874e+00    6.438901e-01   8.434389e-03
  2.322084e+00    6.446748e-01   8.430569e-03
  2.324295e+00    6.485492e-01   8.447630e-03
  2.326505e+00    6.326548e-01   8.334507e-03
  2.328716e+00    6.234910e-01   8.265493e-03
  2.330926e+00    6.268367e-01   8.278964e-03
  2.333137e+00    6.244909e-01   8.255199e-03
  2.335347e+00    6.383162e-01   8.337213e-03
  2.337558e+00    6.443914e-01   8.368559e-03
  2.339768e+00    6.402528e-01   8.333051e-03
  2.341979e+00    6.300321e-01   8.257981e-03
  2.344189e+00    6.301631e-01   8.250488e-03
  2.346399e+00    6.218191e-01   8.187275e-03
  2.348610e+00    6.385922e-01   8.288480e-03
  2.350820e+00    6.442427e-01   8.316852e-03
  2.353031e+00    6.135711e-01   8.108308e-03
  2.355241e+00    6.200001e-01   8.142680e-03
  2.357452e+00    6.395304e-01   8.261483e-03
  2.359662e+00    6.227899e-01   8.144491e-03
  2.361873e+00    6.187941e-01   8.110147e-03
  2.364083e+00    6.117535e-01   8.055995e-03
  2.366294e+00    6.238039e-01   8.126881e-03
  2.368504e+00    6.235343e-01   8.117066e-03
  2.370714e+00    6.134071e-01   8.042900e-03
  2.372925e+00    6.165211e-01   8.055297e-03
  2.375135e+00    6.145664e-01   8.034523e-03
  2.377346e+00    6.030213e-01   7.950890e-03
  2.379556e+00    6.080573e-01   7.976210e-03
  2.381767e+00    6.030343e-01   7.935444e-03
  2.383977e+00    6.205586e-01   8.042001e-03
  2.386188e+00    6.121030e-01   7.979149e-03
  2.388398e+00    6.147833e-01   7.988670e-03
  2.390609e+00    6.093753e-01   7.945776e-03
  2.392819e+00    6.021882e-01   7.891105e-03
  2.395029e+00    6.126065e-01   7.951411e-03
  2.397240e+00    6.231251e-01   8.011478e-03
  2.399450e+00    6.190799e-01   7.977588e-03
  2.401661e+00    6.084802e-01   7.901343e-03
  2.403871e+00    5.973473e-01   7.821056e-03
  2.406082e+00    5.978539e-01   7.817009e-03
  2.408292e+00    5.910266e-01   7.764570e-03
  2.410503e+00    5.900419e-01   7.750729e-03
  2.412713e+00    5.990567e-01   7.801957e-03
  2.414924e+00    5.887545e-01   7.727217e-03
  2.417134e+00    6.022902e-01   7.807903e-03
  2.419344e+00    5.878524e-01   7.706461e-03
  2.421555e+00    5.844397e-01   7.676641e-03
  2.423765e+00    6.011698e-01   7.778330e-03
  2.425976e+00    5.964862e-01   7.740199e-03
  2.428186e+00    5.829238e-01   7.644580e-03
  2.430397e+00    5.706182e-01   7.556133e-03
  2.432607e+00    5.784408e-01   7.600584e-03
  2.434818e+00    5.797769e-01   7.601918e-03
  2.437028e+00    5.741000e-01   7.557578e-03
  2.439239e+00    5.810854e-01   7.595836e-03
  2.441449e+00    5.975773e-01   7.695656e-03
  2.443659e+00    5.689067e-01   7.501568e-03
  2.445870e+00    5.633179e-01   7.476590e-03
  2.448080e+00    5.583403e-01   7.477557e-03
  2.450291e+00    5.647454e-01   7.536738e-03
  2.452501e+00    5.490567e-01   7.442227e-03
  2.454712e+00    5.547620e-01   7.489071e-03
  2.456922e+00    5.669082e-01   7.577204e-03
  2.459133e+00    5.669222e-01   7.582740e-03
  2.461343e+00    5.589240e-01   7.533388e-03
  2.463554e+00    5.572147e-01   7.525289e-03
  2.465764e+00    5.441242e-01   7.439482e-03
  2.467975e+00    5.499823e-01   7.481646e-03
  2.470185e+00    5.591832e-01   7.546246e-03
  2.472395e+00    5.581011e-01   7.540174e-03
  2.474606e+00    5.453379e-01   7.455001e-03
  2.476816e+00    5.407503e-01   7.424308e-03
  2.479027e+00    5.429343e-01   7.440113e-03
  2.481237e+00    5.382044e-01   7.407920e-03
  2.483448e+00    5.449787e-01   7.454705e-03
  2.485658e+00    5.236802e-01   7.307442e-03
  2.487869e+00    5.188260e-01   7.273517e-03
  2.490079e+00    5.336484e-01   7.376182e-03
  2.492290e+00    5.271106e-01   7.330427e-03
  2.494500e+00    5.259009e-01   7.321280e-03
  2.496710e+00    5.244519e-01   7.310515e-03
  2.498921e+00    5.244012e-01   7.309162e-03
  2.501131e+00    5.448756e-01   7.449524e-03
  2.503342e+00    5.222912e-01   7.292284e-03
  2.505552e+00    5.162148e-01   7.248593e-03
  2.507763e+00    5.119549e-01   7.217248e-03
  2.509973e+00    5.163985e-01   7.247099e-03
  2.512184e+00    5.282761e-01   7.328375e-03
  2.514394e+00    5.165130e-01   7.237060e-03
  2.516605e+00    5.215258e-01   7.225244e-03
  2.518815e+00    5.050610e-01   7.082532e-03
  2.521025e+00    5.216356e-01   7.176906e-03
  2.523236e+00    5.196201e-01   7.145155e-03
  2.525446e+00    5.266216e-01   7.177513e-03
  2.527657e+00    5.173799e-01   7.099766e-03
  2.529867e+00    5.143375e-01   7.064810e-03
  2.532078e+00    5.272726e-01   7.138044e-03
  2.534288e+00    5.201427e-01   7.075779e-03
  2.536499e+00    5.284318e-01   7.119961e-03
  2.538709e+00    5.215480e-01   7.062480e-03
  2.540920e+00    5.097846e-01   6.971866e-03
  2.543130e+00    5.184328e-01   7.020446e-03
  2.545340e+00    5.187563e-01   7.012624e-03
  2.547551e+00    5.201695e-01   7.012258e-03
  2.549761e+00    5.160413e-01   6.974837e-03
  2.551972e+00    5.261627e-01   7.033527e-03
  2.554182e+00    5.217322e-01   6.994669e-03
  2.556393e+00    5.211080e-01   6.981396e-03
  2.558603e+00    5.177127e-01   6.949545e-03
  2.560814e+00    5.161019e-01   6.930078e-03
  2.563024e+00    5.002833e-01   6.814620e-03
  2.565235e+00    5.095691e-01   6.868138e-03
  2.567445e+00    5.190443e-01   6.922153e-03
  2.569656e+00    4.946339e-01   6.747909e-03
  2.571866e+00    5.069775e-01   6.822307e-03
  2.574076e+00    5.106160e-01   6.837542e-03
  2.576287e+00    5.160145e-01   6.865272e-03
  2.578497e+00    5.082980e-01   6.805957e-03
  2.580708e+00    4.978128e-01   6.727463e-03
  2.582918e+00    5.010092e-01   6.741343e-03
  2.585129e+00    4.993747e-01   6.722725e-03
  2.587339e+00    4.958129e-01   6.691154e-03
  2.589550e+00    5.088865e-01   6.771262e-03
  2.591760e+00    5.111262e-01   6.778444e-03
  2.593971e+00    4.955063e-01   6.666644e-03
  2.596181e+00    5.018793e-01   6.703218e-03
  2.598391e+00    4.969259e-01   6.664931e-03
  2.600602e+00    5.136688e-01   6.770343e-03
  2.602812e+00    5.036304e-01   6.696385e-03
  2.605023e+00    4.990294e-01   6.658625e-03
  2.607233e+00    4.862755e-01   6.565988e-03
  2.609444e+00    4.893275e-01   6.579469e-03
  2.611654e+00    5.029334e-01   6.663016e-03
  2.613865e+00    4.884497e-01   6.559469e-03
  2.616075e+00    4.941612e-01   6.590651e-03
  2.618286e+00    4.994102e-01   6.618597e-03
  2.620496e+00    4.874986e-01   6.532626e-03
  2.622706e+00    4.991867e-01   6.604753e-03
  2.624917e+00    4.986295e-01   6.595252e-03
  2.627127e+00    5.048933e-01   6.630809e-03
  2.629338e+00    5.102582e-01   6.659918e-03
  2.631548e+00    4.940798e-01   6.547393e-03
  2.633759e+00    4.973140e-01   6.561660e-03
  2.635969e+00    4.977011e-01   6.557564e-03
  2.638180e+00    5.022666e-01   6.580577e-03
  2.640390e+00    4.849595e-01   6.459722e-03
  2.642601e+00    4.845737e-01   6.450572e-03
  2.644811e+00    5.045078e-01   6.574823e-03
  2.647021e+00    4.984117e-01   6.528429e-03
  2.649232e+00    4.899744e-01   6.466290e-03
  2.651442e+00    4.740281e-01   6.353852e-03
  2.653653e+00    4.888851e-01   6.445920e-03
  2.655863e+00    4.922483e-01   6.461412e-03
  2.658074e+00    4.888247e-01   6.432371e-03
  2.660284e+00    4.809998e-01   6.374420e-03
  2.662495e+00    4.812362e-01   6.369331e-03
  2.664705e+00    4.924589e-01   6.436650e-03
  2.666916e+00    4.902810e-01   6.415970e-03
  2.669126e+00    4.821465e-01   6.356160e-03
  2.671337e+00    4.858195e-01   6.373805e-03
  2.673547e+00    4.767737e-01   6.307927e-03
  2.675757e+00    4.912739e-01   6.396699e-03
  2.677968e+00    4.906352e-01   6.386044e-03
  2.680178e+00    4.919176e-01   6.387995e-03
  2.682389e+00    4.865569e-01   6.346754e-03
  2.684599e+00    4.842103e-01   6.325278e-03
  2.686810e+00    4.878348e-01   6.342346e-03
  2.689020e+00    4.913739e-01   6.359006e-03
  2.691231e+00    4.935360e-01   6.366692e-03
  2.693441e+00    4.923370e-01   6.352786e-03
  2.695652e+00    4.947520e-01   6.361808e-03
  2.697862e+00    4.865445e-01   6.302504e-03
  2.700072e+00    4.769298e-01   6.233903e-03
  2.702283e+00    4.901362e-01   6.313412e-03
  2.704493e+00    4.811487e-01   6.249024e-03
  2.706704e+00    4.829937e-01   6.254617e-03
  2.708914e+00    4.869856e-01   6.274458e-03
  2.711125e+00    4.740714e-01   6.184553e-03
  2.713335e+00    4.760560e-01   6.191452e-03
  2.715546e+00    4.815036e-01   6.220350e-03
  2.717756e+00    4.782489e-01   6.193473e-03
  2.719967e+00    4.739163e-01   6.159203e-03
  2.722177e+00    4.927479e-01   6.274221e-03
  2.724387e+00    4.769877e-01   6.167021e-03
  2.726598e+00    4.764300e-01   6.157398e-03
  2.728808e+00    4.743264e-01   6.137725e-03
  2.731019e+00    4.634942e-01   6.061241e-03
  2.733229e+00    4.600369e-01   6.032931e-03
  2.735440e+00    4.737295e-01   6.115858e-03
  2.737650e+00    4.758314e-01   6.123431e-03
  2.739861e+00    4.844831e-01   6.172786e-03
  2.742071e+00    4.865889e-01   6.180418e-03
  2.744282e+00    4.782609e-01   6.121086e-03
  2.746492e+00    4.872582e-01   6.172323e-03
  2.748702e+00    4.815048e-01   6.129874e-03
  2.750913e+00    4.837084e-01   6.138086e-03
  2.753123e+00    4.787089e-01   6.100177e-03
  2.755334e+00    4.796240e-01   6.099948e-03
  2.757544e+00    4.614187e-01   5.977429e-03
  2.759755e+00    4.677014e-01   6.012177e-03
  2.761965e+00    4.603042e-01   5.958585e-03
  2.764176e+00    4.754963e-01   6.050158e-03
  2.766386e+00    4.806282e-01   6.076924e-03
  2.768597e+00    4.874959e-01   6.114281e-03
  2.770807e+00    4.836645e-01   6.084302e-03
  2.773017e+00    4.711011e-01   5.998844e-03
  2.775228e+00    4.771588e-01   6.031491e-03
  2.777438e+00    4.888438e-01   6.099057e-03
  2.779649e+00    4.674507e-01   5.958276e-03
  2.781859e+00    4.790364e-01   6.025873e-03
  2.784070e+00    4.671185e-01   5.944670e-03
  2.786280e+00    4.645607e-01   5.922661e-03
  2.788491e+00    4.762457e-01   5.990855e-03
  2.790701e+00    4.798411e-01   6.007767e-03
  2.792912e+00    4.713435e-01   5.948388e-03
  2.795122e+00    4.878349e-01   6.045756e-03
  2.797333e+00    4.752537e-01   5.961749e-03
  2.799543e+00    4.681302e-01   5.911065e-03
  2.801753e+00    4.674191e-01   5.900773e-03
  2.803964e+00    4.650005e-01   5.879879e-03
  2.806174e+00    4.708767e-01   5.910805e-03
  2.808385e+00    4.744655e-01   5.926473e-03
  2.810595e+00    4.753714e-01   5.925286e-03
  2.812806e+00    4.656332e-01   5.857720e-03
  2.815016e+00    4.683354e-01   5.869984e-03
  2.817227e+00    4.714298e-01   5.915179e-03
  2.819437e+00    4.746462e-01   5.946439e-03
  2.821648e+00    4.738417e-01   5.943676e-03
  2.823858e+00    4.643755e-01   5.889301e-03
  2.826068e+00    4.640974e-01   5.892463e-03
  2.828279e+00    4.650841e-01   5.902736e-03
  2.830489e+00    4.622172e-01   5.887815e-03
  2.832700e+00    4.600256e-01   5.876362e-03
  2.834910e+00    4.641337e-01   5.904588e-03
  2.837121e+00    4.672623e-01   5.926160e-03
  2.839331e+00    4.768485e-01   5.987881e-03
  2.841542e+00    4.567873e-01   5.861582e-03
  2.843752e+00    4.513659e-01   5.827444e-03
  2.845963e+00    4.501200e-01   5.819799e-03
  2.848173e+00    4.517723e-01   5.830543e-03
  2.850383e+00    4.645567e-01   5.912761e-03
  2.852594e+00    4.599403e-01   5.883232e-03
  2.854804e+00    4.598764e-01   5.882324e-03
  2.857015e+00    4.698313e-01   5.945219e-03
  2.859225e+00    4.629467e-01   5.901241e-03
  2.861436e+00    4.727966e-01   5.963042e-03
  2.863646e+00    4.584974e-01   5.872209e-03
  2.865857e+00    4.674186e-01   5.929400e-03
  2.868067e+00    4.710899e-01   5.952870e-03
  2.870278e+00    4.558592e-01   5.855509e-03
  2.872488e+00    4.553258e-01   5.850919e-03
  2.874698e+00    4.542203e-01   5.842781e-03
  2.876909e+00    4.460218e-01   5.788510e-03
  2.879119e+00    4.509186e-01   5.818592e-03
  2.881330e+00    4.419458e-01   5.758979e-03
  2.883540e+00    4.496479e-01   5.807557e-03
  2.885751e+00    4.604875e-01   5.875524e-03
  2.887961e+00    4.524513e-01   5.822151e-03
  2.890172e+00    4.674435e-01   5.916203e-03
  2.892382e+00    4.608018e-01   5.872238e-03
  2.894593e+00    4.538201e-01   5.825773e-03
  2.896803e+00    4.690917e-01   5.920977e-03
  2.899014e+00    4.584873e-01   5.851779e-03
  2.901224e+00    4.478981e-01   5.781838e-03
  2.903434e+00    4.542285e-01   5.820618e-03
  2.905645e+00    4.610981e-01   5.862234e-03
  2.907855e+00    4.573362e-01   5.836182e-03
  2.910066e+00    4.524778e-01   5.803037e-03
  2.912276e+00    4.493261e-01   5.780703e-03
  2.914487e+00    4.409606e-01   5.724207e-03
  2.916697e+00    4.558939e-01   5.818128e-03
  2.918908e+00    4.472383e-01   5.760643e-03
  2.921118e+00    4.487801e-01   5.767895e-03
  2.923329e+00    4.536573e-01   5.796846e-03
  2.925539e+00    4.564403e-01   5.812324e-03
  2.927749e+00    4.621172e-01   5.846035e-03
  2.929960e+00    4.544782e-01   5.794752e-03
  2.932170e+00    4.458901e-01   5.737429e-03
  2.934381e+00    4.454317e-01   5.732078e-03
  2.936591e+00    4.557224e-01   5.795322e-03
  2.938802e+00    4.599728e-01   5.819579e-03
  2.941012e+00    4.467813e-01   5.733210e-03
  2.943223e+00    4.443612e-01   5.714998e-03
  2.945433e+00    4.485634e-01   5.738240e-03
  2.947644e+00    4.375390e-01   5.663251e-03
  2.949854e+00    4.542488e-01   5.766097e-03
  2.952064e+00    4.479008e-01   5.721498e-03
  2.954275e+00    4.453727e-01   5.700941e-03
  2.956485e+00    4.593067e-01   5.785223e-03
  2.958696e+00    4.550520e-01   5.754025e-03
  2.960906e+00    4.557432e-01   5.754174e-03
  2.963117e+00    4.522488e-01   5.727625e-03
  2.965327e+00    4.433470e-01   5.667111e-03
  2.967538e+00    4.477432e-01   5.692239e-03
  2.969748e+00    4.462309e-01   5.679836e-03
  2.971959e+00    4.517080e-01   5.711460e-03
  2.974169e+00    4.635625e-01   5.783294e-03
  2.976379e+00    4.632474e-01   5.778408e-03
  2.978590e+00    4.468788e-01   5.672285e-03
  2.980800e+00    4.491354e-01   5.683788e-03
  2.983011e+00    4.709067e-01   5.817079e-03
  2.985221e+00    4.392817e-01   5.615273e-03
  2.987432e+00    4.282162e-01   5.541052e-03
  2.989642e+00    4.409126e-01   5.619999e-03
  2.991853e+00    4.506125e-01   5.678230e-03
  2.994063e+00    4.395539e-01   5.605270e-03
  2.996274e+00    4.404167e-01   5.607604e-03
  2.998484e+00    4.676124e-01   5.775424e-03
  3.000694e+00    4.503216e-01   5.664205e-03
  3.002905e+00    4.512410e-01   5.667049e-03
  3.005115e+00    4.490148e-01   5.650084e-03
  3.007326e+00    4.585662e-01   5.706676e-03
  3.009536e+00    4.507515e-01   5.654639e-03
  3.011747e+00    4.320703e-01   5.533330e-03
  3.013957e+00    4.651017e-01   5.737741e-03
  3.016168e+00    4.420377e-01   5.590454e-03
  3.018378e+00    4.390489e-01   5.568533e-03
  3.020589e+00    4.404756e-01   5.574387e-03
  3.022799e+00    4.365960e-01   5.546692e-03
  3.025010e+00    4.427552e-01   5.582456e-03
  3.027220e+00    4.365996e-01   5.540479e-03
  3.029430e+00    4.401761e-01   5.559905e-03
  3.031641e+00    4.560167e-01   5.655920e-03
  3.033851e+00    4.484143e-01   5.605073e-03
  3.036062e+00    4.384092e-01   5.539467e-03
  3.038272e+00    4.326814e-01   5.499631e-03
  3.040483e+00    4.493872e-01   5.601600e-03
  3.042693e+00    4.397536e-01   5.538004e-03
  3.044904e+00    4.343503e-01   5.499934e-03
  3.047114e+00    4.592378e-01   5.650437e-03
  3.049325e+00    4.557158e-01   5.624346e-03
  3.051535e+00    4.399860e-01   5.522064e-03
  3.053745e+00    4.429942e-01   5.536191e-03
  3.055956e+00    4.394319e-01   5.509401e-03
  3.058166e+00    4.393484e-01   5.504650e-03
  3.060377e+00    4.292014e-01   5.436048e-03
  3.062587e+00    4.424415e-01   5.514674e-03
  3.064798e+00    4.452462e-01   5.527894e-03
  3.067008e+00    4.477006e-01   5.538393e-03
  3.069219e+00    4.300625e-01   5.423795e-03
  3.071429e+00    4.382470e-01   5.471679e-03
  3.073640e+00    4.389806e-01   5.472965e-03
  3.075850e+00    4.447415e-01   5.505199e-03
  3.078060e+00    4.327911e-01   5.427684e-03
  3.080271e+00    4.418048e-01   5.480464e-03
  3.082481e+00    4.308141e-01   5.408496e-03
  3.084692e+00    4.388558e-01   5.455379e-03
  3.086902e+00    4.512424e-01   5.528584e-03
  3.089113e+00    4.494218e-01   5.513859e-03
  3.091323e+00    4.384238e-01   5.442631e-03
  3.093534e+00    4.356455e-01   5.422032e-03
  3.095744e+00    4.490064e-01   5.501159e-03
  3.097955e+00    4.398826e-01   5.441480e-03
  3.100165e+00    4.291059e-01   5.371131e-03
  3.102375e+00    4.341922e-01   5.399512e-03
  3.104586e+00    4.365630e-01   5.410769e-03
  3.106796e+00    4.462046e-01   5.466670e-03
  3.109007e+00    4.462112e-01   5.463509e-03
  3.111217e+00    4.352795e-01   5.392522e-03
  3.113428e+00    4.446706e-01   5.446959e-03
  3.115638e+00    4.328042e-01   5.370610e-03
  3.117849e+00    4.262505e-01   5.326154e-03
  3.120059e+00    4.247845e-01   5.313588e-03
  3.122270e+00    4.371804e-01   5.387324e-03
  3.124480e+00    4.451145e-01   5.432327e-03
  3.126691e+00    4.477123e-01   5.444567e-03
  3.128901e+00    4.427166e-01   5.410996e-03
  3.131111e+00    4.332739e-01   5.349190e-03
  3.133322e+00    4.536020e-01   5.469740e-03
  3.135532e+00    4.411763e-01   5.390942e-03
  3.137743e+00    4.375382e-01   5.365185e-03
  3.139953e+00    4.513396e-01   5.445432e-03
  3.142164e+00    4.558833e-01   5.484985e-03
  3.144374e+00    4.314795e-01   5.364201e-03
  3.146585e+00    4.359607e-01   5.406443e-03
  3.148795e+00    4.474850e-01   5.488260e-03
  3.151006e+00    4.440098e-01   5.475491e-03
  3.153216e+00    4.325306e-01   5.411308e-03
  3.155426e+00    4.269865e-01   5.382712e-03
  3.157637e+00    4.379545e-01   5.456921e-03
  3.159847e+00    4.315120e-01   5.421451e-03
  3.162058e+00    4.372855e-01   5.462023e-03
  3.164268e+00    4.304281e-01   5.423053e-03
  3.166479e+00    4.219337e-01   5.372847e-03
  3.168689e+00    4.271956e-01   5.409567e-03
  3.170900e+00    4.270484e-01   5.411739e-03
  3.173110e+00    4.312733e-01   5.441314e-03
  3.175321e+00    4.291990e-01   5.430678e-03
  3.177531e+00    4.252660e-01   5.408427e-03
  3.179741e+00    4.488798e-01   5.558657e-03
  3.181952e+00    4.476395e-01   5.553111e-03
  3.184162e+00    4.299102e-01   5.444214e-03
  3.186373e+00    4.256412e-01   5.418681e-03
  3.188583e+00    4.358465e-01   5.485054e-03
  3.190794e+00    4.257010e-01   5.422564e-03
  3.193004e+00    4.247922e-01   5.417996e-03
  3.195215e+00    4.284166e-01   5.442550e-03
  3.197425e+00    4.328764e-01   5.472000e-03
  3.199636e+00    4.395126e-01   5.513038e-03
  3.201846e+00    4.196623e-01   5.386495e-03
  3.204056e+00    4.240170e-01   5.415247e-03
  3.206267e+00    4.286202e-01   5.445410e-03
  3.208477e+00    4.311978e-01   5.462673e-03
  3.210688e+00    4.266687e-01   5.434758e-03
  3.212898e+00    4.275143e-01   5.440708e-03
  3.215109e+00    4.235477e-01   5.416147e-03
  3.217319e+00    4.327542e-01   5.475339e-03
  3.219530e+00    4.152161e-01   5.363638e-03
  3.221740e+00    4.191196e-01   5.389322e-03
  3.223951e+00    4.216461e-01   5.406026e-03
  3.226161e+00    4.241531e-01   5.422243e-03
  3.228372e+00    4.183155e-01   5.385345e-03
  3.230582e+00    4.222647e-01   5.410825e-03
  3.232792e+00    4.222735e-01   5.411108e-03
  3.235003e+00    4.327374e-01   5.477983e-03
  3.237213e+00    4.177901e-01   5.382666e-03
  3.239424e+00    4.232318e-01   5.417572e-03
  3.241634e+00    4.385986e-01   5.515196e-03
  3.243845e+00    4.355225e-01   5.495888e-03
  3.246055e+00    4.345051e-01   5.489202e-03
  3.248266e+00    4.186656e-01   5.388408e-03
  3.250476e+00    4.186298e-01   5.387873e-03
  3.252687e+00    4.140272e-01   5.358115e-03
  3.254897e+00    4.201404e-01   5.397382e-03
  3.257107e+00    4.191669e-01   5.390828e-03
  3.259318e+00    4.211686e-01   5.403460e-03
  3.261528e+00    4.095543e-01   5.328284e-03
  3.263739e+00    4.178557e-01   5.381454e-03
  3.265949e+00    4.213988e-01   5.404126e-03
  3.268160e+00    4.120732e-01   5.343573e-03
  3.270370e+00    4.007010e-01   5.268826e-03
  3.272581e+00    4.110113e-01   5.335900e-03
  3.274791e+00    4.081670e-01   5.316891e-03
  3.277002e+00    4.272877e-01   5.439442e-03
  3.279212e+00    4.121278e-01   5.341718e-03
  3.281422e+00    4.109910e-01   5.333739e-03
  3.283633e+00    4.228167e-01   5.409264e-03
  3.285843e+00    4.235221e-01   5.413461e-03
  3.288054e+00    4.105782e-01   5.329162e-03
  3.290264e+00    4.114498e-01   5.334497e-03
  3.292475e+00    4.149677e-01   5.356431e-03
  3.294685e+00    4.311949e-01   5.459512e-03
  3.296896e+00    4.238814e-01   5.412271e-03
  3.299106e+00    4.108608e-01   5.327949e-03
  3.301317e+00    4.111575e-01   5.328866e-03
  3.303527e+00    4.106058e-01   5.324817e-03
  3.305737e+00    4.138790e-01   5.344964e-03
  3.307948e+00    4.096688e-01   5.317053e-03
  3.310158e+00    4.187548e-01   5.374851e-03
  3.312369e+00    4.184596e-01   5.372064e-03
  3.314579e+00    4.113902e-01   5.325624e-03
  3.316790e+00    4.114021e-01   5.324980e-03
  3.319000e+00    4.238097e-01   5.403487e-03
  3.321211e+00    4.125635e-01   5.330746e-03
  3.323421e+00    3.951747e-01   5.216010e-03
  3.325632e+00    4.019484e-01   5.259650e-03
  3.327842e+00    4.232588e-01   5.396361e-03
  3.330052e+00    4.237384e-01   5.398361e-03
  3.332263e+00    3.997392e-01   5.242270e-03
  3.334473e+00    4.017972e-01   5.254843e-03
  3.336684e+00    4.249392e-01   5.402783e-03
  3.338894e+00    4.291366e-01   5.428563e-03
  3.341105e+00    4.166163e-01   5.347591e-03
  3.343315e+00    4.079147e-01   5.290327e-03
  3.345526e+00    4.098065e-01   5.301680e-03
  3.347736e+00    4.155450e-01   5.337261e-03
  3.349947e+00    4.110996e-01   5.307744e-03
  3.352157e+00    4.113849e-01   5.308393e-03
  3.354368e+00    4.170140e-01   5.343319e-03
  3.356578e+00    4.103743e-01   5.299591e-03
  3.358788e+00    4.137197e-01   5.319817e-03
  3.360999e+00    4.154352e-01   5.329618e-03
  3.363209e+00    3.934201e-01   5.185499e-03
  3.365420e+00    4.115538e-01   5.302113e-03
  3.367630e+00    4.268742e-01   5.398907e-03
  3.369841e+00    4.185569e-01   5.344600e-03
  3.372051e+00    4.113093e-01   5.296184e-03
  3.374262e+00    4.183905e-01   5.339114e-03
  3.376472e+00    4.112183e-01   5.290747e-03
  3.378683e+00    4.300607e-01   5.408024e-03
  3.380893e+00    4.139197e-01   5.303271e-03
  3.383103e+00    4.127831e-01   5.293276e-03
  3.385314e+00    4.221264e-01   5.350581e-03
  3.387524e+00    4.013999e-01   5.214913e-03
  3.389735e+00    4.076648e-01   5.252817e-03
  3.391945e+00    4.153473e-01   5.298405e-03
  3.394156e+00    4.076285e-01   5.244752e-03
  3.396366e+00    4.062141e-01   5.232256e-03
  3.398577e+00    3.990106e-01   5.182663e-03
  3.400787e+00    3.992222e-01   5.195774e-03
  3.402998e+00    3.853821e-01   5.141819e-03
  3.405208e+00    3.917982e-01   5.204750e-03
  3.407418e+00    3.765365e-01   5.117681e-03
  3.409629e+00    3.766233e-01   5.131784e-03
  3.411839e+00    3.902820e-01   5.235644e-03
  3.414050e+00    3.873096e-01   5.226546e-03
  3.416260e+00    3.833565e-01   5.209301e-03
  3.418471e+00    3.965560e-01   5.307680e-03
  3.420681e+00    3.819834e-01   5.217632e-03
  3.422892e+00    3.777787e-01   5.196700e-03
  3.425102e+00    3.760178e-01   5.192250e-03
  3.427313e+00    3.677639e-01   5.141932e-03
  3.429523e+00    3.725122e-01   5.181946e-03
  3.431733e+00    3.767407e-01   5.217872e-03
  3.433944e+00    3.866791e-01   5.292739e-03
  3.436154e+00    3.755856e-01   5.222452e-03
  3.438365e+00    3.799636e-01   5.258726e-03
  3.440575e+00    3.839037e-01   5.291850e-03
  3.442786e+00    3.932370e-01   5.361515e-03
  3.444996e+00    3.792147e-01   5.270595e-03
  3.447207e+00    3.608172e-01   5.146312e-03
  3.449417e+00    3.654256e-01   5.219575e-03
  3.451628e+00    3.518931e-01   5.150766e-03
  3.453838e+00    3.440355e-01   5.113409e-03
  3.456049e+00    3.529961e-01   5.202983e-03
  3.458259e+00    3.627979e-01   5.296573e-03
  3.460469e+00    3.578559e-01   5.279933e-03
  3.462680e+00    3.500591e-01   5.240723e-03
  3.464890e+00    3.599700e-01   5.332028e-03
  3.467101e+00    3.531226e-01   5.298216e-03
  3.469311e+00    3.765225e-01   5.487589e-03
  3.471522e+00    3.907891e-01   5.607349e-03
  3.473732e+00    3.924184e-01   5.635278e-03
  3.475943e+00    3.931529e-01   5.656437e-03
  3.478153e+00    4.030015e-01   5.742618e-03
  3.480364e+00    4.098121e-01   5.806371e-03
  3.482574e+00    4.016068e-01   5.763262e-03
  3.484784e+00    4.072407e-01   5.818361e-03
  3.486995e+00    4.180867e-01   5.910459e-03
  3.489205e+00    4.231673e-01   5.960932e-03
  3.491416e+00    4.317761e-01   6.036237e-03
  3.493626e+00    4.524620e-01   6.194053e-03
  3.495837e+00    4.392357e-01   6.117585e-03
  3.498047e+00    4.602334e-01   6.276821e-03
  3.500258e+00    4.618139e-01   6.302352e-03
  3.502468e+00    4.537497e-01   6.261502e-03
  3.504679e+00    4.524085e-01   6.266585e-03
  3.506889e+00    4.431469e-01   6.216195e-03
  3.509099e+00    4.643512e-01   6.377426e-03
  3.511310e+00    4.614507e-01   6.371714e-03
  3.513520e+00    4.730490e-01   6.465578e-03
  3.515731e+00    4.881847e-01   6.582594e-03
  3.517941e+00    5.024050e-01   6.692341e-03
  3.520152e+00    4.886609e-01   6.614394e-03
  3.522362e+00    5.098845e-01   6.771113e-03
  3.524573e+00    5.115466e-01   6.796497e-03
  3.526783e+00    5.185704e-01   6.856453e-03
  3.528994e+00    5.174079e-01   6.861029e-03
  3.531204e+00    5.154387e-01   6.860322e-03
  3.533414e+00    5.263756e-01   6.944833e-03
  3.535625e+00    5.174536e-01   6.897970e-03
  3.537835e+00    5.203485e-01   6.929195e-03
  3.540046e+00    5.097299e-01   6.866870e-03
  3.542256e+00    5.277960e-01   6.994933e-03
  3.544467e+00    5.219607e-01   6.963715e-03
  3.546677e+00    5.180296e-01   6.944893e-03
  3.548888e+00    5.224730e-01   6.981983e-03
  3.551098e+00    5.379117e-01   7.091726e-03
  3.553309e+00    5.110455e-01   6.920323e-03
  3.555519e+00    5.091517e-01   6.918490e-03
  3.557729e+00    5.424576e-01   7.152965e-03
  3.559940e+00    5.445203e-01   7.178228e-03
  3.562150e+00    5.169540e-01   7.005656e-03
  3.564361e+00    5.239099e-01   7.065796e-03
  3.566571e+00    5.326607e-01   7.138350e-03
  3.568782e+00    5.298408e-01   7.133481e-03
  3.570992e+00    5.387369e-01   7.206854e-03
  3.573203e+00    5.587087e-01   7.353714e-03
  3.575413e+00    5.372028e-01   7.224592e-03
  3.577624e+00    5.349175e-01   7.223299e-03
  3.579834e+00    5.209296e-01   7.141926e-03
  3.582045e+00    5.241532e-01   7.177855e-03
  3.584255e+00    5.217637e-01   7.175351e-03
  3.586465e+00    5.278208e-01   7.230692e-03
  3.588676e+00    5.183859e-01   7.179743e-03
  3.590886e+00    5.322267e-01   7.288594e-03
  3.593097e+00    5.371284e-01   7.336632e-03
  3.595307e+00    5.379764e-01   7.356362e-03
  3.597518e+00    5.416552e-01   7.395779e-03
  3.599728e+00    5.349060e-01   7.363650e-03
  3.601939e+00    5.306115e-01   7.348045e-03
  3.604149e+00    5.436054e-01   7.451933e-03
  3.606360e+00    5.279818e-01   7.358164e-03
  3.608570e+00    5.242488e-01   7.346065e-03
  3.610780e+00    5.424533e-01   7.483713e-03
  3.612991e+00    5.121178e-01   7.281240e-03
  3.615201e+00    5.134231e-01   7.300070e-03
  3.617412e+00    5.530101e-01   7.583696e-03
  3.619622e+00    5.364617e-01   7.475341e-03
  3.621833e+00    5.411469e-01   7.514639e-03
  3.624043e+00    5.535919e-01   7.610280e-03
  3.626254e+00    5.363840e-01   7.500770e-03
  3.628464e+00    5.295832e-01   7.463983e-03
  3.630675e+00    5.275592e-01   7.463743e-03
  3.632885e+00    5.182828e-01   7.412101e-03
  3.635095e+00    5.267308e-01   7.486503e-03
  3.637306e+00    5.537859e-01   7.691041e-03
  3.639516e+00    5.345292e-01   7.570712e-03
  3.641727e+00    5.270988e-01   7.532337e-03
  3.643937e+00    5.495396e-01   7.705819e-03
  3.646148e+00    5.246769e-01   7.543970e-03
  3.648358e+00    5.323523e-01   7.613786e-03
  3.650569e+00    5.137275e-01   7.493896e-03
  3.652779e+00    5.217934e-01   7.567096e-03
  3.654990e+00    5.347601e-01   7.675462e-03
  3.657200e+00    5.430660e-01   7.749879e-03
  3.659410e+00    5.534315e-01   7.838779e-03
  3.661621e+00    5.385120e-01   7.747594e-03
  3.663831e+00    5.321372e-01   7.716721e-03
  3.666042e+00    5.377848e-01   7.772784e-03
  3.668252e+00    5.265978e-01   7.706745e-03
  3.670463e+00    5.207548e-01   7.678901e-03
  3.672673e+00    5.263364e-01   7.735300e-03
  3.674884e+00    5.259725e-01   7.747990e-03
  3.677094e+00    5.269936e-01   7.770950e-03
  3.679305e+00    5.118401e-01   7.673691e-03
  3.681515e+00    5.392413e-01   7.892148e-03
  3.683726e+00    5.488439e-01   7.978244e-03
  3.685936e+00    5.085623e-01   7.695263e-03
  3.688146e+00    5.206149e-01   7.801579e-03
  3.690357e+00    5.140548e-01   7.768034e-03
  3.692567e+00    4.976682e-01   7.658841e-03
  3.694778e+00    5.247316e-01   7.880353e-03
  3.696988e+00    5.315230e-01   7.947261e-03
  3.699199e+00    5.206706e-01   7.881896e-03
  3.701409e+00    5.212969e-01   7.902936e-03
  3.703620e+00    5.122395e-01   7.850114e-03
  3.705830e+00    5.191367e-01   7.919066e-03
  3.708041e+00    5.197297e-01   7.940168e-03
  3.710251e+00    4.975152e-01   7.784886e-03
  3.712461e+00    4.963061e-01   7.791725e-03
  3.714672e+00    5.021558e-01   7.853960e-03
  3.716882e+00    5.024643e-01   7.872707e-03
  3.719093e+00    4.976104e-01   7.851400e-03
  3.721303e+00    5.160939e-01   8.012769e-03
  3.723514e+00    5.113935e-01   7.993377e-03
  3.725724e+00    5.103930e-01   8.002527e-03
  3.727935e+00    5.130416e-01   8.040645e-03
  3.730145e+00    5.460094e-01   8.312801e-03
  3.732356e+00    5.350140e-01   8.246513e-03
  3.734566e+00    5.186393e-01   8.136962e-03
  3.736776e+00    4.957339e-01   7.972637e-03
  3.738987e+00    5.214755e-01   8.194874e-03
  3.741197e+00    5.274205e-01   8.259729e-03
  3.743408e+00    5.090302e-01   8.132439e-03
  3.745618e+00    4.922356e-01   8.015081e-03
  3.747829e+00    5.030416e-01   8.120494e-03
  3.750039e+00    5.225927e-01   8.295404e-03
  3.752250e+00    5.001777e-01   8.133823e-03
  3.754460e+00    4.863164e-01   8.038422e-03
  3.756671e+00    5.071161e-01   8.227264e-03
  3.758881e+00    4.927788e-01   8.128502e-03
  3.761091e+00    4.991612e-01   8.199912e-03
  3.763302e+00    4.817426e-01   8.074197e-03
  3.765512e+00    4.864764e-01   8.132534e-03
  3.767723e+00    5.116710e-01   8.359955e-03
  3.769933e+00    5.126553e-01   8.387442e-03
  3.772144e+00    4.904597e-01   8.223183e-03
  3.774354e+00    4.793744e-01   8.148987e-03
  3.776565e+00    4.839173e-01   8.206949e-03
  3.778775e+00    5.067749e-01   8.418536e-03
  3.780986e+00    5.005657e-01   8.387038e-03
  3.783196e+00    5.038789e-01   8.435023e-03
  3.785407e+00    5.022601e-01   8.441826e-03
  3.787617e+00    5.090548e-01   8.519684e-03
  3.789827e+00    4.712036e-01   8.216687e-03
  3.792038e+00    4.837894e-01   8.346137e-03
  3.794248e+00    5.044523e-01   8.543705e-03
  3.796459e+00    5.093094e-01   8.606296e-03
  3.798669e+00    5.152196e-01   8.677763e-03
  3.800880e+00    5.025454e-01   8.591887e-03
  3.803090e+00    5.031128e-01   8.618601e-03
  3.805301e+00    4.843607e-01   8.478174e-03
  3.807511e+00    5.007190e-01   8.642196e-03
  3.809722e+00    4.988308e-01   8.648091e-03
  3.811932e+00    5.013943e-01   8.692550e-03
  3.814142e+00    4.869951e-01   8.589419e-03
  3.816353e+00    4.942896e-01   8.676228e-03
  3.818563e+00    4.908982e-01   8.669361e-03
  3.820774e+00    4.871618e-01   8.659169e-03
  3.822984e+00    4.813430e-01   8.630275e-03
  3.825195e+00    4.991842e-01   8.812559e-03
  3.827405e+00    5.072911e-01   8.907887e-03
  3.829616e+00    4.940403e-01   8.814834e-03
  3.831826e+00    5.066927e-01   8.951318e-03
  3.834037e+00    5.052853e-01   8.963603e-03
  3.836247e+00    5.182273e-01   9.102942e-03
  3.838457e+00    4.828089e-01   8.810998e-03
  3.840668e+00    4.916504e-01   8.916358e-03
  3.842878e+00    4.948508e-01   8.970886e-03
  3.845089e+00    4.776896e-01   8.839017e-03
  3.847299e+00    4.866899e-01   8.947469e-03
  3.849510e+00    4.991466e-01   9.087196e-03
  3.851720e+00    4.850855e-01   8.979502e-03
  3.853931e+00    5.067408e-01   9.196933e-03
  3.856141e+00    5.014709e-01   9.168199e-03
  3.858352e+00    4.639948e-01   8.837589e-03
  3.860562e+00    4.537704e-01   8.758173e-03
  3.862772e+00    4.901440e-01   9.121888e-03
  3.864983e+00    4.920613e-01   9.159402e-03
  3.867193e+00    4.844936e-01   9.108300e-03
  3.869404e+00    4.813847e-01   9.098602e-03
  3.871614e+00    4.702476e-01   9.012187e-03
  3.873825e+00    4.713331e-01   9.042467e-03
  3.876035e+00    4.659535e-01   9.010728e-03
  3.878246e+00    5.024935e-01   9.383367e-03
  3.880456e+00    4.902451e-01   9.297254e-03
  3.882667e+00    4.829220e-01   9.256660e-03
  3.884877e+00    4.900404e-01   9.354280e-03
  3.887087e+00    4.910099e-01   9.393425e-03
  3.889298e+00    5.037430e-01   9.545252e-03
  3.891508e+00    4.814140e-01   9.361512e-03
  3.893719e+00    4.834288e-01   9.411801e-03
  3.895929e+00    4.723289e-01   9.334026e-03
  3.898140e+00    4.458160e-01   9.098469e-03
  3.900350e+00    4.618673e-01   9.291991e-03
  3.902561e+00    4.892202e-01   9.595453e-03
  3.904771e+00    4.734234e-01   9.471587e-03
  3.906982e+00    4.827270e-01   9.597164e-03
  3.909192e+00    4.701207e-01   9.503753e-03
  3.911403e+00    5.056392e-01   9.890884e-03
  3.913613e+00    5.063306e-01   9.932460e-03
  3.915823e+00    4.893243e-01   9.799202e-03
  3.918034e+00    4.768521e-01   9.708254e-03
  3.920244e+00    4.859163e-01   9.835701e-03
  3.922455e+00    4.937028e-01   9.950565e-03
  3.924665e+00    4.989498e-01   1.004010e-02
  3.926876e+00    4.914983e-01   1.000205e-02
  3.929086e+00    4.745260e-01   9.864775e-03
  3.931297e+00    4.828093e-01   9.985070e-03
  3.933507e+00    4.791561e-01   9.975926e-03
  3.935718e+00    4.986432e-01   1.020586e-02
  3.937928e+00    4.978942e-01   1.022791e-02
  3.940138e+00    4.721084e-01   9.988476e-03
  3.942349e+00    4.620372e-01   9.910384e-03
  3.944559e+00    4.795767e-01   1.012654e-02
  3.946770e+00    5.119780e-01   1.049394e-02
  3.948980e+00    4.663150e-01   1.004520e-02
  3.951191e+00    4.772617e-01   1.019290e-02
  3.953401e+00    4.997433e-01   1.046198e-02
  3.955612e+00    4.706945e-01   1.018455e-02
  3.957822e+00    4.804042e-01   1.032057e-02
  3.960033e+00    4.649836e-01   1.018547e-02
  3.962243e+00    4.501629e-01   1.005343e-02
  3.964453e+00    4.609236e-01   1.020514e-02
  3.966664e+00    4.612926e-01   1.024177e-02
  3.968874e+00    5.193526e-01   1.089655e-02
  3.971085e+00    5.043882e-01   1.076079e-02
  3.973295e+00    4.994000e-01   1.072923e-02
  3.975506e+00    4.599125e-01   1.031739e-02
  3.977716e+00    5.005760e-01   1.078612e-02
  3.979927e+00    4.848180e-01   1.063708e-02
  3.982137e+00    4.852742e-01   1.066445e-02
  3.984348e+00    4.766998e-01   1.059208e-02
  3.986558e+00    4.926462e-01   1.079037e-02
  3.988768e+00    4.684769e-01   1.054489e-02
  3.990979e+00    4.615474e-01   1.048886e-02
  3.993189e+00    4.501333e-01   1.038050e-02
  3.995400e+00    5.162162e-01   1.114069e-02
  3.997610e+00    4.958060e-01   1.094841e-02
  3.999821e+00    4.976062e-01   1.100626e-02
  4.002031e+00    5.011093e-01   1.108402e-02
  4.004242e+00    4.591525e-01   1.064730e-02
  4.006452e+00    4.823372e-01   1.095202e-02
  4.008663e+00    5.042276e-01   1.123860e-02
  4.010873e+00    4.842638e-01   1.105397e-02
  4.013084e+00    4.663656e-01   1.088776e-02
  4.015294e+00    4.549764e-01   1.079374e-02
  4.017504e+00    4.564342e-01   1.085174e-02
  4.019715e+00    4.478182e-01   1.078960e-02
  4.021925e+00    4.902878e-01   1.133285e-02
  4.024136e+00    4.986857e-01   1.147402e-02
  4.026346e+00    4.840965e-01   1.134898e-02
  4.028557e+00    4.765885e-01   1.130464e-02
  4.030767e+00    4.714341e-01   1.128840e-02
  4.032978e+00    4.562363e-01   1.114987e-02
  4.035188e+00    4.809213e-01   1.149362e-02
  4.037399e+00    4.849729e-01   1.158962e-02
  4.039609e+00    4.765844e-01   1.153629e-02
  4.041819e+00    4.333023e-01   1.104626e-02
  4.044030e+00    4.423042e-01   1.120794e-02
  4.046240e+00    4.785899e-01   1.170838e-02
  4.048451e+00    4.546926e-01   1.146166e-02
  4.050661e+00    5.122093e-01   1.221811e-02
  4.052872e+00    4.873081e-01   1.197036e-02
  4.055082e+00    4.884623e-01   1.203841e-02
  4.057293e+00    4.575168e-01   1.170309e-02
  4.059503e+00    4.624178e-01   1.181912e-02
  4.061714e+00    4.942521e-01   1.227638e-02
  4.063924e+00    4.346049e-01   1.156576e-02
  4.066134e+00    4.448288e-01   1.175602e-02
  4.068345e+00    4.364898e-01   1.170145e-02
  4.070555e+00    4.464427e-01   1.189117e-02
  4.072766e+00    4.471756e-01   1.195956e-02
  4.074976e+00    4.621284e-01   1.221840e-02
  4.077187e+00    4.725548e-01   1.241701e-02
  4.079397e+00    4.632086e-01   1.235634e-02
  4.081608e+00    5.039688e-01   1.295553e-02
  4.083818e+00    4.718648e-01   1.260140e-02
  4.086029e+00    4.885851e-01   1.289015e-02
  4.088239e+00    4.700778e-01   1.271188e-02
  4.090449e+00    4.674274e-01   1.274470e-02
  4.092660e+00    5.249382e-01   1.358015e-02
  4.094870e+00    4.929549e-01   1.323344e-02
  4.097081e+00    4.293517e-01   1.241772e-02
  4.099291e+00    4.235899e-01   1.238514e-02
  4.101502e+00    4.740896e-01   1.315146e-02
  4.103712e+00    5.216272e-01   1.384652e-02
  4.105923e+00    5.158025e-01   1.382241e-02
  4.108133e+00    4.104415e-01   1.237774e-02
  4.110344e+00    4.565467e-01   1.310427e-02
  4.112554e+00    4.936692e-01   1.368031e-02
  4.114764e+00    4.620274e-01   1.328799e-02
  4.116975e+00    4.541149e-01   1.322563e-02
  4.119185e+00    4.573555e-01   1.332652e-02
  4.121396e+00    4.580548e-01   1.339182e-02
  4.123606e+00    4.505534e-01   1.333630e-02
  4.125817e+00    4.392118e-01   1.322244e-02
  4.128027e+00    4.411367e-01   1.330720e-02
  4.130238e+00    4.339382e-01   1.325484e-02
  4.132448e+00    4.524715e-01   1.359357e-02
  4.134659e+00    4.578239e-01   1.373257e-02
  4.136869e+00    4.474702e-01   1.363717e-02
  4.139080e+00    4.332342e-01   1.347882e-02
  4.141290e+00    4.772198e-01   1.420919e-02
  4.143500e+00    5.052786e-01   1.468820e-02
  4.145711e+00    4.953649e-01   1.461162e-02
  4.147921e+00    4.849760e-01   1.452367e-02
  4.150132e+00    5.229527e-01   1.515380e-02
  4.152342e+00    4.385689e-01   1.394460e-02
  4.154553e+00    4.190601e-01   1.369581e-02
  4.156763e+00    5.046957e-01   1.510427e-02
  4.158974e+00    5.018842e-01   1.513817e-02
  4.161184e+00    4.633972e-01   1.461828e-02
  4.163395e+00    4.936925e-01   1.516547e-02
  4.165605e+00    4.501684e-01   1.455693e-02
  4.167815e+00    4.848837e-01   1.518652e-02
  4.170026e+00    4.766717e-01   1.513694e-02
  4.172236e+00    4.897051e-01   1.542507e-02
  4.174447e+00    4.730961e-01   1.524404e-02
  4.176657e+00    4.394927e-01   1.477293e-02
  4.178868e+00    4.387734e-01   1.484425e-02
  4.181078e+00    4.933648e-01   1.582939e-02
  4.183289e+00    4.665788e-01   1.548184e-02
  4.185499e+00    4.167762e-01   1.471858e-02
  4.187710e+00    4.866915e-01   1.599838e-02
  4.189920e+00    4.680048e-01   1.578288e-02
  4.192130e+00    4.967591e-01   1.635960e-02
  4.194341e+00    4.887080e-01   1.632627e-02
  4.196551e+00    4.836110e-01   1.634356e-02
  4.198762e+00    4.741320e-01   1.628549e-02
  4.200972e+00    4.557517e-01   1.607001e-02
  4.203183e+00    4.581790e-01   1.621885e-02
  4.205393e+00    4.505318e-01   1.618997e-02
  4.207604e+00    4.918454e-01   1.703163e-02
  4.209814e+00    5.146224e-01   1.754067e-02
  4.212025e+00    5.054318e-01   1.750665e-02
  4.214235e+00    5.245563e-01   1.796158e-02
  4.216445e+00    4.510245e-01   1.677525e-02
  4.218656e+00    4.633083e-01   1.712962e-02
  4.220866e+00    4.533193e-01   1.706941e-02
  4.223077e+00    4.771692e-01   1.764741e-02
  4.225287e+00    5.039361e-01   1.827793e-02
  4.227498e+00    4.828466e-01   1.803217e-02
  4.229708e+00    5.069084e-01   1.862598e-02
  4.231919e+00    5.459723e-01   1.949036e-02
  4.234129e+00    5.207189e-01   1.919406e-02
  4.236340e+00    4.143593e-01   1.726882e-02
  4.238550e+00    3.667704e-01   1.638970e-02
  4.240761e+00    4.739527e-01   1.879587e-02
  4.242971e+00    4.791543e-01   1.907228e-02
  4.245181e+00    4.683691e-01   1.903291e-02
  4.247392e+00    4.485011e-01   1.879966e-02
  4.249602e+00    4.269323e-01   1.852422e-02
  4.251813e+00    4.489247e-01   1.918181e-02
  4.254023e+00    4.920419e-01   2.028470e-02
  4.256234e+00    4.137534e-01   1.880021e-02
  4.258444e+00    4.379050e-01   1.954265e-02
  4.260655e+00    4.864014e-01   2.082376e-02
  4.262865e+00    4.471847e-01   2.019258e-02
  4.265076e+00    4.528016e-01   2.054966e-02
  4.267286e+00    4.640096e-01   2.104998e-02
  4.269496e+00    4.889399e-01   2.187125e-02
  4.271707e+00    5.258362e-01   2.296183e-02
  4.273917e+00    5.194224e-01   2.311647e-02
  4.276128e+00    4.683395e-01   2.224231e-02
  4.278338e+00    4.315997e-01   2.163663e-02
  4.280549e+00    3.934202e-01   2.095395e-02
  4.282759e+00    4.636992e-01   2.307526e-02
  4.284970e+00    5.280631e-01   2.498953e-02
  4.287180e+00    5.240429e-01   2.519239e-02
  4.289391e+00    4.984800e-01   2.475522e-02
  4.291601e+00    4.414761e-01   2.348205e-02
  4.293811e+00    5.476143e-01   2.635767e-02
  4.296022e+00    5.156853e-01   2.578393e-02
  4.298232e+00    4.911221e-01   2.537266e-02
  4.300443e+00    4.868720e-01   2.547109e-02
  4.302653e+00    5.204840e-01   2.656381e-02
  4.304864e+00    4.958003e-01   2.615021e-02
  4.307074e+00    4.330156e-01   2.465910e-02
  4.309285e+00    4.144581e-01   2.434295e-02
  4.311495e+00    4.389091e-01   2.528562e-02
  4.313706e+00    4.222640e-01   2.503442e-02
  4.315916e+00    5.133386e-01   2.787421e-02
  4.318126e+00    5.142878e-01   2.817569e-02
  4.320337e+00    4.885871e-01   2.774090e-02
  4.322547e+00    4.083615e-01   2.563061e-02
  4.324758e+00    3.959653e-01   2.550027e-02
  4.326968e+00    5.035832e-01   2.908111e-02
  4.329179e+00    4.214481e-01   2.689874e-02
  4.331389e+00    4.443534e-01   2.793718e-02
  4.333600e+00    5.312846e-01   3.091309e-02
  4.335810e+00    4.571747e-01   2.901651e-02
  4.338021e+00    4.789726e-01   3.008152e-02
  4.340231e+00    4.593471e-01   2.982748e-02
  4.342442e+00    5.205331e-01   3.217875e-02
  4.344652e+00    4.035578e-01   2.871872e-02
  4.346862e+00    4.218721e-01   2.977246e-02
  4.349073e+00    4.943231e-01   3.269826e-02
  4.351283e+00    3.439427e-01   2.768206e-02
  4.353494e+00    3.905474e-01   2.995281e-02
  4.355704e+00    4.447431e-01   3.247948e-02
  4.357915e+00    4.481820e-01   3.314621e-02
  4.360125e+00    4.384753e-01   3.334599e-02
  4.362336e+00    4.215463e-01   3.329112e-02
  4.364546e+00    4.195653e-01   3.381808e-02
  4.366757e+00    4.094101e-01   3.407136e-02
  4.368967e+00    4.065084e-01   3.462613e-02
  4.371177e+00    4.939219e-01   3.898050e-02
  4.373388e+00    5.684404e-01   4.275296e-02
  4.375598e+00    4.710404e-01   3.980535e-02
  4.377809e+00    3.735439e-01   3.634362e-02
  4.380019e+00    3.507704e-01   3.610525e-02
  4.382230e+00    3.270470e-01   3.583619e-02
  4.384440e+00    2.682225e-01   3.338775e-02
  4.386651e+00    3.741953e-01   4.065025e-02
  4.388861e+00    3.944553e-01   4.313409e-02
  4.391072e+00    5.039377e-01   5.047314e-02
  4.393282e+00    4.321500e-01   4.854470e-02
  4.395492e+00    3.203335e-01   4.353025e-02
  4.397703e+00    4.779636e-01   5.560379e-02
  4.399913e+00    4.604060e-01   5.733510e-02
  4.402124e+00    4.966454e-01   6.292479e-02
  4.404334e+00    5.934938e-01   7.312404e-02
  4.406545e+00    3.313307e-01   5.870043e-02
  4.408755e+00    1.866046e-01   4.777836e-02
  4.410966e+00    2.907040e-01   6.599595e-02
  4.413176e+00    2.631945e-01   7.109080e-02
  4.415387e+00   -6.560834e-01            nan
  4.417597e+00   -1.995053e+00            nan
  4.419807e+00    1.372970e-01   1.330704e-01
