# == pyFAI calibration ==
# Distance Sample to Detector: 0.216 m
# PONI: 1.166e-01, 1.308e-01 m
# Rotations: 0.000000 0.000000 0.000000 rad
# 
# == Fit2d calibration ==
# Distance Sample-beamCenter: 216.000 mm
# Center: x=1744.293, y=1555.000 pix
# Tilt: 0.000 deg  TiltPlanRot: 0.000 deg
# 
# Detector Eiger 9M	 PixelSize= 7.500e-05, 7.500e-05 m
#    Detector has a mask: True 
#    Detector has a dark current: False 
#    detector has a flat field: False 
# 
# Wavelength: 9.8e-11 m
# Mask applied: from detector
# Dark current applied: False
# Flat field applied: False
# Polarization factor: None
# Normalization factor: 1.0
# 
# Headers of the input frame:
# {
# "_array_data.header_convention": "SLS_1.0",
# "_array_data.header_contents": "# Detector: Dectris Eiger 9M, S/N E-18-0102\r\n# Pixel_size 75e-6 m x 75e-6 m\r\n# Silicon sensor, thickness 0.000450 m\r\n# Exposure_time 0.024997 s\r\n# Exposure_period 0.025000 s\r\n# Count_cutoff 62318 counts\r\n# Wavelength 0.980106 A\r\n# Detector_distance 0.215992 m\r\n# Beam_xy (1555, 1744) pixels\r\n# Start_angle 0.000000 deg.\r\n# Angle_increment 0.000000 deg.",
# "Content-Type": "application/octet-stream;",
# "conversions": "x-CBF_BYTE_OFFSET",
# "Content-Transfer-Encoding": "BINARY",
# "X-Binary-Size": "10166600",
# "X-Binary-ID": "1",
# "X-Binary-Element-Type": "signed 32-bit integer",
# "X-Binary-Element-Byte-Order": "LITTLE_ENDIAN",
# "Content-MD5": "ixqpw7lDuwEQ4NeJAMwsaQ==",
# "X-Binary-Number-of-Elements": "10166590",
# "X-Binary-Size-Fastest-Dimension": "3110",
# "X-Binary-Size-Second-Dimension": "3269",
# "X-Binary-Size-Padding": "4095"
# }
# --> H:/Proxima2a_2019-04-05/RAW_DATA/C5_gel17_position5/C5_mesh_1_data.cbf/C5_mesh_1_data.cbf000174.dat
#        q_A^-1              I           sigma 
  1.105228e-03    4.793120e-01   3.746245e-01
  3.315685e-03    7.911814e-01   2.926061e-01
  5.526141e-03    1.402063e+00   3.012007e-01
  7.736597e-03    1.379539e+00   2.523987e-01
  9.947054e-03    1.322243e+00   2.178372e-01
  1.215751e-02    1.530279e+00   2.119112e-01
  1.436797e-02    1.375791e+00   1.848213e-01
  1.657842e-02    1.488340e+00   1.789351e-01
  1.878888e-02    1.370811e+00   1.613067e-01
  2.099934e-02    1.443531e+00   1.566084e-01
  2.320979e-02    1.310791e+00   1.419383e-01
  2.542025e-02    1.588252e+00   1.493032e-01
  2.763070e-02    1.596382e+00   1.435684e-01
  2.984116e-02    1.319527e+00   1.255988e-01
  3.205162e-02    1.415434e+00   1.255252e-01
  3.426207e-02    1.353257e+00   1.187039e-01
  3.647253e-02    1.344320e+00   1.146677e-01
  3.868299e-02    1.428642e+00   1.147909e-01
  4.089344e-02    1.361441e+00   1.089884e-01
  4.310390e-02    1.363685e+00   1.062382e-01
  4.531436e-02    1.449949e+00   1.068420e-01
  4.752481e-02    1.509921e+00   1.064624e-01
  4.973527e-02    1.353875e+00   9.854650e-02
  5.194572e-02    1.271926e+00   9.346171e-02
  5.415618e-02    1.403217e+00   9.613934e-02
  5.636664e-02    1.411345e+00   9.451088e-02
  5.857709e-02    1.364753e+00   9.116784e-02
  6.078755e-02    1.420104e+00   9.128876e-02
  6.299801e-02    1.486239e+00   9.173620e-02
  6.520846e-02    1.482716e+00   9.006162e-02
  6.741892e-02    1.432303e+00   8.704972e-02
  6.962938e-02    1.457304e+00   8.640552e-02
  7.183983e-02    1.525321e+00   8.702675e-02
  7.405029e-02    1.444150e+00   8.340411e-02
  7.626074e-02    1.458830e+00   8.260241e-02
  7.847120e-02    1.383412e+00   7.929572e-02
  8.068166e-02    1.433035e+00   7.959149e-02
  8.289211e-02    1.544172e+00   8.151069e-02
  8.510257e-02    1.430119e+00   7.741686e-02
  8.731303e-02    1.383799e+00   7.517980e-02
  8.952348e-02    1.388766e+00   7.438102e-02
  9.173394e-02    1.470205e+00   7.560016e-02
  9.394439e-02    1.510743e+00   7.572592e-02
  9.615485e-02    1.458524e+00   7.354388e-02
  9.836531e-02    1.416386e+00   7.165278e-02
  1.005758e-01    1.565588e+00   7.450032e-02
  1.027862e-01    1.484077e+00   7.174905e-02
  1.049967e-01    1.472517e+00   7.071149e-02
  1.072071e-01    1.462177e+00   6.973178e-02
  1.094176e-01    1.578569e+00   7.171734e-02
  1.116280e-01    1.494243e+00   6.907969e-02
  1.138385e-01    1.524205e+00   6.908679e-02
  1.160490e-01    1.551120e+00   6.902632e-02
  1.182594e-01    1.474522e+00   6.666701e-02
  1.204699e-01    1.481885e+00   6.621676e-02
  1.226803e-01    1.581505e+00   6.778438e-02
  1.248908e-01    1.528185e+00   6.603887e-02
  1.271012e-01    1.563349e+00   6.620962e-02
  1.293117e-01    1.638023e+00   6.718986e-02
  1.315222e-01    1.640538e+00   6.667245e-02
  1.337326e-01    1.581559e+00   6.491847e-02
  1.359431e-01    1.616918e+00   6.567860e-02
  1.381535e-01    1.592973e+00   6.606550e-02
  1.403640e-01    1.663609e+00   6.780588e-02
  1.425744e-01    1.579277e+00   6.617045e-02
  1.447849e-01    1.524016e+00   6.501742e-02
  1.469953e-01    1.625106e+00   6.709708e-02
  1.492058e-01    1.564012e+00   6.574733e-02
  1.514163e-01    1.498757e+00   6.425424e-02
  1.536267e-01    1.603339e+00   6.632847e-02
  1.558372e-01    1.651505e+00   6.716879e-02
  1.580476e-01    1.612877e+00   6.621756e-02
  1.602581e-01    1.573860e+00   6.524558e-02
  1.624685e-01    1.666053e+00   6.694553e-02
  1.646790e-01    1.711289e+00   6.765349e-02
  1.668895e-01    1.729102e+00   6.780826e-02
  1.690999e-01    1.725098e+00   6.752633e-02
  1.713104e-01    1.670255e+00   6.623810e-02
  1.735208e-01    1.719481e+00   6.699808e-02
  1.757313e-01    1.788464e+00   6.811467e-02
  1.779417e-01    1.797890e+00   6.807119e-02
  1.801522e-01    1.850461e+00   6.883929e-02
  1.823626e-01    1.853072e+00   6.865853e-02
  1.845731e-01    1.772160e+00   6.692536e-02
  1.867836e-01    1.804677e+00   6.730863e-02
  1.889940e-01    1.838600e+00   6.771629e-02
  1.912045e-01    1.954780e+00   6.958982e-02
  1.934149e-01    1.937326e+00   6.904661e-02
  1.956254e-01    1.879042e+00   6.777575e-02
  1.978358e-01    1.986026e+00   6.943968e-02
  2.000463e-01    2.017571e+00   6.975705e-02
  2.022568e-01    2.054332e+00   7.015865e-02
  2.044672e-01    2.015471e+00   6.925385e-02
  2.066777e-01    1.989293e+00   6.857426e-02
  2.088881e-01    1.898638e+00   6.677436e-02
  2.110986e-01    1.852993e+00   6.574056e-02
  2.133090e-01    1.964694e+00   6.747299e-02
  2.155195e-01    2.032292e+00   6.839630e-02
  2.177300e-01    1.995573e+00   6.724314e-02
  2.199404e-01    1.942759e+00   6.459913e-02
  2.221509e-01    1.946918e+00   6.360633e-02
  2.243613e-01    2.025422e+00   6.405361e-02
  2.265718e-01    2.048788e+00   6.371195e-02
  2.287822e-01    2.035987e+00   6.288394e-02
  2.309927e-01    2.003280e+00   6.180859e-02
  2.332031e-01    2.034398e+00   6.175366e-02
  2.354136e-01    2.087271e+00   6.204404e-02
  2.376241e-01    2.192932e+00   6.310140e-02
  2.398345e-01    2.131264e+00   6.174748e-02
  2.420450e-01    2.108531e+00   6.097830e-02
  2.442554e-01    2.169226e+00   6.142368e-02
  2.464659e-01    2.060031e+00   5.945585e-02
  2.486763e-01    2.099648e+00   5.963025e-02
  2.508868e-01    2.192381e+00   6.054845e-02
  2.530973e-01    2.193372e+00   6.018669e-02
  2.553077e-01    2.112935e+00   5.871444e-02
  2.575182e-01    2.086159e+00   5.799606e-02
  2.597286e-01    2.034362e+00   5.693862e-02
  2.619391e-01    2.112861e+00   5.769268e-02
  2.641495e-01    2.104327e+00   5.725740e-02
  2.663600e-01    2.059521e+00   5.633303e-02
  2.685704e-01    2.027505e+00   5.559048e-02
  2.707809e-01    2.050043e+00   5.560189e-02
  2.729914e-01    2.009999e+00   5.476926e-02
  2.752018e-01    1.997606e+00   5.431595e-02
  2.774123e-01    1.978032e+00   5.377312e-02
  2.796227e-01    1.997303e+00   5.376713e-02
  2.818332e-01    1.968162e+00   5.310719e-02
  2.840436e-01    1.966879e+00   5.283254e-02
  2.862541e-01    1.947595e+00   5.232018e-02
  2.884646e-01    1.978893e+00   5.248861e-02
  2.906750e-01    1.990576e+00   5.239372e-02
  2.928855e-01    2.008008e+00   5.237879e-02
  2.950959e-01    1.986121e+00   5.185329e-02
  2.973064e-01    1.886458e+00   5.030840e-02
  2.995168e-01    1.992327e+00   5.146663e-02
  3.017273e-01    1.906018e+00   5.011761e-02
  3.039377e-01    1.894410e+00   4.974593e-02
  3.061482e-01    1.938251e+00   5.010062e-02
  3.083587e-01    1.835854e+00   4.854821e-02
  3.105691e-01    1.883816e+00   4.896822e-02
  3.127796e-01    1.898605e+00   4.895338e-02
  3.149900e-01    1.919416e+00   4.901585e-02
  3.172005e-01    1.889808e+00   4.843748e-02
  3.194109e-01    1.880903e+00   4.812373e-02
  3.216214e-01    1.842783e+00   4.743922e-02
  3.238319e-01    1.841373e+00   4.723316e-02
  3.260423e-01    1.902566e+00   4.782036e-02
  3.282528e-01    1.883044e+00   4.738499e-02
  3.304632e-01    1.875742e+00   4.710983e-02
  3.326737e-01    1.889486e+00   4.709760e-02
  3.348841e-01    1.839963e+00   4.629611e-02
  3.370946e-01    1.792365e+00   4.552142e-02
  3.393050e-01    1.826010e+00   4.577265e-02
  3.415155e-01    1.814637e+00   4.545829e-02
  3.437260e-01    1.846077e+00   4.568048e-02
  3.459364e-01    1.836811e+00   4.539714e-02
  3.481469e-01    1.820407e+00   4.502900e-02
  3.503573e-01    1.825894e+00   4.493253e-02
  3.525678e-01    1.786858e+00   4.429123e-02
  3.547782e-01    1.793962e+00   4.421876e-02
  3.569887e-01    1.801165e+00   4.415048e-02
  3.591992e-01    1.793147e+00   4.389622e-02
  3.614096e-01    1.823347e+00   4.411085e-02
  3.636201e-01    1.845668e+00   4.422407e-02
  3.658305e-01    1.839091e+00   4.399461e-02
  3.680410e-01    1.805405e+00   4.343994e-02
  3.702514e-01    1.766242e+00   4.282168e-02
  3.724619e-01    1.734927e+00   4.229586e-02
  3.746724e-01    1.809943e+00   4.305644e-02
  3.768828e-01    1.768280e+00   4.241482e-02
  3.790933e-01    1.752868e+00   4.209194e-02
  3.813037e-01    1.822488e+00   4.277927e-02
  3.835142e-01    1.806907e+00   4.245615e-02
  3.857246e-01    1.740735e+00   4.153661e-02
  3.879351e-01    1.831791e+00   4.247120e-02
  3.901455e-01    1.785416e+00   4.179668e-02
  3.923560e-01    1.808956e+00   4.193757e-02
  3.945665e-01    1.789096e+00   4.157449e-02
  3.967769e-01    1.778813e+00   4.132499e-02
  3.989874e-01    1.789664e+00   4.132143e-02
  4.011978e-01    1.733888e+00   4.054734e-02
  4.034083e-01    1.770000e+00   4.084165e-02
  4.056187e-01    1.754373e+00   4.053570e-02
  4.078292e-01    1.803291e+00   4.097256e-02
  4.100397e-01    1.836004e+00   4.121633e-02
  4.122501e-01    1.723036e+00   3.980873e-02
  4.144606e-01    1.797063e+00   4.053432e-02
  4.166710e-01    1.820217e+00   4.067333e-02
  4.188815e-01    1.797664e+00   4.030116e-02
  4.210919e-01    1.800155e+00   4.021088e-02
  4.233024e-01    1.809307e+00   4.019440e-02
  4.255128e-01    1.752619e+00   3.944537e-02
  4.277233e-01    1.780606e+00   3.964481e-02
  4.299338e-01    1.838087e+00   4.016374e-02
  4.321442e-01    1.838102e+00   4.004897e-02
  4.343547e-01    1.822703e+00   3.976811e-02
  4.365651e-01    1.766682e+00   3.904095e-02
  4.387756e-01    1.768074e+00   3.894697e-02
  4.409860e-01    1.794784e+00   3.913133e-02
  4.431965e-01    1.756562e+00   3.860539e-02
  4.454070e-01    1.690513e+00   3.776725e-02
  4.476174e-01    1.670140e+00   3.743591e-02
  4.498279e-01    1.699204e+00   3.765749e-02
  4.520383e-01    1.771381e+00   3.834344e-02
  4.542488e-01    1.741285e+00   3.791383e-02
  4.564592e-01    1.714311e+00   3.751809e-02
  4.586697e-01    1.697265e+00   3.723203e-02
  4.608801e-01    1.691190e+00   3.706577e-02
  4.630906e-01    1.703135e+00   3.709795e-02
  4.653011e-01    1.720265e+00   3.718601e-02
  4.675115e-01    1.646588e+00   3.628516e-02
  4.697220e-01    1.689395e+00   3.665756e-02
  4.719324e-01    1.713611e+00   3.682385e-02
  4.741429e-01    1.716012e+00   3.675470e-02
  4.763533e-01    1.663359e+00   3.609365e-02
  4.785638e-01    1.675408e+00   3.613057e-02
  4.807743e-01    1.718927e+00   3.650372e-02
  4.829847e-01    1.774523e+00   3.699566e-02
  4.851952e-01    1.753630e+00   3.668419e-02
  4.874056e-01    1.714520e+00   3.618134e-02
  4.896161e-01    1.741098e+00   3.637027e-02
  4.918265e-01    1.748435e+00   3.635633e-02
  4.940370e-01    1.732250e+00   3.609833e-02
  4.962475e-01    1.751708e+00   3.621084e-02
  4.984579e-01    1.692614e+00   3.550711e-02
  5.006684e-01    1.687421e+00   3.536614e-02
  5.028788e-01    1.679539e+00   3.519796e-02
  5.050893e-01    1.623931e+00   3.452620e-02
  5.072997e-01    1.629649e+00   3.450338e-02
  5.095102e-01    1.631191e+00   3.443702e-02
  5.117206e-01    1.681177e+00   3.487755e-02
  5.139311e-01    1.686300e+00   3.484798e-02
  5.161416e-01    1.717129e+00   3.508199e-02
  5.183520e-01    1.620134e+00   3.399578e-02
  5.205625e-01    1.632455e+00   3.404485e-02
  5.227729e-01    1.617041e+00   3.380472e-02
  5.249834e-01    1.664622e+00   3.421883e-02
  5.271938e-01    1.687476e+00   3.437254e-02
  5.294043e-01    1.711589e+00   3.453736e-02
  5.316148e-01    1.732547e+00   3.466859e-02
  5.338252e-01    1.689674e+00   3.415871e-02
  5.360357e-01    1.696626e+00   3.415098e-02
  5.382461e-01    1.681354e+00   3.392008e-02
  5.404566e-01    1.726575e+00   3.429496e-02
  5.426670e-01    1.746317e+00   3.441279e-02
  5.448775e-01    1.723078e+00   3.410667e-02
  5.470879e-01    1.709211e+00   3.389340e-02
  5.492984e-01    1.713809e+00   3.386348e-02
  5.515089e-01    1.756081e+00   3.420254e-02
  5.537193e-01    1.758795e+00   3.415357e-02
  5.559298e-01    1.756678e+00   3.405811e-02
  5.581402e-01    1.760663e+00   3.402224e-02
  5.603507e-01    1.766779e+00   3.400709e-02
  5.625611e-01    1.753755e+00   3.380801e-02
  5.647716e-01    1.783314e+00   3.401770e-02
  5.669821e-01    1.758969e+00   3.371187e-02
  5.691925e-01    1.780414e+00   3.384395e-02
  5.714030e-01    1.745798e+00   3.344187e-02
  5.736134e-01    1.715348e+00   3.307844e-02
  5.758239e-01    1.721728e+00   3.306916e-02
  5.780343e-01    1.721997e+00   3.300180e-02
  5.802448e-01    1.636227e+00   3.210207e-02
  5.824552e-01    1.640666e+00   3.207813e-02
  5.846657e-01    1.631600e+00   3.192270e-02
  5.868762e-01    1.656718e+00   3.210050e-02
  5.890866e-01    1.629628e+00   3.177093e-02
  5.912971e-01    1.627852e+00   3.168787e-02
  5.935075e-01    1.604635e+00   3.139606e-02
  5.957180e-01    1.576009e+00   3.105092e-02
  5.979284e-01    1.621958e+00   3.143601e-02
  6.001389e-01    1.624359e+00   3.139521e-02
  6.023494e-01    1.631644e+00   3.140163e-02
  6.045598e-01    1.661985e+00   3.162773e-02
  6.067703e-01    1.682607e+00   3.175937e-02
  6.089807e-01    1.626854e+00   3.116598e-02
  6.111912e-01    1.659464e+00   3.141392e-02
  6.134016e-01    1.660280e+00   3.135899e-02
  6.156121e-01    1.648321e+00   3.118372e-02
  6.178226e-01    1.685939e+00   3.147510e-02
  6.200330e-01    1.711885e+00   3.165383e-02
  6.222435e-01    1.664409e+00   3.114998e-02
  6.244539e-01    1.673532e+00   3.117406e-02
  6.266644e-01    1.715288e+00   3.149902e-02
  6.288748e-01    1.702744e+00   3.132255e-02
  6.310853e-01    1.684636e+00   3.109506e-02
  6.332957e-01    1.681503e+00   3.100615e-02
  6.355062e-01    1.695198e+00   3.107168e-02
  6.377167e-01    1.688183e+00   3.094783e-02
  6.399271e-01    1.701875e+00   3.101354e-02
  6.421376e-01    1.701790e+00   3.095357e-02
  6.443480e-01    1.670626e+00   3.061051e-02
  6.465585e-01    1.691924e+00   3.074664e-02
  6.487689e-01    1.678333e+00   3.056509e-02
  6.509794e-01    1.649335e+00   3.024273e-02
  6.531899e-01    1.623495e+00   2.994848e-02
  6.554003e-01    1.588614e+00   2.956929e-02
  6.576108e-01    1.636764e+00   2.995818e-02
  6.598212e-01    1.618605e+00   2.973619e-02
  6.620317e-01    1.597970e+00   2.949125e-02
  6.642421e-01    1.662507e+00   3.002523e-02
  6.664526e-01    1.598116e+00   2.938383e-02
  6.686630e-01    1.562606e+00   2.900179e-02
  6.708735e-01    1.594465e+00   2.924222e-02
  6.730840e-01    1.600416e+00   2.924332e-02
  6.752944e-01    1.608371e+00   2.926260e-02
  6.775049e-01    1.591416e+00   2.905510e-02
  6.797153e-01    1.605803e+00   2.913328e-02
  6.819258e-01    1.605693e+00   2.907975e-02
  6.841362e-01    1.589358e+00   2.887945e-02
  6.863467e-01    1.572971e+00   2.867869e-02
  6.885572e-01    1.565246e+00   2.855695e-02
  6.907676e-01    1.572630e+00   2.857291e-02
  6.929781e-01    1.602440e+00   2.879120e-02
  6.951885e-01    1.602543e+00   2.874113e-02
  6.973990e-01    1.595973e+00   2.863144e-02
  6.996094e-01    1.575418e+00   2.839643e-02
  7.018199e-01    1.556733e+00   2.817798e-02
  7.040303e-01    1.552559e+00   2.809074e-02
  7.062408e-01    1.572020e+00   2.821673e-02
  7.084513e-01    1.571618e+00   2.816406e-02
  7.106617e-01    1.589325e+00   2.827305e-02
  7.128722e-01    1.602939e+00   2.834477e-02
  7.150826e-01    1.611006e+00   2.836703e-02
  7.172931e-01    1.559788e+00   2.786434e-02
  7.195035e-01    1.540964e+00   2.764807e-02
  7.217140e-01    1.554651e+00   2.781971e-02
  7.239245e-01    1.582327e+00   2.829355e-02
  7.261349e-01    1.534415e+00   2.796912e-02
  7.283454e-01    1.526984e+00   2.797259e-02
  7.305558e-01    1.589524e+00   2.859393e-02
  7.327663e-01    1.563356e+00   2.839994e-02
  7.349767e-01    1.534732e+00   2.815491e-02
  7.371872e-01    1.551284e+00   2.829521e-02
  7.393976e-01    1.569954e+00   2.845074e-02
  7.416081e-01    1.580907e+00   2.853361e-02
  7.438186e-01    1.591183e+00   2.848113e-02
  7.460290e-01    1.547555e+00   2.779626e-02
  7.482395e-01    1.546634e+00   2.761834e-02
  7.504499e-01    1.526445e+00   2.730332e-02
  7.526604e-01    1.543534e+00   2.734032e-02
  7.548708e-01    1.553506e+00   2.733970e-02
  7.570813e-01    1.546358e+00   2.722621e-02
  7.592918e-01    1.527308e+00   2.702334e-02
  7.615022e-01    1.582395e+00   2.747246e-02
  7.637127e-01    1.579024e+00   2.741038e-02
  7.659231e-01    1.602651e+00   2.758239e-02
  7.681336e-01    1.589477e+00   2.743706e-02
  7.703440e-01    1.599347e+00   2.749064e-02
  7.725545e-01    1.584726e+00   2.733371e-02
  7.747650e-01    1.625574e+00   2.764494e-02
  7.769754e-01    1.569224e+00   2.710897e-02
  7.791859e-01    1.589661e+00   2.723119e-02
  7.813963e-01    1.602958e+00   2.729186e-02
  7.836068e-01    1.555208e+00   2.683078e-02
  7.858172e-01    1.574928e+00   2.694985e-02
  7.880277e-01    1.620873e+00   2.728813e-02
  7.902381e-01    1.579810e+00   2.689132e-02
  7.924486e-01    1.570840e+00   2.676518e-02
  7.946591e-01    1.621078e+00   2.714119e-02
  7.968695e-01    1.663957e+00   2.744862e-02
  7.990800e-01    1.641885e+00   2.721724e-02
  8.012904e-01    1.604437e+00   2.685853e-02
  8.035009e-01    1.624187e+00   2.697523e-02
  8.057113e-01    1.672670e+00   2.732755e-02
  8.079218e-01    1.693385e+00   2.744881e-02
  8.101323e-01    1.683385e+00   2.732117e-02
  8.123427e-01    1.643952e+00   2.695326e-02
  8.145532e-01    1.651916e+00   2.697222e-02
  8.167636e-01    1.630717e+00   2.675355e-02
  8.189741e-01    1.619266e+00   2.661499e-02
  8.211845e-01    1.648969e+00   2.681297e-02
  8.233950e-01    1.647408e+00   2.675671e-02
  8.256054e-01    1.622454e+00   2.650928e-02
  8.278159e-01    1.668597e+00   2.683921e-02
  8.300264e-01    1.666797e+00   2.678128e-02
  8.322368e-01    1.636677e+00   2.649511e-02
  8.344473e-01    1.648778e+00   2.654936e-02
  8.366577e-01    1.618747e+00   2.626416e-02
  8.388682e-01    1.620737e+00   2.623828e-02
  8.410786e-01    1.620638e+00   2.619565e-02
  8.432891e-01    1.646724e+00   2.636370e-02
  8.454996e-01    1.660241e+00   2.642978e-02
  8.477100e-01    1.655407e+00   2.634940e-02
  8.499205e-01    1.658536e+00   2.633286e-02
  8.521309e-01    1.642412e+00   2.616369e-02
  8.543414e-01    1.643984e+00   2.613537e-02
  8.565518e-01    1.621236e+00   2.591353e-02
  8.587623e-01    1.603035e+00   2.572751e-02
  8.609727e-01    1.618835e+00   2.581392e-02
  8.631832e-01    1.592554e+00   2.556404e-02
  8.653937e-01    1.606363e+00   2.563517e-02
  8.676041e-01    1.580734e+00   2.539149e-02
  8.698146e-01    1.582466e+00   2.536656e-02
  8.720250e-01    1.594421e+00   2.542339e-02
  8.742355e-01    1.591557e+00   2.536189e-02
  8.764459e-01    1.546856e+00   2.496506e-02
  8.786564e-01    1.550159e+00   2.495442e-02
  8.808669e-01    1.555932e+00   2.496295e-02
  8.830773e-01    1.542196e+00   2.481510e-02
  8.852878e-01    1.567828e+00   2.498294e-02
  8.874982e-01    1.588349e+00   2.510943e-02
  8.897087e-01    1.576036e+00   2.497452e-02
  8.919191e-01    1.572347e+00   2.490787e-02
  8.941296e-01    1.576465e+00   2.490345e-02
  8.963401e-01    1.584547e+00   2.493095e-02
  8.985505e-01    1.593951e+00   2.496794e-02
  9.007610e-01    1.543628e+00   2.453457e-02
  9.029714e-01    1.537094e+00   2.444743e-02
  9.051819e-01    1.554979e+00   2.455258e-02
  9.073923e-01    1.546037e+00   2.444590e-02
  9.096028e-01    1.590888e+00   2.476316e-02
  9.118132e-01    1.569767e+00   2.456236e-02
  9.140237e-01    1.587164e+00   2.466160e-02
  9.162342e-01    1.594852e+00   2.468677e-02
  9.184446e-01    1.603219e+00   2.471563e-02
  9.206551e-01    1.618215e+00   2.479517e-02
  9.228655e-01    1.615594e+00   2.473967e-02
  9.250760e-01    1.607226e+00   2.464010e-02
  9.272864e-01    1.619540e+00   2.469987e-02
  9.294969e-01    1.621594e+00   2.467951e-02
  9.317074e-01    1.619944e+00   2.463209e-02
  9.339178e-01    1.621671e+00   2.461157e-02
  9.361283e-01    1.614837e+00   2.452343e-02
  9.383387e-01    1.637871e+00   2.466414e-02
  9.405492e-01    1.631112e+00   2.457881e-02
  9.427596e-01    1.639154e+00   2.460386e-02
  9.449701e-01    1.675296e+00   2.483983e-02
  9.471805e-01    1.668665e+00   2.475552e-02
  9.493910e-01    1.703602e+00   2.497898e-02
  9.516015e-01    1.679843e+00   2.476959e-02
  9.538119e-01    1.682158e+00   2.475266e-02
  9.560224e-01    1.701371e+00   2.485859e-02
  9.582328e-01    1.734035e+00   2.506239e-02
  9.604433e-01    1.741867e+00   2.508338e-02
  9.626537e-01    1.728923e+00   2.495640e-02
  9.648642e-01    1.761140e+00   2.515333e-02
  9.670747e-01    1.780068e+00   2.525329e-02
  9.692851e-01    1.774728e+00   2.518186e-02
  9.714956e-01    1.789468e+00   2.525057e-02
  9.737060e-01    1.781371e+00   2.516028e-02
  9.759165e-01    1.819724e+00   2.539381e-02
  9.781269e-01    1.821407e+00   2.537234e-02
  9.803374e-01    1.828395e+00   2.538579e-02
  9.825478e-01    1.795395e+00   2.512250e-02
  9.847583e-01    1.754452e+00   2.480066e-02
  9.869688e-01    1.751521e+00   2.474676e-02
  9.891792e-01    1.752783e+00   2.472278e-02
  9.913897e-01    1.727398e+00   2.450998e-02
  9.936001e-01    1.708991e+00   2.434712e-02
  9.958106e-01    1.684170e+00   2.413683e-02
  9.980210e-01    1.633767e+00   2.374206e-02
  1.000231e+00    1.613429e+00   2.372305e-02
  1.002442e+00    1.619444e+00   2.389353e-02
  1.004652e+00    1.594824e+00   2.377735e-02
  1.006863e+00    1.608712e+00   2.393020e-02
  1.009073e+00    1.597231e+00   2.388115e-02
  1.011284e+00    1.581453e+00   2.379470e-02
  1.013494e+00    1.523461e+00   2.337748e-02
  1.015705e+00    1.569303e+00   2.374902e-02
  1.017915e+00    1.541171e+00   2.355142e-02
  1.020126e+00    1.531754e+00   2.349522e-02
  1.022336e+00    1.522080e+00   2.343246e-02
  1.024547e+00    1.510117e+00   2.335126e-02
  1.026757e+00    1.495331e+00   2.324488e-02
  1.028967e+00    1.485821e+00   2.317837e-02
  1.031178e+00    1.499397e+00   2.329013e-02
  1.033388e+00    1.462855e+00   2.300951e-02
  1.035599e+00    1.461734e+00   2.300403e-02
  1.037809e+00    1.472150e+00   2.308905e-02
  1.040020e+00    1.499540e+00   2.330410e-02
  1.042230e+00    1.478499e+00   2.314197e-02
  1.044441e+00    1.468246e+00   2.306136e-02
  1.046651e+00    1.449796e+00   2.291617e-02
  1.048862e+00    1.502036e+00   2.332457e-02
  1.051072e+00    1.522949e+00   2.348404e-02
  1.053282e+00    1.482868e+00   2.317201e-02
  1.055493e+00    1.464453e+00   2.302341e-02
  1.057703e+00    1.462410e+00   2.300586e-02
  1.059914e+00    1.445225e+00   2.286607e-02
  1.062124e+00    1.440793e+00   2.282701e-02
  1.064335e+00    1.434562e+00   2.277421e-02
  1.066545e+00    1.406198e+00   2.254212e-02
  1.068756e+00    1.381459e+00   2.233932e-02
  1.070966e+00    1.417276e+00   2.262065e-02
  1.073177e+00    1.449280e+00   2.286863e-02
  1.075387e+00    1.415106e+00   2.259228e-02
  1.077597e+00    1.439031e+00   2.277525e-02
  1.079808e+00    1.457836e+00   2.279115e-02
  1.082018e+00    1.439685e+00   2.246126e-02
  1.084229e+00    1.416690e+00   2.217278e-02
  1.086439e+00    1.434367e+00   2.222385e-02
  1.088650e+00    1.441237e+00   2.220171e-02
  1.090860e+00    1.409199e+00   2.188697e-02
  1.093071e+00    1.421969e+00   2.192436e-02
  1.095281e+00    1.396737e+00   2.167271e-02
  1.097492e+00    1.376325e+00   2.146017e-02
  1.099702e+00    1.391589e+00   2.152831e-02
  1.101912e+00    1.397048e+00   2.152240e-02
  1.104123e+00    1.419297e+00   2.164513e-02
  1.106333e+00    1.382880e+00   2.132203e-02
  1.108544e+00    1.376882e+00   2.123228e-02
  1.110754e+00    1.383221e+00   2.123875e-02
  1.112965e+00    1.390595e+00   2.125519e-02
  1.115175e+00    1.410879e+00   2.136862e-02
  1.117386e+00    1.393738e+00   2.119945e-02
  1.119596e+00    1.368320e+00   2.096796e-02
  1.121807e+00    1.372315e+00   2.096025e-02
  1.124017e+00    1.401050e+00   2.114199e-02
  1.126228e+00    1.424895e+00   2.128513e-02
  1.128438e+00    1.402137e+00   2.107769e-02
  1.130648e+00    1.434192e+00   2.128250e-02
  1.132859e+00    1.552135e+00   2.210406e-02
  1.135069e+00    1.537436e+00   2.196276e-02
  1.137280e+00    1.411755e+00   2.101263e-02
  1.139490e+00    1.402185e+00   2.090804e-02
  1.141701e+00    1.407258e+00   2.091244e-02
  1.143911e+00    1.405502e+00   2.086727e-02
  1.146122e+00    1.391458e+00   2.073062e-02
  1.148332e+00    1.406073e+00   2.080701e-02
  1.150543e+00    1.424148e+00   2.090899e-02
  1.152753e+00    1.402979e+00   2.072187e-02
  1.154963e+00    1.366117e+00   2.041687e-02
  1.157174e+00    1.371423e+00   2.042632e-02
  1.159384e+00    1.364101e+00   2.034197e-02
  1.161595e+00    1.394882e+00   2.054008e-02
  1.163805e+00    1.379294e+00   2.039563e-02
  1.166016e+00    1.353028e+00   2.017123e-02
  1.168226e+00    1.362279e+00   2.021114e-02
  1.170437e+00    1.395176e+00   2.042478e-02
  1.172647e+00    1.511156e+00   2.122637e-02
  1.174858e+00    1.589074e+00   2.173644e-02
  1.177068e+00    1.527587e+00   2.128190e-02
  1.179278e+00    1.429202e+00   2.055584e-02
  1.181489e+00    1.394149e+00   2.027485e-02
  1.183699e+00    1.350508e+00   1.992750e-02
  1.185910e+00    1.360487e+00   1.997317e-02
  1.188120e+00    1.382867e+00   2.010985e-02
  1.190331e+00    1.386364e+00   2.010819e-02
  1.192541e+00    1.382524e+00   2.005266e-02
  1.194752e+00    1.376794e+00   1.998379e-02
  1.196962e+00    1.355983e+00   1.980639e-02
  1.199173e+00    1.333535e+00   1.961543e-02
  1.201383e+00    1.307097e+00   1.939328e-02
  1.203593e+00    1.329619e+00   1.953501e-02
  1.205804e+00    1.340967e+00   1.959237e-02
  1.208014e+00    1.346032e+00   1.960252e-02
  1.210225e+00    1.330613e+00   1.946479e-02
  1.212435e+00    1.342520e+00   1.952695e-02
  1.214646e+00    1.354635e+00   1.958871e-02
  1.216856e+00    1.344804e+00   1.949208e-02
  1.219067e+00    1.343453e+00   1.945787e-02
  1.221277e+00    1.346409e+00   1.945428e-02
  1.223488e+00    1.332853e+00   1.933052e-02
  1.225698e+00    1.322319e+00   1.922734e-02
  1.227909e+00    1.343111e+00   1.934784e-02
  1.230119e+00    1.324798e+00   1.918392e-02
  1.232329e+00    1.299604e+00   1.897050e-02
  1.234540e+00    1.328542e+00   1.915048e-02
  1.236750e+00    1.327108e+00   1.911016e-02
  1.238961e+00    1.318331e+00   1.902020e-02
  1.241171e+00    1.327060e+00   1.905909e-02
  1.243382e+00    1.331006e+00   1.906405e-02
  1.245592e+00    1.324838e+00   1.899596e-02
  1.247803e+00    1.321656e+00   1.894973e-02
  1.250013e+00    1.342780e+00   1.907707e-02
  1.252224e+00    1.306492e+00   1.879469e-02
  1.254434e+00    1.304197e+00   1.875481e-02
  1.256644e+00    1.311453e+00   1.878405e-02
  1.258855e+00    1.330776e+00   1.889881e-02
  1.261065e+00    1.334460e+00   1.890172e-02
  1.263276e+00    1.328928e+00   1.883975e-02
  1.265486e+00    1.285993e+00   1.851059e-02
  1.267697e+00    1.309939e+00   1.865943e-02
  1.269907e+00    1.333248e+00   1.880218e-02
  1.272118e+00    1.320174e+00   1.868744e-02
  1.274328e+00    1.346356e+00   1.884912e-02
  1.276539e+00    1.339040e+00   1.877517e-02
  1.278749e+00    1.298639e+00   1.846790e-02
  1.280959e+00    1.299286e+00   1.845037e-02
  1.283170e+00    1.331322e+00   1.865419e-02
  1.285380e+00    1.321151e+00   1.856057e-02
  1.287591e+00    1.346087e+00   1.871292e-02
  1.289801e+00    1.326641e+00   1.855624e-02
  1.292012e+00    1.306088e+00   1.839511e-02
  1.294222e+00    1.317915e+00   1.846216e-02
  1.296433e+00    1.336967e+00   1.857961e-02
  1.298643e+00    1.333465e+00   1.853888e-02
  1.300854e+00    1.347425e+00   1.861928e-02
  1.303064e+00    1.338206e+00   1.853634e-02
  1.305274e+00    1.340811e+00   1.853300e-02
  1.307485e+00    1.356038e+00   1.861635e-02
  1.309695e+00    1.319153e+00   1.833944e-02
  1.311906e+00    1.327053e+00   1.837273e-02
  1.314116e+00    1.351639e+00   1.852135e-02
  1.316327e+00    1.322109e+00   1.829645e-02
  1.318537e+00    1.332904e+00   1.834922e-02
  1.320748e+00    1.374419e+00   1.861106e-02
  1.322958e+00    1.355178e+00   1.845977e-02
  1.325169e+00    1.346858e+00   1.838201e-02
  1.327379e+00    1.365322e+00   1.848565e-02
  1.329589e+00    1.339245e+00   1.828730e-02
  1.331800e+00    1.345309e+00   1.830797e-02
  1.334010e+00    1.348326e+00   1.830786e-02
  1.336221e+00    1.347683e+00   1.828175e-02
  1.338431e+00    1.350357e+00   1.827903e-02
  1.340642e+00    1.318176e+00   1.812330e-02
  1.342852e+00    1.304692e+00   1.812933e-02
  1.345063e+00    1.337717e+00   1.840659e-02
  1.347273e+00    1.350814e+00   1.853177e-02
  1.349484e+00    1.314215e+00   1.830629e-02
  1.351694e+00    1.333037e+00   1.845947e-02
  1.353905e+00    1.357084e+00   1.864327e-02
  1.356115e+00    1.342408e+00   1.855720e-02
  1.358325e+00    1.295539e+00   1.824341e-02
  1.360536e+00    1.291887e+00   1.822904e-02
  1.362746e+00    1.306960e+00   1.834448e-02
  1.364957e+00    1.318847e+00   1.843531e-02
  1.367167e+00    1.317860e+00   1.843547e-02
  1.369378e+00    1.318128e+00   1.844330e-02
  1.371588e+00    1.309042e+00   1.838472e-02
  1.373799e+00    1.287426e+00   1.823586e-02
  1.376009e+00    1.313535e+00   1.842322e-02
  1.378220e+00    1.308532e+00   1.839059e-02
  1.380430e+00    1.306555e+00   1.837939e-02
  1.382640e+00    1.316598e+00   1.845080e-02
  1.384851e+00    1.281838e+00   1.820648e-02
  1.387061e+00    1.260798e+00   1.805672e-02
  1.389272e+00    1.256276e+00   1.802450e-02
  1.391482e+00    1.281088e+00   1.820096e-02
  1.393693e+00    1.267779e+00   1.810530e-02
  1.395903e+00    1.296596e+00   1.830841e-02
  1.398114e+00    1.308842e+00   1.839328e-02
  1.400324e+00    1.286382e+00   1.823267e-02
  1.402535e+00    1.264977e+00   1.807801e-02
  1.404745e+00    1.286849e+00   1.823126e-02
  1.406955e+00    1.280851e+00   1.818603e-02
  1.409166e+00    1.247046e+00   1.794115e-02
  1.411376e+00    1.263628e+00   1.805692e-02
  1.413587e+00    1.270518e+00   1.810229e-02
  1.415797e+00    1.258504e+00   1.801296e-02
  1.418008e+00    1.279944e+00   1.812372e-02
  1.420218e+00    1.270707e+00   1.790844e-02
  1.422429e+00    1.254872e+00   1.771170e-02
  1.424639e+00    1.244369e+00   1.757339e-02
  1.426850e+00    1.267067e+00   1.767829e-02
  1.429060e+00    1.285309e+00   1.775582e-02
  1.431270e+00    1.290879e+00   1.774959e-02
  1.433481e+00    1.266310e+00   1.753897e-02
  1.435691e+00    1.262169e+00   1.747194e-02
  1.437902e+00    1.245545e+00   1.732041e-02
  1.440112e+00    1.255557e+00   1.735471e-02
  1.442323e+00    1.280812e+00   1.749522e-02
  1.444533e+00    1.264198e+00   1.734889e-02
  1.446744e+00    1.287584e+00   1.747728e-02
  1.448954e+00    1.287695e+00   1.744764e-02
  1.451165e+00    1.279217e+00   1.736024e-02
  1.453375e+00    1.275760e+00   1.730867e-02
  1.455586e+00    1.261009e+00   1.718023e-02
  1.457796e+00    1.288996e+00   1.734213e-02
  1.460006e+00    1.259622e+00   1.711626e-02
  1.462217e+00    1.249426e+00   1.702082e-02
  1.464427e+00    1.270319e+00   1.713694e-02
  1.466638e+00    1.253703e+00   1.699932e-02
  1.468848e+00    1.272944e+00   1.710389e-02
  1.471059e+00    1.264309e+00   1.702076e-02
  1.473269e+00    1.255913e+00   1.693988e-02
  1.475480e+00    1.236770e+00   1.678684e-02
  1.477690e+00    1.240760e+00   1.679030e-02
  1.479901e+00    1.224120e+00   1.665391e-02
  1.482111e+00    1.252514e+00   1.682277e-02
  1.484321e+00    1.244060e+00   1.674299e-02
  1.486532e+00    1.261406e+00   1.683701e-02
  1.488742e+00    1.282099e+00   1.695176e-02
  1.490953e+00    1.253703e+00   1.674049e-02
  1.493163e+00    1.245018e+00   1.666027e-02
  1.495374e+00    1.243881e+00   1.663134e-02
  1.497584e+00    1.251209e+00   1.665869e-02
  1.499795e+00    1.250747e+00   1.663406e-02
  1.502005e+00    1.242176e+00   1.655544e-02
  1.504216e+00    1.226487e+00   1.642979e-02
  1.506426e+00    1.225343e+00   1.640158e-02
  1.508636e+00    1.241804e+00   1.649106e-02
  1.510847e+00    1.243107e+00   1.647802e-02
  1.513057e+00    1.241043e+00   1.643938e-02
  1.515268e+00    1.247296e+00   1.645510e-02
  1.517478e+00    1.268320e+00   1.656792e-02
  1.519689e+00    1.250579e+00   1.642671e-02
  1.521899e+00    1.273022e+00   1.655016e-02
  1.524110e+00    1.269109e+00   1.650425e-02
  1.526320e+00    1.258345e+00   1.641448e-02
  1.528531e+00    1.246258e+00   1.631573e-02
  1.530741e+00    1.218777e+00   1.611593e-02
  1.532951e+00    1.212830e+00   1.605727e-02
  1.535162e+00    1.204937e+00   1.608996e-02
  1.537372e+00    1.222355e+00   1.627202e-02
  1.539583e+00    1.222193e+00   1.630484e-02
  1.541793e+00    1.231028e+00   1.637054e-02
  1.544004e+00    1.245892e+00   1.646935e-02
  1.546214e+00    1.243781e+00   1.645388e-02
  1.548425e+00    1.231498e+00   1.637270e-02
  1.550635e+00    1.222796e+00   1.632435e-02
  1.552846e+00    1.219417e+00   1.631132e-02
  1.555056e+00    1.236971e+00   1.638696e-02
  1.557266e+00    1.223483e+00   1.618787e-02
  1.559477e+00    1.204514e+00   1.600371e-02
  1.561687e+00    1.216627e+00   1.605365e-02
  1.563898e+00    1.245506e+00   1.622590e-02
  1.566108e+00    1.236282e+00   1.614982e-02
  1.568319e+00    1.251811e+00   1.623525e-02
  1.570529e+00    1.233106e+00   1.608848e-02
  1.572740e+00    1.234489e+00   1.606999e-02
  1.574950e+00    1.243146e+00   1.609995e-02
  1.577161e+00    1.230083e+00   1.598980e-02
  1.579371e+00    1.232048e+00   1.597903e-02
  1.581582e+00    1.229221e+00   1.594104e-02
  1.583792e+00    1.228303e+00   1.591717e-02
  1.586002e+00    1.233439e+00   1.593289e-02
  1.588213e+00    1.225307e+00   1.586315e-02
  1.590423e+00    1.233262e+00   1.589459e-02
  1.592634e+00    1.230393e+00   1.585459e-02
  1.594844e+00    1.215037e+00   1.573418e-02
  1.597055e+00    1.225664e+00   1.578248e-02
  1.599265e+00    1.239135e+00   1.584827e-02
  1.601476e+00    1.209694e+00   1.563884e-02
  1.603686e+00    1.202819e+00   1.557485e-02
  1.605897e+00    1.190571e+00   1.547560e-02
  1.608107e+00    1.202799e+00   1.553558e-02
  1.610317e+00    1.199265e+00   1.549373e-02
  1.612528e+00    1.197570e+00   1.546390e-02
  1.614738e+00    1.199454e+00   1.545736e-02
  1.616949e+00    1.199110e+00   1.543637e-02
  1.619159e+00    1.197515e+00   1.540758e-02
  1.621370e+00    1.180806e+00   1.528154e-02
  1.623580e+00    1.189585e+00   1.532010e-02
  1.625791e+00    1.161693e+00   1.512153e-02
  1.628001e+00    1.149335e+00   1.502304e-02
  1.630212e+00    1.156928e+00   1.505508e-02
  1.632422e+00    1.149652e+00   1.499006e-02
  1.634632e+00    1.157863e+00   1.502636e-02
  1.636843e+00    1.148443e+00   1.494778e-02
  1.639053e+00    1.143935e+00   1.490137e-02
  1.641264e+00    1.130191e+00   1.479475e-02
  1.643474e+00    1.147410e+00   1.488976e-02
  1.645685e+00    1.131977e+00   1.477282e-02
  1.647895e+00    1.100610e+00   1.455051e-02
  1.650106e+00    1.091555e+00   1.447397e-02
  1.652316e+00    1.117654e+00   1.462970e-02
  1.654527e+00    1.091247e+00   1.443958e-02
  1.656737e+00    1.069858e+00   1.428128e-02
  1.658947e+00    1.089063e+00   1.439291e-02
  1.661158e+00    1.086251e+00   1.435837e-02
  1.663368e+00    1.071147e+00   1.424253e-02
  1.665579e+00    1.092916e+00   1.437056e-02
  1.667789e+00    1.091448e+00   1.434488e-02
  1.670000e+00    1.073355e+00   1.421026e-02
  1.672210e+00    1.087503e+00   1.428790e-02
  1.674421e+00    1.078770e+00   1.421524e-02
  1.676631e+00    1.075228e+00   1.417624e-02
  1.678842e+00    1.035289e+00   1.389514e-02
  1.681052e+00    1.061105e+00   1.405215e-02
  1.683263e+00    1.056877e+00   1.400923e-02
  1.685473e+00    1.024108e+00   1.377564e-02
  1.687683e+00    1.029017e+00   1.379355e-02
  1.689894e+00    1.019169e+00   1.371210e-02
  1.692104e+00    1.030955e+00   1.377653e-02
  1.694315e+00    1.047586e+00   1.387288e-02
  1.696525e+00    1.054924e+00   1.390635e-02
  1.698736e+00    1.026024e+00   1.369998e-02
  1.700946e+00    1.034078e+00   1.373871e-02
  1.703157e+00    1.023378e+00   1.365303e-02
  1.705367e+00    1.017115e+00   1.359693e-02
  1.707578e+00    1.018389e+00   1.359110e-02
  1.709788e+00    9.987859e-01   1.344587e-02
  1.711998e+00    9.941980e-01   1.340027e-02
  1.714209e+00    1.016824e+00   1.353762e-02
  1.716419e+00    1.005401e+00   1.344730e-02
  1.718630e+00    1.029693e+00   1.359452e-02
  1.720840e+00    1.035023e+00   1.361543e-02
  1.723051e+00    1.042893e+00   1.365312e-02
  1.725261e+00    1.043303e+00   1.364096e-02
  1.727472e+00    1.035294e+00   1.357421e-02
  1.729682e+00    1.037494e+00   1.357503e-02
  1.731893e+00    1.012173e+00   1.339444e-02
  1.734103e+00    1.003998e+00   1.332648e-02
  1.736313e+00    1.001902e+00   1.329857e-02
  1.738524e+00    1.015110e+00   1.337203e-02
  1.740734e+00    1.003916e+00   1.328436e-02
  1.742945e+00    1.011323e+00   1.331972e-02
  1.745155e+00    1.016815e+00   1.334221e-02
  1.747366e+00    1.068677e+00   1.366387e-02
  1.749576e+00    1.068961e+00   1.365150e-02
  1.751787e+00    9.823275e-01   1.307328e-02
  1.753997e+00    9.574353e-01   1.289333e-02
  1.756208e+00    9.606050e-01   1.290156e-02
  1.758418e+00    9.447392e-01   1.278163e-02
  1.760628e+00    9.500253e-01   1.280414e-02
  1.762839e+00    9.107382e-01   1.252373e-02
  1.765049e+00    9.230027e-01   1.259494e-02
  1.767260e+00    9.406732e-01   1.270223e-02
  1.769470e+00    9.506265e-01   1.275631e-02
  1.771681e+00    9.418910e-01   1.268450e-02
  1.773891e+00    9.237391e-01   1.254882e-02
  1.776102e+00    9.068611e-01   1.242105e-02
  1.778312e+00    9.209818e-01   1.250481e-02
  1.780523e+00    9.147697e-01   1.245002e-02
  1.782733e+00    9.033886e-01   1.235988e-02
  1.784944e+00    9.128706e-01   1.241183e-02
  1.787154e+00    9.153895e-01   1.241655e-02
  1.789364e+00    8.903634e-01   1.223343e-02
  1.791575e+00    8.768330e-01   1.212792e-02
  1.793785e+00    8.957736e-01   1.224600e-02
  1.795996e+00    8.820417e-01   1.213951e-02
  1.798206e+00    8.886867e-01   1.217285e-02
  1.800417e+00    8.939224e-01   1.219613e-02
  1.802627e+00    8.878830e-01   1.214309e-02
  1.804838e+00    9.050722e-01   1.224802e-02
  1.807048e+00    8.941664e-01   1.216126e-02
  1.809259e+00    8.782605e-01   1.203924e-02
  1.811469e+00    8.758249e-01   1.200780e-02
  1.813679e+00    8.576776e-01   1.186815e-02
  1.815890e+00    8.677434e-01   1.192309e-02
  1.818100e+00    8.639759e-01   1.188235e-02
  1.820311e+00    8.682364e-01   1.189705e-02
  1.822521e+00    8.597962e-01   1.182450e-02
  1.824732e+00    8.550561e-01   1.177732e-02
  1.826942e+00    8.955283e-01   1.204045e-02
  1.829153e+00    8.783855e-01   1.191301e-02
  1.831363e+00    8.910483e-01   1.198648e-02
  1.833574e+00    8.837292e-01   1.192546e-02
  1.835784e+00    8.786047e-01   1.187942e-02
  1.837994e+00    8.655658e-01   1.177930e-02
  1.840205e+00    8.688049e-01   1.179018e-02
  1.842415e+00    8.511707e-01   1.165831e-02
  1.844626e+00    8.387792e-01   1.156177e-02
  1.846836e+00    8.332680e-01   1.151254e-02
  1.849047e+00    8.283753e-01   1.146732e-02
  1.851257e+00    8.572096e-01   1.165567e-02
  1.853468e+00    8.451790e-01   1.156488e-02
  1.855678e+00    8.381065e-01   1.150762e-02
  1.857889e+00    8.470604e-01   1.156049e-02
  1.860099e+00    8.366094e-01   1.148042e-02
  1.862309e+00    8.379598e-01   1.148127e-02
  1.864520e+00    8.297887e-01   1.141671e-02
  1.866730e+00    8.249963e-01   1.137448e-02
  1.868941e+00    8.254306e-01   1.136669e-02
  1.871151e+00    8.245829e-01   1.134964e-02
  1.873362e+00    8.358421e-01   1.141563e-02
  1.875572e+00    8.178401e-01   1.128130e-02
  1.877783e+00    8.243695e-01   1.131495e-02
  1.879993e+00    8.317242e-01   1.135429e-02
  1.882204e+00    8.122659e-01   1.120999e-02
  1.884414e+00    7.989181e-01   1.110673e-02
  1.886624e+00    7.938074e-01   1.106040e-02
  1.888835e+00    8.379115e-01   1.135253e-02
  1.891045e+00    8.389835e-01   1.134895e-02
  1.893256e+00    8.280463e-01   1.126371e-02
  1.895466e+00    8.212732e-01   1.120648e-02
  1.897677e+00    8.395256e-01   1.131937e-02
  1.899887e+00    8.507849e-01   1.138395e-02
  1.902098e+00    8.526615e-01   1.138550e-02
  1.904308e+00    8.750964e-01   1.152345e-02
  1.906519e+00    8.801985e-01   1.154587e-02
  1.908729e+00    8.300773e-01   1.120171e-02
  1.910940e+00    8.042564e-01   1.101512e-02
  1.913150e+00    8.194128e-01   1.110788e-02
  1.915360e+00    8.183863e-01   1.109033e-02
  1.917571e+00    8.161108e-01   1.106409e-02
  1.919781e+00    8.012887e-01   1.095260e-02
  1.921992e+00    7.961332e-01   1.090684e-02
  1.924202e+00    7.957804e-01   1.089381e-02
  1.926413e+00    7.798358e-01   1.077405e-02
  1.928623e+00    7.840583e-01   1.079283e-02
  1.930834e+00    7.887037e-01   1.081448e-02
  1.933044e+00    7.996125e-01   1.087842e-02
  1.935255e+00    7.889477e-01   1.079545e-02
  1.937465e+00    8.026904e-01   1.087869e-02
  1.939675e+00    7.973744e-01   1.083183e-02
  1.941886e+00    7.929755e-01   1.079171e-02
  1.944096e+00    7.940277e-01   1.078875e-02
  1.946307e+00    7.756961e-01   1.065331e-02
  1.948517e+00    7.664276e-01   1.057925e-02
  1.950728e+00    7.820818e-01   1.067659e-02
  1.952938e+00    7.838445e-01   1.067863e-02
  1.955149e+00    7.831808e-01   1.066396e-02
  1.957359e+00    7.798496e-01   1.063131e-02
  1.959570e+00    7.851976e-01   1.065690e-02
  1.961780e+00    7.868272e-01   1.065807e-02
  1.963990e+00    7.811085e-01   1.060924e-02
  1.966201e+00    7.710998e-01   1.053109e-02
  1.968411e+00    7.833426e-01   1.060426e-02
  1.970622e+00    7.702836e-01   1.050552e-02
  1.972832e+00    7.832319e-01   1.058350e-02
  1.975043e+00    7.874315e-01   1.060178e-02
  1.977253e+00    7.836211e-01   1.056619e-02
  1.979464e+00    7.547825e-01   1.036006e-02
  1.981674e+00    7.655562e-01   1.042359e-02
  1.983885e+00    7.754818e-01   1.048097e-02
  1.986095e+00    7.822993e-01   1.051723e-02
  1.988305e+00    7.652706e-01   1.039233e-02
  1.990516e+00    7.797794e-01   1.048044e-02
  1.992726e+00    7.710962e-01   1.041231e-02
  1.994937e+00    7.726119e-01   1.041243e-02
  1.997147e+00    7.806948e-01   1.045701e-02
  1.999358e+00    7.479392e-01   1.022561e-02
  2.001568e+00    7.516005e-01   1.023993e-02
  2.003779e+00    7.571979e-01   1.026620e-02
  2.005989e+00    7.695261e-01   1.033743e-02
  2.008200e+00    7.760190e-01   1.036938e-02
  2.010410e+00    7.535250e-01   1.020638e-02
  2.012621e+00    7.574151e-01   1.022104e-02
  2.014831e+00    7.578607e-01   1.021267e-02
  2.017041e+00    7.520251e-01   1.016298e-02
  2.019252e+00    7.532484e-01   1.016136e-02
  2.021462e+00    7.728055e-01   1.028288e-02
  2.023673e+00    7.580111e-01   1.017464e-02
  2.025883e+00    7.552925e-01   1.014690e-02
  2.028094e+00    7.595787e-01   1.016603e-02
  2.030304e+00    7.462519e-01   1.006701e-02
  2.032515e+00    7.471036e-01   1.006354e-02
  2.034725e+00    7.467198e-01   1.005160e-02
  2.036936e+00    7.437961e-01   1.002263e-02
  2.039146e+00    7.461408e-01   1.002893e-02
  2.041356e+00    7.587368e-01   1.010355e-02
  2.043567e+00    7.497991e-01   1.003463e-02
  2.045777e+00    7.393505e-01   9.955292e-03
  2.047988e+00    7.589309e-01   1.007687e-02
  2.050198e+00    7.521371e-01   1.002324e-02
  2.052409e+00    7.459126e-01   9.974060e-03
  2.054619e+00    7.261133e-01   9.833556e-03
  2.056830e+00    7.293428e-01   9.848312e-03
  2.059040e+00    7.390442e-01   9.906153e-03
  2.061251e+00    7.408901e-01   9.911309e-03
  2.063461e+00    7.324361e-01   9.847082e-03
  2.065671e+00    7.379352e-01   9.875336e-03
  2.067882e+00    7.180950e-01   9.732855e-03
  2.070092e+00    7.382397e-01   9.859270e-03
  2.072303e+00    7.447315e-01   9.893430e-03
  2.074513e+00    7.201211e-01   9.719407e-03
  2.076724e+00    7.350029e-01   9.809918e-03
  2.078934e+00    7.335224e-01   9.791098e-03
  2.081145e+00    7.302434e-01   9.760185e-03
  2.083355e+00    7.249305e-01   9.715534e-03
  2.085566e+00    7.303977e-01   9.743271e-03
  2.087776e+00    7.270281e-01   9.711335e-03
  2.089986e+00    7.288108e-01   9.714515e-03
  2.092197e+00    7.227298e-01   9.665026e-03
  2.094407e+00    7.201100e-01   9.638371e-03
  2.096618e+00    7.090979e-01   9.555657e-03
  2.098828e+00    7.122732e-01   9.567864e-03
  2.101039e+00    6.956834e-01   9.447022e-03
  2.103249e+00    7.106860e-01   9.539795e-03
  2.105460e+00    7.138649e-01   9.552194e-03
  2.107670e+00    7.250366e-01   9.617940e-03
  2.109881e+00    6.966249e-01   9.418657e-03
  2.112091e+00    6.920686e-01   9.378997e-03
  2.114301e+00    7.116955e-01   9.502375e-03
  2.116512e+00    6.951163e-01   9.382434e-03
  2.118722e+00    6.950435e-01   9.373246e-03
  2.120933e+00    7.142048e-01   9.492780e-03
  2.123143e+00    7.213298e-01   9.531063e-03
  2.125354e+00    7.268985e-01   9.559222e-03
  2.127564e+00    7.142234e-01   9.466803e-03
  2.129775e+00    6.890839e-01   9.290134e-03
  2.131985e+00    6.997109e-01   9.352508e-03
  2.134196e+00    7.157517e-01   9.450513e-03
  2.136406e+00    7.015198e-01   9.347413e-03
  2.138617e+00    7.080804e-01   9.382574e-03
  2.140827e+00    7.051547e-01   9.379182e-03
  2.143037e+00    7.113745e-01   9.466075e-03
  2.145248e+00    7.066628e-01   9.456688e-03
  2.147458e+00    7.012571e-01   9.435555e-03
  2.149669e+00    6.931139e-01   9.392387e-03
  2.151879e+00    6.794743e-01   9.308578e-03
  2.154090e+00    6.813771e-01   9.328811e-03
  2.156300e+00    6.774575e-01   9.308436e-03
  2.158511e+00    6.794632e-01   9.327429e-03
  2.160721e+00    6.801997e-01   9.337239e-03
  2.162932e+00    6.846260e-01   9.371277e-03
  2.165142e+00    6.715384e-01   9.284236e-03
  2.167352e+00    6.823769e-01   9.361747e-03
  2.169563e+00    6.843172e-01   9.376982e-03
  2.171773e+00    6.801535e-01   9.350826e-03
  2.173984e+00    6.800016e-01   9.351198e-03
  2.176194e+00    6.759421e-01   9.324415e-03
  2.178405e+00    6.735854e-01   9.308841e-03
  2.180615e+00    6.818869e-01   9.366703e-03
  2.182826e+00    6.686633e-01   9.276094e-03
  2.185036e+00    6.810203e-01   9.361472e-03
  2.187247e+00    6.787672e-01   9.345924e-03
  2.189457e+00    6.798509e-01   9.352979e-03
  2.191667e+00    6.781421e-01   9.341048e-03
  2.193878e+00    6.801437e-01   9.354248e-03
  2.196088e+00    6.703368e-01   9.285896e-03
  2.198299e+00    6.743270e-01   9.312408e-03
  2.200509e+00    6.698117e-01   9.280130e-03
  2.202720e+00    6.722825e-01   9.296087e-03
  2.204930e+00    6.609607e-01   9.216258e-03
  2.207141e+00    6.751080e-01   9.313248e-03
  2.209351e+00    6.741728e-01   9.304933e-03
  2.211562e+00    6.667573e-01   9.252009e-03
  2.213772e+00    6.582081e-01   9.137803e-03
  2.215982e+00    6.526663e-01   9.055783e-03
  2.218193e+00    6.750479e-01   9.180141e-03
  2.220403e+00    6.494681e-01   8.980429e-03
  2.222614e+00    6.541081e-01   8.991779e-03
  2.224824e+00    6.508580e-01   8.950382e-03
  2.227035e+00    6.517106e-01   8.939043e-03
  2.229245e+00    6.667794e-01   9.024926e-03
  2.231456e+00    6.496546e-01   8.892897e-03
  2.233666e+00    6.683388e-01   9.004809e-03
  2.235877e+00    6.563646e-01   8.909673e-03
  2.238087e+00    6.660123e-01   8.961452e-03
  2.240298e+00    6.695705e-01   8.971613e-03
  2.242508e+00    6.579250e-01   8.878239e-03
  2.244718e+00    6.538829e-01   8.835285e-03
  2.246929e+00    6.708547e-01   8.934762e-03
  2.249139e+00    6.785724e-01   8.973525e-03
  2.251350e+00    6.760840e-01   8.945277e-03
  2.253560e+00    6.945207e-01   9.054604e-03
  2.255771e+00    6.998914e-01   9.077866e-03
  2.257981e+00    7.013522e-01   9.075848e-03
  2.260192e+00    6.945004e-01   9.020065e-03
  2.262402e+00    6.745495e-01   8.878612e-03
  2.264613e+00    6.794236e-01   8.899670e-03
  2.266823e+00    6.700405e-01   8.827556e-03
  2.269033e+00    6.896654e-01   8.945290e-03
  2.271244e+00    6.813989e-01   8.881008e-03
  2.273454e+00    6.730252e-01   8.815913e-03
  2.275665e+00    6.674185e-01   8.768766e-03
  2.277875e+00    6.631247e-01   8.730592e-03
  2.280086e+00    6.465482e-01   8.610820e-03
  2.282296e+00    6.435705e-01   8.581679e-03
  2.284507e+00    6.395388e-01   8.544764e-03
  2.286717e+00    6.527882e-01   8.623403e-03
  2.288928e+00    6.612868e-01   8.669455e-03
  2.291138e+00    6.553871e-01   8.621287e-03
  2.293348e+00    6.491975e-01   8.570979e-03
  2.295559e+00    6.308159e-01   8.439657e-03
  2.297769e+00    6.346725e-01   8.456269e-03
  2.299980e+00    6.551654e-01   8.582386e-03
  2.302190e+00    6.509137e-01   8.545380e-03
  2.304401e+00    6.360755e-01   8.438203e-03
  2.306611e+00    6.574803e-01   8.569784e-03
  2.308822e+00    6.404229e-01   8.449567e-03
  2.311032e+00    6.338691e-01   8.399849e-03
  2.313243e+00    6.458247e-01   8.472443e-03
  2.315453e+00    6.359765e-01   8.400112e-03
  2.317663e+00    6.310840e-01   8.358718e-03
  2.319874e+00    6.392826e-01   8.404160e-03
  2.322084e+00    6.408041e-01   8.405230e-03
  2.324295e+00    6.311759e-01   8.333706e-03
  2.326505e+00    6.327332e-01   8.335015e-03
  2.328716e+00    6.422575e-01   8.388967e-03
  2.330926e+00    6.365571e-01   8.342908e-03
  2.333137e+00    6.431993e-01   8.377928e-03
  2.335347e+00    6.443340e-01   8.376445e-03
  2.337558e+00    6.443640e-01   8.368365e-03
  2.339768e+00    6.399870e-01   8.331341e-03
  2.341979e+00    6.244308e-01   8.221176e-03
  2.344189e+00    6.312272e-01   8.257453e-03
  2.346399e+00    6.150741e-01   8.142751e-03
  2.348610e+00    6.189548e-01   8.160062e-03
  2.350820e+00    6.289928e-01   8.217804e-03
  2.353031e+00    6.358826e-01   8.254411e-03
  2.355241e+00    6.322727e-01   8.222891e-03
  2.357452e+00    6.201731e-01   8.135505e-03
  2.359662e+00    6.356481e-01   8.228104e-03
  2.361873e+00    6.296879e-01   8.181248e-03
  2.364083e+00    6.224146e-01   8.125889e-03
  2.366294e+00    6.188740e-01   8.094701e-03
  2.368504e+00    6.165393e-01   8.071416e-03
  2.370714e+00    6.132748e-01   8.042026e-03
  2.372925e+00    6.172963e-01   8.060360e-03
  2.375135e+00    6.193277e-01   8.065579e-03
  2.377346e+00    6.046349e-01   7.961530e-03
  2.379556e+00    5.927838e-01   7.875396e-03
  2.381767e+00    5.989832e-01   7.908747e-03
  2.383977e+00    6.113567e-01   7.982149e-03
  2.386188e+00    6.093165e-01   7.960975e-03
  2.388398e+00    6.054914e-01   7.928053e-03
  2.390609e+00    6.203879e-01   8.017262e-03
  2.392819e+00    6.165728e-01   7.984789e-03
  2.395029e+00    6.101314e-01   7.935351e-03
  2.397240e+00    6.069618e-01   7.906885e-03
  2.399450e+00    6.102567e-01   7.920529e-03
  2.401661e+00    6.069400e-01   7.891336e-03
  2.403871e+00    5.987710e-01   7.830361e-03
  2.406082e+00    6.079347e-01   7.882640e-03
  2.408292e+00    5.894131e-01   7.753974e-03
  2.410503e+00    5.949781e-01   7.783078e-03
  2.412713e+00    5.880457e-01   7.729927e-03
  2.414924e+00    5.938230e-01   7.760407e-03
  2.417134e+00    5.899765e-01   7.727671e-03
  2.419344e+00    6.005068e-01   7.788960e-03
  2.421555e+00    5.857599e-01   7.685317e-03
  2.423765e+00    5.762591e-01   7.615475e-03
  2.425976e+00    5.842448e-01   7.660354e-03
  2.428186e+00    5.836878e-01   7.649586e-03
  2.430397e+00    5.808246e-01   7.623407e-03
  2.432607e+00    5.933514e-01   7.697921e-03
  2.434818e+00    5.922564e-01   7.683297e-03
  2.437028e+00    5.970694e-01   7.707284e-03
  2.439239e+00    5.898156e-01   7.652693e-03
  2.441449e+00    5.985205e-01   7.701724e-03
  2.443659e+00    5.833654e-01   7.596289e-03
  2.445870e+00    5.730520e-01   7.540921e-03
  2.448080e+00    5.587008e-01   7.479971e-03
  2.450291e+00    5.642212e-01   7.533244e-03
  2.452501e+00    5.641470e-01   7.543778e-03
  2.454712e+00    5.823388e-01   7.672966e-03
  2.456922e+00    5.606831e-01   7.535495e-03
  2.459133e+00    5.596685e-01   7.534077e-03
  2.461343e+00    5.424833e-01   7.421752e-03
  2.463554e+00    5.670898e-01   7.591686e-03
  2.465764e+00    5.488915e-01   7.471986e-03
  2.467975e+00    5.488964e-01   7.474277e-03
  2.470185e+00    5.460359e-01   7.457012e-03
  2.472395e+00    5.285844e-01   7.338065e-03
  2.474606e+00    5.323864e-01   7.365932e-03
  2.476816e+00    5.315057e-01   7.360576e-03
  2.479027e+00    5.437119e-01   7.445431e-03
  2.481237e+00    5.497209e-01   7.486760e-03
  2.483448e+00    5.412824e-01   7.429380e-03
  2.485658e+00    5.316777e-01   7.363025e-03
  2.487869e+00    5.326024e-01   7.369446e-03
  2.490079e+00    5.481473e-01   7.475718e-03
  2.492290e+00    5.382760e-01   7.407652e-03
  2.494500e+00    5.474454e-01   7.469739e-03
  2.496710e+00    5.370047e-01   7.397493e-03
  2.498921e+00    5.287534e-01   7.339443e-03
  2.501131e+00    5.199206e-01   7.276942e-03
  2.503342e+00    5.216933e-01   7.288082e-03
  2.505552e+00    5.257766e-01   7.315428e-03
  2.507763e+00    5.210884e-01   7.281339e-03
  2.509973e+00    5.100623e-01   7.202523e-03
  2.512184e+00    5.020594e-01   7.144216e-03
  2.514394e+00    5.149792e-01   7.226285e-03
  2.516605e+00    5.379696e-01   7.338262e-03
  2.518815e+00    5.300016e-01   7.255305e-03
  2.521025e+00    5.126251e-01   7.114664e-03
  2.523236e+00    5.237196e-01   7.173273e-03
  2.525446e+00    5.162404e-01   7.106427e-03
  2.527657e+00    5.220791e-01   7.131922e-03
  2.529867e+00    5.103292e-01   7.037242e-03
  2.532078e+00    5.165718e-01   7.065234e-03
  2.534288e+00    5.113050e-01   7.015416e-03
  2.536499e+00    5.160206e-01   7.035855e-03
  2.538709e+00    5.067555e-01   6.961586e-03
  2.540920e+00    5.197700e-01   7.039815e-03
  2.543130e+00    5.111005e-01   6.970637e-03
  2.545340e+00    5.054508e-01   6.922104e-03
  2.547551e+00    5.086020e-01   6.933840e-03
  2.549761e+00    5.195942e-01   6.998817e-03
  2.551972e+00    5.057163e-01   6.895514e-03
  2.554182e+00    5.109298e-01   6.921879e-03
  2.556393e+00    5.010197e-01   6.845505e-03
  2.558603e+00    5.042379e-01   6.858515e-03
  2.560814e+00    5.066530e-01   6.866333e-03
  2.563024e+00    4.960712e-01   6.785869e-03
  2.565235e+00    5.153627e-01   6.907075e-03
  2.567445e+00    5.096229e-01   6.859044e-03
  2.569656e+00    5.065172e-01   6.828476e-03
  2.571866e+00    5.121359e-01   6.856943e-03
  2.574076e+00    5.065395e-01   6.810181e-03
  2.576287e+00    5.189545e-01   6.884800e-03
  2.578497e+00    5.224719e-01   6.900191e-03
  2.580708e+00    5.328072e-01   6.959883e-03
  2.582918e+00    5.588321e-01   7.119745e-03
  2.585129e+00    5.432953e-01   7.012137e-03
  2.587339e+00    5.252402e-01   6.886859e-03
  2.589550e+00    5.227118e-01   6.862639e-03
  2.591760e+00    5.134276e-01   6.793690e-03
  2.593971e+00    4.984502e-01   6.686412e-03
  2.596181e+00    5.028545e-01   6.709730e-03
  2.598391e+00    5.087791e-01   6.743946e-03
  2.600602e+00    5.112728e-01   6.754553e-03
  2.602812e+00    5.086830e-01   6.729880e-03
  2.605023e+00    5.100916e-01   6.732007e-03
  2.607233e+00    5.175910e-01   6.774122e-03
  2.609444e+00    5.057281e-01   6.688825e-03
  2.611654e+00    4.945190e-01   6.607045e-03
  2.613865e+00    5.101965e-01   6.703881e-03
  2.616075e+00    5.219165e-01   6.773210e-03
  2.618286e+00    5.165104e-01   6.730972e-03
  2.620496e+00    5.099502e-01   6.681355e-03
  2.622706e+00    4.929363e-01   6.563282e-03
  2.624917e+00    4.895891e-01   6.535199e-03
  2.627127e+00    4.987615e-01   6.590413e-03
  2.629338e+00    4.932252e-01   6.547833e-03
  2.631548e+00    5.001811e-01   6.587666e-03
  2.633759e+00    5.058504e-01   6.617756e-03
  2.635969e+00    4.896013e-01   6.503972e-03
  2.638180e+00    4.943461e-01   6.528483e-03
  2.640390e+00    5.097067e-01   6.622479e-03
  2.642601e+00    4.947461e-01   6.517950e-03
  2.644811e+00    4.853380e-01   6.448701e-03
  2.647021e+00    4.954709e-01   6.509130e-03
  2.649232e+00    4.945875e-01   6.496653e-03
  2.651442e+00    4.870378e-01   6.440452e-03
  2.653653e+00    4.902819e-01   6.455124e-03
  2.655863e+00    4.989763e-01   6.505418e-03
  2.658074e+00    4.917280e-01   6.451446e-03
  2.660284e+00    4.949297e-01   6.466056e-03
  2.662495e+00    4.879412e-01   6.413565e-03
  2.664705e+00    4.988304e-01   6.478149e-03
  2.666916e+00    4.881742e-01   6.402169e-03
  2.669126e+00    4.901347e-01   6.408596e-03
  2.671337e+00    4.865949e-01   6.378895e-03
  2.673547e+00    4.858202e-01   6.367486e-03
  2.675757e+00    4.873965e-01   6.371404e-03
  2.677968e+00    4.907626e-01   6.386879e-03
  2.680178e+00    4.782407e-01   6.298574e-03
  2.682389e+00    4.834557e-01   6.326471e-03
  2.684599e+00    5.012932e-01   6.435900e-03
  2.686810e+00    4.841967e-01   6.318655e-03
  2.689020e+00    4.770946e-01   6.265941e-03
  2.691231e+00    4.728647e-01   6.231931e-03
  2.693441e+00    4.740224e-01   6.233505e-03
  2.695652e+00    4.867489e-01   6.310134e-03
  2.697862e+00    4.944813e-01   6.353695e-03
  2.700072e+00    4.820029e-01   6.266990e-03
  2.702283e+00    4.724695e-01   6.198575e-03
  2.704493e+00    4.787012e-01   6.233110e-03
  2.706704e+00    4.799353e-01   6.234783e-03
  2.708914e+00    4.894468e-01   6.290301e-03
  2.711125e+00    4.651291e-01   6.125942e-03
  2.713335e+00    4.716035e-01   6.162437e-03
  2.715546e+00    4.774953e-01   6.194404e-03
  2.717756e+00    4.741252e-01   6.166708e-03
  2.719967e+00    4.722439e-01   6.148325e-03
  2.722177e+00    4.828735e-01   6.211041e-03
  2.724387e+00    4.764366e-01   6.163444e-03
  2.726598e+00    4.767242e-01   6.159314e-03
  2.728808e+00    4.730031e-01   6.129147e-03
  2.731019e+00    4.821924e-01   6.182296e-03
  2.733229e+00    4.620583e-01   6.046173e-03
  2.735440e+00    4.775715e-01   6.140603e-03
  2.737650e+00    4.851726e-01   6.183248e-03
  2.739861e+00    4.843342e-01   6.171837e-03
  2.742071e+00    4.786052e-01   6.129516e-03
  2.744282e+00    4.878251e-01   6.181977e-03
  2.746492e+00    4.713590e-01   6.070795e-03
  2.748702e+00    4.716900e-01   6.067082e-03
  2.750913e+00    4.732404e-01   6.071301e-03
  2.753123e+00    4.737757e-01   6.068665e-03
  2.755334e+00    4.871781e-01   6.147788e-03
  2.757544e+00    4.683597e-01   6.022216e-03
  2.759755e+00    4.752821e-01   6.060707e-03
  2.761965e+00    4.787766e-01   6.076968e-03
  2.764176e+00    4.795412e-01   6.075845e-03
  2.766386e+00    4.703808e-01   6.011801e-03
  2.768597e+00    4.732027e-01   6.023978e-03
  2.770807e+00    4.669293e-01   5.978116e-03
  2.773017e+00    4.696649e-01   5.989684e-03
  2.775228e+00    4.763852e-01   6.026611e-03
  2.777438e+00    4.720847e-01   5.993597e-03
  2.779649e+00    4.757266e-01   6.010779e-03
  2.781859e+00    4.715066e-01   5.978345e-03
  2.784070e+00    4.621091e-01   5.912687e-03
  2.786280e+00    4.652233e-01   5.926886e-03
  2.788491e+00    4.715838e-01   5.961467e-03
  2.790701e+00    4.696300e-01   5.943502e-03
  2.792912e+00    4.730619e-01   5.959221e-03
  2.795122e+00    4.809102e-01   6.002693e-03
  2.797333e+00    4.798554e-01   5.990533e-03
  2.799543e+00    4.764287e-01   5.963228e-03
  2.801753e+00    4.624686e-01   5.869451e-03
  2.803964e+00    4.587739e-01   5.840369e-03
  2.806174e+00    4.702905e-01   5.907117e-03
  2.808385e+00    4.880276e-01   6.010597e-03
  2.810595e+00    4.643303e-01   5.856065e-03
  2.812806e+00    4.531742e-01   5.778825e-03
  2.815016e+00    4.591608e-01   5.812186e-03
  2.817227e+00    4.650314e-01   5.874928e-03
  2.819437e+00    4.766940e-01   5.959222e-03
  2.821648e+00    4.692422e-01   5.914767e-03
  2.823858e+00    4.717094e-01   5.935628e-03
  2.826068e+00    4.546561e-01   5.832219e-03
  2.828279e+00    4.629049e-01   5.888887e-03
  2.830489e+00    4.662971e-01   5.913735e-03
  2.832700e+00    4.702441e-01   5.941285e-03
  2.834910e+00    4.523302e-01   5.829016e-03
  2.837121e+00    4.648493e-01   5.910835e-03
  2.839331e+00    4.712169e-01   5.952421e-03
  2.841542e+00    4.700859e-01   5.946282e-03
  2.843752e+00    4.756078e-01   5.981890e-03
  2.845963e+00    4.668060e-01   5.926691e-03
  2.848173e+00    4.578249e-01   5.869476e-03
  2.850383e+00    4.614586e-01   5.893018e-03
  2.852594e+00    4.541420e-01   5.846032e-03
  2.854804e+00    4.636494e-01   5.906398e-03
  2.857015e+00    4.518301e-01   5.830226e-03
  2.859225e+00    4.439069e-01   5.778615e-03
  2.861436e+00    4.500715e-01   5.817963e-03
  2.863646e+00    4.575314e-01   5.866020e-03
  2.865857e+00    4.438021e-01   5.777681e-03
  2.868067e+00    4.421910e-01   5.767385e-03
  2.870278e+00    4.451937e-01   5.786595e-03
  2.872488e+00    4.559506e-01   5.854922e-03
  2.874698e+00    4.588047e-01   5.872190e-03
  2.876909e+00    4.603319e-01   5.880638e-03
  2.879119e+00    4.645481e-01   5.905870e-03
  2.881330e+00    4.677955e-01   5.925005e-03
  2.883540e+00    4.619839e-01   5.886708e-03
  2.885751e+00    4.428965e-01   5.762204e-03
  2.887961e+00    4.401610e-01   5.742524e-03
  2.890172e+00    4.531562e-01   5.825102e-03
  2.892382e+00    4.575231e-01   5.851295e-03
  2.894593e+00    4.514489e-01   5.810538e-03
  2.896803e+00    4.534184e-01   5.821233e-03
  2.899014e+00    4.516638e-01   5.808055e-03
  2.901224e+00    4.579342e-01   5.846248e-03
  2.903434e+00    4.527621e-01   5.811216e-03
  2.905645e+00    4.596851e-01   5.853248e-03
  2.907855e+00    4.598380e-01   5.852119e-03
  2.910066e+00    4.561962e-01   5.826832e-03
  2.912276e+00    4.576384e-01   5.833920e-03
  2.914487e+00    4.444298e-01   5.746704e-03
  2.916697e+00    4.419873e-01   5.728688e-03
  2.918908e+00    4.585209e-01   5.832848e-03
  2.921118e+00    4.545865e-01   5.805092e-03
  2.923329e+00    4.602427e-01   5.838763e-03
  2.925539e+00    4.606600e-01   5.839145e-03
  2.927749e+00    4.419719e-01   5.717197e-03
  2.929960e+00    4.377377e-01   5.687014e-03
  2.932170e+00    4.446998e-01   5.729777e-03
  2.934381e+00    4.350754e-01   5.665044e-03
  2.936591e+00    4.446876e-01   5.724735e-03
  2.938802e+00    4.421076e-01   5.705442e-03
  2.941012e+00    4.529472e-01   5.772623e-03
  2.943223e+00    4.465617e-01   5.729138e-03
  2.945433e+00    4.493057e-01   5.742982e-03
  2.947644e+00    4.636018e-01   5.829475e-03
  2.949854e+00    4.533711e-01   5.760534e-03
  2.952064e+00    4.456722e-01   5.707241e-03
  2.954275e+00    4.387677e-01   5.658517e-03
  2.956485e+00    4.445973e-01   5.691841e-03
  2.958696e+00    4.447648e-01   5.688601e-03
  2.960906e+00    4.516634e-01   5.728374e-03
  2.963117e+00    4.496550e-01   5.711156e-03
  2.965327e+00    4.698716e-01   5.834167e-03
  2.967538e+00    4.625507e-01   5.785615e-03
  2.969748e+00    4.541644e-01   5.730109e-03
  2.971959e+00    4.670451e-01   5.807601e-03
  2.974169e+00    4.552534e-01   5.731250e-03
  2.976379e+00    4.496946e-01   5.693239e-03
  2.978590e+00    4.462467e-01   5.668269e-03
  2.980800e+00    4.466987e-01   5.668361e-03
  2.983011e+00    4.341644e-01   5.585543e-03
  2.985221e+00    4.379386e-01   5.606647e-03
  2.987432e+00    4.494677e-01   5.676893e-03
  2.989642e+00    4.451200e-01   5.646759e-03
  2.991853e+00    4.477268e-01   5.660016e-03
  2.994063e+00    4.450476e-01   5.640186e-03
  2.996274e+00    4.379791e-01   5.592074e-03
  2.998484e+00    4.535071e-01   5.687650e-03
  3.000694e+00    4.411729e-01   5.606373e-03
  3.002905e+00    4.345568e-01   5.561298e-03
  3.005115e+00    4.468727e-01   5.636579e-03
  3.007326e+00    4.408949e-01   5.595658e-03
  3.009536e+00    4.433069e-01   5.607719e-03
  3.011747e+00    4.411378e-01   5.591110e-03
  3.013957e+00    4.378433e-01   5.567066e-03
  3.016168e+00    4.472020e-01   5.623005e-03
  3.018378e+00    4.415390e-01   5.584296e-03
  3.020589e+00    4.389577e-01   5.564773e-03
  3.022799e+00    4.461424e-01   5.607001e-03
  3.025010e+00    4.514865e-01   5.637232e-03
  3.027220e+00    4.519377e-01   5.636964e-03
  3.029430e+00    4.487492e-01   5.613796e-03
  3.031641e+00    4.475101e-01   5.602914e-03
  3.033851e+00    4.555128e-01   5.649268e-03
  3.036062e+00    4.447737e-01   5.579516e-03
  3.038272e+00    4.403624e-01   5.548245e-03
  3.040483e+00    4.378630e-01   5.529316e-03
  3.042693e+00    4.453454e-01   5.573087e-03
  3.044904e+00    4.620543e-01   5.672624e-03
  3.047114e+00    4.438955e-01   5.555260e-03
  3.049325e+00    4.664467e-01   5.690159e-03
  3.051535e+00    4.481780e-01   5.573242e-03
  3.053745e+00    4.554497e-01   5.613483e-03
  3.055956e+00    4.561003e-01   5.612912e-03
  3.058166e+00    4.442244e-01   5.535122e-03
  3.060377e+00    4.359944e-01   5.478893e-03
  3.062587e+00    4.570987e-01   5.605272e-03
  3.064798e+00    4.454185e-01   5.528975e-03
  3.067008e+00    4.481011e-01   5.540859e-03
  3.069219e+00    4.454231e-01   5.519793e-03
  3.071429e+00    4.596477e-01   5.603691e-03
  3.073640e+00    4.465764e-01   5.520122e-03
  3.075850e+00    4.490974e-01   5.532081e-03
  3.078060e+00    4.547450e-01   5.563645e-03
  3.080271e+00    4.535219e-01   5.552656e-03
  3.082481e+00    4.670707e-01   5.631476e-03
  3.084692e+00    4.504145e-01   5.526780e-03
  3.086902e+00    4.459424e-01   5.496033e-03
  3.089113e+00    4.384738e-01   5.446287e-03
  3.091323e+00    4.372102e-01   5.435073e-03
  3.093534e+00    4.402261e-01   5.450478e-03
  3.095744e+00    4.376208e-01   5.430954e-03
  3.097955e+00    4.518118e-01   5.514763e-03
  3.100165e+00    4.428596e-01   5.456541e-03
  3.102375e+00    4.476813e-01   5.482727e-03
  3.104586e+00    4.383832e-01   5.422061e-03
  3.106796e+00    4.255406e-01   5.338589e-03
  3.109007e+00    4.462212e-01   5.463558e-03
  3.111217e+00    4.391353e-01   5.416346e-03
  3.113428e+00    4.326610e-01   5.372912e-03
  3.115638e+00    4.394474e-01   5.411659e-03
  3.117849e+00    4.498957e-01   5.471874e-03
  3.120059e+00    4.469389e-01   5.450408e-03
  3.122270e+00    4.392278e-01   5.399936e-03
  3.124480e+00    4.452204e-01   5.432970e-03
  3.126691e+00    4.515212e-01   5.467663e-03
  3.128901e+00    4.489102e-01   5.448727e-03
  3.131111e+00    4.351661e-01   5.360859e-03
  3.133322e+00    4.323888e-01   5.340336e-03
  3.135532e+00    4.367741e-01   5.363943e-03
  3.137743e+00    4.475268e-01   5.426085e-03
  3.139953e+00    4.347339e-01   5.344351e-03
  3.142164e+00    4.372776e-01   5.371864e-03
  3.144374e+00    4.375035e-01   5.401519e-03
  3.146585e+00    4.312932e-01   5.377421e-03
  3.148795e+00    4.416639e-01   5.452451e-03
  3.151006e+00    4.427780e-01   5.467883e-03
  3.153216e+00    4.388955e-01   5.450979e-03
  3.155426e+00    4.277337e-01   5.387418e-03
  3.157637e+00    4.420053e-01   5.482092e-03
  3.159847e+00    4.475863e-01   5.521514e-03
  3.162058e+00    4.343938e-01   5.443940e-03
  3.164268e+00    4.440266e-01   5.508034e-03
  3.166479e+00    4.263169e-01   5.400688e-03
  3.168689e+00    4.215670e-01   5.373808e-03
  3.170900e+00    4.187513e-01   5.358921e-03
  3.173110e+00    4.325300e-01   5.449230e-03
  3.175321e+00    4.394518e-01   5.495151e-03
  3.177531e+00    4.356177e-01   5.473866e-03
  3.179741e+00    4.282825e-01   5.429637e-03
  3.181952e+00    4.272161e-01   5.424944e-03
  3.184162e+00    4.312843e-01   5.452910e-03
  3.186373e+00    4.333151e-01   5.467303e-03
  3.188583e+00    4.288700e-01   5.440973e-03
  3.190794e+00    4.283817e-01   5.439613e-03
  3.193004e+00    4.261315e-01   5.426524e-03
  3.195215e+00    4.371999e-01   5.498059e-03
  3.197425e+00    4.306024e-01   5.457627e-03
  3.199636e+00    4.306118e-01   5.456916e-03
  3.201846e+00    4.131851e-01   5.344770e-03
  3.204056e+00    4.271576e-01   5.435270e-03
  3.206267e+00    4.257660e-01   5.427239e-03
  3.208477e+00    4.307903e-01   5.460091e-03
  3.210688e+00    4.319560e-01   5.468331e-03
  3.212898e+00    4.210715e-01   5.399549e-03
  3.215109e+00    4.222361e-01   5.407759e-03
  3.217319e+00    4.338769e-01   5.482433e-03
  3.219530e+00    4.382136e-01   5.510162e-03
  3.221740e+00    4.330598e-01   5.478227e-03
  3.223951e+00    4.458281e-01   5.558872e-03
  3.226161e+00    4.271289e-01   5.441250e-03
  3.228372e+00    4.266713e-01   5.438853e-03
  3.230582e+00    4.268678e-01   5.440238e-03
  3.232792e+00    4.300041e-01   5.460412e-03
  3.235003e+00    4.210034e-01   5.403228e-03
  3.237213e+00    4.183271e-01   5.386097e-03
  3.239424e+00    4.252447e-01   5.430462e-03
  3.241634e+00    4.229031e-01   5.415613e-03
  3.243845e+00    4.138632e-01   5.357489e-03
  3.246055e+00    4.238687e-01   5.421575e-03
  3.248266e+00    4.324015e-01   5.476098e-03
  3.250476e+00    4.112956e-01   5.340488e-03
  3.252687e+00    4.127390e-01   5.349744e-03
  3.254897e+00    4.279434e-01   5.447258e-03
  3.257107e+00    4.355237e-01   5.495026e-03
  3.259318e+00    4.326257e-01   5.476439e-03
  3.261528e+00    4.297930e-01   5.458363e-03
  3.263739e+00    4.143924e-01   5.359125e-03
  3.265949e+00    4.194818e-01   5.391799e-03
  3.268160e+00    4.151789e-01   5.363676e-03
  3.270370e+00    4.223427e-01   5.409234e-03
  3.272581e+00    4.105863e-01   5.333139e-03
  3.274791e+00    4.309965e-01   5.463561e-03
  3.277002e+00    4.142480e-01   5.355814e-03
  3.279212e+00    4.109830e-01   5.334262e-03
  3.281422e+00    4.296172e-01   5.453284e-03
  3.283633e+00    4.255010e-01   5.426418e-03
  3.285843e+00    4.251858e-01   5.424068e-03
  3.288054e+00    4.186176e-01   5.381084e-03
  3.290264e+00    4.108889e-01   5.330876e-03
  3.292475e+00    4.281470e-01   5.440816e-03
  3.294685e+00    4.060070e-01   5.297679e-03
  3.296896e+00    4.220899e-01   5.400800e-03
  3.299106e+00    4.219940e-01   5.399661e-03
  3.301317e+00    4.138757e-01   5.346442e-03
  3.303527e+00    4.179983e-01   5.372534e-03
  3.305737e+00    4.352223e-01   5.481051e-03
  3.307948e+00    4.110145e-01   5.325799e-03
  3.310158e+00    4.188839e-01   5.375667e-03
  3.312369e+00    4.154913e-01   5.352990e-03
  3.314579e+00    4.110399e-01   5.323336e-03
  3.316790e+00    4.231482e-01   5.400468e-03
  3.319000e+00    4.144138e-01   5.343277e-03
  3.321211e+00    4.142500e-01   5.341596e-03
  3.323421e+00    4.179635e-01   5.364315e-03
  3.325632e+00    4.158610e-01   5.349899e-03
  3.327842e+00    4.028404e-01   5.264612e-03
  3.330052e+00    4.156164e-01   5.346352e-03
  3.332263e+00    4.167915e-01   5.352902e-03
  3.334473e+00    4.173014e-01   5.355294e-03
  3.336684e+00    4.187204e-01   5.363108e-03
  3.338894e+00    4.120816e-01   5.319592e-03
  3.341105e+00    4.259219e-01   5.406959e-03
  3.343315e+00    4.180431e-01   5.355624e-03
  3.345526e+00    4.122242e-01   5.317276e-03
  3.347736e+00    4.170890e-01   5.347186e-03
  3.349947e+00    4.238347e-01   5.389319e-03
  3.352157e+00    4.093298e-01   5.295129e-03
  3.354368e+00    4.162588e-01   5.338477e-03
  3.356578e+00    4.133049e-01   5.318471e-03
  3.358788e+00    4.115555e-01   5.305890e-03
  3.360999e+00    4.259500e-01   5.396623e-03
  3.363209e+00    4.316645e-01   5.431684e-03
  3.365420e+00    4.200554e-01   5.356627e-03
  3.367630e+00    4.041269e-01   5.253088e-03
  3.369841e+00    3.990874e-01   5.218823e-03
  3.372051e+00    4.102640e-01   5.289446e-03
  3.374262e+00    4.164889e-01   5.326962e-03
  3.376472e+00    4.147658e-01   5.313513e-03
  3.378683e+00    4.103754e-01   5.282830e-03
  3.380893e+00    3.996911e-01   5.211295e-03
  3.383103e+00    4.145373e-01   5.304508e-03
  3.385314e+00    4.105142e-01   5.276487e-03
  3.387524e+00    4.202086e-01   5.335689e-03
  3.389735e+00    4.092872e-01   5.263262e-03
  3.391945e+00    4.069705e-01   5.244694e-03
  3.394156e+00    4.096187e-01   5.257544e-03
  3.396366e+00    4.050548e-01   5.224788e-03
  3.398577e+00    4.083731e-01   5.243101e-03
  3.400787e+00    4.140042e-01   5.291105e-03
  3.402998e+00    3.925353e-01   5.189325e-03
  3.405208e+00    3.942373e-01   5.220924e-03
  3.407418e+00    3.988487e-01   5.267120e-03
  3.409629e+00    3.834759e-01   5.178267e-03
  3.411839e+00    3.876941e-01   5.218261e-03
  3.414050e+00    3.868857e-01   5.223689e-03
  3.416260e+00    3.748792e-01   5.151392e-03
  3.418471e+00    3.971183e-01   5.311423e-03
  3.420681e+00    3.826889e-01   5.222465e-03
  3.422892e+00    3.696010e-01   5.140137e-03
  3.425102e+00    3.677247e-01   5.134662e-03
  3.427313e+00    3.834980e-01   5.250782e-03
  3.429523e+00    3.859681e-01   5.274711e-03
  3.431733e+00    3.771836e-01   5.220931e-03
  3.433944e+00    3.853651e-01   5.283738e-03
  3.436154e+00    3.870872e-01   5.301806e-03
  3.438365e+00    3.816271e-01   5.270222e-03
  3.440575e+00    3.707284e-01   5.200274e-03
  3.442786e+00    3.635300e-01   5.155025e-03
  3.444996e+00    3.615940e-01   5.146679e-03
  3.447207e+00    3.601560e-01   5.141589e-03
  3.449417e+00    3.573813e-01   5.161811e-03
  3.451628e+00    3.563297e-01   5.183104e-03
  3.453838e+00    3.690128e-01   5.295778e-03
  3.456049e+00    3.669676e-01   5.304954e-03
  3.458259e+00    3.688439e-01   5.340543e-03
  3.460469e+00    3.559645e-01   5.265957e-03
  3.462680e+00    3.463190e-01   5.212663e-03
  3.464890e+00    3.635437e-01   5.358416e-03
  3.467101e+00    3.712453e-01   5.432454e-03
  3.469311e+00    3.857663e-01   5.554564e-03
  3.471522e+00    3.856956e-01   5.570710e-03
  3.473732e+00    3.724954e-01   5.490346e-03
  3.475943e+00    3.826769e-01   5.580571e-03
  3.478153e+00    3.993233e-01   5.716322e-03
  3.480364e+00    4.204882e-01   5.881523e-03
  3.482574e+00    4.138750e-01   5.850646e-03
  3.484784e+00    4.141543e-01   5.867523e-03
  3.486995e+00    4.150809e-01   5.889175e-03
  3.489205e+00    4.329823e-01   6.029668e-03
  3.491416e+00    4.470101e-01   6.141820e-03
  3.493626e+00    4.502608e-01   6.178967e-03
  3.495837e+00    4.490482e-01   6.185514e-03
  3.498047e+00    4.495006e-01   6.203224e-03
  3.500258e+00    4.608360e-01   6.295648e-03
  3.502468e+00    4.709267e-01   6.378925e-03
  3.504679e+00    4.694672e-01   6.383623e-03
  3.506889e+00    4.812818e-01   6.478145e-03
  3.509099e+00    4.633238e-01   6.370386e-03
  3.511310e+00    4.588036e-01   6.353422e-03
  3.513520e+00    4.790567e-01   6.506482e-03
  3.515731e+00    4.968490e-01   6.640757e-03
  3.517941e+00    5.012948e-01   6.684963e-03
  3.520152e+00    5.002961e-01   6.692661e-03
  3.522362e+00    5.046933e-01   6.736566e-03
  3.524573e+00    5.012915e-01   6.728035e-03
  3.526783e+00    5.107605e-01   6.804626e-03
  3.528994e+00    5.137916e-01   6.837006e-03
  3.531204e+00    5.225162e-01   6.907247e-03
  3.533414e+00    5.300852e-01   6.969278e-03
  3.535625e+00    5.233949e-01   6.937457e-03
  3.537835e+00    5.054708e-01   6.829411e-03
  3.540046e+00    5.310572e-01   7.009027e-03
  3.542256e+00    5.259450e-01   6.982684e-03
  3.544467e+00    5.343117e-01   7.045607e-03
  3.546677e+00    5.604407e-01   7.223570e-03
  3.548888e+00    5.546337e-01   7.193697e-03
  3.551098e+00    5.364395e-01   7.082008e-03
  3.553309e+00    5.371540e-01   7.094892e-03
  3.555519e+00    5.054755e-01   6.893485e-03
  3.557729e+00    5.257231e-01   7.041773e-03
  3.559940e+00    5.371453e-01   7.129430e-03
  3.562150e+00    5.442912e-01   7.188486e-03
  3.564361e+00    5.431031e-01   7.194064e-03
  3.566571e+00    5.396557e-01   7.185078e-03
  3.568782e+00    5.296862e-01   7.132427e-03
  3.570992e+00    5.391585e-01   7.209704e-03
  3.573203e+00    5.427922e-01   7.248197e-03
  3.575413e+00    5.488219e-01   7.302294e-03
  3.577624e+00    5.289820e-01   7.183121e-03
  3.579834e+00    5.338517e-01   7.229937e-03
  3.582045e+00    5.508629e-01   7.358490e-03
  3.584255e+00    5.260747e-01   7.204934e-03
  3.586465e+00    5.365782e-01   7.290421e-03
  3.588676e+00    5.373409e-01   7.309835e-03
  3.590886e+00    5.358407e-01   7.313308e-03
  3.593097e+00    5.446982e-01   7.388158e-03
  3.595307e+00    5.344751e-01   7.332370e-03
  3.597518e+00    5.295734e-01   7.312852e-03
  3.599728e+00    5.305035e-01   7.333268e-03
  3.601939e+00    5.345065e-01   7.374945e-03
  3.604149e+00    5.328799e-01   7.378066e-03
  3.606360e+00    5.336989e-01   7.397885e-03
  3.608570e+00    5.349941e-01   7.420972e-03
  3.610780e+00    5.449870e-01   7.501180e-03
  3.612991e+00    5.326719e-01   7.425895e-03
  3.615201e+00    5.266122e-01   7.393279e-03
  3.617412e+00    5.404825e-01   7.497297e-03
  3.619622e+00    5.363495e-01   7.474556e-03
  3.621833e+00    5.300233e-01   7.437025e-03
  3.624043e+00    5.162287e-01   7.348978e-03
  3.626254e+00    5.253733e-01   7.423345e-03
  3.628464e+00    5.508761e-01   7.612590e-03
  3.630675e+00    5.115578e-01   7.349665e-03
  3.632885e+00    5.315772e-01   7.506529e-03
  3.635095e+00    5.416978e-01   7.592163e-03
  3.637306e+00    5.393263e-01   7.589963e-03
  3.639516e+00    5.462148e-01   7.652962e-03
  3.641727e+00    5.391394e-01   7.617945e-03
  3.643937e+00    5.200154e-01   7.495941e-03
  3.646148e+00    5.232237e-01   7.533502e-03
  3.648358e+00    5.214161e-01   7.535184e-03
  3.650569e+00    5.279126e-01   7.596656e-03
  3.652779e+00    5.058776e-01   7.450803e-03
  3.654990e+00    5.396810e-01   7.710679e-03
  3.657200e+00    5.268817e-01   7.633563e-03
  3.659410e+00    5.274759e-01   7.652727e-03
  3.661621e+00    5.302095e-01   7.687629e-03
  3.663831e+00    5.276669e-01   7.684253e-03
  3.666042e+00    5.324064e-01   7.733820e-03
  3.668252e+00    5.343101e-01   7.762953e-03
  3.670463e+00    5.257221e-01   7.715436e-03
  3.672673e+00    5.290619e-01   7.755344e-03
  3.674884e+00    5.110502e-01   7.637239e-03
  3.677094e+00    5.429857e-01   7.887990e-03
  3.679305e+00    5.246296e-01   7.768977e-03
  3.681515e+00    5.241917e-01   7.781264e-03
  3.683726e+00    5.317926e-01   7.853303e-03
  3.685936e+00    5.322728e-01   7.872591e-03
  3.688146e+00    5.251248e-01   7.835316e-03
  3.690357e+00    5.224241e-01   7.830991e-03
  3.692567e+00    5.116696e-01   7.765842e-03
  3.694778e+00    5.229371e-01   7.866891e-03
  3.696988e+00    5.275727e-01   7.917691e-03
  3.699199e+00    5.163753e-01   7.849303e-03
  3.701409e+00    5.107046e-01   7.822261e-03
  3.703620e+00    5.174916e-01   7.890205e-03
  3.705830e+00    5.230473e-01   7.948885e-03
  3.708041e+00    5.094032e-01   7.860851e-03
  3.710251e+00    5.049497e-01   7.842842e-03
  3.712461e+00    5.112593e-01   7.908211e-03
  3.714672e+00    5.144616e-01   7.949623e-03
  3.716882e+00    5.083294e-01   7.918537e-03
  3.719093e+00    5.139201e-01   7.979028e-03
  3.721303e+00    5.185043e-01   8.031460e-03
  3.723514e+00    5.096401e-01   7.979669e-03
  3.725724e+00    5.276258e-01   8.136491e-03
  3.727935e+00    5.477105e-01   8.307883e-03
  3.730145e+00    5.390735e-01   8.259855e-03
  3.732356e+00    5.071592e-01   8.028978e-03
  3.734566e+00    5.181302e-01   8.132909e-03
  3.736776e+00    5.114323e-01   8.097950e-03
  3.738987e+00    5.164644e-01   8.155399e-03
  3.741197e+00    5.081322e-01   8.107269e-03
  3.743408e+00    5.214555e-01   8.231104e-03
  3.745618e+00    4.940849e-01   8.030088e-03
  3.747829e+00    5.243247e-01   8.290549e-03
  3.750039e+00    5.046078e-01   8.151385e-03
  3.752250e+00    5.048133e-01   8.171451e-03
  3.754460e+00    4.902892e-01   8.071167e-03
  3.756671e+00    5.075131e-01   8.230498e-03
  3.758881e+00    4.948869e-01   8.145873e-03
  3.761091e+00    4.932696e-01   8.151362e-03
  3.763302e+00    4.988058e-01   8.215943e-03
  3.765512e+00    4.929271e-01   8.186295e-03
  3.767723e+00    5.252110e-01   8.469829e-03
  3.769933e+00    5.057693e-01   8.330964e-03
  3.772144e+00    4.858784e-01   8.184627e-03
  3.774354e+00    4.951282e-01   8.281795e-03
  3.776565e+00    4.930567e-01   8.284131e-03
  3.778775e+00    5.043712e-01   8.398509e-03
  3.780986e+00    5.192766e-01   8.542373e-03
  3.783196e+00    5.004941e-01   8.406632e-03
  3.785407e+00    4.922006e-01   8.356922e-03
  3.787617e+00    4.779314e-01   8.255094e-03
  3.789827e+00    4.942092e-01   8.414828e-03
  3.792038e+00    5.197761e-01   8.650990e-03
  3.794248e+00    4.866717e-01   8.391866e-03
  3.796459e+00    4.981360e-01   8.511304e-03
  3.798669e+00    4.976502e-01   8.528573e-03
  3.800880e+00    5.068046e-01   8.628154e-03
  3.803090e+00    5.249000e-01   8.803225e-03
  3.805301e+00    5.154563e-01   8.746103e-03
  3.807511e+00    5.275237e-01   8.870490e-03
  3.809722e+00    5.017715e-01   8.673571e-03
  3.811932e+00    4.816130e-01   8.519356e-03
  3.814142e+00    4.673762e-01   8.414638e-03
  3.816353e+00    4.793136e-01   8.543807e-03
  3.818563e+00    4.563472e-01   8.358654e-03
  3.820774e+00    4.822182e-01   8.615118e-03
  3.822984e+00    4.910486e-01   8.716904e-03
  3.825195e+00    5.002816e-01   8.822180e-03
  3.827405e+00    5.051831e-01   8.889402e-03
  3.829616e+00    5.205326e-01   9.048055e-03
  3.831826e+00    4.998241e-01   8.890488e-03
  3.834037e+00    5.018985e-01   8.933530e-03
  3.836247e+00    4.676588e-01   8.647402e-03
  3.838457e+00    4.738569e-01   8.728899e-03
  3.840668e+00    4.985110e-01   8.978365e-03
  3.842878e+00    4.991178e-01   9.009441e-03
  3.845089e+00    5.048206e-01   9.086592e-03
  3.847299e+00    4.740173e-01   8.830192e-03
  3.849510e+00    5.046012e-01   9.136700e-03
  3.851720e+00    5.102273e-01   9.209282e-03
  3.853931e+00    5.003069e-01   9.138384e-03
  3.856141e+00    4.840414e-01   9.007471e-03
  3.858352e+00    4.789906e-01   8.979252e-03
  3.860562e+00    4.637160e-01   8.853618e-03
  3.862772e+00    4.770655e-01   8.999391e-03
  3.864983e+00    4.990095e-01   9.223795e-03
  3.867193e+00    5.045497e-01   9.294945e-03
  3.869404e+00    4.877006e-01   9.158091e-03
  3.871614e+00    4.680591e-01   8.991200e-03
  3.873825e+00    4.969964e-01   9.285421e-03
  3.876035e+00    4.557892e-01   8.911883e-03
  3.878246e+00    4.794993e-01   9.166165e-03
  3.880456e+00    4.822307e-01   9.220985e-03
  3.882667e+00    4.820869e-01   9.248583e-03
  3.884877e+00    5.138292e-01   9.578615e-03
  3.887087e+00    4.844240e-01   9.330276e-03
  3.889298e+00    5.008490e-01   9.517736e-03
  3.891508e+00    5.052801e-01   9.590783e-03
  3.893719e+00    4.972106e-01   9.545033e-03
  3.895929e+00    4.854866e-01   9.463130e-03
  3.898140e+00    4.928252e-01   9.566152e-03
  3.900350e+00    5.086178e-01   9.750891e-03
  3.902561e+00    5.042235e-01   9.741544e-03
  3.904771e+00    4.876161e-01   9.612519e-03
  3.906982e+00    4.475172e-01   9.240493e-03
  3.909192e+00    4.902785e-01   9.705347e-03
  3.911403e+00    5.071564e-01   9.905709e-03
  3.913613e+00    5.196486e-01   1.006231e-02
  3.915823e+00    4.960598e-01   9.866307e-03
  3.918034e+00    4.728715e-01   9.667709e-03
  3.920244e+00    4.762282e-01   9.737187e-03
  3.922455e+00    4.893188e-01   9.906233e-03
  3.924665e+00    4.929557e-01   9.979601e-03
  3.926876e+00    4.872430e-01   9.958712e-03
  3.929086e+00    4.566487e-01   9.677147e-03
  3.931297e+00    4.817623e-01   9.974219e-03
  3.933507e+00    4.743810e-01   9.926129e-03
  3.935718e+00    4.597206e-01   9.799432e-03
  3.937928e+00    4.855447e-01   1.010030e-02
  3.940138e+00    4.812909e-01   1.008511e-02
  3.942349e+00    4.734743e-01   1.003235e-02
  3.944559e+00    4.753774e-01   1.008208e-02
  3.946770e+00    4.739068e-01   1.009628e-02
  3.948980e+00    4.730439e-01   1.011736e-02
  3.951191e+00    4.909593e-01   1.033817e-02
  3.953401e+00    4.874469e-01   1.033249e-02
  3.955612e+00    5.212724e-01   1.071771e-02
  3.957822e+00    4.791828e-01   1.030747e-02
  3.960033e+00    4.706634e-01   1.024744e-02
  3.962243e+00    4.820449e-01   1.040339e-02
  3.964453e+00    4.966284e-01   1.059303e-02
  3.966664e+00    4.792462e-01   1.043915e-02
  3.968874e+00    4.894213e-01   1.057793e-02
  3.971085e+00    4.693689e-01   1.038053e-02
  3.973295e+00    4.809327e-01   1.052898e-02
  3.975506e+00    4.760788e-01   1.049710e-02
  3.977716e+00    4.750295e-01   1.050737e-02
  3.979927e+00    4.591975e-01   1.035218e-02
  3.982137e+00    5.072371e-01   1.090301e-02
  3.984348e+00    5.095750e-01   1.095130e-02
  3.986558e+00    4.584624e-01   1.040925e-02
  3.988768e+00    4.404587e-01   1.022479e-02
  3.990979e+00    4.793143e-01   1.068869e-02
  3.993189e+00    4.938194e-01   1.087270e-02
  3.995400e+00    4.490541e-01   1.039073e-02
  3.997610e+00    4.728914e-01   1.069236e-02
  3.999821e+00    4.717257e-01   1.071630e-02
  4.002031e+00    4.934239e-01   1.099860e-02
  4.004242e+00    4.473554e-01   1.050969e-02
  4.006452e+00    4.909014e-01   1.104877e-02
  4.008663e+00    5.003472e-01   1.119533e-02
  4.010873e+00    4.921467e-01   1.114347e-02
  4.013084e+00    5.071105e-01   1.135346e-02
  4.015294e+00    4.862965e-01   1.115911e-02
  4.017504e+00    4.591638e-01   1.088413e-02
  4.019715e+00    4.909545e-01   1.129722e-02
  4.021925e+00    5.045651e-01   1.149684e-02
  4.024136e+00    4.520041e-01   1.092383e-02
  4.026346e+00    4.832724e-01   1.133923e-02
  4.028557e+00    4.711094e-01   1.123950e-02
  4.030767e+00    4.693238e-01   1.126314e-02
  4.032978e+00    4.371713e-01   1.091443e-02
  4.035188e+00    4.657153e-01   1.131034e-02
  4.037399e+00    5.057229e-01   1.183503e-02
  4.039609e+00    4.738807e-01   1.150347e-02
  4.041819e+00    4.920194e-01   1.177085e-02
  4.044030e+00    4.495228e-01   1.129908e-02
  4.046240e+00    4.891687e-01   1.183710e-02
  4.048451e+00    4.771676e-01   1.174149e-02
  4.050661e+00    4.819397e-01   1.185165e-02
  4.052872e+00    4.915518e-01   1.202233e-02
  4.055082e+00    4.399060e-01   1.142434e-02
  4.057293e+00    4.897040e-01   1.210775e-02
  4.059503e+00    5.080143e-01   1.238804e-02
  4.061714e+00    5.239761e-01   1.264026e-02
  4.063924e+00    4.592779e-01   1.188942e-02
  4.066134e+00    4.535487e-01   1.187064e-02
  4.068345e+00    4.928468e-01   1.243389e-02
  4.070555e+00    5.210175e-01   1.284604e-02
  4.072766e+00    5.003870e-01   1.265114e-02
  4.074976e+00    4.754384e-01   1.239321e-02
  4.077187e+00    4.981432e-01   1.274866e-02
  4.079397e+00    4.684861e-01   1.242665e-02
  4.081608e+00    4.954680e-01   1.284585e-02
  4.083818e+00    5.084802e-01   1.308091e-02
  4.086029e+00    5.040206e-01   1.309238e-02
  4.088239e+00    4.792817e-01   1.283576e-02
  4.090449e+00    4.512425e-01   1.252208e-02
  4.092660e+00    4.504574e-01   1.258002e-02
  4.094870e+00    4.779235e-01   1.302996e-02
  4.097081e+00    4.400146e-01   1.257105e-02
  4.099291e+00    4.625218e-01   1.294171e-02
  4.101502e+00    4.864163e-01   1.332150e-02
  4.103712e+00    4.965862e-01   1.351024e-02
  4.105923e+00    4.539764e-01   1.296737e-02
  4.108133e+00    4.834993e-01   1.343417e-02
  4.110344e+00    4.587562e-01   1.313587e-02
  4.112554e+00    4.552991e-01   1.313804e-02
  4.114764e+00    4.648044e-01   1.332779e-02
  4.116975e+00    4.527267e-01   1.320520e-02
  4.119185e+00    4.962206e-01   1.388132e-02
  4.121396e+00    4.863085e-01   1.379886e-02
  4.123606e+00    4.563867e-01   1.342227e-02
  4.125817e+00    4.447691e-01   1.330585e-02
  4.128027e+00    4.853978e-01   1.395881e-02
  4.130238e+00    4.983549e-01   1.420467e-02
  4.132448e+00    4.741591e-01   1.391554e-02
  4.134659e+00    5.409479e-01   1.492728e-02
  4.136869e+00    5.028248e-01   1.445603e-02
  4.139080e+00    4.431037e-01   1.363157e-02
  4.141290e+00    4.364423e-01   1.358855e-02
  4.143500e+00    4.857928e-01   1.440228e-02
  4.145711e+00    4.798725e-01   1.438121e-02
  4.147921e+00    4.883012e-01   1.457352e-02
  4.150132e+00    5.062547e-01   1.490983e-02
  4.152342e+00    5.153917e-01   1.511650e-02
  4.154553e+00    4.800140e-01   1.465818e-02
  4.156763e+00    5.076523e-01   1.514853e-02
  4.158974e+00    4.990731e-01   1.509573e-02
  4.161184e+00    4.325769e-01   1.412375e-02
  4.163395e+00    4.775395e-01   1.491519e-02
  4.165605e+00    4.985322e-01   1.531895e-02
  4.167815e+00    5.010683e-01   1.543806e-02
  4.170026e+00    4.800948e-01   1.519098e-02
  4.172236e+00    4.766354e-01   1.521807e-02
  4.174447e+00    4.942312e-01   1.558056e-02
  4.176657e+00    4.893357e-01   1.558813e-02
  4.178868e+00    4.899799e-01   1.568668e-02
  4.181078e+00    4.822402e-01   1.564987e-02
  4.183289e+00    4.983009e-01   1.599944e-02
  4.185499e+00    5.183828e-01   1.641491e-02
  4.187710e+00    5.179576e-01   1.650427e-02
  4.189920e+00    4.905308e-01   1.615830e-02
  4.192130e+00    5.137249e-01   1.663672e-02
  4.194341e+00    5.295421e-01   1.699445e-02
  4.196551e+00    5.001786e-01   1.662141e-02
  4.198762e+00    4.643921e-01   1.611740e-02
  4.200972e+00    4.766263e-01   1.643372e-02
  4.203183e+00    4.608774e-01   1.626669e-02
  4.205393e+00    4.770312e-01   1.665921e-02
  4.207604e+00    4.582979e-01   1.644044e-02
  4.209814e+00    4.967204e-01   1.723302e-02
  4.212025e+00    5.178154e-01   1.771978e-02
  4.214235e+00    5.367660e-01   1.816925e-02
  4.216445e+00    4.701404e-01   1.712718e-02
  4.218656e+00    4.899366e-01   1.761499e-02
  4.220866e+00    5.064730e-01   1.804252e-02
  4.223077e+00    4.611410e-01   1.734836e-02
  4.225287e+00    4.946644e-01   1.810934e-02
  4.227498e+00    4.754576e-01   1.789372e-02
  4.229708e+00    4.846871e-01   1.821301e-02
  4.231919e+00    4.859381e-01   1.838779e-02
  4.234129e+00    4.919056e-01   1.865553e-02
  4.236340e+00    4.826685e-01   1.863731e-02
  4.238550e+00    4.769146e-01   1.868971e-02
  4.240761e+00    4.480765e-01   1.827562e-02
  4.242971e+00    4.720556e-01   1.893027e-02
  4.245181e+00    4.577811e-01   1.881689e-02
  4.247392e+00    4.338232e-01   1.848929e-02
  4.249602e+00    5.153886e-01   2.035227e-02
  4.251813e+00    5.333894e-01   2.090936e-02
  4.254023e+00    4.111066e-01   1.854199e-02
  4.256234e+00    4.544259e-01   1.970156e-02
  4.258444e+00    4.781986e-01   2.042272e-02
  4.260655e+00    4.818948e-01   2.072653e-02
  4.262865e+00    5.288383e-01   2.195895e-02
  4.265076e+00    4.665519e-01   2.086006e-02
  4.267286e+00    4.791257e-01   2.138959e-02
  4.269496e+00    4.282340e-01   2.046928e-02
  4.271707e+00    4.921078e-01   2.221281e-02
  4.273917e+00    4.674982e-01   2.193085e-02
  4.276128e+00    4.449113e-01   2.167821e-02
  4.278338e+00    4.050820e-01   2.096203e-02
  4.280549e+00    4.534459e-01   2.249558e-02
  4.282759e+00    4.447116e-01   2.259818e-02
  4.284970e+00    4.658596e-01   2.347147e-02
  4.287180e+00    4.796825e-01   2.410292e-02
  4.289391e+00    3.793740e-01   2.159576e-02
  4.291601e+00    4.366350e-01   2.335322e-02
  4.293811e+00    4.616369e-01   2.420061e-02
  4.296022e+00    4.860601e-01   2.503171e-02
  4.298232e+00    4.749924e-01   2.495229e-02
  4.300443e+00    5.569301e-01   2.724212e-02
  4.302653e+00    5.151723e-01   2.642794e-02
  4.304864e+00    4.782432e-01   2.568331e-02
  4.307074e+00    4.739578e-01   2.579817e-02
  4.309285e+00    5.262964e-01   2.743232e-02
  4.311495e+00    4.422905e-01   2.538236e-02
  4.313706e+00    4.084357e-01   2.462184e-02
  4.315916e+00    5.493646e-01   2.883520e-02
  4.318126e+00    4.697180e-01   2.692779e-02
  4.320337e+00    4.538653e-01   2.673631e-02
  4.322547e+00    4.666178e-01   2.739787e-02
  4.324758e+00    4.681807e-01   2.772840e-02
  4.326968e+00    4.461682e-01   2.737396e-02
  4.329179e+00    5.375475e-01   3.037748e-02
  4.331389e+00    4.479227e-01   2.804986e-02
  4.333600e+00    4.337237e-01   2.793028e-02
  4.335810e+00    4.523091e-01   2.886234e-02
  4.338021e+00    4.849360e-01   3.026761e-02
  4.340231e+00    4.522879e-01   2.959786e-02
  4.342442e+00    3.995564e-01   2.819298e-02
  4.344652e+00    3.600620e-01   2.712607e-02
  4.346862e+00    4.179961e-01   2.963516e-02
  4.349073e+00    4.697595e-01   3.187527e-02
  4.351283e+00    4.222415e-01   3.067074e-02
  4.353494e+00    4.941612e-01   3.369277e-02
  4.355704e+00    4.602791e-01   3.304210e-02
  4.357915e+00    4.160780e-01   3.193809e-02
  4.360125e+00    5.404918e-01   3.702065e-02
  4.362336e+00    6.196406e-01   4.036324e-02
  4.364546e+00    4.402524e-01   3.464186e-02
  4.366757e+00    6.262619e-01   4.213994e-02
  4.368967e+00    3.991980e-01   3.431325e-02
  4.371177e+00    5.226386e-01   4.009791e-02
  4.373388e+00    4.895675e-01   3.967546e-02
  4.375598e+00    3.922202e-01   3.632346e-02
  4.377809e+00    4.773914e-01   4.108641e-02
  4.380019e+00    4.495396e-01   4.087250e-02
  4.382230e+00    3.307233e-01   3.603764e-02
  4.384440e+00    4.158753e-01   4.157185e-02
  4.386651e+00    4.915572e-01   4.659192e-02
  4.388861e+00    3.666489e-01   4.158815e-02
  4.391072e+00    5.818039e-01   5.423253e-02
  4.393282e+00    2.859203e-01   3.948541e-02
  4.395492e+00    3.713998e-01   4.687164e-02
  4.397703e+00    3.492955e-01   4.753504e-02
  4.399913e+00    3.716818e-01   5.151836e-02
  4.402124e+00    1.634311e-01   3.609747e-02
  4.404334e+00    4.082516e-01   6.064640e-02
  4.406545e+00    2.421418e-01   5.018204e-02
  4.408755e+00    3.808551e-01   6.825455e-02
  4.410966e+00    3.108293e-01   6.824689e-02
  4.413176e+00    2.374455e-01   6.751844e-02
  4.415387e+00   -4.157793e-01            nan
  4.417597e+00   -1.541489e+00            nan
  4.419807e+00   -3.766224e-01            nan
