# == pyFAI calibration ==
# Distance Sample to Detector: 0.216 m
# PONI: 1.166e-01, 1.308e-01 m
# Rotations: 0.000000 0.000000 0.000000 rad
# 
# == Fit2d calibration ==
# Distance Sample-beamCenter: 216.000 mm
# Center: x=1744.293, y=1555.000 pix
# Tilt: 0.000 deg  TiltPlanRot: 0.000 deg
# 
# Detector Eiger 9M	 PixelSize= 7.500e-05, 7.500e-05 m
#    Detector has a mask: True 
#    Detector has a dark current: False 
#    detector has a flat field: False 
# 
# Wavelength: 9.8e-11 m
# Mask applied: from detector
# Dark current applied: False
# Flat field applied: False
# Polarization factor: None
# Normalization factor: 1.0
# 
# Headers of the input frame:
# {
# "_array_data.header_convention": "SLS_1.0",
# "_array_data.header_contents": "# Detector: Dectris Eiger 9M, S/N E-18-0102\r\n# Pixel_size 75e-6 m x 75e-6 m\r\n# Silicon sensor, thickness 0.000450 m\r\n# Exposure_time 0.024997 s\r\n# Exposure_period 0.025000 s\r\n# Count_cutoff 62318 counts\r\n# Wavelength 0.980106 A\r\n# Detector_distance 0.215992 m\r\n# Beam_xy (1555, 1744) pixels\r\n# Start_angle 0.000000 deg.\r\n# Angle_increment 0.000000 deg.",
# "Content-Type": "application/octet-stream;",
# "conversions": "x-CBF_BYTE_OFFSET",
# "Content-Transfer-Encoding": "BINARY",
# "X-Binary-Size": "10166596",
# "X-Binary-ID": "1",
# "X-Binary-Element-Type": "signed 32-bit integer",
# "X-Binary-Element-Byte-Order": "LITTLE_ENDIAN",
# "Content-MD5": "ixtkblq4lfZ5QpDiOP0bUg==",
# "X-Binary-Number-of-Elements": "10166590",
# "X-Binary-Size-Fastest-Dimension": "3110",
# "X-Binary-Size-Second-Dimension": "3269",
# "X-Binary-Size-Padding": "4095"
# }
# --> H:/Proxima2a_2019-04-05/RAW_DATA/C5_gel17_position5/C5_mesh_1_data.cbf/C5_mesh_1_data.cbf000016.dat
#        q_A^-1              I           sigma 
  1.105228e-03    1.045594e+00   5.533100e-01
  3.315685e-03    1.090628e+00   3.435451e-01
  5.526141e-03    1.256938e+00   2.851865e-01
  7.736597e-03    1.347308e+00   2.494328e-01
  9.947054e-03    1.396255e+00   2.238509e-01
  1.215751e-02    1.306068e+00   1.957725e-01
  1.436797e-02    1.402353e+00   1.865969e-01
  1.657842e-02    1.524766e+00   1.811115e-01
  1.878888e-02    1.399138e+00   1.629648e-01
  2.099934e-02    1.494479e+00   1.593481e-01
  2.320979e-02    1.433572e+00   1.484371e-01
  2.542025e-02    1.386808e+00   1.395140e-01
  2.763070e-02    1.399803e+00   1.344386e-01
  2.984116e-02    1.556008e+00   1.363900e-01
  3.205162e-02    1.575345e+00   1.324262e-01
  3.426207e-02    1.635927e+00   1.305139e-01
  3.647253e-02    1.581293e+00   1.243644e-01
  3.868299e-02    1.401659e+00   1.137017e-01
  4.089344e-02    1.551651e+00   1.163530e-01
  4.310390e-02    1.461873e+00   1.099965e-01
  4.531436e-02    1.394589e+00   1.047825e-01
  4.752481e-02    1.237150e+00   9.636741e-02
  4.973527e-02    1.475341e+00   1.028722e-01
  5.194572e-02    1.379256e+00   9.732523e-02
  5.415618e-02    1.402069e+00   9.610001e-02
  5.636664e-02    1.401632e+00   9.418510e-02
  5.857709e-02    1.397879e+00   9.226763e-02
  6.078755e-02    1.399440e+00   9.062218e-02
  6.299801e-02    1.475661e+00   9.140915e-02
  6.520846e-02    1.433614e+00   8.855781e-02
  6.741892e-02    1.452091e+00   8.764894e-02
  6.962938e-02    1.579862e+00   8.996549e-02
  7.183983e-02    1.683128e+00   9.141778e-02
  7.405029e-02    1.497873e+00   8.494131e-02
  7.626074e-02    1.470852e+00   8.294206e-02
  7.847120e-02    1.468241e+00   8.169071e-02
  8.068166e-02    1.477389e+00   8.081385e-02
  8.289211e-02    1.549124e+00   8.164128e-02
  8.510257e-02    1.417393e+00   7.707165e-02
  8.731303e-02    1.488785e+00   7.797953e-02
  8.952348e-02    1.616235e+00   8.024165e-02
  9.173394e-02    1.528343e+00   7.708047e-02
  9.394439e-02    1.461159e+00   7.447286e-02
  9.615485e-02    1.399343e+00   7.203636e-02
  9.836531e-02    1.470049e+00   7.299755e-02
  1.005758e-01    1.583292e+00   7.492036e-02
  1.027862e-01    1.620952e+00   7.498475e-02
  1.049967e-01    1.576708e+00   7.317042e-02
  1.072071e-01    1.535534e+00   7.145959e-02
  1.094176e-01    1.501897e+00   6.995399e-02
  1.116280e-01    1.546778e+00   7.028355e-02
  1.138385e-01    1.570443e+00   7.012687e-02
  1.160490e-01    1.539740e+00   6.877264e-02
  1.182594e-01    1.636671e+00   7.023701e-02
  1.204699e-01    1.607693e+00   6.897032e-02
  1.226803e-01    1.578862e+00   6.772773e-02
  1.248908e-01    1.602825e+00   6.763235e-02
  1.271012e-01    1.599714e+00   6.697527e-02
  1.293117e-01    1.608474e+00   6.658108e-02
  1.315222e-01    1.593756e+00   6.571493e-02
  1.337326e-01    1.596254e+00   6.521937e-02
  1.359431e-01    1.658837e+00   6.652451e-02
  1.381535e-01    1.600705e+00   6.622566e-02
  1.403640e-01    1.580491e+00   6.609030e-02
  1.425744e-01    1.572002e+00   6.601787e-02
  1.447849e-01    1.561653e+00   6.581533e-02
  1.469953e-01    1.585232e+00   6.626883e-02
  1.492058e-01    1.597381e+00   6.644495e-02
  1.514163e-01    1.655100e+00   6.752245e-02
  1.536267e-01    1.641837e+00   6.712008e-02
  1.558372e-01    1.670271e+00   6.754930e-02
  1.580476e-01    1.764177e+00   6.925377e-02
  1.602581e-01    1.752857e+00   6.885592e-02
  1.624685e-01    1.696359e+00   6.755169e-02
  1.646790e-01    1.719702e+00   6.781956e-02
  1.668895e-01    1.781664e+00   6.883119e-02
  1.690999e-01    1.755235e+00   6.811360e-02
  1.713104e-01    1.793548e+00   6.863932e-02
  1.735208e-01    1.751234e+00   6.761388e-02
  1.757313e-01    1.824639e+00   6.880010e-02
  1.779417e-01    1.832657e+00   6.872623e-02
  1.801522e-01    1.928452e+00   7.027499e-02
  1.823626e-01    1.934978e+00   7.015947e-02
  1.845731e-01    1.979662e+00   7.073505e-02
  1.867836e-01    1.957323e+00   7.009745e-02
  1.889940e-01    1.954347e+00   6.981526e-02
  1.912045e-01    1.945157e+00   6.941833e-02
  1.934149e-01    1.915815e+00   6.866221e-02
  1.956254e-01    1.969501e+00   6.938796e-02
  1.978358e-01    2.049300e+00   7.053719e-02
  2.000463e-01    2.079692e+00   7.082283e-02
  2.022568e-01    2.031545e+00   6.976847e-02
  2.044672e-01    2.001343e+00   6.901068e-02
  2.066777e-01    2.042283e+00   6.948158e-02
  2.088881e-01    2.048356e+00   6.935713e-02
  2.110986e-01    1.988945e+00   6.810959e-02
  2.133090e-01    1.939985e+00   6.704736e-02
  2.155195e-01    1.965159e+00   6.725715e-02
  2.177300e-01    2.023738e+00   6.771600e-02
  2.199404e-01    1.973484e+00   6.510796e-02
  2.221509e-01    1.986433e+00   6.424859e-02
  2.243613e-01    1.951578e+00   6.287511e-02
  2.265718e-01    2.062279e+00   6.392135e-02
  2.287822e-01    2.083105e+00   6.360746e-02
  2.309927e-01    2.118279e+00   6.355787e-02
  2.332031e-01    2.236383e+00   6.474675e-02
  2.354136e-01    2.228925e+00   6.411481e-02
  2.376241e-01    2.185992e+00   6.300151e-02
  2.398345e-01    2.135578e+00   6.180992e-02
  2.420450e-01    2.156510e+00   6.166821e-02
  2.442554e-01    2.182001e+00   6.160425e-02
  2.464659e-01    2.210951e+00   6.159524e-02
  2.486763e-01    2.183049e+00   6.080303e-02
  2.508868e-01    2.103442e+00   5.930763e-02
  2.530973e-01    2.105549e+00   5.896942e-02
  2.553077e-01    2.170324e+00   5.950646e-02
  2.575182e-01    2.118210e+00   5.843987e-02
  2.597286e-01    1.988031e+00   5.628653e-02
  2.619391e-01    2.058007e+00   5.693883e-02
  2.641495e-01    2.102798e+00   5.723658e-02
  2.663600e-01    2.057917e+00   5.631110e-02
  2.685704e-01    2.042823e+00   5.580007e-02
  2.707809e-01    2.057777e+00   5.570669e-02
  2.729914e-01    2.028215e+00   5.501688e-02
  2.752018e-01    1.966463e+00   5.389090e-02
  2.774123e-01    2.006596e+00   5.415997e-02
  2.796227e-01    2.065588e+00   5.467851e-02
  2.818332e-01    1.999260e+00   5.352514e-02
  2.840436e-01    1.937878e+00   5.244157e-02
  2.862541e-01    1.987006e+00   5.284690e-02
  2.884646e-01    1.984382e+00   5.256136e-02
  2.906750e-01    2.056444e+00   5.325351e-02
  2.928855e-01    2.036267e+00   5.274609e-02
  2.950959e-01    2.003438e+00   5.207883e-02
  2.973064e-01    1.967753e+00   5.138097e-02
  2.995168e-01    1.953208e+00   5.095888e-02
  3.017273e-01    1.961277e+00   5.083889e-02
  3.039377e-01    2.067558e+00   5.196963e-02
  3.061482e-01    2.010735e+00   5.102880e-02
  3.083587e-01    1.985167e+00   5.048388e-02
  3.105691e-01    1.929236e+00   4.955503e-02
  3.127796e-01    2.003317e+00   5.028521e-02
  3.149900e-01    1.895275e+00   4.870666e-02
  3.172005e-01    1.955255e+00   4.926906e-02
  3.194109e-01    1.953959e+00   4.904941e-02
  3.216214e-01    1.913431e+00   4.834002e-02
  3.238319e-01    1.900704e+00   4.798810e-02
  3.260423e-01    1.902001e+00   4.781325e-02
  3.282528e-01    1.946742e+00   4.817978e-02
  3.304632e-01    1.888446e+00   4.726909e-02
  3.326737e-01    1.920903e+00   4.748755e-02
  3.348841e-01    1.884826e+00   4.685711e-02
  3.370946e-01    1.854056e+00   4.629818e-02
  3.393050e-01    1.846668e+00   4.603084e-02
  3.415155e-01    1.860297e+00   4.602665e-02
  3.437260e-01    1.824895e+00   4.541766e-02
  3.459364e-01    1.851585e+00   4.557933e-02
  3.481469e-01    1.811098e+00   4.491372e-02
  3.503573e-01    1.860017e+00   4.535044e-02
  3.525678e-01    1.848507e+00   4.504880e-02
  3.547782e-01    1.829279e+00   4.465191e-02
  3.569887e-01    1.823335e+00   4.442136e-02
  3.591992e-01    1.765077e+00   4.355128e-02
  3.614096e-01    1.771766e+00   4.348244e-02
  3.636201e-01    1.799695e+00   4.366980e-02
  3.658305e-01    1.852182e+00   4.415092e-02
  3.680410e-01    1.827605e+00   4.370619e-02
  3.702514e-01    1.811811e+00   4.337058e-02
  3.724619e-01    1.763062e+00   4.263743e-02
  3.746724e-01    1.783839e+00   4.274482e-02
  3.768828e-01    1.849123e+00   4.337354e-02
  3.790933e-01    1.871877e+00   4.349737e-02
  3.813037e-01    1.854735e+00   4.315609e-02
  3.835142e-01    1.811218e+00   4.250674e-02
  3.857246e-01    1.816086e+00   4.242608e-02
  3.879351e-01    1.792638e+00   4.201486e-02
  3.901455e-01    1.875605e+00   4.283930e-02
  3.923560e-01    1.856294e+00   4.248276e-02
  3.945665e-01    1.824782e+00   4.198708e-02
  3.967769e-01    1.730423e+00   4.075904e-02
  3.989874e-01    1.771897e+00   4.111579e-02
  4.011978e-01    1.840645e+00   4.177697e-02
  4.034083e-01    1.820752e+00   4.142304e-02
  4.056187e-01    1.833507e+00   4.143983e-02
  4.078292e-01    1.800481e+00   4.094065e-02
  4.100397e-01    1.766877e+00   4.043296e-02
  4.122501e-01    1.795141e+00   4.063315e-02
  4.144606e-01    1.783049e+00   4.037597e-02
  4.166710e-01    1.829502e+00   4.077692e-02
  4.188815e-01    1.878025e+00   4.119210e-02
  4.210919e-01    1.878258e+00   4.107395e-02
  4.233024e-01    1.841552e+00   4.055097e-02
  4.255128e-01    1.836213e+00   4.037512e-02
  4.277233e-01    1.810234e+00   3.997329e-02
  4.299338e-01    1.792899e+00   3.966699e-02
  4.321442e-01    1.782383e+00   3.943728e-02
  4.343547e-01    1.729161e+00   3.873422e-02
  4.365651e-01    1.759435e+00   3.896077e-02
  4.387756e-01    1.767753e+00   3.894342e-02
  4.409860e-01    1.788741e+00   3.906539e-02
  4.431965e-01    1.778363e+00   3.884421e-02
  4.454070e-01    1.774929e+00   3.869871e-02
  4.476174e-01    1.797303e+00   3.883494e-02
  4.498279e-01    1.775549e+00   3.849418e-02
  4.520383e-01    1.741715e+00   3.802104e-02
  4.542488e-01    1.775126e+00   3.828045e-02
  4.564592e-01    1.773560e+00   3.816094e-02
  4.586697e-01    1.705417e+00   3.732132e-02
  4.608801e-01    1.734891e+00   3.754161e-02
  4.630906e-01    1.687199e+00   3.692399e-02
  4.653011e-01    1.709195e+00   3.706615e-02
  4.675115e-01    1.752665e+00   3.743571e-02
  4.697220e-01    1.731831e+00   3.711512e-02
  4.719324e-01    1.751979e+00   3.723380e-02
  4.741429e-01    1.762119e+00   3.724520e-02
  4.763533e-01    1.750157e+00   3.702342e-02
  4.785638e-01    1.763115e+00   3.706422e-02
  4.807743e-01    1.724407e+00   3.656190e-02
  4.829847e-01    1.685835e+00   3.605933e-02
  4.851952e-01    1.663759e+00   3.573181e-02
  4.874056e-01    1.666294e+00   3.566885e-02
  4.896161e-01    1.689213e+00   3.582427e-02
  4.918265e-01    1.669205e+00   3.552303e-02
  4.940370e-01    1.700246e+00   3.576329e-02
  4.962475e-01    1.655872e+00   3.520637e-02
  4.984579e-01    1.657248e+00   3.513417e-02
  5.006684e-01    1.686607e+00   3.535760e-02
  5.028788e-01    1.722703e+00   3.564737e-02
  5.050893e-01    1.692613e+00   3.524876e-02
  5.072997e-01    1.705284e+00   3.529497e-02
  5.095102e-01    1.703855e+00   3.519570e-02
  5.117206e-01    1.712071e+00   3.519656e-02
  5.139311e-01    1.705855e+00   3.504946e-02
  5.161416e-01    1.685144e+00   3.475372e-02
  5.183520e-01    1.689091e+00   3.471170e-02
  5.205625e-01    1.743238e+00   3.518108e-02
  5.227729e-01    1.681197e+00   3.446880e-02
  5.249834e-01    1.700030e+00   3.458084e-02
  5.271938e-01    1.724607e+00   3.474865e-02
  5.294043e-01    1.744475e+00   3.486757e-02
  5.316148e-01    1.813333e+00   3.546764e-02
  5.338252e-01    1.820543e+00   3.545687e-02
  5.360357e-01    1.814601e+00   3.531837e-02
  5.382461e-01    1.840784e+00   3.549187e-02
  5.404566e-01    1.772810e+00   3.475112e-02
  5.426670e-01    1.790092e+00   3.484141e-02
  5.448775e-01    1.769868e+00   3.456664e-02
  5.470879e-01    1.806516e+00   3.484480e-02
  5.492984e-01    1.772243e+00   3.443595e-02
  5.515089e-01    1.802031e+00   3.464712e-02
  5.537193e-01    1.820152e+00   3.474419e-02
  5.559298e-01    1.762702e+00   3.411648e-02
  5.581402e-01    1.736484e+00   3.378782e-02
  5.603507e-01    1.754908e+00   3.389265e-02
  5.625611e-01    1.778540e+00   3.404606e-02
  5.647716e-01    1.779205e+00   3.397848e-02
  5.669821e-01    1.814143e+00   3.423652e-02
  5.691925e-01    1.792817e+00   3.396163e-02
  5.714030e-01    1.826789e+00   3.420879e-02
  5.736134e-01    1.789225e+00   3.378326e-02
  5.758239e-01    1.742569e+00   3.326872e-02
  5.780343e-01    1.700786e+00   3.279791e-02
  5.802448e-01    1.710442e+00   3.282203e-02
  5.824552e-01    1.695422e+00   3.260904e-02
  5.846657e-01    1.673230e+00   3.232739e-02
  5.868762e-01    1.662763e+00   3.215902e-02
  5.890866e-01    1.641101e+00   3.188257e-02
  5.912971e-01    1.694818e+00   3.233308e-02
  5.935075e-01    1.659825e+00   3.193143e-02
  5.957180e-01    1.639344e+00   3.166870e-02
  5.979284e-01    1.674361e+00   3.193979e-02
  6.001389e-01    1.674789e+00   3.187884e-02
  6.023494e-01    1.641654e+00   3.149784e-02
  6.045598e-01    1.667170e+00   3.167702e-02
  6.067703e-01    1.690039e+00   3.182943e-02
  6.089807e-01    1.676013e+00   3.163334e-02
  6.111912e-01    1.663065e+00   3.144798e-02
  6.134016e-01    1.687617e+00   3.161609e-02
  6.156121e-01    1.697942e+00   3.164962e-02
  6.178226e-01    1.713315e+00   3.172962e-02
  6.200330e-01    1.741071e+00   3.192252e-02
  6.222435e-01    1.736910e+00   3.182118e-02
  6.244539e-01    1.757708e+00   3.194846e-02
  6.266644e-01    1.756447e+00   3.187470e-02
  6.288748e-01    1.736015e+00   3.162708e-02
  6.310853e-01    1.743429e+00   3.163300e-02
  6.332957e-01    1.773253e+00   3.184084e-02
  6.355062e-01    1.738970e+00   3.147029e-02
  6.377167e-01    1.705507e+00   3.110622e-02
  6.399271e-01    1.692797e+00   3.093071e-02
  6.421376e-01    1.746115e+00   3.135408e-02
  6.443480e-01    1.703016e+00   3.090583e-02
  6.465585e-01    1.705108e+00   3.086621e-02
  6.487689e-01    1.682667e+00   3.060452e-02
  6.509794e-01    1.706513e+00   3.076247e-02
  6.531899e-01    1.678776e+00   3.045410e-02
  6.554003e-01    1.601682e+00   2.969068e-02
  6.576108e-01    1.625147e+00   2.985166e-02
  6.598212e-01    1.635210e+00   2.988833e-02
  6.620317e-01    1.613050e+00   2.963010e-02
  6.642421e-01    1.626024e+00   2.969396e-02
  6.664526e-01    1.650002e+00   2.985700e-02
  6.686630e-01    1.638414e+00   2.969697e-02
  6.708735e-01    1.621440e+00   2.948855e-02
  6.730840e-01    1.589370e+00   2.914224e-02
  6.752944e-01    1.616194e+00   2.933368e-02
  6.775049e-01    1.640160e+00   2.949672e-02
  6.797153e-01    1.628416e+00   2.933769e-02
  6.819258e-01    1.643921e+00   2.942389e-02
  6.841362e-01    1.615523e+00   2.911618e-02
  6.863467e-01    1.599324e+00   2.891794e-02
  6.885572e-01    1.600706e+00   2.887861e-02
  6.907676e-01    1.557912e+00   2.843890e-02
  6.929781e-01    1.590848e+00   2.868687e-02
  6.951885e-01    1.612005e+00   2.882584e-02
  6.973990e-01    1.630931e+00   2.894330e-02
  6.996094e-01    1.592250e+00   2.854772e-02
  7.018199e-01    1.628627e+00   2.882128e-02
  7.040303e-01    1.644915e+00   2.891418e-02
  7.062408e-01    1.637411e+00   2.879764e-02
  7.084513e-01    1.619273e+00   2.858786e-02
  7.106617e-01    1.668522e+00   2.896892e-02
  7.128722e-01    1.592886e+00   2.825576e-02
  7.150826e-01    1.566407e+00   2.797161e-02
  7.172931e-01    1.562361e+00   2.788732e-02
  7.195035e-01    1.551795e+00   2.774506e-02
  7.217140e-01    1.580011e+00   2.804571e-02
  7.239245e-01    1.589745e+00   2.835978e-02
  7.261349e-01    1.587454e+00   2.844841e-02
  7.283454e-01    1.571727e+00   2.837946e-02
  7.305558e-01    1.537959e+00   2.812630e-02
  7.327663e-01    1.588534e+00   2.862770e-02
  7.349767e-01    1.612737e+00   2.886155e-02
  7.371872e-01    1.566049e+00   2.842955e-02
  7.393976e-01    1.589856e+00   2.863050e-02
  7.416081e-01    1.573220e+00   2.846416e-02
  7.438186e-01    1.549344e+00   2.810418e-02
  7.460290e-01    1.569087e+00   2.798895e-02
  7.482395e-01    1.562967e+00   2.776378e-02
  7.504499e-01    1.556082e+00   2.756711e-02
  7.526604e-01    1.577185e+00   2.763676e-02
  7.548708e-01    1.581670e+00   2.758640e-02
  7.570813e-01    1.593422e+00   2.763743e-02
  7.592918e-01    1.563592e+00   2.734245e-02
  7.615022e-01    1.629280e+00   2.787649e-02
  7.637127e-01    1.641843e+00   2.795031e-02
  7.659231e-01    1.605603e+00   2.760780e-02
  7.681336e-01    1.610007e+00   2.761368e-02
  7.703440e-01    1.633662e+00   2.778398e-02
  7.725545e-01    1.620777e+00   2.764288e-02
  7.747650e-01    1.650499e+00   2.785608e-02
  7.769754e-01    1.565637e+00   2.707797e-02
  7.791859e-01    1.568903e+00   2.705282e-02
  7.813963e-01    1.570891e+00   2.701748e-02
  7.836068e-01    1.608584e+00   2.728732e-02
  7.858172e-01    1.577558e+00   2.697236e-02
  7.880277e-01    1.589356e+00   2.702153e-02
  7.902381e-01    1.594673e+00   2.701751e-02
  7.924486e-01    1.592820e+00   2.695179e-02
  7.946591e-01    1.607056e+00   2.702357e-02
  7.968695e-01    1.623817e+00   2.711552e-02
  7.990800e-01    1.642971e+00   2.722622e-02
  8.012904e-01    1.656441e+00   2.729033e-02
  8.035009e-01    1.641272e+00   2.711675e-02
  8.057113e-01    1.642214e+00   2.707763e-02
  8.079218e-01    1.620805e+00   2.685412e-02
  8.101323e-01    1.655931e+00   2.709746e-02
  8.123427e-01    1.674710e+00   2.720422e-02
  8.145532e-01    1.654064e+00   2.698975e-02
  8.167636e-01    1.634537e+00   2.678485e-02
  8.189741e-01    1.686812e+00   2.716441e-02
  8.211845e-01    1.653922e+00   2.685325e-02
  8.233950e-01    1.601614e+00   2.638217e-02
  8.256054e-01    1.641944e+00   2.666803e-02
  8.278159e-01    1.666600e+00   2.682314e-02
  8.300264e-01    1.681762e+00   2.690124e-02
  8.322368e-01    1.639681e+00   2.651941e-02
  8.344473e-01    1.634159e+00   2.643140e-02
  8.366577e-01    1.663223e+00   2.662251e-02
  8.388682e-01    1.666202e+00   2.660376e-02
  8.410786e-01    1.639200e+00   2.634525e-02
  8.432891e-01    1.659560e+00   2.646624e-02
  8.454996e-01    1.684521e+00   2.662234e-02
  8.477100e-01    1.699597e+00   2.669876e-02
  8.499205e-01    1.675739e+00   2.646910e-02
  8.521309e-01    1.625169e+00   2.602598e-02
  8.543414e-01    1.657579e+00   2.624319e-02
  8.565518e-01    1.667957e+00   2.628426e-02
  8.587623e-01    1.645571e+00   2.606662e-02
  8.609727e-01    1.645489e+00   2.602557e-02
  8.631832e-01    1.633921e+00   2.589391e-02
  8.653937e-01    1.647482e+00   2.596121e-02
  8.676041e-01    1.624531e+00   2.574084e-02
  8.698146e-01    1.648867e+00   2.589329e-02
  8.720250e-01    1.632695e+00   2.572673e-02
  8.742355e-01    1.624646e+00   2.562417e-02
  8.764459e-01    1.605704e+00   2.543550e-02
  8.786564e-01    1.633209e+00   2.561416e-02
  8.808669e-01    1.606841e+00   2.536805e-02
  8.830773e-01    1.605931e+00   2.532267e-02
  8.852878e-01    1.636997e+00   2.552811e-02
  8.874982e-01    1.587895e+00   2.510584e-02
  8.897087e-01    1.593889e+00   2.511558e-02
  8.919191e-01    1.584411e+00   2.500323e-02
  8.941296e-01    1.602566e+00   2.510875e-02
  8.963401e-01    1.599690e+00   2.504981e-02
  8.985505e-01    1.603696e+00   2.504414e-02
  9.007610e-01    1.609870e+00   2.505544e-02
  9.029714e-01    1.632120e+00   2.519180e-02
  9.051819e-01    1.638782e+00   2.520549e-02
  9.073923e-01    1.642096e+00   2.519392e-02
  9.096028e-01    1.635987e+00   2.511171e-02
  9.118132e-01    1.641983e+00   2.512098e-02
  9.140237e-01    1.623597e+00   2.494307e-02
  9.162342e-01    1.601161e+00   2.473554e-02
  9.184446e-01    1.612703e+00   2.478863e-02
  9.206551e-01    1.615823e+00   2.477684e-02
  9.228655e-01    1.576400e+00   2.443773e-02
  9.250760e-01    1.606267e+00   2.463274e-02
  9.272864e-01    1.621531e+00   2.471506e-02
  9.294969e-01    1.609012e+00   2.458358e-02
  9.317074e-01    1.633145e+00   2.473224e-02
  9.339178e-01    1.635717e+00   2.471792e-02
  9.361283e-01    1.634434e+00   2.467178e-02
  9.383387e-01    1.684486e+00   2.501264e-02
  9.405492e-01    1.669855e+00   2.486901e-02
  9.427596e-01    1.646770e+00   2.466096e-02
  9.449701e-01    1.655643e+00   2.469370e-02
  9.471805e-01    1.668137e+00   2.475160e-02
  9.493910e-01    1.703326e+00   2.497695e-02
  9.516015e-01    1.724923e+00   2.509973e-02
  9.538119e-01    1.751515e+00   2.525780e-02
  9.560224e-01    1.730694e+00   2.507189e-02
  9.582328e-01    1.724535e+00   2.499367e-02
  9.604433e-01    1.745121e+00   2.510678e-02
  9.626537e-01    1.785635e+00   2.536240e-02
  9.648642e-01    1.788210e+00   2.534593e-02
  9.670747e-01    1.821916e+00   2.554838e-02
  9.692851e-01    1.855696e+00   2.574989e-02
  9.714956e-01    1.855529e+00   2.571242e-02
  9.737060e-01    1.884586e+00   2.587893e-02
  9.759165e-01    1.896942e+00   2.592700e-02
  9.781269e-01    1.856650e+00   2.561666e-02
  9.803374e-01    1.808803e+00   2.524941e-02
  9.825478e-01    1.858569e+00   2.556065e-02
  9.847583e-01    1.810013e+00   2.519031e-02
  9.869688e-01    1.798325e+00   2.507522e-02
  9.891792e-01    1.788858e+00   2.497589e-02
  9.913897e-01    1.798593e+00   2.500996e-02
  9.936001e-01    1.768939e+00   2.477047e-02
  9.958106e-01    1.743037e+00   2.455504e-02
  9.980210e-01    1.692327e+00   2.416380e-02
  1.000231e+00    1.647196e+00   2.397003e-02
  1.002442e+00    1.625884e+00   2.394097e-02
  1.004652e+00    1.630203e+00   2.403963e-02
  1.006863e+00    1.627172e+00   2.406712e-02
  1.009073e+00    1.648361e+00   2.426036e-02
  1.011284e+00    1.637006e+00   2.420903e-02
  1.013494e+00    1.581581e+00   2.381923e-02
  1.015705e+00    1.595591e+00   2.394713e-02
  1.017915e+00    1.586152e+00   2.389262e-02
  1.020126e+00    1.588089e+00   2.392339e-02
  1.022336e+00    1.551229e+00   2.365576e-02
  1.024547e+00    1.540733e+00   2.358678e-02
  1.026757e+00    1.539551e+00   2.358607e-02
  1.028967e+00    1.537949e+00   2.358147e-02
  1.031178e+00    1.549167e+00   2.367349e-02
  1.033388e+00    1.623931e+00   2.424320e-02
  1.035599e+00    1.647237e+00   2.442016e-02
  1.037809e+00    1.566513e+00   2.381755e-02
  1.040020e+00    1.563292e+00   2.379435e-02
  1.042230e+00    1.590360e+00   2.400141e-02
  1.044441e+00    1.639913e+00   2.437226e-02
  1.046651e+00    1.622151e+00   2.424011e-02
  1.048862e+00    1.614267e+00   2.418027e-02
  1.051072e+00    1.760056e+00   2.524598e-02
  1.053282e+00    1.931934e+00   2.644894e-02
  1.055493e+00    1.889168e+00   2.614976e-02
  1.057703e+00    1.725907e+00   2.499269e-02
  1.059914e+00    1.638283e+00   2.434549e-02
  1.062124e+00    1.646601e+00   2.440293e-02
  1.064335e+00    1.710539e+00   2.486850e-02
  1.066545e+00    1.759322e+00   2.521411e-02
  1.068756e+00    1.711462e+00   2.486481e-02
  1.070966e+00    1.658105e+00   2.446720e-02
  1.073177e+00    1.590899e+00   2.395994e-02
  1.075387e+00    1.540773e+00   2.357408e-02
  1.077597e+00    1.521130e+00   2.341595e-02
  1.079808e+00    1.480707e+00   2.296925e-02
  1.082018e+00    1.442245e+00   2.248122e-02
  1.084229e+00    1.440928e+00   2.236164e-02
  1.086439e+00    1.440447e+00   2.227092e-02
  1.088650e+00    1.438577e+00   2.218121e-02
  1.090860e+00    1.427070e+00   2.202532e-02
  1.093071e+00    1.450978e+00   2.214686e-02
  1.095281e+00    1.451161e+00   2.209091e-02
  1.097492e+00    1.405790e+00   2.168867e-02
  1.099702e+00    1.416855e+00   2.172288e-02
  1.101912e+00    1.427382e+00   2.175480e-02
  1.104123e+00    1.400848e+00   2.150400e-02
  1.106333e+00    1.433193e+00   2.170641e-02
  1.108544e+00    1.460207e+00   2.186532e-02
  1.110754e+00    1.456094e+00   2.179102e-02
  1.112965e+00    1.452233e+00   2.172118e-02
  1.115175e+00    1.407486e+00   2.134291e-02
  1.117386e+00    1.370828e+00   2.102449e-02
  1.119596e+00    1.380342e+00   2.105987e-02
  1.121807e+00    1.405312e+00   2.121075e-02
  1.124017e+00    1.413444e+00   2.123529e-02
  1.126228e+00    1.432047e+00   2.133849e-02
  1.128438e+00    1.387055e+00   2.096404e-02
  1.130648e+00    1.376782e+00   2.085220e-02
  1.132859e+00    1.374377e+00   2.079989e-02
  1.135069e+00    1.379238e+00   2.080208e-02
  1.137280e+00    1.409388e+00   2.099498e-02
  1.139490e+00    1.387877e+00   2.080111e-02
  1.141701e+00    1.395345e+00   2.082373e-02
  1.143911e+00    1.366947e+00   2.057908e-02
  1.146122e+00    1.360709e+00   2.050028e-02
  1.148332e+00    1.363793e+00   2.049181e-02
  1.150543e+00    1.324792e+00   2.016643e-02
  1.152753e+00    1.369948e+00   2.047645e-02
  1.154963e+00    1.387913e+00   2.057910e-02
  1.157174e+00    1.362696e+00   2.036125e-02
  1.159384e+00    1.360320e+00   2.031376e-02
  1.161595e+00    1.362736e+00   2.030202e-02
  1.163805e+00    1.387342e+00   2.045503e-02
  1.166016e+00    1.385591e+00   2.041251e-02
  1.168226e+00    1.395643e+00   2.045714e-02
  1.170437e+00    1.367101e+00   2.021826e-02
  1.172647e+00    1.391558e+00   2.036911e-02
  1.174858e+00    1.409988e+00   2.047502e-02
  1.177068e+00    1.380245e+00   2.022946e-02
  1.179278e+00    1.402761e+00   2.036480e-02
  1.181489e+00    1.406070e+00   2.036132e-02
  1.183699e+00    1.389842e+00   2.021561e-02
  1.185910e+00    1.357365e+00   1.995027e-02
  1.188120e+00    1.361737e+00   1.995560e-02
  1.190331e+00    1.374204e+00   2.001983e-02
  1.192541e+00    1.344884e+00   1.977781e-02
  1.194752e+00    1.339201e+00   1.970905e-02
  1.196962e+00    1.359491e+00   1.983200e-02
  1.199173e+00    1.357886e+00   1.979370e-02
  1.201383e+00    1.375665e+00   1.989544e-02
  1.203593e+00    1.367603e+00   1.981210e-02
  1.205804e+00    1.356583e+00   1.970611e-02
  1.208014e+00    1.354832e+00   1.966651e-02
  1.210225e+00    1.368786e+00   1.974201e-02
  1.212435e+00    1.346514e+00   1.955600e-02
  1.214646e+00    1.355018e+00   1.959147e-02
  1.216856e+00    1.361307e+00   1.961132e-02
  1.219067e+00    1.341058e+00   1.944053e-02
  1.221277e+00    1.346551e+00   1.945530e-02
  1.223488e+00    1.351129e+00   1.946260e-02
  1.225698e+00    1.332677e+00   1.930251e-02
  1.227909e+00    1.342695e+00   1.934483e-02
  1.230119e+00    1.340686e+00   1.929861e-02
  1.232329e+00    1.346992e+00   1.931327e-02
  1.234540e+00    1.338444e+00   1.922173e-02
  1.236750e+00    1.343779e+00   1.922980e-02
  1.238961e+00    1.315353e+00   1.899871e-02
  1.241171e+00    1.335599e+00   1.912029e-02
  1.243382e+00    1.343305e+00   1.915194e-02
  1.245592e+00    1.333138e+00   1.905536e-02
  1.247803e+00    1.325340e+00   1.897613e-02
  1.250013e+00    1.308453e+00   1.883166e-02
  1.252224e+00    1.340232e+00   1.903580e-02
  1.254434e+00    1.352181e+00   1.909672e-02
  1.256644e+00    1.320516e+00   1.884885e-02
  1.258855e+00    1.319736e+00   1.882026e-02
  1.261065e+00    1.356781e+00   1.905914e-02
  1.263276e+00    1.357826e+00   1.904349e-02
  1.265486e+00    1.343804e+00   1.892208e-02
  1.267697e+00    1.341416e+00   1.888230e-02
  1.269907e+00    1.350767e+00   1.892531e-02
  1.272118e+00    1.345123e+00   1.886320e-02
  1.274328e+00    1.336673e+00   1.878122e-02
  1.276539e+00    1.360515e+00   1.892510e-02
  1.278749e+00    1.366343e+00   1.894318e-02
  1.280959e+00    1.352923e+00   1.882737e-02
  1.283170e+00    1.345300e+00   1.875185e-02
  1.285380e+00    1.362396e+00   1.884808e-02
  1.287591e+00    1.358974e+00   1.880228e-02
  1.289801e+00    1.361732e+00   1.880006e-02
  1.292012e+00    1.347588e+00   1.868506e-02
  1.294222e+00    1.384372e+00   1.892192e-02
  1.296433e+00    1.353519e+00   1.869428e-02
  1.298643e+00    1.351398e+00   1.866313e-02
  1.300854e+00    1.359554e+00   1.870289e-02
  1.303064e+00    1.352643e+00   1.863605e-02
  1.305274e+00    1.350163e+00   1.859752e-02
  1.307485e+00    1.342079e+00   1.852028e-02
  1.309695e+00    1.382755e+00   1.877631e-02
  1.311906e+00    1.391006e+00   1.881026e-02
  1.314116e+00    1.345720e+00   1.848075e-02
  1.316327e+00    1.348459e+00   1.847786e-02
  1.318537e+00    1.352887e+00   1.848627e-02
  1.320748e+00    1.372720e+00   1.859954e-02
  1.322958e+00    1.385630e+00   1.866603e-02
  1.325169e+00    1.366062e+00   1.851259e-02
  1.327379e+00    1.384276e+00   1.861353e-02
  1.329589e+00    1.385202e+00   1.859842e-02
  1.331800e+00    1.365274e+00   1.844332e-02
  1.334010e+00    1.354249e+00   1.834804e-02
  1.336221e+00    1.351790e+00   1.830958e-02
  1.338431e+00    1.371177e+00   1.841940e-02
  1.340642e+00    1.361241e+00   1.841697e-02
  1.342852e+00    1.392021e+00   1.872625e-02
  1.345063e+00    1.364228e+00   1.858812e-02
  1.347273e+00    1.331423e+00   1.839826e-02
  1.349484e+00    1.336658e+00   1.846192e-02
  1.351694e+00    1.354778e+00   1.860939e-02
  1.353905e+00    1.342856e+00   1.854529e-02
  1.356115e+00    1.348377e+00   1.859839e-02
  1.358325e+00    1.345960e+00   1.859503e-02
  1.360536e+00    1.355254e+00   1.867076e-02
  1.362746e+00    1.325699e+00   1.847554e-02
  1.364957e+00    1.341015e+00   1.858959e-02
  1.367167e+00    1.335920e+00   1.856138e-02
  1.369378e+00    1.320515e+00   1.846000e-02
  1.371588e+00    1.302990e+00   1.834216e-02
  1.373799e+00    1.300464e+00   1.832798e-02
  1.376009e+00    1.316215e+00   1.844200e-02
  1.378220e+00    1.335483e+00   1.857902e-02
  1.380430e+00    1.309683e+00   1.840140e-02
  1.382640e+00    1.305458e+00   1.837256e-02
  1.384851e+00    1.317412e+00   1.845737e-02
  1.387061e+00    1.316723e+00   1.845284e-02
  1.389272e+00    1.305191e+00   1.837205e-02
  1.391482e+00    1.325877e+00   1.851641e-02
  1.393693e+00    1.293001e+00   1.828454e-02
  1.395903e+00    1.282418e+00   1.820805e-02
  1.398114e+00    1.286211e+00   1.823357e-02
  1.400324e+00    1.293797e+00   1.828512e-02
  1.402535e+00    1.300825e+00   1.833238e-02
  1.404745e+00    1.287523e+00   1.823604e-02
  1.406955e+00    1.274991e+00   1.814436e-02
  1.409166e+00    1.285640e+00   1.821666e-02
  1.411376e+00    1.282090e+00   1.818835e-02
  1.413587e+00    1.281558e+00   1.818077e-02
  1.415797e+00    1.263557e+00   1.804909e-02
  1.418008e+00    1.266040e+00   1.802502e-02
  1.420218e+00    1.238932e+00   1.768310e-02
  1.422429e+00    1.248685e+00   1.766798e-02
  1.424639e+00    1.261282e+00   1.769240e-02
  1.426850e+00    1.286451e+00   1.781301e-02
  1.429060e+00    1.286101e+00   1.776129e-02
  1.431270e+00    1.261980e+00   1.754979e-02
  1.433481e+00    1.270336e+00   1.756680e-02
  1.435691e+00    1.289979e+00   1.766339e-02
  1.437902e+00    1.291292e+00   1.763560e-02
  1.440112e+00    1.286610e+00   1.756802e-02
  1.442323e+00    1.296253e+00   1.760036e-02
  1.444533e+00    1.278646e+00   1.744777e-02
  1.446744e+00    1.268629e+00   1.734816e-02
  1.448954e+00    1.278158e+00   1.738290e-02
  1.451165e+00    1.284890e+00   1.739869e-02
  1.453375e+00    1.274961e+00   1.730325e-02
  1.455586e+00    1.269787e+00   1.723992e-02
  1.457796e+00    1.279845e+00   1.728046e-02
  1.460006e+00    1.277325e+00   1.723610e-02
  1.462217e+00    1.273594e+00   1.718465e-02
  1.464427e+00    1.280415e+00   1.720490e-02
  1.466638e+00    1.293964e+00   1.727011e-02
  1.468848e+00    1.268891e+00   1.707666e-02
  1.471059e+00    1.266863e+00   1.703793e-02
  1.473269e+00    1.259660e+00   1.696512e-02
  1.475480e+00    1.296438e+00   1.718700e-02
  1.477690e+00    1.294040e+00   1.714701e-02
  1.479901e+00    1.279486e+00   1.702638e-02
  1.482111e+00    1.259212e+00   1.686769e-02
  1.484321e+00    1.268324e+00   1.690548e-02
  1.486532e+00    1.237608e+00   1.667745e-02
  1.488742e+00    1.262873e+00   1.682417e-02
  1.490953e+00    1.237938e+00   1.663490e-02
  1.493163e+00    1.257357e+00   1.674262e-02
  1.495374e+00    1.255223e+00   1.670699e-02
  1.497584e+00    1.275169e+00   1.681744e-02
  1.499795e+00    1.265394e+00   1.673117e-02
  1.502005e+00    1.271630e+00   1.675056e-02
  1.504216e+00    1.268077e+00   1.670603e-02
  1.506426e+00    1.262552e+00   1.664875e-02
  1.508636e+00    1.237980e+00   1.646565e-02
  1.510847e+00    1.232983e+00   1.641078e-02
  1.513057e+00    1.253086e+00   1.651894e-02
  1.515268e+00    1.264884e+00   1.657072e-02
  1.517478e+00    1.256805e+00   1.649253e-02
  1.519689e+00    1.280007e+00   1.661883e-02
  1.521899e+00    1.289764e+00   1.665864e-02
  1.524110e+00    1.274029e+00   1.653621e-02
  1.526320e+00    1.245767e+00   1.633223e-02
  1.528531e+00    1.257568e+00   1.638958e-02
  1.530741e+00    1.260262e+00   1.638792e-02
  1.532951e+00    1.249701e+00   1.629951e-02
  1.535162e+00    1.256582e+00   1.643115e-02
  1.537372e+00    1.262267e+00   1.653555e-02
  1.539583e+00    1.242611e+00   1.644045e-02
  1.541793e+00    1.248648e+00   1.648729e-02
  1.544004e+00    1.236970e+00   1.641028e-02
  1.546214e+00    1.235271e+00   1.639748e-02
  1.548425e+00    1.246487e+00   1.647204e-02
  1.550635e+00    1.243036e+00   1.645888e-02
  1.552846e+00    1.245184e+00   1.648276e-02
  1.555056e+00    1.246688e+00   1.645120e-02
  1.557266e+00    1.229347e+00   1.622659e-02
  1.559477e+00    1.231092e+00   1.617932e-02
  1.561687e+00    1.232058e+00   1.615514e-02
  1.563898e+00    1.253623e+00   1.627870e-02
  1.566108e+00    1.248276e+00   1.622796e-02
  1.568319e+00    1.248438e+00   1.621337e-02
  1.570529e+00    1.230456e+00   1.607119e-02
  1.572740e+00    1.246323e+00   1.614684e-02
  1.574950e+00    1.248769e+00   1.613631e-02
  1.577161e+00    1.265566e+00   1.621879e-02
  1.579371e+00    1.246783e+00   1.607430e-02
  1.581582e+00    1.235027e+00   1.597865e-02
  1.583792e+00    1.237216e+00   1.597481e-02
  1.586002e+00    1.263805e+00   1.612781e-02
  1.588213e+00    1.249783e+00   1.602082e-02
  1.590423e+00    1.237914e+00   1.592453e-02
  1.592634e+00    1.217297e+00   1.576999e-02
  1.594844e+00    1.217348e+00   1.574912e-02
  1.597055e+00    1.240103e+00   1.587517e-02
  1.599265e+00    1.259508e+00   1.597803e-02
  1.601476e+00    1.256287e+00   1.593716e-02
  1.603686e+00    1.228880e+00   1.574268e-02
  1.605897e+00    1.236502e+00   1.577129e-02
  1.608107e+00    1.217701e+00   1.563153e-02
  1.610317e+00    1.226696e+00   1.566993e-02
  1.612528e+00    1.204304e+00   1.550732e-02
  1.614738e+00    1.211967e+00   1.553777e-02
  1.616949e+00    1.202144e+00   1.545589e-02
  1.619159e+00    1.204991e+00   1.545559e-02
  1.621370e+00    1.209381e+00   1.546535e-02
  1.623580e+00    1.202126e+00   1.540065e-02
  1.625791e+00    1.183859e+00   1.526511e-02
  1.628001e+00    1.184329e+00   1.525001e-02
  1.630212e+00    1.181603e+00   1.521480e-02
  1.632422e+00    1.172345e+00   1.513727e-02
  1.634632e+00    1.171505e+00   1.511462e-02
  1.636843e+00    1.157143e+00   1.500431e-02
  1.639053e+00    1.157861e+00   1.499177e-02
  1.641264e+00    1.153247e+00   1.494491e-02
  1.643474e+00    1.158097e+00   1.495894e-02
  1.645685e+00    1.156135e+00   1.492962e-02
  1.647895e+00    1.148656e+00   1.486470e-02
  1.650106e+00    1.139168e+00   1.478627e-02
  1.652316e+00    1.127985e+00   1.469719e-02
  1.654527e+00    1.124882e+00   1.466040e-02
  1.656737e+00    1.130521e+00   1.468059e-02
  1.658947e+00    1.149411e+00   1.478632e-02
  1.661158e+00    1.142852e+00   1.472771e-02
  1.663368e+00    1.161235e+00   1.482936e-02
  1.665579e+00    1.168502e+00   1.485920e-02
  1.667789e+00    1.168513e+00   1.484267e-02
  1.670000e+00    1.134171e+00   1.460729e-02
  1.672210e+00    1.119795e+00   1.449846e-02
  1.674421e+00    1.126590e+00   1.452691e-02
  1.676631e+00    1.106256e+00   1.437932e-02
  1.678842e+00    1.108807e+00   1.438003e-02
  1.681052e+00    1.108343e+00   1.436153e-02
  1.683263e+00    1.092736e+00   1.424491e-02
  1.685473e+00    1.097737e+00   1.426222e-02
  1.687683e+00    1.095749e+00   1.423381e-02
  1.689894e+00    1.063174e+00   1.400499e-02
  1.692104e+00    1.072108e+00   1.404881e-02
  1.694315e+00    1.077287e+00   1.406817e-02
  1.696525e+00    1.052838e+00   1.389259e-02
  1.698736e+00    1.061879e+00   1.393730e-02
  1.700946e+00    1.053650e+00   1.386811e-02
  1.703157e+00    1.048254e+00   1.381797e-02
  1.705367e+00    1.070608e+00   1.394991e-02
  1.707578e+00    1.045307e+00   1.376956e-02
  1.709788e+00    1.033305e+00   1.367622e-02
  1.711998e+00    1.031146e+00   1.364702e-02
  1.714209e+00    1.014225e+00   1.352032e-02
  1.716419e+00    9.997931e-01   1.340973e-02
  1.718630e+00    1.021942e+00   1.354327e-02
  1.720840e+00    1.001633e+00   1.339402e-02
  1.723051e+00    1.010819e+00   1.344153e-02
  1.725261e+00    1.009991e+00   1.342142e-02
  1.727472e+00    1.008222e+00   1.339556e-02
  1.729682e+00    1.011477e+00   1.340372e-02
  1.731893e+00    9.963116e-01   1.328907e-02
  1.734103e+00    1.008342e+00   1.335527e-02
  1.736313e+00    1.013675e+00   1.337648e-02
  1.738524e+00    1.005660e+00   1.330964e-02
  1.740734e+00    9.993981e-01   1.325443e-02
  1.742945e+00    9.843817e-01   1.314112e-02
  1.745155e+00    9.928958e-01   1.318436e-02
  1.747366e+00    9.792329e-01   1.307960e-02
  1.749576e+00    9.631639e-01   1.295832e-02
  1.751787e+00    9.600443e-01   1.292413e-02
  1.753997e+00    9.694808e-01   1.297417e-02
  1.756208e+00    9.759253e-01   1.300404e-02
  1.758418e+00    9.409357e-01   1.275589e-02
  1.760628e+00    9.465424e-01   1.278062e-02
  1.762839e+00    9.678727e-01   1.291059e-02
  1.765049e+00    9.611449e-01   1.285255e-02
  1.767260e+00    9.492335e-01   1.275990e-02
  1.769470e+00    9.654539e-01   1.285541e-02
  1.771681e+00    9.421130e-01   1.268601e-02
  1.773891e+00    9.278774e-01   1.257689e-02
  1.776102e+00    9.206456e-01   1.251509e-02
  1.778312e+00    9.276589e-01   1.255005e-02
  1.780523e+00    9.313873e-01   1.256257e-02
  1.782733e+00    9.307978e-01   1.254600e-02
  1.784944e+00    9.151550e-01   1.242736e-02
  1.787154e+00    9.344389e-01   1.254507e-02
  1.789364e+00    9.785609e-01   1.282501e-02
  1.791575e+00    1.015629e+00   1.305256e-02
  1.793785e+00    9.928430e-01   1.289245e-02
  1.795996e+00    9.750870e-01   1.276376e-02
  1.798206e+00    9.845233e-01   1.281239e-02
  1.800417e+00    1.047715e+00   1.320363e-02
  1.802627e+00    1.012522e+00   1.296746e-02
  1.804838e+00    9.768417e-01   1.272437e-02
  1.807048e+00    9.576175e-01   1.258537e-02
  1.809259e+00    9.439124e-01   1.248110e-02
  1.811469e+00    9.450125e-01   1.247308e-02
  1.813679e+00    9.447802e-01   1.245622e-02
  1.815890e+00    9.316942e-01   1.235464e-02
  1.818100e+00    8.859871e-01   1.203277e-02
  1.820311e+00    9.058308e-01   1.215188e-02
  1.822521e+00    9.013911e-01   1.210715e-02
  1.824732e+00    8.801884e-01   1.194918e-02
  1.826942e+00    8.737053e-01   1.189282e-02
  1.829153e+00    9.018462e-01   1.207105e-02
  1.831363e+00    8.847697e-01   1.194420e-02
  1.833574e+00    8.585395e-01   1.175427e-02
  1.835784e+00    8.768607e-01   1.186761e-02
  1.837994e+00    8.813286e-01   1.188607e-02
  1.840205e+00    8.686660e-01   1.178926e-02
  1.842415e+00    8.462443e-01   1.162451e-02
  1.844626e+00    8.276006e-01   1.148449e-02
  1.846836e+00    8.598841e-01   1.169494e-02
  1.849047e+00    8.586240e-01   1.167484e-02
  1.851257e+00    8.536159e-01   1.163119e-02
  1.853468e+00    8.861625e-01   1.184196e-02
  1.855678e+00    8.527427e-01   1.160767e-02
  1.857889e+00    8.482326e-01   1.156849e-02
  1.860099e+00    8.411117e-01   1.151126e-02
  1.862309e+00    8.523674e-01   1.157954e-02
  1.864520e+00    8.539403e-01   1.158166e-02
  1.866730e+00    8.661193e-01   1.165450e-02
  1.868941e+00    8.614302e-01   1.161192e-02
  1.871151e+00    8.617849e-01   1.160286e-02
  1.873362e+00    8.699398e-01   1.164614e-02
  1.875572e+00    8.544027e-01   1.153072e-02
  1.877783e+00    8.300178e-01   1.135367e-02
  1.879993e+00    8.456499e-01   1.144892e-02
  1.882204e+00    8.694315e-01   1.159774e-02
  1.884414e+00    8.721976e-01   1.160493e-02
  1.886624e+00    8.665622e-01   1.155615e-02
  1.888835e+00    8.625160e-01   1.151805e-02
  1.891045e+00    8.476050e-01   1.140711e-02
  1.893256e+00    8.247764e-01   1.124146e-02
  1.895466e+00    8.025492e-01   1.107801e-02
  1.897677e+00    8.247411e-01   1.121924e-02
  1.899887e+00    8.383212e-01   1.130026e-02
  1.902098e+00    8.295257e-01   1.122999e-02
  1.904308e+00    8.213379e-01   1.116391e-02
  1.906519e+00    8.286891e-01   1.120292e-02
  1.908729e+00    8.353693e-01   1.123734e-02
  1.910940e+00    8.324892e-01   1.120678e-02
  1.913150e+00    8.222390e-01   1.112703e-02
  1.915360e+00    8.237976e-01   1.112694e-02
  1.917571e+00    8.306164e-01   1.116197e-02
  1.919781e+00    8.228736e-01   1.109913e-02
  1.921992e+00    8.172782e-01   1.105074e-02
  1.924202e+00    8.072571e-01   1.097208e-02
  1.926413e+00    8.032620e-01   1.093466e-02
  1.928623e+00    8.202698e-01   1.103925e-02
  1.930834e+00    8.083990e-01   1.094869e-02
  1.933044e+00    7.783276e-01   1.073266e-02
  1.935255e+00    8.015706e-01   1.088146e-02
  1.937465e+00    7.880178e-01   1.077882e-02
  1.939675e+00    7.934781e-01   1.080532e-02
  1.941886e+00    8.005671e-01   1.084325e-02
  1.944096e+00    8.142074e-01   1.092497e-02
  1.946307e+00    8.210226e-01   1.096015e-02
  1.948517e+00    8.132342e-01   1.089751e-02
  1.950728e+00    8.076049e-01   1.084942e-02
  1.952938e+00    8.060679e-01   1.082894e-02
  1.955149e+00    8.059090e-01   1.081759e-02
  1.957359e+00    8.023225e-01   1.078341e-02
  1.959570e+00    8.002333e-01   1.075844e-02
  1.961780e+00    8.037634e-01   1.077218e-02
  1.963990e+00    7.755495e-01   1.057142e-02
  1.966201e+00    7.898414e-01   1.065829e-02
  1.968411e+00    8.001205e-01   1.071722e-02
  1.970622e+00    7.934265e-01   1.066218e-02
  1.972832e+00    7.790763e-01   1.055539e-02
  1.975043e+00    7.816553e-01   1.056283e-02
  1.977253e+00    7.844286e-01   1.057161e-02
  1.979464e+00    8.070490e-01   1.071275e-02
  1.981674e+00    8.068276e-01   1.070089e-02
  1.983885e+00    7.792018e-01   1.050609e-02
  1.986095e+00    7.778834e-01   1.048750e-02
  1.988305e+00    7.680742e-01   1.041135e-02
  1.990516e+00    7.586297e-01   1.033735e-02
  1.992726e+00    7.738559e-01   1.043091e-02
  1.994937e+00    7.912762e-01   1.053745e-02
  1.997147e+00    7.883701e-01   1.050828e-02
  1.999358e+00    7.803020e-01   1.044449e-02
  2.001568e+00    7.758812e-01   1.040402e-02
  2.003779e+00    7.690216e-01   1.034605e-02
  2.005989e+00    7.746494e-01   1.037178e-02
  2.008200e+00    7.756022e-01   1.036661e-02
  2.010410e+00    7.657725e-01   1.028897e-02
  2.012621e+00    7.678329e-01   1.029110e-02
  2.014831e+00    7.586495e-01   1.021798e-02
  2.017041e+00    7.598688e-01   1.021584e-02
  2.019252e+00    7.663953e-01   1.024965e-02
  2.021462e+00    7.747015e-01   1.029548e-02
  2.023673e+00    7.852973e-01   1.035615e-02
  2.025883e+00    7.533723e-01   1.013400e-02
  2.028094e+00    7.647136e-01   1.020032e-02
  2.030304e+00    7.742879e-01   1.025437e-02
  2.032515e+00    7.678585e-01   1.020238e-02
  2.034725e+00    7.491709e-01   1.006806e-02
  2.036936e+00    7.499235e-01   1.006385e-02
  2.039146e+00    7.470729e-01   1.003519e-02
  2.041356e+00    7.516220e-01   1.005607e-02
  2.043567e+00    7.503843e-01   1.003852e-02
  2.045777e+00    7.585856e-01   1.008398e-02
  2.047988e+00    7.546283e-01   1.004826e-02
  2.050198e+00    7.550387e-01   1.004255e-02
  2.052409e+00    7.725696e-01   1.015071e-02
  2.054619e+00    7.559721e-01   1.003370e-02
  2.056830e+00    7.495301e-01   9.983679e-03
  2.059040e+00    7.622629e-01   1.006055e-02
  2.061251e+00    7.559195e-01   1.001134e-02
  2.063461e+00    7.473623e-01   9.946920e-03
  2.065671e+00    7.493702e-01   9.951541e-03
  2.067882e+00    7.691427e-01   1.007285e-02
  2.070092e+00    7.612682e-01   1.001189e-02
  2.072303e+00    7.646222e-01   1.002465e-02
  2.074513e+00    7.610843e-01   9.992030e-03
  2.076724e+00    7.644874e-01   1.000475e-02
  2.078934e+00    7.598230e-01   9.965087e-03
  2.081145e+00    7.482514e-01   9.879798e-03
  2.083355e+00    7.413551e-01   9.824979e-03
  2.085566e+00    7.572749e-01   9.920912e-03
  2.087776e+00    7.416545e-01   9.808542e-03
  2.089986e+00    7.616623e-01   9.931031e-03
  2.092197e+00    7.342280e-01   9.741636e-03
  2.094407e+00    7.269621e-01   9.684106e-03
  2.096618e+00    7.388380e-01   9.753969e-03
  2.098828e+00    7.421773e-01   9.766653e-03
  2.101039e+00    7.208194e-01   9.616188e-03
  2.103249e+00    7.315239e-01   9.678637e-03
  2.105460e+00    7.230366e-01   9.613373e-03
  2.107670e+00    7.196584e-01   9.582200e-03
  2.109881e+00    7.126990e-01   9.526686e-03
  2.112091e+00    7.102009e-01   9.501081e-03
  2.114301e+00    7.103425e-01   9.493341e-03
  2.116512e+00    7.116741e-01   9.493493e-03
  2.118722e+00    7.195187e-01   9.536871e-03
  2.120933e+00    7.270977e-01   9.578075e-03
  2.123143e+00    7.199443e-01   9.521913e-03
  2.125354e+00    7.230331e-01   9.533770e-03
  2.127564e+00    7.286156e-01   9.561695e-03
  2.129775e+00    7.179767e-01   9.482898e-03
  2.131985e+00    7.083672e-01   9.410185e-03
  2.134196e+00    7.163681e-01   9.454593e-03
  2.136406e+00    7.057125e-01   9.375302e-03
  2.138617e+00    7.061705e-01   9.369904e-03
  2.140827e+00    7.143986e-01   9.440466e-03
  2.143037e+00    6.961644e-01   9.364336e-03
  2.145248e+00    6.958112e-01   9.383800e-03
  2.147458e+00    6.748465e-01   9.256172e-03
  2.149669e+00    6.927723e-01   9.390045e-03
  2.151879e+00    7.163178e-01   9.557615e-03
  2.154090e+00    7.181765e-01   9.577409e-03
  2.156300e+00    7.166985e-01   9.574236e-03
  2.158511e+00    7.232788e-01   9.623474e-03
  2.160721e+00    7.238089e-01   9.631907e-03
  2.162932e+00    7.174253e-01   9.593140e-03
  2.165142e+00    7.025370e-01   9.496104e-03
  2.167352e+00    7.068624e-01   9.528219e-03
  2.169563e+00    6.941602e-01   9.444186e-03
  2.171773e+00    6.849393e-01   9.383688e-03
  2.173984e+00    6.847259e-01   9.383598e-03
  2.176194e+00    7.029282e-01   9.508736e-03
  2.178405e+00    6.929002e-01   9.441355e-03
  2.180615e+00    6.932797e-01   9.444632e-03
  2.182826e+00    6.809604e-01   9.361010e-03
  2.185036e+00    6.951831e-01   9.458306e-03
  2.187247e+00    6.900339e-01   9.423180e-03
  2.189457e+00    6.796894e-01   9.351876e-03
  2.191667e+00    6.730594e-01   9.305965e-03
  2.193878e+00    6.880081e-01   9.408172e-03
  2.196088e+00    6.899462e-01   9.420733e-03
  2.198299e+00    6.914530e-01   9.429927e-03
  2.200509e+00    6.899028e-01   9.418278e-03
  2.202720e+00    7.005257e-01   9.489341e-03
  2.204930e+00    6.910838e-01   9.423937e-03
  2.207141e+00    7.002853e-01   9.485330e-03
  2.209351e+00    7.022517e-01   9.496725e-03
  2.211562e+00    6.877361e-01   9.396442e-03
  2.213772e+00    6.827561e-01   9.306625e-03
  2.215982e+00    6.823429e-01   9.259394e-03
  2.218193e+00    6.709145e-01   9.152001e-03
  2.220403e+00    6.637662e-01   9.078722e-03
  2.222614e+00    6.851992e-01   9.202999e-03
  2.224824e+00    6.830454e-01   9.169025e-03
  2.227035e+00    6.645340e-01   9.026583e-03
  2.229245e+00    6.892838e-01   9.175926e-03
  2.231456e+00    6.875467e-01   9.148593e-03
  2.233666e+00    6.709474e-01   9.022363e-03
  2.235877e+00    6.841828e-01   9.096512e-03
  2.238087e+00    6.711817e-01   8.996189e-03
  2.240298e+00    6.548963e-01   8.872754e-03
  2.242508e+00    6.636713e-01   8.916908e-03
  2.244718e+00    6.771544e-01   8.991136e-03
  2.246929e+00    6.690146e-01   8.922517e-03
  2.249139e+00    6.738471e-01   8.942225e-03
  2.251350e+00    6.740092e-01   8.931544e-03
  2.253560e+00    6.518646e-01   8.772163e-03
  2.255771e+00    6.701283e-01   8.882731e-03
  2.257981e+00    6.723584e-01   8.886282e-03
  2.260192e+00    6.645973e-01   8.823732e-03
  2.262402e+00    6.475333e-01   8.699000e-03
  2.264613e+00    6.569627e-01   8.751320e-03
  2.266823e+00    6.614507e-01   8.770785e-03
  2.269033e+00    6.714885e-01   8.826630e-03
  2.271244e+00    6.774266e-01   8.855080e-03
  2.273454e+00    6.536231e-01   8.687904e-03
  2.275665e+00    6.867161e-01   8.894627e-03
  2.277875e+00    6.918722e-01   8.917809e-03
  2.280086e+00    6.678548e-01   8.751571e-03
  2.282296e+00    6.839351e-01   8.846683e-03
  2.284507e+00    6.915468e-01   8.885431e-03
  2.286717e+00    6.762397e-01   8.776934e-03
  2.288928e+00    6.666442e-01   8.704518e-03
  2.291138e+00    6.550171e-01   8.618852e-03
  2.293348e+00    6.586636e-01   8.633240e-03
  2.295559e+00    6.538832e-01   8.592561e-03
  2.297769e+00    6.637282e-01   8.647683e-03
  2.299980e+00    6.705863e-01   8.682804e-03
  2.302190e+00    6.587982e-01   8.596972e-03
  2.304401e+00    6.606354e-01   8.599582e-03
  2.306611e+00    6.486105e-01   8.511784e-03
  2.308822e+00    6.310408e-01   8.387447e-03
  2.311032e+00    6.491673e-01   8.500606e-03
  2.313243e+00    6.262686e-01   8.343190e-03
  2.315453e+00    6.455044e-01   8.462786e-03
  2.317663e+00    6.286663e-01   8.342697e-03
  2.319874e+00    6.410910e-01   8.416039e-03
  2.322084e+00    6.566525e-01   8.508520e-03
  2.324295e+00    6.536528e-01   8.480803e-03
  2.326505e+00    6.481381e-01   8.435865e-03
  2.328716e+00    6.562433e-01   8.479815e-03
  2.330926e+00    6.485739e-01   8.421291e-03
  2.333137e+00    6.547574e-01   8.452873e-03
  2.335347e+00    6.549923e-01   8.445434e-03
  2.337558e+00    6.455759e-01   8.376243e-03
  2.339768e+00    6.351027e-01   8.299476e-03
  2.341979e+00    6.420475e-01   8.336334e-03
  2.344189e+00    6.494997e-01   8.376112e-03
  2.346399e+00    6.456845e-01   8.342913e-03
  2.348610e+00    6.474452e-01   8.345755e-03
  2.350820e+00    6.285426e-01   8.214871e-03
  2.353031e+00    6.398341e-01   8.280020e-03
  2.355241e+00    6.194185e-01   8.138877e-03
  2.357452e+00    6.286635e-01   8.190994e-03
  2.359662e+00    6.266034e-01   8.169370e-03
  2.361873e+00    6.387861e-01   8.240118e-03
  2.364083e+00    6.323313e-01   8.190379e-03
  2.366294e+00    6.274825e-01   8.150795e-03
  2.368504e+00    6.453593e-01   8.257911e-03
  2.370714e+00    6.265025e-01   8.128291e-03
  2.372925e+00    6.429046e-01   8.225854e-03
  2.375135e+00    6.359294e-01   8.172969e-03
  2.377346e+00    6.254342e-01   8.097298e-03
  2.379556e+00    6.309652e-01   8.125070e-03
  2.381767e+00    6.291827e-01   8.105677e-03
  2.383977e+00    6.279209e-01   8.089552e-03
  2.386188e+00    6.390936e-01   8.153175e-03
  2.388398e+00    6.291689e-01   8.081599e-03
  2.390609e+00    6.065652e-01   7.927449e-03
  2.392819e+00    5.980750e-01   7.864105e-03
  2.395029e+00    6.074852e-01   7.918105e-03
  2.397240e+00    6.254597e-01   8.026462e-03
  2.399450e+00    6.291345e-01   8.042107e-03
  2.401661e+00    6.161046e-01   7.950684e-03
  2.403871e+00    6.157218e-01   7.940441e-03
  2.406082e+00    6.010348e-01   7.837772e-03
  2.408292e+00    6.101956e-01   7.889477e-03
  2.410503e+00    6.060606e-01   7.855233e-03
  2.412713e+00    6.125051e-01   7.889056e-03
  2.414924e+00    6.019534e-01   7.813348e-03
  2.417134e+00    6.023549e-01   7.808333e-03
  2.419344e+00    5.983179e-01   7.774734e-03
  2.421555e+00    6.092707e-01   7.838035e-03
  2.423765e+00    6.086153e-01   7.826349e-03
  2.425976e+00    6.150240e-01   7.859555e-03
  2.428186e+00    5.971028e-01   7.736991e-03
  2.430397e+00    6.097320e-01   7.810805e-03
  2.432607e+00    6.147261e-01   7.835351e-03
  2.434818e+00    5.953833e-01   7.703573e-03
  2.437028e+00    5.924973e-01   7.677706e-03
  2.439239e+00    5.956761e-01   7.690617e-03
  2.441449e+00    6.002369e-01   7.712757e-03
  2.443659e+00    6.044583e-01   7.732392e-03
  2.445870e+00    5.979166e-01   7.702792e-03
  2.448080e+00    5.762571e-01   7.596579e-03
  2.450291e+00    5.764244e-01   7.614274e-03
  2.452501e+00    5.697191e-01   7.580967e-03
  2.454712e+00    5.735303e-01   7.614696e-03
  2.456922e+00    5.652556e-01   7.566161e-03
  2.459133e+00    5.690659e-01   7.597063e-03
  2.461343e+00    5.792188e-01   7.668920e-03
  2.463554e+00    5.658373e-01   7.583316e-03
  2.465764e+00    5.514917e-01   7.489662e-03
  2.467975e+00    5.617276e-01   7.561120e-03
  2.470185e+00    5.690982e-01   7.612851e-03
  2.472395e+00    5.630756e-01   7.573701e-03
  2.474606e+00    5.455526e-01   7.456467e-03
  2.476816e+00    5.558977e-01   7.527560e-03
  2.479027e+00    5.563518e-01   7.531498e-03
  2.481237e+00    5.427955e-01   7.439449e-03
  2.483448e+00    5.453137e-01   7.456983e-03
  2.485658e+00    5.481122e-01   7.475955e-03
  2.487869e+00    5.470914e-01   7.469024e-03
  2.490079e+00    5.520025e-01   7.501953e-03
  2.492290e+00    5.522461e-01   7.503174e-03
  2.494500e+00    5.369377e-01   7.397710e-03
  2.496710e+00    5.474555e-01   7.469100e-03
  2.498921e+00    5.518851e-01   7.498275e-03
  2.501131e+00    5.243841e-01   7.308117e-03
  2.503342e+00    5.168501e-01   7.254179e-03
  2.505552e+00    5.216513e-01   7.286657e-03
  2.507763e+00    5.473962e-01   7.462877e-03
  2.509973e+00    5.252389e-01   7.308899e-03
  2.512184e+00    5.143890e-01   7.231401e-03
  2.514394e+00    5.246571e-01   7.293877e-03
  2.516605e+00    5.377282e-01   7.336622e-03
  2.518815e+00    5.273010e-01   7.236792e-03
  2.521025e+00    5.290344e-01   7.227632e-03
  2.523236e+00    5.355765e-01   7.254023e-03
  2.525446e+00    5.224173e-01   7.148817e-03
  2.527657e+00    5.244952e-01   7.148402e-03
  2.529867e+00    5.289995e-01   7.164817e-03
  2.532078e+00    5.223508e-01   7.104639e-03
  2.534288e+00    5.340836e-01   7.169981e-03
  2.536499e+00    5.280111e-01   7.117128e-03
  2.538709e+00    5.427301e-01   7.204445e-03
  2.540920e+00    5.470729e-01   7.222353e-03
  2.543130e+00    5.314781e-01   7.108234e-03
  2.545340e+00    5.246313e-01   7.052234e-03
  2.547551e+00    5.217064e-01   7.022586e-03
  2.549761e+00    5.392101e-01   7.129709e-03
  2.551972e+00    5.204848e-01   6.995470e-03
  2.554182e+00    5.166377e-01   6.960445e-03
  2.556393e+00    5.013055e-01   6.847455e-03
  2.558603e+00    5.243701e-01   6.994077e-03
  2.560814e+00    5.257996e-01   6.994879e-03
  2.563024e+00    5.228145e-01   6.966379e-03
  2.565235e+00    5.224827e-01   6.954629e-03
  2.567445e+00    5.139768e-01   6.888280e-03
  2.569656e+00    5.085265e-01   6.842012e-03
  2.571866e+00    5.190420e-01   6.903008e-03
  2.574076e+00    5.104822e-01   6.836660e-03
  2.576287e+00    4.965946e-01   6.734838e-03
  2.578497e+00    5.176502e-01   6.868281e-03
  2.580708e+00    5.224497e-01   6.891905e-03
  2.582918e+00    5.115079e-01   6.811633e-03
  2.585129e+00    5.072820e-01   6.775728e-03
  2.587339e+00    5.068913e-01   6.765494e-03
  2.589550e+00    5.122602e-01   6.793686e-03
  2.591760e+00    5.131607e-01   6.791898e-03
  2.593971e+00    5.190055e-01   6.822900e-03
  2.596181e+00    5.127093e-01   6.775157e-03
  2.598391e+00    5.095817e-01   6.749266e-03
  2.600602e+00    5.159673e-01   6.785488e-03
  2.602812e+00    5.067880e-01   6.717339e-03
  2.605023e+00    5.051314e-01   6.699209e-03
  2.607233e+00    5.051323e-01   6.692076e-03
  2.609444e+00    5.158579e-01   6.755481e-03
  2.611654e+00    5.042697e-01   6.671864e-03
  2.613865e+00    5.021044e-01   6.650517e-03
  2.616075e+00    5.072228e-01   6.677181e-03
  2.618286e+00    5.064201e-01   6.664900e-03
  2.620496e+00    5.014018e-01   6.625112e-03
  2.622706e+00    5.097961e-01   6.674570e-03
  2.624917e+00    5.144293e-01   6.698934e-03
  2.627127e+00    5.102528e-01   6.665905e-03
  2.629338e+00    4.988475e-01   6.585048e-03
  2.631548e+00    5.050921e-01   6.619932e-03
  2.633759e+00    4.994058e-01   6.575460e-03
  2.635969e+00    4.998050e-01   6.571406e-03
  2.638180e+00    4.886709e-01   6.490906e-03
  2.640390e+00    4.889989e-01   6.486550e-03
  2.642601e+00    5.074476e-01   6.601069e-03
  2.644811e+00    5.037955e-01   6.570192e-03
  2.647021e+00    4.950426e-01   6.506326e-03
  2.649232e+00    4.898153e-01   6.465227e-03
  2.651442e+00    4.994913e-01   6.522263e-03
  2.653653e+00    4.993670e-01   6.514663e-03
  2.655863e+00    5.052493e-01   6.546193e-03
  2.658074e+00    5.043399e-01   6.533639e-03
  2.660284e+00    4.964570e-01   6.476038e-03
  2.662495e+00    4.946258e-01   6.457345e-03
  2.664705e+00    4.918484e-01   6.432659e-03
  2.666916e+00    5.069363e-01   6.524022e-03
  2.669126e+00    5.099548e-01   6.536901e-03
  2.671337e+00    4.833006e-01   6.357264e-03
  2.673547e+00    4.977169e-01   6.444964e-03
  2.675757e+00    4.999020e-01   6.452648e-03
  2.677968e+00    4.995992e-01   6.444110e-03
  2.680178e+00    4.943111e-01   6.403523e-03
  2.682389e+00    4.896952e-01   6.367179e-03
  2.684599e+00    4.883045e-01   6.351971e-03
  2.686810e+00    5.048178e-01   6.451783e-03
  2.689020e+00    5.041566e-01   6.441205e-03
  2.691231e+00    4.945288e-01   6.373087e-03
  2.693441e+00    4.830378e-01   6.292514e-03
  2.695652e+00    4.969490e-01   6.375907e-03
  2.697862e+00    5.020490e-01   6.402121e-03
  2.700072e+00    5.095461e-01   6.443561e-03
  2.702283e+00    4.858078e-01   6.285472e-03
  2.704493e+00    4.915631e-01   6.316282e-03
  2.706704e+00    5.039580e-01   6.388915e-03
  2.708914e+00    5.047329e-01   6.387773e-03
  2.711125e+00    4.864400e-01   6.264710e-03
  2.713335e+00    4.844665e-01   6.245904e-03
  2.715546e+00    5.041649e-01   6.365045e-03
  2.717756e+00    4.971470e-01   6.314650e-03
  2.719967e+00    4.822861e-01   6.213368e-03
  2.722177e+00    4.865867e-01   6.234861e-03
  2.724387e+00    5.000241e-01   6.314178e-03
  2.726598e+00    5.039611e-01   6.332810e-03
  2.728808e+00    5.007045e-01   6.306079e-03
  2.731019e+00    4.945758e-01   6.261172e-03
  2.733229e+00    4.981042e-01   6.277579e-03
  2.735440e+00    4.972794e-01   6.266026e-03
  2.737650e+00    4.884994e-01   6.204428e-03
  2.739861e+00    4.849282e-01   6.175612e-03
  2.742071e+00    4.864365e-01   6.179458e-03
  2.744282e+00    4.744287e-01   6.096514e-03
  2.746492e+00    4.773788e-01   6.109430e-03
  2.748702e+00    4.752143e-01   6.089705e-03
  2.750913e+00    4.876285e-01   6.162897e-03
  2.753123e+00    4.897022e-01   6.169820e-03
  2.755334e+00    4.783275e-01   6.091702e-03
  2.757544e+00    4.885688e-01   6.150765e-03
  2.759755e+00    4.809093e-01   6.096479e-03
  2.761965e+00    4.804878e-01   6.087826e-03
  2.764176e+00    4.752373e-01   6.048513e-03
  2.766386e+00    4.802215e-01   6.074355e-03
  2.768597e+00    4.839709e-01   6.092127e-03
  2.770807e+00    4.807217e-01   6.065771e-03
  2.773017e+00    4.754716e-01   6.026598e-03
  2.775228e+00    4.815197e-01   6.058999e-03
  2.777438e+00    4.871112e-01   6.088229e-03
  2.779649e+00    4.857309e-01   6.073663e-03
  2.781859e+00    4.755450e-01   6.003879e-03
  2.784070e+00    4.706307e-01   5.966974e-03
  2.786280e+00    4.785578e-01   6.011216e-03
  2.788491e+00    4.820454e-01   6.027238e-03
  2.790701e+00    4.820716e-01   6.021696e-03
  2.792912e+00    4.962844e-01   6.103749e-03
  2.795122e+00    4.823023e-01   6.011385e-03
  2.797333e+00    4.750365e-01   5.960373e-03
  2.799543e+00    4.736524e-01   5.945825e-03
  2.801753e+00    4.902565e-01   6.043203e-03
  2.803964e+00    4.718425e-01   5.922989e-03
  2.806174e+00    4.759597e-01   5.942618e-03
  2.808385e+00    4.754798e-01   5.932819e-03
  2.810595e+00    4.733028e-01   5.912370e-03
  2.812806e+00    4.642180e-01   5.848811e-03
  2.815016e+00    4.688406e-01   5.873142e-03
  2.817227e+00    4.823079e-01   5.983044e-03
  2.819437e+00    4.750262e-01   5.948820e-03
  2.821648e+00    4.629417e-01   5.874911e-03
  2.823858e+00    4.873045e-01   6.032937e-03
  2.826068e+00    4.804937e-01   5.995649e-03
  2.828279e+00    4.713161e-01   5.942162e-03
  2.830489e+00    4.690626e-01   5.931241e-03
  2.832700e+00    4.732158e-01   5.960024e-03
  2.834910e+00    4.670545e-01   5.923135e-03
  2.837121e+00    4.664304e-01   5.920883e-03
  2.839331e+00    4.709168e-01   5.950525e-03
  2.841542e+00    4.650039e-01   5.914063e-03
  2.843752e+00    4.503038e-01   5.820587e-03
  2.845963e+00    4.626418e-01   5.900187e-03
  2.848173e+00    4.725788e-01   5.963292e-03
  2.850383e+00    4.689758e-01   5.940822e-03
  2.852594e+00    4.768190e-01   5.990210e-03
  2.854804e+00    4.700699e-01   5.947160e-03
  2.857015e+00    4.743548e-01   5.973766e-03
  2.859225e+00    4.849129e-01   6.039622e-03
  2.861436e+00    4.740991e-01   5.971250e-03
  2.863646e+00    4.711778e-01   5.952875e-03
  2.865857e+00    4.643860e-01   5.910124e-03
  2.868067e+00    4.736370e-01   5.968933e-03
  2.870278e+00    4.670511e-01   5.926959e-03
  2.872488e+00    4.693587e-01   5.940384e-03
  2.874698e+00    4.670392e-01   5.924663e-03
  2.876909e+00    4.584416e-01   5.868546e-03
  2.879119e+00    4.564063e-01   5.853899e-03
  2.881330e+00    4.594028e-01   5.871608e-03
  2.883540e+00    4.703208e-01   5.939572e-03
  2.885751e+00    4.605098e-01   5.875667e-03
  2.887961e+00    4.660707e-01   5.909128e-03
  2.890172e+00    4.668906e-01   5.912702e-03
  2.892382e+00    4.738598e-01   5.954870e-03
  2.894593e+00    4.648555e-01   5.896169e-03
  2.896803e+00    4.684921e-01   5.917210e-03
  2.899014e+00    4.573867e-01   5.844739e-03
  2.901224e+00    4.555776e-01   5.831195e-03
  2.903434e+00    4.580734e-01   5.845204e-03
  2.905645e+00    4.645717e-01   5.884260e-03
  2.907855e+00    4.752437e-01   5.949351e-03
  2.910066e+00    4.593850e-01   5.847171e-03
  2.912276e+00    4.562147e-01   5.824828e-03
  2.914487e+00    4.547992e-01   5.813342e-03
  2.916697e+00    4.588782e-01   5.837128e-03
  2.918908e+00    4.611202e-01   5.849369e-03
  2.921118e+00    4.583681e-01   5.829182e-03
  2.923329e+00    4.596266e-01   5.834871e-03
  2.925539e+00    4.529048e-01   5.789766e-03
  2.927749e+00    4.695039e-01   5.892568e-03
  2.929960e+00    4.621476e-01   5.843433e-03
  2.932170e+00    4.596299e-01   5.825167e-03
  2.934381e+00    4.676251e-01   5.873134e-03
  2.936591e+00    4.713998e-01   5.894174e-03
  2.938802e+00    4.494858e-01   5.752861e-03
  2.941012e+00    4.447584e-01   5.720209e-03
  2.943223e+00    4.588561e-01   5.807448e-03
  2.945433e+00    4.750274e-01   5.905084e-03
  2.947644e+00    4.771405e-01   5.913988e-03
  2.949854e+00    4.640335e-01   5.827882e-03
  2.952064e+00    4.499206e-01   5.734370e-03
  2.954275e+00    4.794462e-01   5.915001e-03
  2.956485e+00    4.695697e-01   5.849514e-03
  2.958696e+00    4.691636e-01   5.842553e-03
  2.960906e+00    4.613682e-01   5.789591e-03
  2.963117e+00    4.674137e-01   5.822846e-03
  2.965327e+00    4.689482e-01   5.828438e-03
  2.967538e+00    4.640972e-01   5.795272e-03
  2.969748e+00    4.647880e-01   5.796741e-03
  2.971959e+00    4.578815e-01   5.750349e-03
  2.974169e+00    4.531687e-01   5.718112e-03
  2.976379e+00    4.470866e-01   5.676704e-03
  2.978590e+00    4.593516e-01   5.750890e-03
  2.980800e+00    4.619552e-01   5.764352e-03
  2.983011e+00    4.577327e-01   5.735128e-03
  2.985221e+00    4.505588e-01   5.686876e-03
  2.987432e+00    4.467778e-01   5.659873e-03
  2.989642e+00    4.402109e-01   5.615543e-03
  2.991853e+00    4.604004e-01   5.739554e-03
  2.994063e+00    4.514067e-01   5.680339e-03
  2.996274e+00    4.500962e-01   5.668898e-03
  2.998484e+00    4.648488e-01   5.758332e-03
  3.000694e+00    4.581762e-01   5.713390e-03
  3.002905e+00    4.538305e-01   5.683283e-03
  3.005115e+00    4.567912e-01   5.698804e-03
  3.007326e+00    4.546655e-01   5.682360e-03
  3.009536e+00    4.551297e-01   5.682001e-03
  3.011747e+00    4.595430e-01   5.706567e-03
  3.013957e+00    4.482139e-01   5.632598e-03
  3.016168e+00    4.542154e-01   5.666936e-03
  3.018378e+00    4.527670e-01   5.654847e-03
  3.020589e+00    4.586642e-01   5.688322e-03
  3.022799e+00    4.592545e-01   5.688787e-03
  3.025010e+00    4.638664e-01   5.714009e-03
  3.027220e+00    4.582437e-01   5.676145e-03
  3.029430e+00    4.514088e-01   5.630417e-03
  3.031641e+00    4.465949e-01   5.597180e-03
  3.033851e+00    4.616580e-01   5.687235e-03
  3.036062e+00    4.659581e-01   5.710846e-03
  3.038272e+00    4.613143e-01   5.678696e-03
  3.040483e+00    4.561466e-01   5.643581e-03
  3.042693e+00    4.485433e-01   5.593076e-03
  3.044904e+00    4.557923e-01   5.634045e-03
  3.047114e+00    4.661998e-01   5.693111e-03
  3.049325e+00    4.476487e-01   5.574345e-03
  3.051535e+00    4.484527e-01   5.574930e-03
  3.053745e+00    4.531214e-01   5.599133e-03
  3.055956e+00    4.691286e-01   5.692489e-03
  3.058166e+00    4.660372e-01   5.669388e-03
  3.060377e+00    4.610726e-01   5.634274e-03
  3.062587e+00    4.545136e-01   5.589408e-03
  3.064798e+00    4.549346e-01   5.587712e-03
  3.067008e+00    4.611655e-01   5.621049e-03
  3.069219e+00    4.639890e-01   5.633662e-03
  3.071429e+00    4.551390e-01   5.576142e-03
  3.073640e+00    4.516502e-01   5.551383e-03
  3.075850e+00    4.523167e-01   5.551882e-03
  3.078060e+00    4.650144e-01   5.626108e-03
  3.080271e+00    4.487305e-01   5.523274e-03
  3.082481e+00    4.450897e-01   5.497354e-03
  3.084692e+00    4.559732e-01   5.560767e-03
  3.086902e+00    4.521518e-01   5.534167e-03
  3.089113e+00    4.452474e-01   5.488182e-03
  3.091323e+00    4.442018e-01   5.478375e-03
  3.093534e+00    4.492048e-01   5.505760e-03
  3.095744e+00    4.429146e-01   5.463726e-03
  3.097955e+00    4.343767e-01   5.407315e-03
  3.100165e+00    4.497696e-01   5.498925e-03
  3.102375e+00    4.577265e-01   5.543908e-03
  3.104586e+00    4.545644e-01   5.521197e-03
  3.106796e+00    4.567231e-01   5.530740e-03
  3.109007e+00    4.513627e-01   5.494954e-03
  3.111217e+00    4.529698e-01   5.501003e-03
  3.113428e+00    4.386584e-01   5.410018e-03
  3.115638e+00    4.391002e-01   5.409535e-03
  3.117849e+00    4.524213e-01   5.487187e-03
  3.120059e+00    4.628217e-01   5.546416e-03
  3.122270e+00    4.475136e-01   5.450635e-03
  3.124480e+00    4.528596e-01   5.479379e-03
  3.126691e+00    4.436052e-01   5.419543e-03
  3.128901e+00    4.447076e-01   5.423153e-03
  3.131111e+00    4.447613e-01   5.419628e-03
  3.133322e+00    4.384121e-01   5.377396e-03
  3.135532e+00    4.508116e-01   5.449465e-03
  3.137743e+00    4.406711e-01   5.384380e-03
  3.139953e+00    4.423843e-01   5.391146e-03
  3.142164e+00    4.372688e-01   5.371833e-03
  3.144374e+00    4.318169e-01   5.366292e-03
  3.146585e+00    4.432805e-01   5.451624e-03
  3.148795e+00    4.503001e-01   5.505517e-03
  3.151006e+00    4.350972e-01   5.420249e-03
  3.153216e+00    4.555135e-01   5.553199e-03
  3.155426e+00    4.558317e-01   5.561561e-03
  3.157637e+00    4.337757e-01   5.430834e-03
  3.159847e+00    4.476742e-01   5.522046e-03
  3.162058e+00    4.458794e-01   5.515442e-03
  3.164268e+00    4.447215e-01   5.512346e-03
  3.166479e+00    4.478588e-01   5.535453e-03
  3.168689e+00    4.384240e-01   5.480193e-03
  3.170900e+00    4.384030e-01   5.483223e-03
  3.173110e+00    4.450818e-01   5.527751e-03
  3.175321e+00    4.326285e-01   5.452320e-03
  3.177531e+00    4.313825e-01   5.447194e-03
  3.179741e+00    4.331965e-01   5.460691e-03
  3.181952e+00    4.286008e-01   5.433735e-03
  3.184162e+00    4.459078e-01   5.544568e-03
  3.186373e+00    4.342018e-01   5.472921e-03
  3.188583e+00    4.205553e-01   5.387962e-03
  3.190794e+00    4.398303e-01   5.511797e-03
  3.193004e+00    4.343871e-01   5.478864e-03
  3.195215e+00    4.305562e-01   5.456128e-03
  3.197425e+00    4.235663e-01   5.412844e-03
  3.199636e+00    4.193945e-01   5.385372e-03
  3.201846e+00    4.238600e-01   5.413365e-03
  3.204056e+00    4.319180e-01   5.465474e-03
  3.206267e+00    4.422875e-01   5.531528e-03
  3.208477e+00    4.432985e-01   5.538804e-03
  3.210688e+00    4.451917e-01   5.551469e-03
  3.212898e+00    4.479463e-01   5.569194e-03
  3.215109e+00    4.463091e-01   5.559787e-03
  3.217319e+00    4.229755e-01   5.413133e-03
  3.219530e+00    4.341836e-01   5.484750e-03
  3.221740e+00    4.429380e-01   5.540355e-03
  3.223951e+00    4.310700e-01   5.466101e-03
  3.226161e+00    4.345765e-01   5.488465e-03
  3.228372e+00    4.322676e-01   5.474426e-03
  3.230582e+00    4.264031e-01   5.437269e-03
  3.232792e+00    4.343765e-01   5.488110e-03
  3.235003e+00    4.271599e-01   5.442568e-03
  3.237213e+00    4.417142e-01   5.534615e-03
  3.239424e+00    4.238226e-01   5.421390e-03
  3.241634e+00    4.144929e-01   5.361487e-03
  3.243845e+00    4.270929e-01   5.442439e-03
  3.246055e+00    4.340362e-01   5.486220e-03
  3.248266e+00    4.327907e-01   5.478564e-03
  3.250476e+00    4.337171e-01   5.484103e-03
  3.252687e+00    4.255486e-01   5.432146e-03
  3.254897e+00    4.271299e-01   5.442103e-03
  3.257107e+00    4.177732e-01   5.381865e-03
  3.259318e+00    4.225842e-01   5.412513e-03
  3.261528e+00    4.158124e-01   5.368853e-03
  3.263739e+00    4.288514e-01   5.451802e-03
  3.265949e+00    4.205246e-01   5.398507e-03
  3.268160e+00    4.215814e-01   5.404872e-03
  3.270370e+00    4.267052e-01   5.437098e-03
  3.272581e+00    4.341677e-01   5.484155e-03
  3.274791e+00    4.306436e-01   5.461324e-03
  3.277002e+00    4.242043e-01   5.419790e-03
  3.279212e+00    4.353289e-01   5.489982e-03
  3.281422e+00    4.374979e-01   5.503082e-03
  3.283633e+00    4.272992e-01   5.437878e-03
  3.285843e+00    4.306806e-01   5.459005e-03
  3.288054e+00    4.323096e-01   5.468363e-03
  3.290264e+00    4.329896e-01   5.472372e-03
  3.292475e+00    4.155174e-01   5.359988e-03
  3.294685e+00    4.189442e-01   5.381389e-03
  3.296896e+00    4.145746e-01   5.352526e-03
  3.299106e+00    4.239656e-01   5.412256e-03
  3.301317e+00    4.225767e-01   5.402348e-03
  3.303527e+00    4.259652e-01   5.423496e-03
  3.305737e+00    4.222282e-01   5.398603e-03
  3.307948e+00    4.417703e-01   5.521441e-03
  3.310158e+00    4.313169e-01   5.454885e-03
  3.312369e+00    4.290404e-01   5.439568e-03
  3.314579e+00    4.224270e-01   5.396563e-03
  3.316790e+00    4.374875e-01   5.491202e-03
  3.319000e+00    4.363358e-01   5.482784e-03
  3.321211e+00    4.282734e-01   5.431263e-03
  3.323421e+00    4.324965e-01   5.456769e-03
  3.325632e+00    4.170512e-01   5.357566e-03
  3.327842e+00    4.269321e-01   5.419732e-03
  3.330052e+00    4.436934e-01   5.523981e-03
  3.332263e+00    4.277276e-01   5.422719e-03
  3.334473e+00    4.254591e-01   5.407352e-03
  3.336684e+00    4.362803e-01   5.474416e-03
  3.338894e+00    4.221303e-01   5.384069e-03
  3.341105e+00    4.164278e-01   5.346367e-03
  3.343315e+00    4.344643e-01   5.459775e-03
  3.345526e+00    4.257134e-01   5.403595e-03
  3.347736e+00    4.093013e-01   5.297042e-03
  3.349947e+00    4.202767e-01   5.366630e-03
  3.352157e+00    4.164729e-01   5.341131e-03
  3.354368e+00    4.352191e-01   5.458703e-03
  3.356578e+00    4.247297e-01   5.391479e-03
  3.358788e+00    4.195698e-01   5.357335e-03
  3.360999e+00    3.962688e-01   5.205208e-03
  3.363209e+00    3.996530e-01   5.226393e-03
  3.365420e+00    4.148471e-01   5.323291e-03
  3.367630e+00    4.341807e-01   5.444907e-03
  3.369841e+00    4.237450e-01   5.377639e-03
  3.372051e+00    4.203486e-01   5.354062e-03
  3.374262e+00    4.220536e-01   5.362420e-03
  3.376472e+00    4.191067e-01   5.341273e-03
  3.378683e+00    4.122295e-01   5.294730e-03
  3.380893e+00    4.117950e-01   5.289621e-03
  3.383103e+00    4.121372e-01   5.289126e-03
  3.385314e+00    4.178735e-01   5.323579e-03
  3.387524e+00    4.160505e-01   5.309209e-03
  3.389735e+00    4.141883e-01   5.294687e-03
  3.391945e+00    4.234659e-01   5.349935e-03
  3.394156e+00    4.151236e-01   5.292744e-03
  3.396366e+00    4.244623e-01   5.348473e-03
  3.398577e+00    4.366302e-01   5.421479e-03
  3.400787e+00    4.110979e-01   5.272496e-03
  3.402998e+00    4.017029e-01   5.249572e-03
  3.405208e+00    3.999403e-01   5.258559e-03
  3.407418e+00    3.914814e-01   5.218231e-03
  3.409629e+00    3.989462e-01   5.281693e-03
  3.411839e+00    3.872949e-01   5.215586e-03
  3.414050e+00    3.979856e-01   5.298078e-03
  3.416260e+00    3.935751e-01   5.278285e-03
  3.418471e+00    3.839577e-01   5.222686e-03
  3.420681e+00    3.964476e-01   5.315484e-03
  3.422892e+00    4.033562e-01   5.369724e-03
  3.425102e+00    4.009454e-01   5.361614e-03
  3.427313e+00    3.796772e-01   5.224551e-03
  3.429523e+00    3.856699e-01   5.272673e-03
  3.431733e+00    3.906584e-01   5.313376e-03
  3.433944e+00    3.821675e-01   5.261770e-03
  3.436154e+00    3.915477e-01   5.332274e-03
  3.438365e+00    3.769321e-01   5.237704e-03
  3.440575e+00    3.640476e-01   5.153206e-03
  3.442786e+00    3.675986e-01   5.183779e-03
  3.444996e+00    3.780918e-01   5.262759e-03
  3.447207e+00    3.679063e-01   5.196638e-03
  3.449417e+00    3.861452e-01   5.365490e-03
  3.451628e+00    3.783194e-01   5.340662e-03
  3.453838e+00    3.692370e-01   5.297387e-03
  3.456049e+00    3.623378e-01   5.271385e-03
  3.458259e+00    3.777728e-01   5.404787e-03
  3.460469e+00    3.745393e-01   5.401589e-03
  3.462680e+00    3.800500e-01   5.460617e-03
  3.464890e+00    3.760137e-01   5.449570e-03
  3.467101e+00    3.744466e-01   5.455816e-03
  3.469311e+00    3.855303e-01   5.552868e-03
  3.471522e+00    3.900608e-01   5.602123e-03
  3.473732e+00    3.916110e-01   5.629472e-03
  3.475943e+00    4.131715e-01   5.798665e-03
  3.478153e+00    4.006037e-01   5.725511e-03
  3.480364e+00    4.018350e-01   5.749580e-03
  3.482574e+00    4.205501e-01   5.897598e-03
  3.484784e+00    4.296955e-01   5.976626e-03
  3.486995e+00    4.320606e-01   6.008415e-03
  3.489205e+00    4.447728e-01   6.111226e-03
  3.491416e+00    4.310568e-01   6.031221e-03
  3.493626e+00    4.516630e-01   6.188556e-03
  3.495837e+00    4.527611e-01   6.211073e-03
  3.498047e+00    4.523081e-01   6.222543e-03
  3.500258e+00    4.641906e-01   6.318557e-03
  3.502468e+00    4.622759e-01   6.320040e-03
  3.504679e+00    4.722731e-01   6.402669e-03
  3.506889e+00    4.700239e-01   6.401940e-03
  3.509099e+00    4.757905e-01   6.455506e-03
  3.511310e+00    4.752938e-01   6.466583e-03
  3.513520e+00    4.882925e-01   6.568925e-03
  3.515731e+00    4.834989e-01   6.550944e-03
  3.517941e+00    5.033349e-01   6.698522e-03
  3.520152e+00    5.158766e-01   6.796077e-03
  3.522362e+00    5.172651e-01   6.819957e-03
  3.524573e+00    5.192977e-01   6.847782e-03
  3.526783e+00    5.379418e-01   6.983358e-03
  3.528994e+00    5.173951e-01   6.860941e-03
  3.531204e+00    5.219743e-01   6.903677e-03
  3.533414e+00    5.264324e-01   6.945212e-03
  3.535625e+00    5.369980e-01   7.027007e-03
  3.537835e+00    5.303456e-01   6.995454e-03
  3.540046e+00    5.519750e-01   7.145722e-03
  3.542256e+00    5.458605e-01   7.113679e-03
  3.544467e+00    5.397415e-01   7.081330e-03
  3.546677e+00    5.383285e-01   7.079634e-03
  3.548888e+00    5.436811e-01   7.122293e-03
  3.551098e+00    5.472229e-01   7.152832e-03
  3.553309e+00    5.446976e-01   7.144547e-03
  3.555519e+00    5.381832e-01   7.112986e-03
  3.557729e+00    5.335816e-01   7.094229e-03
  3.559940e+00    5.465329e-01   7.191460e-03
  3.562150e+00    5.491412e-01   7.220468e-03
  3.564361e+00    5.441301e-01   7.200846e-03
  3.566571e+00    5.517929e-01   7.265427e-03
  3.568782e+00    5.385725e-01   7.192018e-03
  3.570992e+00    5.329177e-01   7.167842e-03
  3.573203e+00    5.441192e-01   7.257051e-03
  3.575413e+00    5.391535e-01   7.237692e-03
  3.577624e+00    5.550740e-01   7.358114e-03
  3.579834e+00    5.507866e-01   7.343736e-03
  3.582045e+00    5.576907e-01   7.403931e-03
  3.584255e+00    5.449718e-01   7.333202e-03
  3.586465e+00    5.439430e-01   7.340291e-03
  3.588676e+00    5.420547e-01   7.341836e-03
  3.590886e+00    5.341253e-01   7.301602e-03
  3.593097e+00    5.463668e-01   7.399436e-03
  3.595307e+00    5.392604e-01   7.365155e-03
  3.597518e+00    5.359935e-01   7.357019e-03
  3.599728e+00    5.441581e-01   7.427034e-03
  3.601939e+00    5.582801e-01   7.537170e-03
  3.604149e+00    5.446466e-01   7.459105e-03
  3.606360e+00    5.331662e-01   7.394177e-03
  3.608570e+00    5.568032e-01   7.570733e-03
  3.610780e+00    5.419890e-01   7.480502e-03
  3.612991e+00    5.416524e-01   7.488256e-03
  3.615201e+00    5.293868e-01   7.412709e-03
  3.617412e+00    5.243940e-01   7.384877e-03
  3.619622e+00    5.322853e-01   7.446182e-03
  3.621833e+00    5.310702e-01   7.444368e-03
  3.624043e+00    5.351262e-01   7.482251e-03
  3.626254e+00    5.328405e-01   7.475961e-03
  3.628464e+00    5.269355e-01   7.445287e-03
  3.630675e+00    5.434528e-01   7.575349e-03
  3.632885e+00    5.353398e-01   7.533037e-03
  3.635095e+00    5.450955e-01   7.615915e-03
  3.637306e+00    5.535710e-01   7.689559e-03
  3.639516e+00    5.413967e-01   7.619164e-03
  3.641727e+00    5.521380e-01   7.709208e-03
  3.643937e+00    5.388457e-01   7.630438e-03
  3.646148e+00    5.535373e-01   7.748672e-03
  3.648358e+00    5.326551e-01   7.615983e-03
  3.650569e+00    5.303384e-01   7.614076e-03
  3.652779e+00    5.261099e-01   7.598315e-03
  3.654990e+00    5.514436e-01   7.794265e-03
  3.657200e+00    5.677196e-01   7.923864e-03
  3.659410e+00    5.439878e-01   7.771594e-03
  3.661621e+00    5.528647e-01   7.850163e-03
  3.663831e+00    5.340714e-01   7.730731e-03
  3.666042e+00    5.339385e-01   7.744950e-03
  3.668252e+00    5.595146e-01   7.943937e-03
  3.670463e+00    5.394884e-01   7.815819e-03
  3.672673e+00    5.324612e-01   7.780186e-03
  3.674884e+00    5.351973e-01   7.815612e-03
  3.677094e+00    5.243033e-01   7.751125e-03
  3.679305e+00    5.218347e-01   7.748232e-03
  3.681515e+00    5.388858e-01   7.889559e-03
  3.683726e+00    5.341610e-01   7.870760e-03
  3.685936e+00    5.452121e-01   7.967732e-03
  3.688146e+00    5.206286e-01   7.801696e-03
  3.690357e+00    5.404646e-01   7.965029e-03
  3.692567e+00    5.284581e-01   7.892267e-03
  3.694778e+00    5.188363e-01   7.835964e-03
  3.696988e+00    5.264417e-01   7.909207e-03
  3.699199e+00    5.134476e-01   7.827009e-03
  3.701409e+00    5.423247e-01   8.060735e-03
  3.703620e+00    5.418339e-01   8.073710e-03
  3.705830e+00    5.190127e-01   7.918143e-03
  3.708041e+00    5.078457e-01   7.848841e-03
  3.710251e+00    5.099680e-01   7.881695e-03
  3.712461e+00    5.130908e-01   7.922414e-03
  3.714672e+00    5.133182e-01   7.940712e-03
  3.716882e+00    5.222277e-01   8.026103e-03
  3.719093e+00    5.154486e-01   7.990879e-03
  3.721303e+00    5.290555e-01   8.112761e-03
  3.723514e+00    5.205797e-01   8.064857e-03
  3.725724e+00    4.994567e-01   7.916341e-03
  3.727935e+00    5.203826e-01   8.097973e-03
  3.730145e+00    5.262479e-01   8.160953e-03
  3.732356e+00    5.488629e-01   8.352591e-03
  3.734566e+00    5.315323e-01   8.237443e-03
  3.736776e+00    5.108436e-01   8.093265e-03
  3.738987e+00    4.998539e-01   8.023214e-03
  3.741197e+00    5.112111e-01   8.131776e-03
  3.743408e+00    5.141031e-01   8.172879e-03
  3.745618e+00    5.158589e-01   8.205085e-03
  3.747829e+00    5.418526e-01   8.427959e-03
  3.750039e+00    5.291175e-01   8.347044e-03
  3.752250e+00    5.030990e-01   8.157562e-03
  3.754460e+00    5.087022e-01   8.221338e-03
  3.756671e+00    4.986569e-01   8.158367e-03
  3.758881e+00    4.917680e-01   8.120147e-03
  3.761091e+00    5.196065e-01   8.366161e-03
  3.763302e+00    5.143229e-01   8.342714e-03
  3.765512e+00    5.344469e-01   8.524102e-03
  3.767723e+00    5.095487e-01   8.342672e-03
  3.769933e+00    5.061695e-01   8.334149e-03
  3.772144e+00    5.347371e-01   8.586338e-03
  3.774354e+00    5.073085e-01   8.383085e-03
  3.776565e+00    5.036525e-01   8.372609e-03
  3.778775e+00    5.037330e-01   8.393254e-03
  3.780986e+00    5.003417e-01   8.385159e-03
  3.783196e+00    5.043723e-01   8.439125e-03
  3.785407e+00    5.143118e-01   8.542548e-03
  3.787617e+00    5.234395e-01   8.639166e-03
  3.789827e+00    5.057578e-01   8.512649e-03
  3.792038e+00    4.824399e-01   8.334511e-03
  3.794248e+00    5.099927e-01   8.590465e-03
  3.796459e+00    5.060126e-01   8.578441e-03
  3.798669e+00    5.066831e-01   8.605569e-03
  3.800880e+00    5.031103e-01   8.596684e-03
  3.803090e+00    5.192025e-01   8.755321e-03
  3.805301e+00    5.013637e-01   8.625747e-03
  3.807511e+00    4.951966e-01   8.594387e-03
  3.809722e+00    5.008348e-01   8.665411e-03
  3.811932e+00    5.082566e-01   8.751887e-03
  3.814142e+00    4.789152e-01   8.517832e-03
  3.816353e+00    5.142413e-01   8.849594e-03
  3.818563e+00    5.225840e-01   8.944779e-03
  3.820774e+00    5.026326e-01   8.795601e-03
  3.822984e+00    5.113792e-01   8.895450e-03
  3.825195e+00    5.085077e-01   8.894489e-03
  3.827405e+00    5.303739e-01   9.108315e-03
  3.829616e+00    5.179947e-01   9.025961e-03
  3.831826e+00    5.246851e-01   9.108932e-03
  3.834037e+00    4.716825e-01   8.660449e-03
  3.836247e+00    4.935357e-01   8.883370e-03
  3.838457e+00    5.064263e-01   9.023957e-03
  3.840668e+00    4.988549e-01   8.981458e-03
  3.842878e+00    4.848213e-01   8.879477e-03
  3.845089e+00    4.798704e-01   8.859161e-03
  3.847299e+00    5.175942e-01   9.227181e-03
  3.849510e+00    4.957941e-01   9.056624e-03
  3.851720e+00    5.000623e-01   9.117079e-03
  3.853931e+00    5.020355e-01   9.154158e-03
  3.856141e+00    4.876516e-01   9.040973e-03
  3.858352e+00    5.000725e-01   9.174713e-03
  3.860562e+00    5.072359e-01   9.259769e-03
  3.862772e+00    5.067701e-01   9.275355e-03
  3.864983e+00    5.056471e-01   9.284945e-03
  3.867193e+00    5.111206e-01   9.355265e-03
  3.869404e+00    4.894270e-01   9.174254e-03
  3.871614e+00    4.849141e-01   9.151706e-03
  3.873825e+00    5.180624e-01   9.480078e-03
  3.876035e+00    4.751830e-01   9.099575e-03
  3.878246e+00    5.168623e-01   9.516565e-03
  3.880456e+00    5.003202e-01   9.392348e-03
  3.882667e+00    4.983454e-01   9.403283e-03
  3.884877e+00    4.809995e-01   9.267592e-03
  3.887087e+00    4.993635e-01   9.473042e-03
  3.889298e+00    4.742388e-01   9.261454e-03
  3.891508e+00    4.987357e-01   9.528432e-03
  3.893719e+00    5.276058e-01   9.832414e-03
  3.895929e+00    5.314726e-01   9.901183e-03
  3.898140e+00    5.077491e-01   9.709891e-03
  3.900350e+00    5.263820e-01   9.919776e-03
  3.902561e+00    4.994395e-01   9.695213e-03
  3.904771e+00    4.894286e-01   9.630372e-03
  3.906982e+00    4.941286e-01   9.709790e-03
  3.909192e+00    4.922744e-01   9.725126e-03
  3.911403e+00    4.989590e-01   9.825282e-03
  3.913613e+00    5.228704e-01   1.009348e-02
  3.915823e+00    4.753397e-01   9.658064e-03
  3.918034e+00    5.096788e-01   1.003685e-02
  3.920244e+00    4.964861e-01   9.942145e-03
  3.922455e+00    5.083171e-01   1.009674e-02
  3.924665e+00    4.923697e-01   9.973639e-03
  3.926876e+00    5.262521e-01   1.034962e-02
  3.929086e+00    5.434709e-01   1.055712e-02
  3.931297e+00    4.919360e-01   1.007904e-02
  3.933507e+00    5.071894e-01   1.026357e-02
  3.935718e+00    5.077163e-01   1.029828e-02
  3.937928e+00    4.746739e-01   9.986636e-03
  3.940138e+00    5.040975e-01   1.032123e-02
  3.942349e+00    5.027375e-01   1.033768e-02
  3.944559e+00    5.183214e-01   1.052766e-02
  3.946770e+00    5.108720e-01   1.048268e-02
  3.948980e+00    4.901054e-01   1.029820e-02
  3.951191e+00    5.029405e-01   1.046355e-02
  3.953401e+00    4.923679e-01   1.038450e-02
  3.955612e+00    5.013554e-01   1.051107e-02
  3.957822e+00    4.760266e-01   1.027335e-02
  3.960033e+00    4.921746e-01   1.047900e-02
  3.962243e+00    4.954695e-01   1.054728e-02
  3.964453e+00    4.859605e-01   1.047862e-02
  3.966664e+00    4.876330e-01   1.053015e-02
  3.968874e+00    4.815444e-01   1.049248e-02
  3.971085e+00    4.927526e-01   1.063587e-02
  3.973295e+00    4.728092e-01   1.043972e-02
  3.975506e+00    5.094388e-01   1.085865e-02
  3.977716e+00    4.954292e-01   1.073055e-02
  3.979927e+00    4.660656e-01   1.042935e-02
  3.982137e+00    4.932898e-01   1.075211e-02
  3.984348e+00    4.739708e-01   1.056182e-02
  3.986558e+00    4.688356e-01   1.052635e-02
  3.988768e+00    4.883564e-01   1.076630e-02
  3.990979e+00    5.096017e-01   1.102131e-02
  3.993189e+00    4.947529e-01   1.088288e-02
  3.995400e+00    5.252985e-01   1.123832e-02
  3.997610e+00    4.976593e-01   1.096883e-02
  3.999821e+00    5.272250e-01   1.132916e-02
  4.002031e+00    4.783633e-01   1.082953e-02
  4.004242e+00    4.406488e-01   1.043053e-02
  4.006452e+00    4.796703e-01   1.092167e-02
  4.008663e+00    5.474648e-01   1.171059e-02
  4.010873e+00    4.965290e-01   1.119295e-02
  4.013084e+00    5.368013e-01   1.168110e-02
  4.015294e+00    5.038909e-01   1.135920e-02
  4.017504e+00    5.021197e-01   1.138183e-02
  4.019715e+00    4.923307e-01   1.131319e-02
  4.021925e+00    5.184858e-01   1.165427e-02
  4.024136e+00    5.083833e-01   1.158497e-02
  4.026346e+00    4.987865e-01   1.151992e-02
  4.028557e+00    4.830972e-01   1.138161e-02
  4.030767e+00    4.852297e-01   1.145222e-02
  4.032978e+00    4.930023e-01   1.159053e-02
  4.035188e+00    4.928487e-01   1.163522e-02
  4.037399e+00    5.122837e-01   1.191146e-02
  4.039609e+00    4.966895e-01   1.177708e-02
  4.041819e+00    4.861438e-01   1.170041e-02
  4.044030e+00    4.685057e-01   1.153528e-02
  4.046240e+00    4.584914e-01   1.145985e-02
  4.048451e+00    4.851729e-01   1.183963e-02
  4.050661e+00    5.061570e-01   1.214563e-02
  4.052872e+00    4.954941e-01   1.207049e-02
  4.055082e+00    5.126374e-01   1.233270e-02
  4.057293e+00    4.735282e-01   1.190607e-02
  4.059503e+00    4.559262e-01   1.173592e-02
  4.061714e+00    4.644955e-01   1.190113e-02
  4.063924e+00    4.765379e-01   1.211067e-02
  4.066134e+00    5.101902e-01   1.259023e-02
  4.068345e+00    4.747629e-01   1.220368e-02
  4.070555e+00    5.121714e-01   1.273659e-02
  4.072766e+00    4.610097e-01   1.214308e-02
  4.074976e+00    4.468831e-01   1.201522e-02
  4.077187e+00    4.772266e-01   1.247829e-02
  4.079397e+00    4.995545e-01   1.283191e-02
  4.081608e+00    4.830713e-01   1.268418e-02
  4.083818e+00    4.954741e-01   1.291265e-02
  4.086029e+00    4.898375e-01   1.290686e-02
  4.088239e+00    4.344371e-01   1.222048e-02
  4.090449e+00    4.651514e-01   1.271360e-02
  4.092660e+00    4.970237e-01   1.321426e-02
  4.094870e+00    4.537345e-01   1.269592e-02
  4.097081e+00    4.758427e-01   1.307282e-02
  4.099291e+00    4.989635e-01   1.344192e-02
  4.101502e+00    4.756455e-01   1.317318e-02
  4.103712e+00    5.000411e-01   1.355709e-02
  4.105923e+00    5.034273e-01   1.365559e-02
  4.108133e+00    4.985523e-01   1.364156e-02
  4.110344e+00    4.769585e-01   1.339408e-02
  4.112554e+00    4.590441e-01   1.319190e-02
  4.114764e+00    4.980865e-01   1.379663e-02
  4.116975e+00    4.887549e-01   1.372077e-02
  4.119185e+00    4.931811e-01   1.383856e-02
  4.121396e+00    5.182357e-01   1.424457e-02
  4.123606e+00    4.851815e-01   1.383925e-02
  4.125817e+00    4.800737e-01   1.382377e-02
  4.128027e+00    4.839005e-01   1.393748e-02
  4.130238e+00    4.621448e-01   1.367864e-02
  4.132448e+00    4.722941e-01   1.388824e-02
  4.134659e+00    4.909156e-01   1.422026e-02
  4.136869e+00    5.012500e-01   1.443341e-02
  4.139080e+00    4.831896e-01   1.423463e-02
  4.141290e+00    4.588833e-01   1.393352e-02
  4.143500e+00    4.944927e-01   1.453074e-02
  4.145711e+00    4.884558e-01   1.450934e-02
  4.147921e+00    4.824090e-01   1.448527e-02
  4.150132e+00    5.026741e-01   1.485710e-02
  4.152342e+00    4.826707e-01   1.462877e-02
  4.154553e+00    4.786479e-01   1.463717e-02
  4.156763e+00    4.898754e-01   1.488107e-02
  4.158974e+00    5.257058e-01   1.549306e-02
  4.161184e+00    5.365650e-01   1.572995e-02
  4.163395e+00    5.359159e-01   1.580084e-02
  4.165605e+00    4.893093e-01   1.517661e-02
  4.167815e+00    4.723561e-01   1.498904e-02
  4.170026e+00    4.885082e-01   1.532346e-02
  4.172236e+00    5.009895e-01   1.560218e-02
  4.174447e+00    4.320491e-01   1.456762e-02
  4.176657e+00    4.461452e-01   1.488424e-02
  4.178868e+00    4.936271e-01   1.574476e-02
  4.181078e+00    5.039868e-01   1.599888e-02
  4.183289e+00    5.306452e-01   1.651067e-02
  4.185499e+00    4.938123e-01   1.602105e-02
  4.187710e+00    5.415230e-01   1.687569e-02
  4.189920e+00    4.809826e-01   1.600000e-02
  4.192130e+00    4.959512e-01   1.634664e-02
  4.194341e+00    4.761715e-01   1.611535e-02
  4.196551e+00    4.825269e-01   1.632527e-02
  4.198762e+00    5.386200e-01   1.735754e-02
  4.200972e+00    4.893340e-01   1.665167e-02
  4.203183e+00    4.542378e-01   1.614899e-02
  4.205393e+00    4.440329e-01   1.607301e-02
  4.207604e+00    4.409491e-01   1.612598e-02
  4.209814e+00    5.162701e-01   1.756884e-02
  4.212025e+00    4.812799e-01   1.708359e-02
  4.214235e+00    5.103001e-01   1.771547e-02
  4.216445e+00    5.412216e-01   1.837612e-02
  4.218656e+00    5.355000e-01   1.841602e-02
  4.220866e+00    5.324529e-01   1.849956e-02
  4.223077e+00    5.157300e-01   1.834643e-02
  4.225287e+00    4.990406e-01   1.818936e-02
  4.227498e+00    4.785976e-01   1.795264e-02
  4.229708e+00    4.868576e-01   1.825378e-02
  4.231919e+00    5.329430e-01   1.925646e-02
  4.234129e+00    4.878049e-01   1.857759e-02
  4.236340e+00    4.792341e-01   1.857095e-02
  4.238550e+00    4.699293e-01   1.855232e-02
  4.240761e+00    4.549878e-01   1.841620e-02
  4.242971e+00    4.771513e-01   1.903219e-02
  4.245181e+00    4.413490e-01   1.847615e-02
  4.247392e+00    4.563987e-01   1.896427e-02
  4.249602e+00    4.296894e-01   1.858373e-02
  4.251813e+00    4.125247e-01   1.838789e-02
  4.254023e+00    4.091116e-01   1.849668e-02
  4.256234e+00    4.509816e-01   1.962726e-02
  4.258444e+00    4.451893e-01   1.970495e-02
  4.260655e+00    4.752041e-01   2.058226e-02
  4.262865e+00    4.941311e-01   2.122602e-02
  4.265076e+00    5.677608e-01   2.301122e-02
  4.267286e+00    6.008132e-01   2.395292e-02
  4.269496e+00    3.881719e-01   1.948798e-02
  4.271707e+00    4.300402e-01   2.076483e-02
  4.273917e+00    5.107800e-01   2.292329e-02
  4.276128e+00    4.056046e-01   2.069904e-02
  4.278338e+00    4.596807e-01   2.232926e-02
  4.280549e+00    4.183613e-01   2.160818e-02
  4.282759e+00    4.618163e-01   2.302888e-02
  4.284970e+00    4.235581e-01   2.238048e-02
  4.287180e+00    4.522468e-01   2.340287e-02
  4.289391e+00    4.922823e-01   2.460101e-02
  4.291601e+00    4.710565e-01   2.425576e-02
  4.293811e+00    5.074133e-01   2.537243e-02
  4.296022e+00    4.491389e-01   2.406261e-02
  4.298232e+00    4.886654e-01   2.530907e-02
  4.300443e+00    3.982597e-01   2.303671e-02
  4.302653e+00    4.715333e-01   2.528375e-02
  4.304864e+00    4.818653e-01   2.578000e-02
  4.307074e+00    5.499927e-01   2.779041e-02
  4.309285e+00    4.902519e-01   2.647582e-02
  4.311495e+00    4.664598e-01   2.606749e-02
  4.313706e+00    5.566818e-01   2.874350e-02
  4.315916e+00    4.907717e-01   2.725519e-02
  4.318126e+00    4.961930e-01   2.767601e-02
  4.320337e+00    5.018514e-01   2.811459e-02
  4.322547e+00    4.588507e-01   2.716866e-02
  4.324758e+00    5.226503e-01   2.929684e-02
  4.326968e+00    5.624809e-01   3.073537e-02
  4.329179e+00    5.069607e-01   2.950140e-02
  4.331389e+00    4.671170e-01   2.864342e-02
  4.333600e+00    4.111106e-01   2.719360e-02
  4.335810e+00    4.173368e-01   2.772405e-02
  4.338021e+00    4.340792e-01   2.863609e-02
  4.340231e+00    4.760918e-01   3.036718e-02
  4.342442e+00    4.177960e-01   2.882853e-02
  4.344652e+00    4.334803e-01   2.976347e-02
  4.346862e+00    4.464129e-01   3.062677e-02
  4.349073e+00    4.032918e-01   2.953485e-02
  4.351283e+00    3.846365e-01   2.927282e-02
  4.353494e+00    4.851845e-01   3.338602e-02
  4.355704e+00    4.340257e-01   3.208552e-02
  4.357915e+00    4.116649e-01   3.176741e-02
  4.360125e+00    4.369884e-01   3.328901e-02
  4.362336e+00    4.408871e-01   3.404719e-02
  4.364546e+00    3.935883e-01   3.275350e-02
  4.366757e+00    5.241628e-01   3.855114e-02
  4.368967e+00    4.925776e-01   3.811727e-02
  4.371177e+00    5.047985e-01   3.940568e-02
  4.373388e+00    4.974813e-01   3.999595e-02
  4.375598e+00    4.853918e-01   4.040840e-02
  4.377809e+00    4.227412e-01   3.866370e-02
  4.380019e+00    4.098781e-01   3.902955e-02
  4.382230e+00    2.599300e-01   3.194490e-02
  4.384440e+00    4.953044e-01   4.536921e-02
  4.386651e+00    5.431537e-01   4.897524e-02
  4.388861e+00    4.100650e-01   4.398359e-02
  4.391072e+00    3.910897e-01   4.446278e-02
  4.393282e+00    4.061179e-01   4.705821e-02
  4.395492e+00    4.859405e-01   5.361505e-02
  4.397703e+00    4.833124e-01   5.591733e-02
  4.399913e+00    4.073686e-01   5.393449e-02
  4.402124e+00    1.942813e-01   3.935358e-02
  4.404334e+00    5.919383e-01   7.302669e-02
  4.406545e+00    2.748947e-01   5.347132e-02
  4.408755e+00    4.881432e-01   7.726696e-02
  4.410966e+00    5.348815e-01   8.952665e-02
  4.413176e+00    2.998904e-02   2.403463e-02
  4.415387e+00   -9.398333e-01            nan
  4.417597e+00   -2.044852e+00            nan
  4.419807e+00   -3.766224e-01            nan
