# == pyFAI calibration ==
# Distance Sample to Detector: 0.216 m
# PONI: 1.166e-01, 1.308e-01 m
# Rotations: 0.000000 0.000000 0.000000 rad
# 
# == Fit2d calibration ==
# Distance Sample-beamCenter: 216.000 mm
# Center: x=1744.293, y=1555.000 pix
# Tilt: 0.000 deg  TiltPlanRot: 0.000 deg
# 
# Detector Eiger 9M	 PixelSize= 7.500e-05, 7.500e-05 m
#    Detector has a mask: True 
#    Detector has a dark current: False 
#    detector has a flat field: False 
# 
# Wavelength: 9.8e-11 m
# Mask applied: from detector
# Dark current applied: False
# Flat field applied: False
# Polarization factor: None
# Normalization factor: 1.0
# 
# Headers of the input frame:
# {
# "_array_data.header_convention": "SLS_1.0",
# "_array_data.header_contents": "# Detector: Dectris Eiger 9M, S/N E-18-0102\r\n# Pixel_size 75e-6 m x 75e-6 m\r\n# Silicon sensor, thickness 0.000450 m\r\n# Exposure_time 0.024997 s\r\n# Exposure_period 0.025000 s\r\n# Count_cutoff 62318 counts\r\n# Wavelength 0.980106 A\r\n# Detector_distance 0.215992 m\r\n# Beam_xy (1555, 1744) pixels\r\n# Start_angle 0.000000 deg.\r\n# Angle_increment 0.000000 deg.",
# "Content-Type": "application/octet-stream;",
# "conversions": "x-CBF_BYTE_OFFSET",
# "Content-Transfer-Encoding": "BINARY",
# "X-Binary-Size": "10166612",
# "X-Binary-ID": "1",
# "X-Binary-Element-Type": "signed 32-bit integer",
# "X-Binary-Element-Byte-Order": "LITTLE_ENDIAN",
# "Content-MD5": "dfCb+N18ayvlml32IqAgBA==",
# "X-Binary-Number-of-Elements": "10166590",
# "X-Binary-Size-Fastest-Dimension": "3110",
# "X-Binary-Size-Second-Dimension": "3269",
# "X-Binary-Size-Padding": "4095"
# }
# --> H:/Proxima2a_2019-04-05/RAW_DATA/C5_gel17_position5/C5_mesh_1_data.cbf/C5_mesh_1_data.cbf000178.dat
#        q_A^-1              I           sigma 
  1.105228e-03    1.052113e+00   5.550323e-01
  3.315685e-03    1.108249e+00   3.463092e-01
  5.526141e-03    1.069686e+00   2.630876e-01
  7.736597e-03    1.367448e+00   2.512902e-01
  9.947054e-03    1.165788e+00   2.045438e-01
  1.215751e-02    1.058567e+00   1.762494e-01
  1.436797e-02    1.223464e+00   1.742896e-01
  1.657842e-02    1.439614e+00   1.759817e-01
  1.878888e-02    1.265114e+00   1.549631e-01
  2.099934e-02    1.283257e+00   1.476586e-01
  2.320979e-02    1.204054e+00   1.360366e-01
  2.542025e-02    1.198440e+00   1.296933e-01
  2.763070e-02    1.148880e+00   1.217945e-01
  2.984116e-02    1.190762e+00   1.193133e-01
  3.205162e-02    1.201366e+00   1.156442e-01
  3.426207e-02    1.115495e+00   1.077727e-01
  3.647253e-02    1.042879e+00   1.009966e-01
  3.868299e-02    1.289061e+00   1.090391e-01
  4.089344e-02    1.415305e+00   1.111235e-01
  4.310390e-02    1.340792e+00   1.053428e-01
  4.531436e-02    1.199684e+00   9.718498e-02
  4.752481e-02    1.238893e+00   9.643528e-02
  4.973527e-02    1.226007e+00   9.377743e-02
  5.194572e-02    1.164224e+00   8.941723e-02
  5.415618e-02    1.187625e+00   8.844604e-02
  5.636664e-02    1.237980e+00   8.851604e-02
  5.857709e-02    1.251655e+00   8.730857e-02
  6.078755e-02    1.263302e+00   8.610155e-02
  6.299801e-02    1.243800e+00   8.392122e-02
  6.520846e-02    1.176326e+00   8.021852e-02
  6.741892e-02    1.195517e+00   7.952940e-02
  6.962938e-02    1.293534e+00   8.140577e-02
  7.183983e-02    1.243153e+00   7.856597e-02
  7.405029e-02    1.125539e+00   7.363115e-02
  7.626074e-02    1.182948e+00   7.438289e-02
  7.847120e-02    1.248123e+00   7.531867e-02
  8.068166e-02    1.221935e+00   7.349578e-02
  8.289211e-02    1.289012e+00   7.447237e-02
  8.510257e-02    1.278207e+00   7.318971e-02
  8.731303e-02    1.279298e+00   7.228541e-02
  8.952348e-02    1.224599e+00   6.984648e-02
  9.173394e-02    1.312701e+00   7.143593e-02
  9.394439e-02    1.321012e+00   7.081132e-02
  9.615485e-02    1.333729e+00   7.032724e-02
  9.836531e-02    1.353318e+00   7.003940e-02
  1.005758e-01    1.269747e+00   6.709313e-02
  1.027862e-01    1.195099e+00   6.438576e-02
  1.049967e-01    1.318416e+00   6.690926e-02
  1.072071e-01    1.328759e+00   6.647432e-02
  1.094176e-01    1.294059e+00   6.493358e-02
  1.116280e-01    1.410506e+00   6.711616e-02
  1.138385e-01    1.416200e+00   6.659409e-02
  1.160490e-01    1.387281e+00   6.527911e-02
  1.182594e-01    1.304704e+00   6.271067e-02
  1.204699e-01    1.329469e+00   6.271908e-02
  1.226803e-01    1.266899e+00   6.066879e-02
  1.248908e-01    1.257545e+00   5.990642e-02
  1.271012e-01    1.330647e+00   6.108360e-02
  1.293117e-01    1.326914e+00   6.047351e-02
  1.315222e-01    1.265096e+00   5.854841e-02
  1.337326e-01    1.352741e+00   6.003891e-02
  1.359431e-01    1.304702e+00   5.899777e-02
  1.381535e-01    1.340317e+00   6.060022e-02
  1.403640e-01    1.416038e+00   6.255746e-02
  1.425744e-01    1.380255e+00   6.186067e-02
  1.447849e-01    1.354844e+00   6.130269e-02
  1.469953e-01    1.407246e+00   6.243786e-02
  1.492058e-01    1.299942e+00   5.994043e-02
  1.514163e-01    1.340388e+00   6.076470e-02
  1.536267e-01    1.344073e+00   6.072938e-02
  1.558372e-01    1.321543e+00   6.008529e-02
  1.580476e-01    1.336773e+00   6.028387e-02
  1.602581e-01    1.396737e+00   6.146462e-02
  1.624685e-01    1.471596e+00   6.291752e-02
  1.646790e-01    1.478768e+00   6.288955e-02
  1.668895e-01    1.493843e+00   6.302673e-02
  1.690999e-01    1.483484e+00   6.261924e-02
  1.713104e-01    1.494979e+00   6.266628e-02
  1.735208e-01    1.499390e+00   6.256349e-02
  1.757313e-01    1.628283e+00   6.499283e-02
  1.779417e-01    1.666220e+00   6.553119e-02
  1.801522e-01    1.550139e+00   6.300599e-02
  1.823626e-01    1.668903e+00   6.515737e-02
  1.845731e-01    1.764420e+00   6.677906e-02
  1.867836e-01    1.611917e+00   6.361250e-02
  1.889940e-01    1.656974e+00   6.428465e-02
  1.912045e-01    1.777519e+00   6.635962e-02
  1.934149e-01    1.726857e+00   6.518822e-02
  1.956254e-01    1.753573e+00   6.547388e-02
  1.978358e-01    1.699075e+00   6.422760e-02
  2.000463e-01    1.724637e+00   6.449447e-02
  2.022568e-01    1.691664e+00   6.366535e-02
  2.044672e-01    1.604881e+00   6.179837e-02
  2.066777e-01    1.605796e+00   6.161080e-02
  2.088881e-01    1.666056e+00   6.255085e-02
  2.110986e-01    1.684759e+00   6.268527e-02
  2.133090e-01    1.686120e+00   6.250673e-02
  2.155195e-01    1.652979e+00   6.168410e-02
  2.177300e-01    1.675762e+00   6.161981e-02
  2.199404e-01    1.733168e+00   6.101513e-02
  2.221509e-01    1.653806e+00   5.862315e-02
  2.243613e-01    1.637686e+00   5.759715e-02
  2.265718e-01    1.691250e+00   5.788636e-02
  2.287822e-01    1.803086e+00   5.917803e-02
  2.309927e-01    1.817334e+00   5.887018e-02
  2.332031e-01    1.831581e+00   5.859465e-02
  2.354136e-01    1.861128e+00   5.858664e-02
  2.376241e-01    1.912771e+00   5.893292e-02
  2.398345e-01    1.898508e+00   5.827828e-02
  2.420450e-01    1.821306e+00   5.667309e-02
  2.442554e-01    1.833607e+00   5.647242e-02
  2.464659e-01    1.807450e+00   5.569175e-02
  2.486763e-01    1.830248e+00   5.567348e-02
  2.508868e-01    1.776953e+00   5.451089e-02
  2.530973e-01    1.764527e+00   5.398315e-02
  2.553077e-01    1.788902e+00   5.402506e-02
  2.575182e-01    1.808019e+00   5.399158e-02
  2.597286e-01    1.824779e+00   5.392596e-02
  2.619391e-01    1.789893e+00   5.310053e-02
  2.641495e-01    1.781716e+00   5.268585e-02
  2.663600e-01    1.753424e+00   5.197848e-02
  2.685704e-01    1.708902e+00   5.103616e-02
  2.707809e-01    1.756269e+00   5.146401e-02
  2.729914e-01    1.807502e+00   5.193716e-02
  2.752018e-01    1.745027e+00   5.076609e-02
  2.774123e-01    1.760932e+00   5.073640e-02
  2.796227e-01    1.717612e+00   4.986059e-02
  2.818332e-01    1.716240e+00   4.959203e-02
  2.840436e-01    1.717488e+00   4.936960e-02
  2.862541e-01    1.681629e+00   4.861665e-02
  2.884646e-01    1.729131e+00   4.906456e-02
  2.906750e-01    1.646782e+00   4.765494e-02
  2.928855e-01    1.598493e+00   4.673349e-02
  2.950959e-01    1.650776e+00   4.727345e-02
  2.973064e-01    1.625589e+00   4.670060e-02
  2.995168e-01    1.639531e+00   4.668800e-02
  3.017273e-01    1.667054e+00   4.687069e-02
  3.039377e-01    1.681979e+00   4.687390e-02
  3.061482e-01    1.636168e+00   4.603117e-02
  3.083587e-01    1.647057e+00   4.598417e-02
  3.105691e-01    1.633541e+00   4.559950e-02
  3.127796e-01    1.696275e+00   4.627150e-02
  3.149900e-01    1.666134e+00   4.566749e-02
  3.172005e-01    1.598148e+00   4.454318e-02
  3.194109e-01    1.542105e+00   4.357456e-02
  3.216214e-01    1.674768e+00   4.522490e-02
  3.238319e-01    1.627167e+00   4.440098e-02
  3.260423e-01    1.582361e+00   4.361097e-02
  3.282528e-01    1.651486e+00   4.437598e-02
  3.304632e-01    1.628122e+00   4.389029e-02
  3.326737e-01    1.603111e+00   4.338193e-02
  3.348841e-01    1.613932e+00   4.335931e-02
  3.370946e-01    1.591479e+00   4.289464e-02
  3.393050e-01    1.660311e+00   4.364646e-02
  3.415155e-01    1.596842e+00   4.264317e-02
  3.437260e-01    1.546792e+00   4.181400e-02
  3.459364e-01    1.564615e+00   4.189864e-02
  3.481469e-01    1.559472e+00   4.167704e-02
  3.503573e-01    1.600834e+00   4.207229e-02
  3.525678e-01    1.622075e+00   4.219959e-02
  3.547782e-01    1.577641e+00   4.146716e-02
  3.569887e-01    1.609498e+00   4.173531e-02
  3.591992e-01    1.568239e+00   4.105116e-02
  3.614096e-01    1.558936e+00   4.078729e-02
  3.636201e-01    1.559365e+00   4.064956e-02
  3.658305e-01    1.510904e+00   3.987643e-02
  3.680410e-01    1.554070e+00   4.030295e-02
  3.702514e-01    1.565583e+00   4.031594e-02
  3.724619e-01    1.553703e+00   4.002592e-02
  3.746724e-01    1.568084e+00   4.007655e-02
  3.768828e-01    1.554081e+00   3.976296e-02
  3.790933e-01    1.539359e+00   3.944523e-02
  3.813037e-01    1.525413e+00   3.913766e-02
  3.835142e-01    1.535158e+00   3.913353e-02
  3.857246e-01    1.519181e+00   3.880338e-02
  3.879351e-01    1.506696e+00   3.851851e-02
  3.901455e-01    1.488363e+00   3.816158e-02
  3.923560e-01    1.506215e+00   3.826773e-02
  3.945665e-01    1.528313e+00   3.842521e-02
  3.967769e-01    1.546091e+00   3.852699e-02
  3.989874e-01    1.512119e+00   3.798244e-02
  4.011978e-01    1.452581e+00   3.711265e-02
  4.034083e-01    1.574390e+00   3.851878e-02
  4.056187e-01    1.513246e+00   3.764712e-02
  4.078292e-01    1.522603e+00   3.764902e-02
  4.100397e-01    1.535982e+00   3.769862e-02
  4.122501e-01    1.559614e+00   3.787387e-02
  4.144606e-01    1.556285e+00   3.772124e-02
  4.166710e-01    1.566636e+00   3.773394e-02
  4.188815e-01    1.585895e+00   3.785302e-02
  4.210919e-01    1.562812e+00   3.746642e-02
  4.233024e-01    1.556420e+00   3.727972e-02
  4.255128e-01    1.603496e+00   3.772993e-02
  4.277233e-01    1.608806e+00   3.768378e-02
  4.299338e-01    1.580302e+00   3.724098e-02
  4.321442e-01    1.612947e+00   3.751601e-02
  4.343547e-01    1.594261e+00   3.719261e-02
  4.365651e-01    1.514778e+00   3.615062e-02
  4.387756e-01    1.528951e+00   3.621764e-02
  4.409860e-01    1.548719e+00   3.635003e-02
  4.431965e-01    1.522450e+00   3.594079e-02
  4.454070e-01    1.483480e+00   3.537911e-02
  4.476174e-01    1.497452e+00   3.544773e-02
  4.498279e-01    1.472077e+00   3.505049e-02
  4.520383e-01    1.406556e+00   3.416755e-02
  4.542488e-01    1.438965e+00   3.446573e-02
  4.564592e-01    1.504880e+00   3.515175e-02
  4.586697e-01    1.480708e+00   3.477574e-02
  4.608801e-01    1.493801e+00   3.483560e-02
  4.630906e-01    1.474431e+00   3.451737e-02
  4.653011e-01    1.544887e+00   3.523951e-02
  4.675115e-01    1.570590e+00   3.543789e-02
  4.697220e-01    1.557834e+00   3.520131e-02
  4.719324e-01    1.481258e+00   3.423644e-02
  4.741429e-01    1.468311e+00   3.399864e-02
  4.763533e-01    1.468579e+00   3.391459e-02
  4.785638e-01    1.437383e+00   3.346577e-02
  4.807743e-01    1.475527e+00   3.382067e-02
  4.829847e-01    1.492513e+00   3.392885e-02
  4.851952e-01    1.482888e+00   3.373371e-02
  4.874056e-01    1.446584e+00   3.323419e-02
  4.896161e-01    1.445151e+00   3.313537e-02
  4.918265e-01    1.408249e+00   3.262833e-02
  4.940370e-01    1.433249e+00   3.283540e-02
  4.962475e-01    1.445274e+00   3.289143e-02
  4.984579e-01    1.470383e+00   3.309416e-02
  5.006684e-01    1.463099e+00   3.293160e-02
  5.028788e-01    1.498157e+00   3.324305e-02
  5.050893e-01    1.442250e+00   3.253759e-02
  5.072997e-01    1.467757e+00   3.274473e-02
  5.095102e-01    1.483404e+00   3.283998e-02
  5.117206e-01    1.458839e+00   3.248950e-02
  5.139311e-01    1.448496e+00   3.229750e-02
  5.161416e-01    1.416350e+00   3.186165e-02
  5.183520e-01    1.371389e+00   3.127734e-02
  5.205625e-01    1.388551e+00   3.139871e-02
  5.227729e-01    1.383625e+00   3.126985e-02
  5.249834e-01    1.407828e+00   3.146894e-02
  5.271938e-01    1.464109e+00   3.201691e-02
  5.294043e-01    1.502207e+00   3.235596e-02
  5.316148e-01    1.513593e+00   3.240396e-02
  5.338252e-01    1.536523e+00   3.257389e-02
  5.360357e-01    1.505435e+00   3.216927e-02
  5.382461e-01    1.512198e+00   3.216855e-02
  5.404566e-01    1.539037e+00   3.237893e-02
  5.426670e-01    1.480036e+00   3.168067e-02
  5.448775e-01    1.491939e+00   3.173674e-02
  5.470879e-01    1.506216e+00   3.181712e-02
  5.492984e-01    1.516216e+00   3.185157e-02
  5.515089e-01    1.578447e+00   3.242658e-02
  5.537193e-01    1.542729e+00   3.198696e-02
  5.559298e-01    1.582536e+00   3.232596e-02
  5.581402e-01    1.552595e+00   3.194874e-02
  5.603507e-01    1.540997e+00   3.175991e-02
  5.625611e-01    1.579350e+00   3.208293e-02
  5.647716e-01    1.546317e+00   3.167674e-02
  5.669821e-01    1.548137e+00   3.162702e-02
  5.691925e-01    1.537279e+00   3.144828e-02
  5.714030e-01    1.576725e+00   3.178129e-02
  5.736134e-01    1.539395e+00   3.133604e-02
  5.758239e-01    1.495272e+00   3.081776e-02
  5.780343e-01    1.483328e+00   3.062950e-02
  5.802448e-01    1.433384e+00   3.004641e-02
  5.824552e-01    1.431610e+00   2.996481e-02
  5.846657e-01    1.386484e+00   2.942729e-02
  5.868762e-01    1.395049e+00   2.945657e-02
  5.890866e-01    1.392443e+00   2.936802e-02
  5.912971e-01    1.378760e+00   2.916284e-02
  5.935075e-01    1.394239e+00   2.926549e-02
  5.957180e-01    1.392387e+00   2.918602e-02
  5.979284e-01    1.437413e+00   2.959365e-02
  6.001389e-01    1.408010e+00   2.922975e-02
  6.023494e-01    1.453815e+00   2.964109e-02
  6.045598e-01    1.436723e+00   2.940635e-02
  6.067703e-01    1.426244e+00   2.923999e-02
  6.089807e-01    1.455450e+00   2.947846e-02
  6.111912e-01    1.505796e+00   2.992413e-02
  6.134016e-01    1.434050e+00   2.914428e-02
  6.156121e-01    1.421629e+00   2.896011e-02
  6.178226e-01    1.473767e+00   2.942799e-02
  6.200330e-01    1.466708e+00   2.929954e-02
  6.222435e-01    1.480655e+00   2.938018e-02
  6.244539e-01    1.483346e+00   2.934931e-02
  6.266644e-01    1.495117e+00   2.940803e-02
  6.288748e-01    1.486871e+00   2.926976e-02
  6.310853e-01    1.485245e+00   2.919694e-02
  6.332957e-01    1.447383e+00   2.876676e-02
  6.355062e-01    1.457699e+00   2.881299e-02
  6.377167e-01    1.475299e+00   2.893081e-02
  6.399271e-01    1.449019e+00   2.861703e-02
  6.421376e-01    1.472200e+00   2.878996e-02
  6.443480e-01    1.480461e+00   2.881571e-02
  6.465585e-01    1.481664e+00   2.877279e-02
  6.487689e-01    1.475799e+00   2.866158e-02
  6.509794e-01    1.428051e+00   2.814094e-02
  6.531899e-01    1.390473e+00   2.771599e-02
  6.554003e-01    1.367522e+00   2.743463e-02
  6.576108e-01    1.391276e+00   2.762033e-02
  6.598212e-01    1.406163e+00   2.771613e-02
  6.620317e-01    1.416436e+00   2.776563e-02
  6.642421e-01    1.354151e+00   2.709807e-02
  6.664526e-01    1.371294e+00   2.721881e-02
  6.686630e-01    1.390110e+00   2.735424e-02
  6.708735e-01    1.375242e+00   2.715767e-02
  6.730840e-01    1.391610e+00   2.726899e-02
  6.752944e-01    1.380981e+00   2.711525e-02
  6.775049e-01    1.367383e+00   2.693245e-02
  6.797153e-01    1.367558e+00   2.688539e-02
  6.819258e-01    1.363974e+00   2.680172e-02
  6.841362e-01    1.379031e+00   2.690076e-02
  6.863467e-01    1.348793e+00   2.655658e-02
  6.885572e-01    1.353390e+00   2.655409e-02
  6.907676e-01    1.399077e+00   2.695022e-02
  6.929781e-01    1.346695e+00   2.639390e-02
  6.951885e-01    1.352860e+00   2.640737e-02
  6.973990e-01    1.394620e+00   2.676444e-02
  6.996094e-01    1.378810e+00   2.656551e-02
  7.018199e-01    1.361526e+00   2.635212e-02
  7.040303e-01    1.377746e+00   2.646207e-02
  7.062408e-01    1.414170e+00   2.676260e-02
  7.084513e-01    1.394810e+00   2.653258e-02
  7.106617e-01    1.375715e+00   2.630453e-02
  7.128722e-01    1.349881e+00   2.601131e-02
  7.150826e-01    1.349364e+00   2.596148e-02
  7.172931e-01    1.344578e+00   2.587074e-02
  7.195035e-01    1.357115e+00   2.594639e-02
  7.217140e-01    1.348929e+00   2.591377e-02
  7.239245e-01    1.371848e+00   2.634465e-02
  7.261349e-01    1.346074e+00   2.619640e-02
  7.283454e-01    1.375477e+00   2.654864e-02
  7.305558e-01    1.361029e+00   2.645904e-02
  7.327663e-01    1.350203e+00   2.639296e-02
  7.349767e-01    1.334521e+00   2.625429e-02
  7.371872e-01    1.368806e+00   2.657899e-02
  7.393976e-01    1.366617e+00   2.654443e-02
  7.416081e-01    1.378183e+00   2.664140e-02
  7.438186e-01    1.371646e+00   2.644345e-02
  7.460290e-01    1.350150e+00   2.596296e-02
  7.482395e-01    1.332165e+00   2.563203e-02
  7.504499e-01    1.314587e+00   2.533785e-02
  7.526604e-01    1.302774e+00   2.511772e-02
  7.548708e-01    1.334847e+00   2.534271e-02
  7.570813e-01    1.348852e+00   2.542811e-02
  7.592918e-01    1.387299e+00   2.575495e-02
  7.615022e-01    1.367730e+00   2.554117e-02
  7.637127e-01    1.343286e+00   2.528162e-02
  7.659231e-01    1.361021e+00   2.541821e-02
  7.681336e-01    1.323174e+00   2.503334e-02
  7.703440e-01    1.322634e+00   2.499961e-02
  7.725545e-01    1.336298e+00   2.509995e-02
  7.747650e-01    1.367991e+00   2.536028e-02
  7.769754e-01    1.381112e+00   2.543224e-02
  7.791859e-01    1.362234e+00   2.520811e-02
  7.813963e-01    1.390508e+00   2.541901e-02
  7.836068e-01    1.391438e+00   2.537879e-02
  7.858172e-01    1.379373e+00   2.522129e-02
  7.880277e-01    1.361367e+00   2.500846e-02
  7.902381e-01    1.367092e+00   2.501545e-02
  7.924486e-01    1.370608e+00   2.500121e-02
  7.946591e-01    1.396605e+00   2.519206e-02
  7.968695e-01    1.415094e+00   2.531293e-02
  7.990800e-01    1.369159e+00   2.485419e-02
  8.012904e-01    1.398618e+00   2.507668e-02
  8.035009e-01    1.406027e+00   2.509831e-02
  8.057113e-01    1.397757e+00   2.498109e-02
  8.079218e-01    1.424509e+00   2.517550e-02
  8.101323e-01    1.421926e+00   2.510997e-02
  8.123427e-01    1.394969e+00   2.482840e-02
  8.145532e-01    1.444474e+00   2.522187e-02
  8.167636e-01    1.485105e+00   2.553115e-02
  8.189741e-01    1.486491e+00   2.550050e-02
  8.211845e-01    1.414243e+00   2.483139e-02
  8.233950e-01    1.424726e+00   2.488271e-02
  8.256054e-01    1.469527e+00   2.522901e-02
  8.278159e-01    1.465430e+00   2.515225e-02
  8.300264e-01    1.456000e+00   2.503056e-02
  8.322368e-01    1.441336e+00   2.486376e-02
  8.344473e-01    1.437076e+00   2.478637e-02
  8.366577e-01    1.436477e+00   2.474134e-02
  8.388682e-01    1.403414e+00   2.441586e-02
  8.410786e-01    1.410165e+00   2.443549e-02
  8.432891e-01    1.447349e+00   2.471624e-02
  8.454996e-01    1.410883e+00   2.436429e-02
  8.477100e-01    1.379252e+00   2.405139e-02
  8.499205e-01    1.379475e+00   2.401555e-02
  8.521309e-01    1.396061e+00   2.412182e-02
  8.543414e-01    1.421759e+00   2.430484e-02
  8.565518e-01    1.422308e+00   2.427170e-02
  8.587623e-01    1.386508e+00   2.392697e-02
  8.609727e-01    1.373034e+00   2.377350e-02
  8.631832e-01    1.407101e+00   2.402951e-02
  8.653937e-01    1.398636e+00   2.392033e-02
  8.676041e-01    1.373755e+00   2.367081e-02
  8.698146e-01    1.395350e+00   2.381968e-02
  8.720250e-01    1.409972e+00   2.390767e-02
  8.742355e-01    1.367036e+00   2.350501e-02
  8.764459e-01    1.380817e+00   2.358714e-02
  8.786564e-01    1.400124e+00   2.371606e-02
  8.808669e-01    1.422085e+00   2.386510e-02
  8.830773e-01    1.386956e+00   2.353303e-02
  8.852878e-01    1.363150e+00   2.329520e-02
  8.874982e-01    1.371298e+00   2.333080e-02
  8.897087e-01    1.366604e+00   2.325604e-02
  8.919191e-01    1.349456e+00   2.307499e-02
  8.941296e-01    1.368049e+00   2.319894e-02
  8.963401e-01    1.371083e+00   2.319092e-02
  8.985505e-01    1.393549e+00   2.334567e-02
  9.007610e-01    1.353400e+00   2.297313e-02
  9.029714e-01    1.350947e+00   2.291934e-02
  9.051819e-01    1.390218e+00   2.321539e-02
  9.073923e-01    1.377527e+00   2.307525e-02
  9.096028e-01    1.361626e+00   2.290948e-02
  9.118132e-01    1.357236e+00   2.283915e-02
  9.140237e-01    1.374775e+00   2.295230e-02
  9.162342e-01    1.363144e+00   2.282312e-02
  9.184446e-01    1.360521e+00   2.276815e-02
  9.206551e-01    1.383953e+00   2.293030e-02
  9.228655e-01    1.375386e+00   2.282653e-02
  9.250760e-01    1.392803e+00   2.293765e-02
  9.272864e-01    1.416895e+00   2.310295e-02
  9.294969e-01    1.418494e+00   2.308232e-02
  9.317074e-01    1.378222e+00   2.272013e-02
  9.339178e-01    1.388996e+00   2.277762e-02
  9.361283e-01    1.396354e+00   2.280419e-02
  9.383387e-01    1.451200e+00   2.321611e-02
  9.405492e-01    1.453829e+00   2.320470e-02
  9.427596e-01    1.499703e+00   2.353399e-02
  9.449701e-01    1.526555e+00   2.371151e-02
  9.471805e-01    1.515591e+00   2.359275e-02
  9.493910e-01    1.508083e+00   2.350192e-02
  9.516015e-01    1.543862e+00   2.374588e-02
  9.538119e-01    1.560985e+00   2.384449e-02
  9.560224e-01    1.566155e+00   2.385033e-02
  9.582328e-01    1.573512e+00   2.387420e-02
  9.604433e-01    1.550726e+00   2.366716e-02
  9.626537e-01    1.558827e+00   2.369697e-02
  9.648642e-01    1.558345e+00   2.366088e-02
  9.670747e-01    1.560374e+00   2.364360e-02
  9.692851e-01    1.583712e+00   2.378812e-02
  9.714956e-01    1.564959e+00   2.361351e-02
  9.737060e-01    1.576560e+00   2.366973e-02
  9.759165e-01    1.577654e+00   2.364456e-02
  9.781269e-01    1.591460e+00   2.371672e-02
  9.803374e-01    1.586010e+00   2.364334e-02
  9.825478e-01    1.569154e+00   2.348635e-02
  9.847583e-01    1.546277e+00   2.328284e-02
  9.869688e-01    1.554688e+00   2.331484e-02
  9.891792e-01    1.530331e+00   2.310075e-02
  9.913897e-01    1.498762e+00   2.283037e-02
  9.936001e-01    1.521304e+00   2.297131e-02
  9.958106e-01    1.490274e+00   2.270495e-02
  9.980210e-01    1.465960e+00   2.248972e-02
  1.000231e+00    1.433440e+00   2.236073e-02
  1.002442e+00    1.384744e+00   2.209438e-02
  1.004652e+00    1.411088e+00   2.236578e-02
  1.006863e+00    1.403508e+00   2.235191e-02
  1.009073e+00    1.401860e+00   2.237298e-02
  1.011284e+00    1.363392e+00   2.209337e-02
  1.013494e+00    1.381569e+00   2.226221e-02
  1.015705e+00    1.374160e+00   2.222343e-02
  1.017915e+00    1.379245e+00   2.227984e-02
  1.020126e+00    1.382763e+00   2.232333e-02
  1.022336e+00    1.352762e+00   2.209071e-02
  1.024547e+00    1.312197e+00   2.176730e-02
  1.026757e+00    1.324850e+00   2.187971e-02
  1.028967e+00    1.355096e+00   2.213528e-02
  1.031178e+00    1.313008e+00   2.179450e-02
  1.033388e+00    1.335218e+00   2.198279e-02
  1.035599e+00    1.287738e+00   2.159155e-02
  1.037809e+00    1.277694e+00   2.151015e-02
  1.040020e+00    1.307505e+00   2.176081e-02
  1.042230e+00    1.300070e+00   2.170067e-02
  1.044441e+00    1.281173e+00   2.154217e-02
  1.046651e+00    1.283647e+00   2.156311e-02
  1.048862e+00    1.270821e+00   2.145439e-02
  1.051072e+00    1.247355e+00   2.125323e-02
  1.053282e+00    1.292861e+00   2.163656e-02
  1.055493e+00    1.300008e+00   2.169225e-02
  1.057703e+00    1.287077e+00   2.158272e-02
  1.059914e+00    1.237379e+00   2.115804e-02
  1.062124e+00    1.250209e+00   2.126372e-02
  1.064335e+00    1.277657e+00   2.149268e-02
  1.066545e+00    1.265159e+00   2.138177e-02
  1.068756e+00    1.268934e+00   2.141020e-02
  1.070966e+00    1.237800e+00   2.113990e-02
  1.073177e+00    1.241967e+00   2.116992e-02
  1.075387e+00    1.250174e+00   2.123493e-02
  1.077597e+00    1.219802e+00   2.096878e-02
  1.079808e+00    1.252783e+00   2.112757e-02
  1.082018e+00    1.255588e+00   2.097607e-02
  1.084229e+00    1.228276e+00   2.064575e-02
  1.086439e+00    1.248970e+00   2.073793e-02
  1.088650e+00    1.245274e+00   2.063722e-02
  1.090860e+00    1.237283e+00   2.050850e-02
  1.093071e+00    1.236723e+00   2.044646e-02
  1.095281e+00    1.233567e+00   2.036747e-02
  1.097492e+00    1.225773e+00   2.025244e-02
  1.099702e+00    1.249353e+00   2.039845e-02
  1.101912e+00    1.244490e+00   2.031330e-02
  1.104123e+00    1.263576e+00   2.042321e-02
  1.106333e+00    1.265655e+00   2.039829e-02
  1.108544e+00    1.261578e+00   2.032382e-02
  1.110754e+00    1.231440e+00   2.003966e-02
  1.112965e+00    1.248967e+00   2.014373e-02
  1.115175e+00    1.291371e+00   2.044357e-02
  1.117386e+00    1.279379e+00   2.031111e-02
  1.119596e+00    1.278210e+00   2.026577e-02
  1.121807e+00    1.317612e+00   2.053826e-02
  1.124017e+00    1.275862e+00   2.017535e-02
  1.126228e+00    1.252730e+00   1.995786e-02
  1.128438e+00    1.217650e+00   1.964216e-02
  1.130648e+00    1.205849e+00   1.951487e-02
  1.132859e+00    1.208449e+00   1.950395e-02
  1.135069e+00    1.209572e+00   1.948063e-02
  1.137280e+00    1.225189e+00   1.957501e-02
  1.139490e+00    1.210692e+00   1.942798e-02
  1.141701e+00    1.210580e+00   1.939610e-02
  1.143911e+00    1.186647e+00   1.917392e-02
  1.146122e+00    1.195749e+00   1.921752e-02
  1.148332e+00    1.187898e+00   1.912473e-02
  1.150543e+00    1.223687e+00   1.938163e-02
  1.152753e+00    1.214330e+00   1.927844e-02
  1.154963e+00    1.173356e+00   1.892169e-02
  1.157174e+00    1.174436e+00   1.890250e-02
  1.159384e+00    1.172018e+00   1.885545e-02
  1.161595e+00    1.179016e+00   1.888396e-02
  1.163805e+00    1.207249e+00   1.908126e-02
  1.166016e+00    1.215556e+00   1.911903e-02
  1.168226e+00    1.215075e+00   1.908797e-02
  1.170437e+00    1.186461e+00   1.883519e-02
  1.172647e+00    1.184296e+00   1.879110e-02
  1.174858e+00    1.170339e+00   1.865401e-02
  1.177068e+00    1.178937e+00   1.869613e-02
  1.179278e+00    1.192160e+00   1.877394e-02
  1.181489e+00    1.227571e+00   1.902506e-02
  1.183699e+00    1.216586e+00   1.891366e-02
  1.185910e+00    1.213232e+00   1.886131e-02
  1.188120e+00    1.215230e+00   1.885159e-02
  1.190331e+00    1.205517e+00   1.875087e-02
  1.192541e+00    1.175400e+00   1.848965e-02
  1.194752e+00    1.195280e+00   1.861992e-02
  1.196962e+00    1.215295e+00   1.875076e-02
  1.199173e+00    1.185844e+00   1.849734e-02
  1.201383e+00    1.180399e+00   1.842943e-02
  1.203593e+00    1.165085e+00   1.828643e-02
  1.205804e+00    1.187279e+00   1.843546e-02
  1.208014e+00    1.206438e+00   1.855825e-02
  1.210225e+00    1.191150e+00   1.841649e-02
  1.212435e+00    1.223821e+00   1.864374e-02
  1.214646e+00    1.183201e+00   1.830731e-02
  1.216856e+00    1.154134e+00   1.805745e-02
  1.219067e+00    1.178171e+00   1.822169e-02
  1.221277e+00    1.161600e+00   1.806986e-02
  1.223488e+00    1.180416e+00   1.819156e-02
  1.225698e+00    1.190361e+00   1.824275e-02
  1.227909e+00    1.181997e+00   1.815035e-02
  1.230119e+00    1.165991e+00   1.799742e-02
  1.232329e+00    1.148010e+00   1.782978e-02
  1.234540e+00    1.168559e+00   1.796046e-02
  1.236750e+00    1.146786e+00   1.776448e-02
  1.238961e+00    1.135437e+00   1.765161e-02
  1.241171e+00    1.149542e+00   1.773859e-02
  1.243382e+00    1.138242e+00   1.762961e-02
  1.245592e+00    1.143857e+00   1.765084e-02
  1.247803e+00    1.187034e+00   1.795872e-02
  1.250013e+00    1.171539e+00   1.781919e-02
  1.252224e+00    1.170187e+00   1.778726e-02
  1.254434e+00    1.164079e+00   1.771872e-02
  1.256644e+00    1.165303e+00   1.770649e-02
  1.258855e+00    1.148515e+00   1.755701e-02
  1.261065e+00    1.128176e+00   1.737950e-02
  1.263276e+00    1.135795e+00   1.741703e-02
  1.265486e+00    1.173917e+00   1.768557e-02
  1.267697e+00    1.151134e+00   1.749189e-02
  1.269907e+00    1.138443e+00   1.737434e-02
  1.272118e+00    1.147457e+00   1.742216e-02
  1.274328e+00    1.166935e+00   1.754829e-02
  1.276539e+00    1.176485e+00   1.759867e-02
  1.278749e+00    1.183787e+00   1.763234e-02
  1.280959e+00    1.169046e+00   1.750124e-02
  1.283170e+00    1.171500e+00   1.749870e-02
  1.285380e+00    1.196293e+00   1.766177e-02
  1.287591e+00    1.180670e+00   1.752546e-02
  1.289801e+00    1.179531e+00   1.749717e-02
  1.292012e+00    1.193679e+00   1.758570e-02
  1.294222e+00    1.168811e+00   1.738648e-02
  1.296433e+00    1.176562e+00   1.742943e-02
  1.298643e+00    1.198788e+00   1.757779e-02
  1.300854e+00    1.174650e+00   1.738460e-02
  1.303064e+00    1.191654e+00   1.749192e-02
  1.305274e+00    1.183390e+00   1.741109e-02
  1.307485e+00    1.203310e+00   1.753666e-02
  1.309695e+00    1.209475e+00   1.756049e-02
  1.311906e+00    1.193980e+00   1.742723e-02
  1.314116e+00    1.189917e+00   1.737803e-02
  1.316327e+00    1.197763e+00   1.741480e-02
  1.318537e+00    1.206922e+00   1.746055e-02
  1.320748e+00    1.223023e+00   1.755613e-02
  1.322958e+00    1.223483e+00   1.753990e-02
  1.325169e+00    1.227210e+00   1.754654e-02
  1.327379e+00    1.256116e+00   1.773094e-02
  1.329589e+00    1.256867e+00   1.771594e-02
  1.331800e+00    1.236280e+00   1.755042e-02
  1.334010e+00    1.254109e+00   1.765663e-02
  1.336221e+00    1.240966e+00   1.754300e-02
  1.338431e+00    1.244830e+00   1.755027e-02
  1.340642e+00    1.229611e+00   1.750389e-02
  1.342852e+00    1.212494e+00   1.747704e-02
  1.345063e+00    1.239010e+00   1.771449e-02
  1.347273e+00    1.242120e+00   1.777056e-02
  1.349484e+00    1.200419e+00   1.749578e-02
  1.351694e+00    1.200339e+00   1.751662e-02
  1.353905e+00    1.206377e+00   1.757762e-02
  1.356115e+00    1.204631e+00   1.757912e-02
  1.358325e+00    1.183161e+00   1.743423e-02
  1.360536e+00    1.172725e+00   1.736801e-02
  1.362746e+00    1.162672e+00   1.730228e-02
  1.364957e+00    1.157729e+00   1.727255e-02
  1.367167e+00    1.164382e+00   1.732877e-02
  1.369378e+00    1.152992e+00   1.724936e-02
  1.371588e+00    1.151914e+00   1.724607e-02
  1.373799e+00    1.147740e+00   1.721817e-02
  1.376009e+00    1.166750e+00   1.736336e-02
  1.378220e+00    1.163793e+00   1.734369e-02
  1.380430e+00    1.148613e+00   1.723274e-02
  1.382640e+00    1.153874e+00   1.727299e-02
  1.384851e+00    1.151376e+00   1.725511e-02
  1.387061e+00    1.126693e+00   1.706943e-02
  1.389272e+00    1.144943e+00   1.720730e-02
  1.391482e+00    1.141441e+00   1.718034e-02
  1.393693e+00    1.122134e+00   1.703361e-02
  1.395903e+00    1.116756e+00   1.699134e-02
  1.398114e+00    1.116444e+00   1.698767e-02
  1.400324e+00    1.125289e+00   1.705286e-02
  1.402535e+00    1.122573e+00   1.703006e-02
  1.404745e+00    1.159434e+00   1.730517e-02
  1.406955e+00    1.133569e+00   1.710853e-02
  1.409166e+00    1.119963e+00   1.700242e-02
  1.411376e+00    1.133688e+00   1.710335e-02
  1.413587e+00    1.120619e+00   1.700090e-02
  1.415797e+00    1.105097e+00   1.687945e-02
  1.418008e+00    1.124530e+00   1.698779e-02
  1.420218e+00    1.116200e+00   1.678443e-02
  1.422429e+00    1.066354e+00   1.632717e-02
  1.424639e+00    1.101630e+00   1.653478e-02
  1.426850e+00    1.094352e+00   1.642931e-02
  1.429060e+00    1.114056e+00   1.653067e-02
  1.431270e+00    1.098680e+00   1.637499e-02
  1.433481e+00    1.121840e+00   1.650818e-02
  1.435691e+00    1.134162e+00   1.656227e-02
  1.437902e+00    1.158625e+00   1.670513e-02
  1.440112e+00    1.127298e+00   1.644443e-02
  1.442323e+00    1.125313e+00   1.639885e-02
  1.444533e+00    1.132360e+00   1.641937e-02
  1.446744e+00    1.139202e+00   1.643943e-02
  1.448954e+00    1.131081e+00   1.635223e-02
  1.451165e+00    1.122637e+00   1.626310e-02
  1.453375e+00    1.167129e+00   1.655532e-02
  1.455586e+00    1.217166e+00   1.687893e-02
  1.457796e+00    1.231982e+00   1.695426e-02
  1.460006e+00    1.223346e+00   1.686798e-02
  1.462217e+00    1.224726e+00   1.685174e-02
  1.464427e+00    1.242842e+00   1.695058e-02
  1.466638e+00    1.237513e+00   1.688921e-02
  1.468848e+00    1.192340e+00   1.655352e-02
  1.471059e+00    1.181674e+00   1.645511e-02
  1.473269e+00    1.172485e+00   1.636758e-02
  1.475480e+00    1.166954e+00   1.630614e-02
  1.477690e+00    1.159270e+00   1.622958e-02
  1.479901e+00    1.148669e+00   1.613250e-02
  1.482111e+00    1.120279e+00   1.590998e-02
  1.484321e+00    1.096587e+00   1.571934e-02
  1.486532e+00    1.085448e+00   1.561861e-02
  1.488742e+00    1.080341e+00   1.556088e-02
  1.490953e+00    1.082952e+00   1.555877e-02
  1.493163e+00    1.104446e+00   1.569157e-02
  1.495374e+00    1.097885e+00   1.562487e-02
  1.497584e+00    1.083343e+00   1.550098e-02
  1.499795e+00    1.079595e+00   1.545410e-02
  1.502005e+00    1.062768e+00   1.531328e-02
  1.504216e+00    1.087183e+00   1.546862e-02
  1.506426e+00    1.075562e+00   1.536650e-02
  1.508636e+00    1.089476e+00   1.544651e-02
  1.510847e+00    1.125675e+00   1.568040e-02
  1.513057e+00    1.102552e+00   1.549502e-02
  1.515268e+00    1.083750e+00   1.533841e-02
  1.517478e+00    1.099418e+00   1.542533e-02
  1.519689e+00    1.116342e+00   1.552007e-02
  1.521899e+00    1.125398e+00   1.556099e-02
  1.524110e+00    1.124400e+00   1.553485e-02
  1.526320e+00    1.100612e+00   1.535126e-02
  1.528531e+00    1.110593e+00   1.540210e-02
  1.530741e+00    1.074529e+00   1.513221e-02
  1.532951e+00    1.055658e+00   1.498074e-02
  1.535162e+00    1.064096e+00   1.512040e-02
  1.537372e+00    1.066204e+00   1.519718e-02
  1.539583e+00    1.081391e+00   1.533689e-02
  1.541793e+00    1.093833e+00   1.543139e-02
  1.544004e+00    1.090003e+00   1.540459e-02
  1.546214e+00    1.083982e+00   1.536057e-02
  1.548425e+00    1.084983e+00   1.536791e-02
  1.550635e+00    1.107175e+00   1.553340e-02
  1.552846e+00    1.096928e+00   1.547042e-02
  1.555056e+00    1.093869e+00   1.540995e-02
  1.557266e+00    1.103886e+00   1.537632e-02
  1.559477e+00    1.104776e+00   1.532682e-02
  1.561687e+00    1.140221e+00   1.554137e-02
  1.563898e+00    1.195343e+00   1.589577e-02
  1.566108e+00    1.239962e+00   1.617384e-02
  1.568319e+00    1.236949e+00   1.613858e-02
  1.570529e+00    1.299374e+00   1.651510e-02
  1.572740e+00    1.324643e+00   1.664646e-02
  1.574950e+00    1.299395e+00   1.646017e-02
  1.577161e+00    1.223972e+00   1.595007e-02
  1.579371e+00    1.134074e+00   1.533055e-02
  1.581582e+00    1.101252e+00   1.508847e-02
  1.583792e+00    1.082948e+00   1.494573e-02
  1.586002e+00    1.109597e+00   1.511185e-02
  1.588213e+00    1.147767e+00   1.535299e-02
  1.590423e+00    1.318204e+00   1.643277e-02
  1.592634e+00    1.325634e+00   1.645685e-02
  1.594844e+00    1.165518e+00   1.541026e-02
  1.597055e+00    1.096366e+00   1.492685e-02
  1.599265e+00    1.080008e+00   1.479572e-02
  1.601476e+00    1.076237e+00   1.475096e-02
  1.603686e+00    1.086481e+00   1.480249e-02
  1.605897e+00    1.092003e+00   1.482114e-02
  1.608107e+00    1.108080e+00   1.491133e-02
  1.610317e+00    1.106535e+00   1.488267e-02
  1.612528e+00    1.110534e+00   1.489137e-02
  1.614738e+00    1.097556e+00   1.478620e-02
  1.616949e+00    1.093502e+00   1.474097e-02
  1.619159e+00    1.061486e+00   1.450612e-02
  1.621370e+00    1.036317e+00   1.431608e-02
  1.623580e+00    1.050074e+00   1.439374e-02
  1.625791e+00    1.044468e+00   1.433830e-02
  1.628001e+00    1.034590e+00   1.425340e-02
  1.630212e+00    1.012362e+00   1.408309e-02
  1.632422e+00    1.024073e+00   1.414769e-02
  1.634632e+00    1.010461e+00   1.403735e-02
  1.636843e+00    9.865079e-01   1.385392e-02
  1.639053e+00    9.994012e-01   1.392818e-02
  1.641264e+00    1.002120e+00   1.393132e-02
  1.643474e+00    9.993711e-01   1.389606e-02
  1.645685e+00    9.959477e-01   1.385679e-02
  1.647895e+00    9.925836e-01   1.381799e-02
  1.650106e+00    9.837695e-01   1.374078e-02
  1.652316e+00    1.004026e+00   1.386609e-02
  1.654527e+00    9.984409e-01   1.381193e-02
  1.656737e+00    9.820358e-01   1.368255e-02
  1.658947e+00    9.875962e-01   1.370606e-02
  1.661158e+00    9.754819e-01   1.360659e-02
  1.663368e+00    9.548160e-01   1.344691e-02
  1.665579e+00    9.675789e-01   1.352148e-02
  1.667789e+00    9.590575e-01   1.344675e-02
  1.670000e+00    9.515454e-01   1.337965e-02
  1.672210e+00    9.792439e-01   1.355807e-02
  1.674421e+00    9.890608e-01   1.361136e-02
  1.676631e+00    9.877619e-01   1.358740e-02
  1.678842e+00    9.531336e-01   1.333244e-02
  1.681052e+00    9.291186e-01   1.314919e-02
  1.683263e+00    9.364994e-01   1.318729e-02
  1.685473e+00    9.474034e-01   1.324970e-02
  1.687683e+00    9.136963e-01   1.299769e-02
  1.689894e+00    9.210845e-01   1.303557e-02
  1.692104e+00    9.070120e-01   1.292193e-02
  1.694315e+00    9.002315e-01   1.286023e-02
  1.696525e+00    9.019814e-01   1.285882e-02
  1.698736e+00    9.082037e-01   1.288939e-02
  1.700946e+00    9.251897e-01   1.299524e-02
  1.703157e+00    8.982781e-01   1.279138e-02
  1.705367e+00    8.686790e-01   1.256568e-02
  1.707578e+00    8.829694e-01   1.265523e-02
  1.709788e+00    8.761951e-01   1.259369e-02
  1.711998e+00    8.753994e-01   1.257420e-02
  1.714209e+00    8.728230e-01   1.254245e-02
  1.716419e+00    8.729875e-01   1.253053e-02
  1.718630e+00    8.605604e-01   1.242800e-02
  1.720840e+00    8.694868e-01   1.247923e-02
  1.723051e+00    8.741252e-01   1.249967e-02
  1.725261e+00    8.670259e-01   1.243529e-02
  1.727472e+00    8.550690e-01   1.233627e-02
  1.729682e+00    8.565915e-01   1.233486e-02
  1.731893e+00    8.604515e-01   1.234980e-02
  1.734103e+00    8.543521e-01   1.229328e-02
  1.736313e+00    8.251323e-01   1.206853e-02
  1.738524e+00    8.380398e-01   1.214990e-02
  1.740734e+00    8.561302e-01   1.226767e-02
  1.742945e+00    8.368563e-01   1.211646e-02
  1.745155e+00    8.362595e-01   1.209979e-02
  1.747366e+00    8.455793e-01   1.215427e-02
  1.749576e+00    8.464004e-01   1.214748e-02
  1.751787e+00    8.133014e-01   1.189549e-02
  1.753997e+00    8.208060e-01   1.193796e-02
  1.756208e+00    8.292899e-01   1.198733e-02
  1.758418e+00    8.421718e-01   1.206787e-02
  1.760628e+00    8.606500e-01   1.218695e-02
  1.762839e+00    8.646421e-01   1.220270e-02
  1.765049e+00    8.347194e-01   1.197748e-02
  1.767260e+00    8.192278e-01   1.185395e-02
  1.769470e+00    8.137353e-01   1.180218e-02
  1.771681e+00    7.955524e-01   1.165756e-02
  1.773891e+00    7.875455e-01   1.158686e-02
  1.776102e+00    7.804160e-01   1.152261e-02
  1.778312e+00    8.026262e-01   1.167368e-02
  1.780523e+00    7.852392e-01   1.153494e-02
  1.782733e+00    7.790942e-01   1.147815e-02
  1.784944e+00    7.735205e-01   1.142530e-02
  1.787154e+00    7.765491e-01   1.143621e-02
  1.789364e+00    7.657363e-01   1.134499e-02
  1.791575e+00    7.698469e-01   1.136398e-02
  1.793785e+00    7.576935e-01   1.126267e-02
  1.795996e+00    7.724757e-01   1.136055e-02
  1.798206e+00    7.765089e-01   1.137867e-02
  1.800417e+00    7.492739e-01   1.116587e-02
  1.802627e+00    7.575307e-01   1.121636e-02
  1.804838e+00    7.618592e-01   1.123728e-02
  1.807048e+00    7.911651e-01   1.143939e-02
  1.809259e+00    7.977877e-01   1.147443e-02
  1.811469e+00    7.741125e-01   1.128905e-02
  1.813679e+00    7.541132e-01   1.112856e-02
  1.815890e+00    7.647926e-01   1.119348e-02
  1.818100e+00    7.418669e-01   1.101069e-02
  1.820311e+00    7.594211e-01   1.112657e-02
  1.822521e+00    7.648061e-01   1.115221e-02
  1.824732e+00    7.484246e-01   1.101854e-02
  1.826942e+00    7.373572e-01   1.092552e-02
  1.829153e+00    7.496046e-01   1.100511e-02
  1.831363e+00    7.447927e-01   1.095871e-02
  1.833574e+00    7.401499e-01   1.091378e-02
  1.835784e+00    7.486898e-01   1.096602e-02
  1.837994e+00    7.525480e-01   1.098339e-02
  1.840205e+00    7.425433e-01   1.089986e-02
  1.842415e+00    7.348745e-01   1.083260e-02
  1.844626e+00    7.613598e-01   1.101529e-02
  1.846836e+00    7.652074e-01   1.103236e-02
  1.849047e+00    7.708865e-01   1.106226e-02
  1.851257e+00    7.695897e-01   1.104393e-02
  1.853468e+00    7.593962e-01   1.096228e-02
  1.855678e+00    7.384447e-01   1.080177e-02
  1.857889e+00    7.481736e-01   1.086476e-02
  1.860099e+00    7.442607e-01   1.082827e-02
  1.862309e+00    7.235480e-01   1.066872e-02
  1.864520e+00    7.367747e-01   1.075780e-02
  1.866730e+00    7.314626e-01   1.071031e-02
  1.868941e+00    7.044924e-01   1.050103e-02
  1.871151e+00    7.230810e-01   1.062818e-02
  1.873362e+00    7.240575e-01   1.062487e-02
  1.875572e+00    7.265431e-01   1.063300e-02
  1.877783e+00    7.246850e-01   1.060881e-02
  1.879993e+00    7.377989e-01   1.069397e-02
  1.882204e+00    7.375597e-01   1.068204e-02
  1.884414e+00    7.372136e-01   1.066920e-02
  1.886624e+00    7.113038e-01   1.046987e-02
  1.888835e+00    7.316165e-01   1.060806e-02
  1.891045e+00    7.273157e-01   1.056673e-02
  1.893256e+00    7.148278e-01   1.046537e-02
  1.895466e+00    6.977428e-01   1.032937e-02
  1.897677e+00    6.801496e-01   1.018844e-02
  1.899887e+00    7.405472e-01   1.062082e-02
  1.902098e+00    7.483405e-01   1.066630e-02
  1.904308e+00    7.340091e-01   1.055373e-02
  1.906519e+00    7.196378e-01   1.043982e-02
  1.908729e+00    6.977255e-01   1.026991e-02
  1.910940e+00    7.125642e-01   1.036820e-02
  1.913150e+00    7.154617e-01   1.037941e-02
  1.915360e+00    7.046899e-01   1.029118e-02
  1.917571e+00    6.921678e-01   1.018934e-02
  1.919781e+00    7.105648e-01   1.031393e-02
  1.921992e+00    7.014313e-01   1.023762e-02
  1.924202e+00    6.845598e-01   1.010390e-02
  1.926413e+00    6.756692e-01   1.002869e-02
  1.928623e+00    6.865754e-01   1.009962e-02
  1.930834e+00    7.100721e-01   1.026123e-02
  1.933044e+00    6.912615e-01   1.011459e-02
  1.935255e+00    6.750078e-01   9.985519e-03
  1.937465e+00    6.901739e-01   1.008747e-02
  1.939675e+00    6.664243e-01   9.902546e-03
  1.941886e+00    6.685297e-01   9.908778e-03
  1.944096e+00    6.952818e-01   1.009563e-02
  1.946307e+00    6.801457e-01   9.975620e-03
  1.948517e+00    6.875489e-01   1.002007e-02
  1.950728e+00    6.727703e-01   9.902404e-03
  1.952938e+00    6.743888e-01   9.905038e-03
  1.955149e+00    6.540856e-01   9.745510e-03
  1.957359e+00    6.515998e-01   9.717893e-03
  1.959570e+00    6.747991e-01   9.879340e-03
  1.961780e+00    6.789020e-01   9.900172e-03
  1.963990e+00    6.701723e-01   9.827010e-03
  1.966201e+00    6.638255e-01   9.771141e-03
  1.968411e+00    6.694587e-01   9.803160e-03
  1.970622e+00    6.769697e-01   9.848654e-03
  1.972832e+00    6.615057e-01   9.726385e-03
  1.975043e+00    6.573243e-01   9.686398e-03
  1.977253e+00    6.620189e-01   9.711796e-03
  1.979464e+00    6.751968e-01   9.798651e-03
  1.981674e+00    6.702550e-01   9.753253e-03
  1.983885e+00    6.683582e-01   9.730167e-03
  1.986095e+00    6.687126e-01   9.723759e-03
  1.988305e+00    6.906317e-01   9.872530e-03
  1.990516e+00    6.663328e-01   9.688137e-03
  1.992726e+00    6.726577e-01   9.724991e-03
  1.994937e+00    6.775062e-01   9.750530e-03
  1.997147e+00    6.725846e-01   9.706003e-03
  1.999358e+00    6.617708e-01   9.618543e-03
  2.001568e+00    6.605447e-01   9.599638e-03
  2.003779e+00    6.508992e-01   9.518360e-03
  2.005989e+00    6.488875e-01   9.492609e-03
  2.008200e+00    6.564422e-01   9.537064e-03
  2.010410e+00    6.582121e-01   9.539049e-03
  2.012621e+00    6.690202e-01   9.606130e-03
  2.014831e+00    6.431801e-01   9.408292e-03
  2.017041e+00    6.355857e-01   9.343131e-03
  2.019252e+00    6.363845e-01   9.339904e-03
  2.021462e+00    6.426175e-01   9.376827e-03
  2.023673e+00    6.429120e-01   9.370362e-03
  2.025883e+00    6.567499e-01   9.461841e-03
  2.028094e+00    6.471979e-01   9.383904e-03
  2.030304e+00    6.434119e-01   9.347646e-03
  2.032515e+00    6.408323e-01   9.320347e-03
  2.034725e+00    6.543510e-01   9.409389e-03
  2.036936e+00    6.299299e-01   9.223621e-03
  2.039146e+00    6.645385e-01   9.464623e-03
  2.041356e+00    6.693013e-01   9.489433e-03
  2.043567e+00    6.580200e-01   9.400432e-03
  2.045777e+00    6.530979e-01   9.356600e-03
  2.047988e+00    6.755354e-01   9.507096e-03
  2.050198e+00    6.837541e-01   9.556744e-03
  2.052409e+00    6.574006e-01   9.363612e-03
  2.054619e+00    6.355286e-01   9.199747e-03
  2.056830e+00    6.277605e-01   9.136778e-03
  2.059040e+00    6.422004e-01   9.234320e-03
  2.061251e+00    6.384317e-01   9.200498e-03
  2.063461e+00    6.398262e-01   9.203523e-03
  2.065671e+00    6.385452e-01   9.186246e-03
  2.067882e+00    6.478940e-01   9.244880e-03
  2.070092e+00    6.346713e-01   9.141590e-03
  2.072303e+00    6.396942e-01   9.169200e-03
  2.074513e+00    6.524951e-01   9.251800e-03
  2.076724e+00    6.471055e-01   9.204672e-03
  2.078934e+00    6.472667e-01   9.197431e-03
  2.081145e+00    6.184341e-01   8.981965e-03
  2.083355e+00    6.234930e-01   9.010191e-03
  2.085566e+00    6.277944e-01   9.033043e-03
  2.087776e+00    6.200025e-01   8.968090e-03
  2.089986e+00    6.189196e-01   8.952218e-03
  2.092197e+00    6.308665e-01   9.029915e-03
  2.094407e+00    6.294449e-01   9.011211e-03
  2.096618e+00    6.350968e-01   9.043301e-03
  2.098828e+00    6.209930e-01   8.933786e-03
  2.101039e+00    6.115497e-01   8.857369e-03
  2.103249e+00    6.242634e-01   8.940962e-03
  2.105460e+00    6.121530e-01   8.845572e-03
  2.107670e+00    6.063448e-01   8.795525e-03
  2.109881e+00    6.045774e-01   8.774340e-03
  2.112091e+00    6.056035e-01   8.773573e-03
  2.114301e+00    6.143602e-01   8.828695e-03
  2.116512e+00    6.131621e-01   8.811985e-03
  2.118722e+00    6.031985e-01   8.732031e-03
  2.120933e+00    6.124591e-01   8.790627e-03
  2.123143e+00    6.103197e-01   8.767055e-03
  2.125354e+00    6.237757e-01   8.855228e-03
  2.127564e+00    6.035655e-01   8.702575e-03
  2.129775e+00    6.114281e-01   8.751011e-03
  2.131985e+00    5.906710e-01   8.592963e-03
  2.134196e+00    6.006541e-01   8.657377e-03
  2.136406e+00    5.850466e-01   8.536239e-03
  2.138617e+00    6.247122e-01   8.812894e-03
  2.140827e+00    6.808565e-01   9.216182e-03
  2.143037e+00    6.342723e-01   8.938411e-03
  2.145248e+00    5.855463e-01   8.608229e-03
  2.147458e+00    6.000869e-01   8.728415e-03
  2.149669e+00    6.018839e-01   8.752448e-03
  2.151879e+00    6.152520e-01   8.857744e-03
  2.154090e+00    6.060055e-01   8.797741e-03
  2.156300e+00    6.031128e-01   8.782832e-03
  2.158511e+00    6.062279e-01   8.810447e-03
  2.160721e+00    5.808033e-01   8.628097e-03
  2.162932e+00    5.907873e-01   8.705366e-03
  2.165142e+00    5.948948e-01   8.738383e-03
  2.167352e+00    5.870414e-01   8.683185e-03
  2.169563e+00    5.849541e-01   8.669525e-03
  2.171773e+00    5.918895e-01   8.723018e-03
  2.173984e+00    5.829958e-01   8.658548e-03
  2.176194e+00    5.852684e-01   8.676506e-03
  2.178405e+00    5.782167e-01   8.624700e-03
  2.180615e+00    5.778783e-01   8.622820e-03
  2.182826e+00    5.708880e-01   8.571098e-03
  2.185036e+00    5.760052e-01   8.609500e-03
  2.187247e+00    5.633382e-01   8.514255e-03
  2.189457e+00    5.652958e-01   8.528649e-03
  2.191667e+00    5.819379e-01   8.653126e-03
  2.193878e+00    5.757724e-01   8.606656e-03
  2.196088e+00    5.809209e-01   8.644408e-03
  2.198299e+00    5.683631e-01   8.549490e-03
  2.200509e+00    5.765303e-01   8.609707e-03
  2.202720e+00    5.780511e-01   8.620006e-03
  2.204930e+00    5.846542e-01   8.667947e-03
  2.207141e+00    5.820227e-01   8.647391e-03
  2.209351e+00    5.694550e-01   8.551803e-03
  2.211562e+00    5.650751e-01   8.517353e-03
  2.213772e+00    5.819913e-01   8.592458e-03
  2.215982e+00    5.821740e-01   8.552797e-03
  2.218193e+00    5.753576e-01   8.475221e-03
  2.220403e+00    5.675832e-01   8.395220e-03
  2.222614e+00    5.803953e-01   8.469986e-03
  2.224824e+00    5.976942e-01   8.577046e-03
  2.227035e+00    5.735213e-01   8.385709e-03
  2.229245e+00    5.774102e-01   8.398344e-03
  2.231456e+00    5.856386e-01   8.443397e-03
  2.233666e+00    5.857931e-01   8.430405e-03
  2.235877e+00    5.743807e-01   8.334676e-03
  2.238087e+00    5.779636e-01   8.348110e-03
  2.240298e+00    5.823538e-01   8.366922e-03
  2.242508e+00    5.579867e-01   8.176182e-03
  2.244718e+00    5.656249e-01   8.217419e-03
  2.246929e+00    5.473604e-01   8.070601e-03
  2.249139e+00    5.533130e-01   8.103090e-03
  2.251350e+00    5.496036e-01   8.065250e-03
  2.253560e+00    5.708684e-01   8.209091e-03
  2.255771e+00    5.794936e-01   8.260243e-03
  2.257981e+00    5.628842e-01   8.130729e-03
  2.260192e+00    5.580587e-01   8.085593e-03
  2.262402e+00    5.675924e-01   8.144361e-03
  2.264613e+00    5.634652e-01   8.104701e-03
  2.266823e+00    5.721102e-01   8.156973e-03
  2.269033e+00    5.756319e-01   8.172375e-03
  2.271244e+00    5.769555e-01   8.172072e-03
  2.273454e+00    5.761824e-01   8.157016e-03
  2.275665e+00    5.804207e-01   8.177320e-03
  2.277875e+00    5.802038e-01   8.166496e-03
  2.280086e+00    5.669817e-01   8.063599e-03
  2.282296e+00    5.665653e-01   8.051915e-03
  2.284507e+00    5.614899e-01   8.006418e-03
  2.286717e+00    5.600551e-01   7.987441e-03
  2.288928e+00    5.612492e-01   7.986838e-03
  2.291138e+00    5.618147e-01   7.982153e-03
  2.293348e+00    5.531049e-01   7.911268e-03
  2.295559e+00    5.680983e-01   8.009091e-03
  2.297769e+00    5.766566e-01   8.060534e-03
  2.299980e+00    5.572631e-01   7.915224e-03
  2.302190e+00    5.481804e-01   7.842089e-03
  2.304401e+00    5.346797e-01   7.736459e-03
  2.306611e+00    5.486471e-01   7.828437e-03
  2.308822e+00    5.519067e-01   7.843928e-03
  2.311032e+00    5.267360e-01   7.657185e-03
  2.313243e+00    5.231565e-01   7.625474e-03
  2.315453e+00    5.318596e-01   7.681794e-03
  2.317663e+00    5.564102e-01   7.848609e-03
  2.319874e+00    5.679483e-01   7.921414e-03
  2.322084e+00    5.402972e-01   7.717979e-03
  2.324295e+00    5.478727e-01   7.764304e-03
  2.326505e+00    5.490356e-01   7.764195e-03
  2.328716e+00    5.352556e-01   7.658349e-03
  2.330926e+00    5.388403e-01   7.675878e-03
  2.333137e+00    5.401949e-01   7.677851e-03
  2.335347e+00    5.472847e-01   7.719876e-03
  2.337558e+00    5.479159e-01   7.716711e-03
  2.339768e+00    5.321649e-01   7.597178e-03
  2.341979e+00    5.343773e-01   7.605289e-03
  2.344189e+00    5.375934e-01   7.620436e-03
  2.346399e+00    5.498545e-01   7.698940e-03
  2.348610e+00    5.482005e-01   7.679519e-03
  2.350820e+00    5.359641e-01   7.585804e-03
  2.353031e+00    5.355873e-01   7.575521e-03
  2.355241e+00    5.233740e-01   7.481332e-03
  2.357452e+00    5.259491e-01   7.492023e-03
  2.359662e+00    5.304461e-01   7.516448e-03
  2.361873e+00    5.312721e-01   7.514755e-03
  2.364083e+00    5.259884e-01   7.469974e-03
  2.366294e+00    5.288710e-01   7.482987e-03
  2.368504e+00    5.217422e-01   7.425006e-03
  2.370714e+00    5.234775e-01   7.429972e-03
  2.372925e+00    5.229812e-01   7.419086e-03
  2.375135e+00    5.274854e-01   7.443554e-03
  2.377346e+00    5.336523e-01   7.479599e-03
  2.379556e+00    5.324966e-01   7.464191e-03
  2.381767e+00    5.186359e-01   7.359237e-03
  2.383977e+00    5.190865e-01   7.355154e-03
  2.386188e+00    5.315323e-01   7.435481e-03
  2.388398e+00    5.347397e-01   7.450496e-03
  2.390609e+00    5.232796e-01   7.363101e-03
  2.392819e+00    5.188946e-01   7.325054e-03
  2.395029e+00    5.239050e-01   7.353270e-03
  2.397240e+00    5.272164e-01   7.369177e-03
  2.399450e+00    5.220730e-01   7.325951e-03
  2.401661e+00    5.252326e-01   7.340956e-03
  2.403871e+00    5.202236e-01   7.298733e-03
  2.406082e+00    5.090933e-01   7.213429e-03
  2.408292e+00    5.251639e-01   7.319152e-03
  2.410503e+00    5.151871e-01   7.242427e-03
  2.412713e+00    5.067958e-01   7.176061e-03
  2.414924e+00    5.093729e-01   7.187441e-03
  2.417134e+00    4.995585e-01   7.110903e-03
  2.419344e+00    5.092145e-01   7.172493e-03
  2.421555e+00    5.004303e-01   7.103536e-03
  2.423765e+00    5.024562e-01   7.111086e-03
  2.425976e+00    5.126439e-01   7.175625e-03
  2.428186e+00    5.019068e-01   7.093485e-03
  2.430397e+00    4.983499e-01   7.061446e-03
  2.432607e+00    5.089780e-01   7.129634e-03
  2.434818e+00    5.005137e-01   7.063182e-03
  2.437028e+00    4.995734e-01   7.049994e-03
  2.439239e+00    4.993087e-01   7.041107e-03
  2.441449e+00    4.944710e-01   7.000335e-03
  2.443659e+00    4.874584e-01   6.943846e-03
  2.445870e+00    4.815575e-01   6.912753e-03
  2.448080e+00    4.789328e-01   6.925433e-03
  2.450291e+00    4.966469e-01   7.067746e-03
  2.452501e+00    4.888213e-01   7.022133e-03
  2.454712e+00    4.886756e-01   7.028858e-03
  2.456922e+00    4.812188e-01   6.981123e-03
  2.459133e+00    4.663088e-01   6.877038e-03
  2.461343e+00    4.661111e-01   6.879512e-03
  2.463554e+00    4.820110e-01   6.999077e-03
  2.465764e+00    4.672467e-01   6.893910e-03
  2.467975e+00    4.808402e-01   6.995588e-03
  2.470185e+00    4.623802e-01   6.862054e-03
  2.472395e+00    4.626984e-01   6.865519e-03
  2.474606e+00    4.582613e-01   6.833930e-03
  2.476816e+00    4.724853e-01   6.939875e-03
  2.479027e+00    4.650063e-01   6.885509e-03
  2.481237e+00    4.725432e-01   6.941332e-03
  2.483448e+00    4.696507e-01   6.920346e-03
  2.485658e+00    4.721587e-01   6.938663e-03
  2.487869e+00    4.706507e-01   6.927624e-03
  2.490079e+00    4.584967e-01   6.837081e-03
  2.492290e+00    4.663546e-01   6.895046e-03
  2.494500e+00    4.605022e-01   6.850957e-03
  2.496710e+00    4.555763e-01   6.813577e-03
  2.498921e+00    4.501746e-01   6.772158e-03
  2.501131e+00    4.459631e-01   6.739520e-03
  2.503342e+00    4.638633e-01   6.872291e-03
  2.505552e+00    4.406710e-01   6.697251e-03
  2.507763e+00    4.511011e-01   6.774734e-03
  2.509973e+00    4.341020e-01   6.644593e-03
  2.512184e+00    4.503187e-01   6.766077e-03
  2.514394e+00    4.421789e-01   6.696075e-03
  2.516605e+00    4.334409e-01   6.586889e-03
  2.518815e+00    4.413953e-01   6.621091e-03
  2.521025e+00    4.508409e-01   6.672146e-03
  2.523236e+00    4.543472e-01   6.681327e-03
  2.525446e+00    4.580248e-01   6.693734e-03
  2.527657e+00    4.467590e-01   6.597456e-03
  2.529867e+00    4.277489e-01   6.442754e-03
  2.532078e+00    4.322856e-01   6.463183e-03
  2.534288e+00    4.499215e-01   6.580832e-03
  2.536499e+00    4.495035e-01   6.566747e-03
  2.538709e+00    4.565233e-01   6.607538e-03
  2.540920e+00    4.577385e-01   6.606406e-03
  2.543130e+00    4.455069e-01   6.507980e-03
  2.545340e+00    4.386725e-01   6.448662e-03
  2.547551e+00    4.400673e-01   6.449766e-03
  2.549761e+00    4.430512e-01   6.462788e-03
  2.551972e+00    4.457809e-01   6.474004e-03
  2.554182e+00    4.557397e-01   6.537349e-03
  2.556393e+00    4.438724e-01   6.443292e-03
  2.558603e+00    4.202961e-01   6.261679e-03
  2.560814e+00    4.318480e-01   6.339192e-03
  2.563024e+00    4.503557e-01   6.465636e-03
  2.565235e+00    4.320980e-01   6.324547e-03
  2.567445e+00    4.518191e-01   6.458337e-03
  2.569656e+00    4.276033e-01   6.274053e-03
  2.571866e+00    4.335313e-01   6.308805e-03
  2.574076e+00    4.380759e-01   6.333262e-03
  2.576287e+00    4.417309e-01   6.351935e-03
  2.578497e+00    4.273050e-01   6.240210e-03
  2.580708e+00    4.331348e-01   6.275211e-03
  2.582918e+00    4.379936e-01   6.303165e-03
  2.585129e+00    4.242938e-01   6.196761e-03
  2.587339e+00    4.320106e-01   6.245818e-03
  2.589550e+00    4.238909e-01   6.179981e-03
  2.591760e+00    4.365095e-01   6.264134e-03
  2.593971e+00    4.392973e-01   6.277156e-03
  2.596181e+00    4.303016e-01   6.206834e-03
  2.598391e+00    4.236129e-01   6.153688e-03
  2.600602e+00    4.181433e-01   6.108460e-03
  2.602812e+00    4.312193e-01   6.196300e-03
  2.605023e+00    4.292657e-01   6.175672e-03
  2.607233e+00    4.225578e-01   6.120719e-03
  2.609444e+00    4.263653e-01   6.141605e-03
  2.611654e+00    4.224146e-01   6.106408e-03
  2.613865e+00    4.191395e-01   6.076269e-03
  2.616075e+00    4.179734e-01   6.061336e-03
  2.618286e+00    4.157439e-01   6.038809e-03
  2.620496e+00    4.181587e-01   6.050216e-03
  2.622706e+00    4.267445e-01   6.106726e-03
  2.624917e+00    4.254625e-01   6.092200e-03
  2.627127e+00    4.242682e-01   6.078361e-03
  2.629338e+00    4.323702e-01   6.130582e-03
  2.631548e+00    4.317155e-01   6.120244e-03
  2.633759e+00    4.155210e-01   5.997843e-03
  2.635969e+00    4.320552e-01   6.109796e-03
  2.638180e+00    4.343578e-01   6.119570e-03
  2.640390e+00    4.221495e-01   6.026885e-03
  2.642601e+00    4.350625e-01   6.112173e-03
  2.644811e+00    4.289314e-01   6.062393e-03
  2.647021e+00    4.239091e-01   6.020751e-03
  2.649232e+00    4.274349e-01   6.039529e-03
  2.651442e+00    4.237850e-01   6.007690e-03
  2.653653e+00    4.167814e-01   5.951639e-03
  2.655863e+00    4.293371e-01   6.034396e-03
  2.658074e+00    4.309588e-01   6.039669e-03
  2.660284e+00    4.164127e-01   5.931017e-03
  2.662495e+00    4.296786e-01   6.018490e-03
  2.664705e+00    4.239540e-01   5.972196e-03
  2.666916e+00    4.270155e-01   5.987722e-03
  2.669126e+00    4.176287e-01   5.915625e-03
  2.671337e+00    4.195429e-01   5.923104e-03
  2.673547e+00    4.154970e-01   5.888636e-03
  2.675757e+00    4.167986e-01   5.891926e-03
  2.677968e+00    4.171823e-01   5.888652e-03
  2.680178e+00    4.139931e-01   5.860230e-03
  2.682389e+00    4.078191e-01   5.810570e-03
  2.684599e+00    4.152210e-01   5.857359e-03
  2.686810e+00    4.255404e-01   5.923572e-03
  2.689020e+00    4.186659e-01   5.869725e-03
  2.691231e+00    4.185025e-01   5.862774e-03
  2.693441e+00    4.109761e-01   5.804194e-03
  2.695652e+00    4.178788e-01   5.846706e-03
  2.697862e+00    4.168928e-01   5.833962e-03
  2.700072e+00    4.158016e-01   5.820716e-03
  2.702283e+00    4.177076e-01   5.828296e-03
  2.704493e+00    4.173233e-01   5.819809e-03
  2.706704e+00    4.091251e-01   5.756504e-03
  2.708914e+00    4.088852e-01   5.749355e-03
  2.711125e+00    4.033348e-01   5.704503e-03
  2.713335e+00    4.140574e-01   5.774234e-03
  2.715546e+00    4.070259e-01   5.719085e-03
  2.717756e+00    4.128485e-01   5.754415e-03
  2.719967e+00    4.141913e-01   5.758046e-03
  2.722177e+00    4.041448e-01   5.682197e-03
  2.724387e+00    3.985363e-01   5.637097e-03
  2.726598e+00    3.997954e-01   5.640491e-03
  2.728808e+00    4.030610e-01   5.657874e-03
  2.731019e+00    4.103564e-01   5.703218e-03
  2.733229e+00    4.046665e-01   5.658240e-03
  2.735440e+00    3.969789e-01   5.598544e-03
  2.737650e+00    4.117345e-01   5.696101e-03
  2.739861e+00    4.007488e-01   5.614079e-03
  2.742071e+00    3.995305e-01   5.600297e-03
  2.744282e+00    4.039649e-01   5.625593e-03
  2.746492e+00    4.035103e-01   5.616889e-03
  2.748702e+00    4.113808e-01   5.665958e-03
  2.750913e+00    4.033315e-01   5.604954e-03
  2.753123e+00    4.089130e-01   5.637973e-03
  2.755334e+00    3.960980e-01   5.543393e-03
  2.757544e+00    3.955875e-01   5.534632e-03
  2.759755e+00    4.050843e-01   5.595242e-03
  2.761965e+00    4.217291e-01   5.703454e-03
  2.764176e+00    4.154074e-01   5.654973e-03
  2.766386e+00    4.134205e-01   5.636058e-03
  2.768597e+00    4.048641e-01   5.572050e-03
  2.770807e+00    3.935790e-01   5.488511e-03
  2.773017e+00    3.915691e-01   5.469080e-03
  2.775228e+00    4.025301e-01   5.539782e-03
  2.777438e+00    3.995745e-01   5.514121e-03
  2.779649e+00    3.991811e-01   5.506012e-03
  2.781859e+00    4.039287e-01   5.533365e-03
  2.784070e+00    4.027477e-01   5.519873e-03
  2.786280e+00    4.106891e-01   5.568685e-03
  2.788491e+00    4.061769e-01   5.532633e-03
  2.790701e+00    3.873045e-01   5.397473e-03
  2.792912e+00    3.997215e-01   5.477839e-03
  2.795122e+00    4.051069e-01   5.509342e-03
  2.797333e+00    3.940674e-01   5.428686e-03
  2.799543e+00    3.985729e-01   5.454276e-03
  2.801753e+00    3.916332e-01   5.401257e-03
  2.803964e+00    4.039660e-01   5.480413e-03
  2.806174e+00    4.195450e-01   5.579337e-03
  2.808385e+00    3.996943e-01   5.439500e-03
  2.810595e+00    4.095645e-01   5.499875e-03
  2.812806e+00    3.984211e-01   5.418496e-03
  2.815016e+00    3.888746e-01   5.348881e-03
  2.817227e+00    3.934040e-01   5.403549e-03
  2.819437e+00    3.988922e-01   5.451291e-03
  2.821648e+00    4.003433e-01   5.463295e-03
  2.823858e+00    4.061045e-01   5.507403e-03
  2.826068e+00    4.029762e-01   5.490771e-03
  2.828279e+00    3.936446e-01   5.430491e-03
  2.830489e+00    4.004386e-01   5.480232e-03
  2.832700e+00    4.046880e-01   5.511597e-03
  2.834910e+00    3.967029e-01   5.458854e-03
  2.837121e+00    4.008434e-01   5.488838e-03
  2.839331e+00    3.923936e-01   5.431808e-03
  2.841542e+00    3.956846e-01   5.455454e-03
  2.843752e+00    3.971969e-01   5.466600e-03
  2.845963e+00    4.025915e-01   5.503964e-03
  2.848173e+00    3.973936e-01   5.468398e-03
  2.850383e+00    3.933011e-01   5.440441e-03
  2.852594e+00    3.919544e-01   5.431036e-03
  2.854804e+00    3.949594e-01   5.451362e-03
  2.857015e+00    3.848124e-01   5.380486e-03
  2.859225e+00    3.937267e-01   5.442202e-03
  2.861436e+00    3.990427e-01   5.478238e-03
  2.863646e+00    3.844112e-01   5.376886e-03
  2.865857e+00    3.868935e-01   5.394539e-03
  2.868067e+00    3.870814e-01   5.396044e-03
  2.870278e+00    3.925588e-01   5.433766e-03
  2.872488e+00    3.807917e-01   5.350652e-03
  2.874698e+00    4.013291e-01   5.492062e-03
  2.876909e+00    3.999201e-01   5.481200e-03
  2.879119e+00    3.996459e-01   5.477814e-03
  2.881330e+00    3.836884e-01   5.365996e-03
  2.883540e+00    3.718047e-01   5.280997e-03
  2.885751e+00    3.806145e-01   5.341704e-03
  2.887961e+00    3.847010e-01   5.368573e-03
  2.890172e+00    3.851181e-01   5.370030e-03
  2.892382e+00    3.726206e-01   5.280555e-03
  2.894593e+00    3.830004e-01   5.351937e-03
  2.896803e+00    3.916264e-01   5.410036e-03
  2.899014e+00    3.861867e-01   5.370609e-03
  2.901224e+00    3.768566e-01   5.303511e-03
  2.903434e+00    3.898484e-01   5.392369e-03
  2.905645e+00    3.864695e-01   5.366903e-03
  2.907855e+00    4.013740e-01   5.467464e-03
  2.910066e+00    3.914759e-01   5.397714e-03
  2.912276e+00    3.848729e-01   5.350037e-03
  2.914487e+00    3.982100e-01   5.439665e-03
  2.916697e+00    3.881190e-01   5.368264e-03
  2.918908e+00    3.876503e-01   5.363174e-03
  2.921118e+00    3.817450e-01   5.319701e-03
  2.923329e+00    3.787955e-01   5.297010e-03
  2.925539e+00    3.827932e-01   5.322796e-03
  2.927749e+00    3.863108e-01   5.345071e-03
  2.929960e+00    3.912928e-01   5.376865e-03
  2.932170e+00    3.844787e-01   5.327704e-03
  2.934381e+00    3.897065e-01   5.361546e-03
  2.936591e+00    3.849202e-01   5.326150e-03
  2.938802e+00    3.771581e-01   5.269723e-03
  2.941012e+00    3.690999e-01   5.211006e-03
  2.943223e+00    3.890607e-01   5.347569e-03
  2.945433e+00    3.784126e-01   5.270479e-03
  2.947644e+00    3.918539e-01   5.359429e-03
  2.949854e+00    3.817015e-01   5.285651e-03
  2.952064e+00    3.835990e-01   5.294880e-03
  2.954275e+00    3.732015e-01   5.218645e-03
  2.956485e+00    3.875262e-01   5.313971e-03
  2.958696e+00    3.881956e-01   5.314535e-03
  2.960906e+00    3.865862e-01   5.299659e-03
  2.963117e+00    3.814937e-01   5.260517e-03
  2.965327e+00    3.768153e-01   5.224613e-03
  2.967538e+00    3.792042e-01   5.238481e-03
  2.969748e+00    3.875753e-01   5.293391e-03
  2.971959e+00    3.802401e-01   5.240190e-03
  2.974169e+00    3.949934e-01   5.338464e-03
  2.976379e+00    3.789626e-01   5.226374e-03
  2.978590e+00    3.684767e-01   5.150715e-03
  2.980800e+00    3.815718e-01   5.238875e-03
  2.983011e+00    3.799555e-01   5.225213e-03
  2.985221e+00    3.803693e-01   5.225170e-03
  2.987432e+00    3.720039e-01   5.164563e-03
  2.989642e+00    3.754150e-01   5.185825e-03
  2.991853e+00    3.721336e-01   5.160128e-03
  2.994063e+00    3.763895e-01   5.186908e-03
  2.996274e+00    3.700172e-01   5.139941e-03
  2.998484e+00    3.765846e-01   5.182878e-03
  3.000694e+00    4.011742e-01   5.346172e-03
  3.002905e+00    3.802597e-01   5.202279e-03
  3.005115e+00    3.905836e-01   5.269641e-03
  3.007326e+00    3.752152e-01   5.162084e-03
  3.009536e+00    3.770566e-01   5.171738e-03
  3.011747e+00    3.890361e-01   5.250556e-03
  3.013957e+00    3.702368e-01   5.119261e-03
  3.016168e+00    3.816460e-01   5.194547e-03
  3.018378e+00    3.730718e-01   5.133105e-03
  3.020589e+00    3.631245e-01   5.061325e-03
  3.022799e+00    3.724613e-01   5.123115e-03
  3.025010e+00    3.781571e-01   5.159175e-03
  3.027220e+00    3.788525e-01   5.161065e-03
  3.029430e+00    3.832444e-01   5.187928e-03
  3.031641e+00    3.817789e-01   5.175094e-03
  3.033851e+00    3.909557e-01   5.233653e-03
  3.036062e+00    3.824554e-01   5.173896e-03
  3.038272e+00    3.783562e-01   5.142820e-03
  3.040483e+00    3.824970e-01   5.167902e-03
  3.042693e+00    3.851130e-01   5.182558e-03
  3.044904e+00    3.812601e-01   5.152850e-03
  3.047114e+00    3.831568e-01   5.161217e-03
  3.049325e+00    3.793269e-01   5.131348e-03
  3.051535e+00    3.773851e-01   5.114150e-03
  3.053745e+00    3.873869e-01   5.177085e-03
  3.055956e+00    3.875427e-01   5.173889e-03
  3.058166e+00    3.886937e-01   5.177607e-03
  3.060377e+00    3.692497e-01   5.042131e-03
  3.062587e+00    3.752975e-01   5.079001e-03
  3.064798e+00    3.930731e-01   5.193951e-03
  3.067008e+00    3.730914e-01   5.055879e-03
  3.069219e+00    3.771240e-01   5.079008e-03
  3.071429e+00    3.706437e-01   5.031988e-03
  3.073640e+00    3.712058e-01   5.032781e-03
  3.075850e+00    3.793140e-01   5.084151e-03
  3.078060e+00    3.727948e-01   5.037443e-03
  3.080271e+00    3.775544e-01   5.066311e-03
  3.082481e+00    3.689686e-01   5.005250e-03
  3.084692e+00    3.839490e-01   5.102717e-03
  3.086902e+00    3.848347e-01   5.105591e-03
  3.089113e+00    3.782533e-01   5.058483e-03
  3.091323e+00    3.670596e-01   4.980011e-03
  3.093534e+00    3.680376e-01   4.983577e-03
  3.095744e+00    3.788747e-01   5.053307e-03
  3.097955e+00    3.771669e-01   5.038660e-03
  3.100165e+00    3.645575e-01   4.950711e-03
  3.102375e+00    3.638338e-01   4.942702e-03
  3.104586e+00    3.647992e-01   4.946100e-03
  3.106796e+00    3.777369e-01   5.029801e-03
  3.109007e+00    3.689753e-01   4.968214e-03
  3.111217e+00    3.669300e-01   4.951064e-03
  3.113428e+00    3.739342e-01   4.994963e-03
  3.115638e+00    3.684373e-01   4.955187e-03
  3.117849e+00    3.757480e-01   5.000669e-03
  3.120059e+00    3.888327e-01   5.083771e-03
  3.122270e+00    3.706101e-01   4.960238e-03
  3.124480e+00    3.716666e-01   4.963937e-03
  3.126691e+00    3.787062e-01   5.007424e-03
  3.128901e+00    3.955717e-01   5.114785e-03
  3.131111e+00    3.698210e-01   4.942006e-03
  3.133322e+00    3.687457e-01   4.931660e-03
  3.135532e+00    3.763373e-01   4.979054e-03
  3.137743e+00    3.700585e-01   4.934144e-03
  3.139953e+00    3.702244e-01   4.931895e-03
  3.142164e+00    3.699846e-01   4.941287e-03
  3.144374e+00    3.779160e-01   5.020206e-03
  3.146585e+00    3.796206e-01   5.045022e-03
  3.148795e+00    3.838129e-01   5.082827e-03
  3.151006e+00    3.738770e-01   5.024488e-03
  3.153216e+00    3.701495e-01   5.005893e-03
  3.155426e+00    3.585431e-01   4.932480e-03
  3.157637e+00    3.613269e-01   4.956588e-03
  3.159847e+00    3.684149e-01   5.009426e-03
  3.162058e+00    3.703785e-01   5.026832e-03
  3.164268e+00    3.644146e-01   4.989882e-03
  3.166479e+00    3.549955e-01   4.928267e-03
  3.168689e+00    3.615579e-01   4.976653e-03
  3.170900e+00    3.623834e-01   4.985211e-03
  3.173110e+00    3.695381e-01   5.036816e-03
  3.175321e+00    3.688637e-01   5.034526e-03
  3.177531e+00    3.657808e-01   5.015924e-03
  3.179741e+00    3.692431e-01   5.041524e-03
  3.181952e+00    3.648762e-01   5.013541e-03
  3.184162e+00    3.637475e-01   5.007791e-03
  3.186373e+00    3.699792e-01   5.051966e-03
  3.188583e+00    3.645362e-01   5.016305e-03
  3.190794e+00    3.605341e-01   4.990289e-03
  3.193004e+00    3.577059e-01   4.971801e-03
  3.195215e+00    3.530405e-01   4.940621e-03
  3.197425e+00    3.625022e-01   5.007491e-03
  3.199636e+00    3.649625e-01   5.023754e-03
  3.201846e+00    3.636968e-01   5.014491e-03
  3.204056e+00    3.655941e-01   5.028354e-03
  3.206267e+00    3.730064e-01   5.079861e-03
  3.208477e+00    3.664512e-01   5.035881e-03
  3.210688e+00    3.664852e-01   5.036907e-03
  3.212898e+00    3.517027e-01   4.934769e-03
  3.215109e+00    3.641815e-01   5.022265e-03
  3.217319e+00    3.553710e-01   4.961710e-03
  3.219530e+00    3.476732e-01   4.908026e-03
  3.221740e+00    3.579257e-01   4.980377e-03
  3.223951e+00    3.658869e-01   5.035891e-03
  3.226161e+00    3.646408e-01   5.027485e-03
  3.228372e+00    3.505865e-01   4.930147e-03
  3.230582e+00    3.469918e-01   4.904902e-03
  3.232792e+00    3.652486e-01   5.032494e-03
  3.235003e+00    3.620340e-01   5.010529e-03
  3.237213e+00    3.622898e-01   5.012400e-03
  3.239424e+00    3.686774e-01   5.056375e-03
  3.241634e+00    3.653888e-01   5.033909e-03
  3.243845e+00    3.584513e-01   4.985940e-03
  3.246055e+00    3.679282e-01   5.051188e-03
  3.248266e+00    3.461632e-01   4.899682e-03
  3.250476e+00    3.670660e-01   5.045142e-03
  3.252687e+00    3.693817e-01   5.060987e-03
  3.254897e+00    3.587409e-01   4.987427e-03
  3.257107e+00    3.668117e-01   5.042936e-03
  3.259318e+00    3.512971e-01   4.934937e-03
  3.261528e+00    3.496499e-01   4.923217e-03
  3.263739e+00    3.533751e-01   4.948853e-03
  3.265949e+00    3.548445e-01   4.959030e-03
  3.268160e+00    3.584031e-01   4.983447e-03
  3.270370e+00    3.619847e-01   5.007819e-03
  3.272581e+00    3.774797e-01   5.113622e-03
  3.274791e+00    3.524929e-01   4.940993e-03
  3.277002e+00    3.491228e-01   4.916816e-03
  3.279212e+00    3.529029e-01   4.943002e-03
  3.281422e+00    3.565301e-01   4.967804e-03
  3.283633e+00    3.551757e-01   4.957757e-03
  3.285843e+00    3.461373e-01   4.893961e-03
  3.288054e+00    3.487220e-01   4.911347e-03
  3.290264e+00    3.504040e-01   4.922875e-03
  3.292475e+00    3.502153e-01   4.920811e-03
  3.294685e+00    3.537881e-01   4.945266e-03
  3.296896e+00    3.511305e-01   4.925963e-03
  3.299106e+00    3.480555e-01   4.903848e-03
  3.301317e+00    3.421215e-01   4.860939e-03
  3.303527e+00    3.485719e-01   4.906121e-03
  3.305737e+00    3.425741e-01   4.862796e-03
  3.307948e+00    3.592881e-01   4.979387e-03
  3.310158e+00    3.441510e-01   4.872599e-03
  3.312369e+00    3.515436e-01   4.923845e-03
  3.314579e+00    3.450646e-01   4.877452e-03
  3.316790e+00    3.459807e-01   4.883278e-03
  3.319000e+00    3.520993e-01   4.925163e-03
  3.321211e+00    3.509603e-01   4.916674e-03
  3.323421e+00    3.460728e-01   4.881207e-03
  3.325632e+00    3.394820e-01   4.833724e-03
  3.327842e+00    3.451426e-01   4.873002e-03
  3.330052e+00    3.392547e-01   4.830324e-03
  3.332263e+00    3.478445e-01   4.890150e-03
  3.334473e+00    3.479079e-01   4.889789e-03
  3.336684e+00    3.472025e-01   4.883668e-03
  3.338894e+00    3.422501e-01   4.847953e-03
  3.341105e+00    3.469364e-01   4.879946e-03
  3.343315e+00    3.513037e-01   4.909504e-03
  3.345526e+00    3.531976e-01   4.921905e-03
  3.347736e+00    3.610752e-01   4.975182e-03
  3.349947e+00    3.527546e-01   4.916688e-03
  3.352157e+00    3.502207e-01   4.897902e-03
  3.354368e+00    3.524584e-01   4.912351e-03
  3.356578e+00    3.532414e-01   4.916871e-03
  3.358788e+00    3.391604e-01   4.816664e-03
  3.360999e+00    3.493451e-01   4.887307e-03
  3.363209e+00    3.547212e-01   4.923852e-03
  3.365420e+00    3.467867e-01   4.867092e-03
  3.367630e+00    3.386872e-01   4.808998e-03
  3.369841e+00    3.505926e-01   4.891464e-03
  3.372051e+00    3.444076e-01   4.846368e-03
  3.374262e+00    3.369145e-01   4.791126e-03
  3.376472e+00    3.498340e-01   4.879895e-03
  3.378683e+00    3.431180e-01   4.830563e-03
  3.380893e+00    3.464408e-01   4.851758e-03
  3.383103e+00    3.316118e-01   4.744366e-03
  3.385314e+00    3.447703e-01   4.835546e-03
  3.387524e+00    3.291391e-01   4.722233e-03
  3.389735e+00    3.306870e-01   4.730974e-03
  3.391945e+00    3.364730e-01   4.768846e-03
  3.394156e+00    3.491491e-01   4.853979e-03
  3.396366e+00    3.393759e-01   4.782468e-03
  3.398577e+00    3.307755e-01   4.718755e-03
  3.400787e+00    3.297361e-01   4.721995e-03
  3.402998e+00    3.336243e-01   4.784104e-03
  3.405208e+00    3.252351e-01   4.742065e-03
  3.407418e+00    3.246320e-01   4.751867e-03
  3.409629e+00    3.246318e-01   4.764433e-03
  3.411839e+00    3.293274e-01   4.809425e-03
  3.414050e+00    3.393909e-01   4.892572e-03
  3.416260e+00    3.234476e-01   4.784987e-03
  3.418471e+00    3.198358e-01   4.766681e-03
  3.420681e+00    3.200762e-01   4.776135e-03
  3.422892e+00    3.188244e-01   4.774030e-03
  3.425102e+00    3.234488e-01   4.815627e-03
  3.427313e+00    3.261585e-01   4.842352e-03
  3.429523e+00    3.194561e-01   4.798771e-03
  3.431733e+00    3.096093e-01   4.730193e-03
  3.433944e+00    2.926784e-01   4.604706e-03
  3.436154e+00    3.092986e-01   4.739229e-03
  3.438365e+00    3.129482e-01   4.772477e-03
  3.440575e+00    3.153046e-01   4.795824e-03
  3.442786e+00    3.142155e-01   4.792646e-03
  3.444996e+00    3.090647e-01   4.758170e-03
  3.447207e+00    2.913907e-01   4.624785e-03
  3.449417e+00    3.063520e-01   4.779057e-03
  3.451628e+00    3.052396e-01   4.797212e-03
  3.453838e+00    3.004140e-01   4.778229e-03
  3.456049e+00    3.055323e-01   4.840611e-03
  3.458259e+00    2.831743e-01   4.679371e-03
  3.460469e+00    3.042817e-01   4.868675e-03
  3.462680e+00    2.986676e-01   4.840794e-03
  3.464890e+00    2.904640e-01   4.789663e-03
  3.467101e+00    3.036914e-01   4.913386e-03
  3.469311e+00    3.010579e-01   4.906973e-03
  3.471522e+00    3.204364e-01   5.077596e-03
  3.473732e+00    3.211717e-01   5.098092e-03
  3.475943e+00    3.130626e-01   5.047537e-03
  3.478153e+00    3.230358e-01   5.141378e-03
  3.480364e+00    3.330819e-01   5.234660e-03
  3.482574e+00    3.439681e-01   5.333689e-03
  3.484784e+00    3.494763e-01   5.389901e-03
  3.486995e+00    3.704700e-01   5.563720e-03
  3.489205e+00    3.568841e-01   5.474215e-03
  3.491416e+00    3.836789e-01   5.690119e-03
  3.493626e+00    3.825676e-01   5.695593e-03
  3.495837e+00    3.788454e-01   5.681466e-03
  3.498047e+00    3.728201e-01   5.649407e-03
  3.500258e+00    3.723713e-01   5.659218e-03
  3.502468e+00    3.943830e-01   5.837509e-03
  3.504679e+00    4.059566e-01   5.936157e-03
  3.506889e+00    4.046550e-01   5.940083e-03
  3.509099e+00    4.171977e-01   6.044971e-03
  3.511310e+00    4.001851e-01   5.933689e-03
  3.513520e+00    4.111095e-01   6.027440e-03
  3.515731e+00    4.269511e-01   6.155936e-03
  3.517941e+00    4.337789e-01   6.218501e-03
  3.520152e+00    4.356770e-01   6.245516e-03
  3.522362e+00    4.568366e-01   6.409194e-03
  3.524573e+00    4.494579e-01   6.370721e-03
  3.526783e+00    4.379079e-01   6.300682e-03
  3.528994e+00    4.307772e-01   6.260356e-03
  3.531204e+00    4.316882e-01   6.278279e-03
  3.533414e+00    4.547252e-01   6.454868e-03
  3.535625e+00    4.712856e-01   6.583051e-03
  3.537835e+00    4.545453e-01   6.476273e-03
  3.540046e+00    4.462848e-01   6.425310e-03
  3.542256e+00    4.659055e-01   6.572032e-03
  3.544467e+00    4.777364e-01   6.662176e-03
  3.546677e+00    4.522431e-01   6.488953e-03
  3.548888e+00    4.538257e-01   6.507181e-03
  3.551098e+00    4.517207e-01   6.498764e-03
  3.553309e+00    4.441661e-01   6.451617e-03
  3.555519e+00    4.692333e-01   6.641732e-03
  3.557729e+00    4.672615e-01   6.638729e-03
  3.559940e+00    4.554893e-01   6.565204e-03
  3.562150e+00    4.603128e-01   6.610715e-03
  3.564361e+00    4.617757e-01   6.633608e-03
  3.566571e+00    4.700276e-01   6.705534e-03
  3.568782e+00    4.680333e-01   6.704504e-03
  3.570992e+00    4.609074e-01   6.666032e-03
  3.573203e+00    4.523201e-01   6.616607e-03
  3.575413e+00    4.746096e-01   6.790652e-03
  3.577624e+00    4.624676e-01   6.716347e-03
  3.579834e+00    4.586908e-01   6.701702e-03
  3.582045e+00    4.536523e-01   6.677734e-03
  3.584255e+00    4.376744e-01   6.571711e-03
  3.586465e+00    4.713365e-01   6.832884e-03
  3.588676e+00    4.616056e-01   6.775107e-03
  3.590886e+00    4.783261e-01   6.909696e-03
  3.593097e+00    4.633024e-01   6.813822e-03
  3.595307e+00    4.502264e-01   6.729725e-03
  3.597518e+00    4.411353e-01   6.674349e-03
  3.599728e+00    4.601898e-01   6.829993e-03
  3.601939e+00    4.549481e-01   6.803997e-03
  3.604149e+00    4.692475e-01   6.923544e-03
  3.606360e+00    4.666728e-01   6.917764e-03
  3.608570e+00    4.466800e-01   6.780898e-03
  3.610780e+00    4.517856e-01   6.829671e-03
  3.612991e+00    4.745717e-01   7.009205e-03
  3.615201e+00    4.786942e-01   7.048901e-03
  3.617412e+00    4.647721e-01   6.952398e-03
  3.619622e+00    4.731568e-01   7.020423e-03
  3.621833e+00    4.735991e-01   7.030034e-03
  3.624043e+00    4.901706e-01   7.161060e-03
  3.626254e+00    4.792285e-01   7.089884e-03
  3.628464e+00    4.785163e-01   7.095006e-03
  3.630675e+00    4.659685e-01   7.014540e-03
  3.632885e+00    4.678701e-01   7.042384e-03
  3.635095e+00    4.728574e-01   7.093347e-03
  3.637306e+00    4.742903e-01   7.117652e-03
  3.639516e+00    4.557902e-01   6.990901e-03
  3.641727e+00    4.538618e-01   6.989503e-03
  3.643937e+00    4.427094e-01   6.916374e-03
  3.646148e+00    4.441628e-01   6.941033e-03
  3.648358e+00    4.831275e-01   7.253203e-03
  3.650569e+00    4.905556e-01   7.322956e-03
  3.652779e+00    4.570617e-01   7.082212e-03
  3.654990e+00    4.369921e-01   6.938471e-03
  3.657200e+00    4.480847e-01   7.039580e-03
  3.659410e+00    4.666739e-01   7.198175e-03
  3.661621e+00    4.708347e-01   7.244430e-03
  3.663831e+00    4.468543e-01   7.071372e-03
  3.666042e+00    4.496215e-01   7.107175e-03
  3.668252e+00    4.528447e-01   7.146677e-03
  3.670463e+00    4.412572e-01   7.068548e-03
  3.672673e+00    4.330046e-01   7.016063e-03
  3.674884e+00    4.433613e-01   7.113498e-03
  3.677094e+00    4.500347e-01   7.181177e-03
  3.679305e+00    4.567047e-01   7.248597e-03
  3.681515e+00    4.649272e-01   7.328211e-03
  3.683726e+00    4.477175e-01   7.205819e-03
  3.685936e+00    4.599270e-01   7.318059e-03
  3.688146e+00    4.463833e-01   7.224024e-03
  3.690357e+00    4.388922e-01   7.177666e-03
  3.692567e+00    4.558125e-01   7.329721e-03
  3.694778e+00    4.523162e-01   7.316433e-03
  3.696988e+00    4.568754e-01   7.368100e-03
  3.699199e+00    4.563283e-01   7.378813e-03
  3.701409e+00    4.702364e-01   7.505942e-03
  3.703620e+00    4.414552e-01   7.287563e-03
  3.705830e+00    4.386305e-01   7.279207e-03
  3.708041e+00    4.473968e-01   7.366867e-03
  3.710251e+00    4.729369e-01   7.590175e-03
  3.712461e+00    4.493171e-01   7.413734e-03
  3.714672e+00    4.428778e-01   7.375790e-03
  3.716882e+00    4.634502e-01   7.560914e-03
  3.719093e+00    4.795455e-01   7.707586e-03
  3.721303e+00    4.313308e-01   7.325299e-03
  3.723514e+00    4.365026e-01   7.384893e-03
  3.725724e+00    4.434605e-01   7.459374e-03
  3.727935e+00    4.423858e-01   7.466508e-03
  3.730145e+00    4.395529e-01   7.458500e-03
  3.732356e+00    4.494236e-01   7.558144e-03
  3.734566e+00    4.641171e-01   7.697360e-03
  3.736776e+00    4.548250e-01   7.636642e-03
  3.738987e+00    4.506297e-01   7.617890e-03
  3.741197e+00    4.496824e-01   7.626764e-03
  3.743408e+00    4.495262e-01   7.642315e-03
  3.745618e+00    4.501813e-01   7.665061e-03
  3.747829e+00    4.268554e-01   7.480366e-03
  3.750039e+00    4.396323e-01   7.608488e-03
  3.752250e+00    4.591848e-01   7.793408e-03
  3.754460e+00    4.283246e-01   7.543923e-03
  3.756671e+00    4.429909e-01   7.689544e-03
  3.758881e+00    4.165405e-01   7.473303e-03
  3.761091e+00    4.302486e-01   7.612871e-03
  3.763302e+00    4.435429e-01   7.747425e-03
  3.765512e+00    4.544438e-01   7.860246e-03
  3.767723e+00    4.469594e-01   7.813483e-03
  3.769933e+00    4.522678e-01   7.877942e-03
  3.772144e+00    4.539557e-01   7.911241e-03
  3.774354e+00    4.415431e-01   7.820810e-03
  3.776565e+00    4.294885e-01   7.731695e-03
  3.778775e+00    4.315358e-01   7.768490e-03
  3.780986e+00    4.357067e-01   7.824834e-03
  3.783196e+00    4.450102e-01   7.926977e-03
  3.785407e+00    4.210400e-01   7.729218e-03
  3.787617e+00    4.487745e-01   7.999298e-03
  3.789827e+00    4.505205e-01   8.034351e-03
  3.792038e+00    4.307671e-01   7.875497e-03
  3.794248e+00    4.184116e-01   7.781121e-03
  3.796459e+00    4.013106e-01   7.639516e-03
  3.798669e+00    4.137807e-01   7.776692e-03
  3.800880e+00    4.335329e-01   7.980146e-03
  3.803090e+00    4.421954e-01   8.079965e-03
  3.805301e+00    4.502136e-01   8.173882e-03
  3.807511e+00    4.452801e-01   8.149718e-03
  3.809722e+00    4.319757e-01   8.047760e-03
  3.811932e+00    4.364598e-01   8.110143e-03
  3.814142e+00    4.223720e-01   7.999266e-03
  3.816353e+00    4.429103e-01   8.212938e-03
  3.818563e+00    4.134496e-01   7.956081e-03
  3.820774e+00    4.437501e-01   8.264427e-03
  3.822984e+00    4.189448e-01   8.051489e-03
  3.825195e+00    4.259164e-01   8.140163e-03
  3.827405e+00    4.315258e-01   8.215800e-03
  3.829616e+00    4.465035e-01   8.379997e-03
  3.831826e+00    4.311391e-01   8.257053e-03
  3.834037e+00    4.405181e-01   8.369450e-03
  3.836247e+00    4.466185e-01   8.450574e-03
  3.838457e+00    4.444466e-01   8.453756e-03
  3.840668e+00    4.322100e-01   8.360025e-03
  3.842878e+00    4.222462e-01   8.286658e-03
  3.845089e+00    4.204793e-01   8.292867e-03
  3.847299e+00    4.324086e-01   8.433761e-03
  3.849510e+00    4.483815e-01   8.612676e-03
  3.851720e+00    4.283197e-01   8.437827e-03
  3.853931e+00    4.313888e-01   8.485637e-03
  3.856141e+00    4.562322e-01   8.744806e-03
  3.858352e+00    4.215785e-01   8.424040e-03
  3.860562e+00    4.302498e-01   8.528121e-03
  3.862772e+00    4.386662e-01   8.629614e-03
  3.864983e+00    4.462562e-01   8.722662e-03
  3.867193e+00    4.378088e-01   8.658333e-03
  3.869404e+00    4.409062e-01   8.707644e-03
  3.871614e+00    4.534863e-01   8.850135e-03
  3.873825e+00    4.309149e-01   8.646150e-03
  3.876035e+00    3.906012e-01   8.250034e-03
  3.878246e+00    3.935685e-01   8.304301e-03
  3.880456e+00    4.370789e-01   8.778621e-03
  3.882667e+00    4.133170e-01   8.563661e-03
  3.884877e+00    4.057381e-01   8.511662e-03
  3.887087e+00    4.247948e-01   8.737159e-03
  3.889298e+00    4.166736e-01   8.681198e-03
  3.891508e+00    4.400320e-01   8.950116e-03
  3.893719e+00    4.202698e-01   8.775524e-03
  3.895929e+00    4.236415e-01   8.839812e-03
  3.898140e+00    4.476242e-01   9.116919e-03
  3.900350e+00    4.130445e-01   8.787158e-03
  3.902561e+00    4.365599e-01   9.064336e-03
  3.904771e+00    4.296763e-01   9.023407e-03
  3.906982e+00    4.114165e-01   8.859907e-03
  3.909192e+00    4.160731e-01   8.940822e-03
  3.911403e+00    4.043945e-01   8.845429e-03
  3.913613e+00    4.054916e-01   8.888589e-03
  3.915823e+00    4.365122e-01   9.255163e-03
  3.918034e+00    4.089991e-01   8.991100e-03
  3.920244e+00    4.124555e-01   9.061816e-03
  3.922455e+00    3.963531e-01   8.915677e-03
  3.924665e+00    4.077952e-01   9.076732e-03
  3.926876e+00    4.416377e-01   9.481166e-03
  3.929086e+00    4.134498e-01   9.208019e-03
  3.931297e+00    4.361827e-01   9.490721e-03
  3.933507e+00    4.196651e-01   9.336105e-03
  3.935718e+00    4.415856e-01   9.604170e-03
  3.937928e+00    4.393541e-01   9.607887e-03
  3.940138e+00    4.476441e-01   9.726212e-03
  3.942349e+00    4.448444e-01   9.724284e-03
  3.944559e+00    4.176269e-01   9.449853e-03
  3.946770e+00    4.252728e-01   9.564249e-03
  3.948980e+00    4.221482e-01   9.557602e-03
  3.951191e+00    4.160188e-01   9.516452e-03
  3.953401e+00    4.179867e-01   9.568032e-03
  3.955612e+00    4.421518e-01   9.870909e-03
  3.957822e+00    4.243920e-01   9.700261e-03
  3.960033e+00    4.262306e-01   9.751754e-03
  3.962243e+00    4.299445e-01   9.825125e-03
  3.964453e+00    4.046102e-01   9.561426e-03
  3.966664e+00    4.125646e-01   9.685701e-03
  3.968874e+00    4.355536e-01   9.978860e-03
  3.971085e+00    4.410732e-01   1.006272e-02
  3.973295e+00    4.083912e-01   9.702540e-03
  3.975506e+00    4.049515e-01   9.681258e-03
  3.977716e+00    4.091058e-01   9.750941e-03
  3.979927e+00    4.360003e-01   1.008737e-02
  3.982137e+00    4.271493e-01   1.000533e-02
  3.984348e+00    4.337955e-01   1.010428e-02
  3.986558e+00    4.209517e-01   9.974285e-03
  3.988768e+00    4.093360e-01   9.856929e-03
  3.990979e+00    4.143257e-01   9.937811e-03
  3.993189e+00    4.279567e-01   1.012156e-02
  3.995400e+00    4.637344e-01   1.055919e-02
  3.997610e+00    4.351567e-01   1.025705e-02
  3.999821e+00    4.012430e-01   9.883222e-03
  4.002031e+00    4.358084e-01   1.033656e-02
  4.004242e+00    4.143376e-01   1.011433e-02
  4.006452e+00    4.388775e-01   1.044705e-02
  4.008663e+00    4.055220e-01   1.007876e-02
  4.010873e+00    3.993641e-01   1.003828e-02
  4.013084e+00    4.218111e-01   1.035463e-02
  4.015294e+00    4.225909e-01   1.040254e-02
  4.017504e+00    4.228406e-01   1.044471e-02
  4.019715e+00    4.213770e-01   1.046628e-02
  4.021925e+00    4.634090e-01   1.101789e-02
  4.024136e+00    4.218067e-01   1.055257e-02
  4.026346e+00    4.209307e-01   1.058269e-02
  4.028557e+00    4.003386e-01   1.036092e-02
  4.030767e+00    3.902288e-01   1.027028e-02
  4.032978e+00    3.852781e-01   1.024625e-02
  4.035188e+00    3.695258e-01   1.007492e-02
  4.037399e+00    4.007187e-01   1.053478e-02
  4.039609e+00    4.242623e-01   1.088467e-02
  4.041819e+00    3.765540e-01   1.029744e-02
  4.044030e+00    4.037134e-01   1.070799e-02
  4.046240e+00    4.078395e-01   1.080831e-02
  4.048451e+00    4.021995e-01   1.077983e-02
  4.050661e+00    4.157223e-01   1.100723e-02
  4.052872e+00    4.139217e-01   1.103226e-02
  4.055082e+00    4.312885e-01   1.131194e-02
  4.057293e+00    3.966015e-01   1.089625e-02
  4.059503e+00    4.220738e-01   1.129169e-02
  4.061714e+00    3.998101e-01   1.104142e-02
  4.063924e+00    3.877374e-01   1.092428e-02
  4.066134e+00    4.158964e-01   1.136730e-02
  4.068345e+00    4.155664e-01   1.141753e-02
  4.070555e+00    4.315243e-01   1.169079e-02
  4.072766e+00    4.263721e-01   1.167811e-02
  4.074976e+00    4.139349e-01   1.156377e-02
  4.077187e+00    4.197700e-01   1.170304e-02
  4.079397e+00    4.353759e-01   1.197930e-02
  4.081608e+00    3.999629e-01   1.154164e-02
  4.083818e+00    4.557216e-01   1.238375e-02
  4.086029e+00    4.269820e-01   1.205043e-02
  4.088239e+00    3.965607e-01   1.167555e-02
  4.090449e+00    3.907689e-01   1.165281e-02
  4.092660e+00    4.353510e-01   1.236725e-02
  4.094870e+00    4.335097e-01   1.240972e-02
  4.097081e+00    4.044932e-01   1.205295e-02
  4.099291e+00    4.299966e-01   1.247841e-02
  4.101502e+00    4.574390e-01   1.291855e-02
  4.103712e+00    4.460530e-01   1.280435e-02
  4.105923e+00    4.298334e-01   1.261797e-02
  4.108133e+00    4.328389e-01   1.271086e-02
  4.110344e+00    4.429613e-01   1.290784e-02
  4.112554e+00    4.152101e-01   1.254631e-02
  4.114764e+00    3.822277e-01   1.208609e-02
  4.116975e+00    3.983986e-01   1.238765e-02
  4.119185e+00    4.203421e-01   1.277592e-02
  4.121396e+00    4.479984e-01   1.324394e-02
  4.123606e+00    4.281718e-01   1.300086e-02
  4.125817e+00    4.062939e-01   1.271739e-02
  4.128027e+00    3.823217e-01   1.238842e-02
  4.130238e+00    3.776476e-01   1.236525e-02
  4.132448e+00    3.956293e-01   1.271101e-02
  4.134659e+00    4.332119e-01   1.335845e-02
  4.136869e+00    4.133226e-01   1.310640e-02
  4.139080e+00    3.905821e-01   1.279811e-02
  4.141290e+00    4.377414e-01   1.360884e-02
  4.143500e+00    4.054311e-01   1.315725e-02
  4.145711e+00    3.962181e-01   1.306772e-02
  4.147921e+00    4.353738e-01   1.376101e-02
  4.150132e+00    4.083356e-01   1.339053e-02
  4.152342e+00    4.208994e-01   1.366053e-02
  4.154553e+00    4.492211e-01   1.418024e-02
  4.156763e+00    4.173560e-01   1.373533e-02
  4.158974e+00    4.469681e-01   1.428595e-02
  4.161184e+00    4.066966e-01   1.369477e-02
  4.163395e+00    4.204314e-01   1.399515e-02
  4.165605e+00    3.866368e-01   1.349052e-02
  4.167815e+00    4.207699e-01   1.414712e-02
  4.170026e+00    3.764589e-01   1.345183e-02
  4.172236e+00    3.939106e-01   1.383462e-02
  4.174447e+00    4.116454e-01   1.421944e-02
  4.176657e+00    4.661487e-01   1.521403e-02
  4.178868e+00    4.542822e-01   1.510462e-02
  4.181078e+00    3.854361e-01   1.399138e-02
  4.183289e+00    4.445911e-01   1.511241e-02
  4.185499e+00    4.448336e-01   1.520600e-02
  4.187710e+00    4.775636e-01   1.584774e-02
  4.189920e+00    3.936090e-01   1.447407e-02
  4.192130e+00    3.820724e-01   1.434753e-02
  4.194341e+00    3.814971e-01   1.442480e-02
  4.196551e+00    3.314831e-01   1.353110e-02
  4.198762e+00    4.098040e-01   1.514005e-02
  4.200972e+00    4.157574e-01   1.534885e-02
  4.203183e+00    4.051332e-01   1.525109e-02
  4.205393e+00    4.209619e-01   1.564972e-02
  4.207604e+00    4.330222e-01   1.598055e-02
  4.209814e+00    4.128787e-01   1.571168e-02
  4.212025e+00    3.781155e-01   1.514206e-02
  4.214235e+00    3.746866e-01   1.518012e-02
  4.216445e+00    4.074008e-01   1.594338e-02
  4.218656e+00    3.839259e-01   1.559311e-02
  4.220866e+00    4.368918e-01   1.675733e-02
  4.223077e+00    3.687441e-01   1.551364e-02
  4.225287e+00    4.041809e-01   1.636946e-02
  4.227498e+00    3.992602e-01   1.639711e-02
  4.229708e+00    4.290663e-01   1.713634e-02
  4.231919e+00    4.229563e-01   1.715466e-02
  4.234129e+00    4.241568e-01   1.732318e-02
  4.236340e+00    4.205582e-01   1.739695e-02
  4.238550e+00    4.187784e-01   1.751369e-02
  4.240761e+00    4.193785e-01   1.768049e-02
  4.242971e+00    4.465447e-01   1.841179e-02
  4.245181e+00    3.897329e-01   1.736212e-02
  4.247392e+00    3.751400e-01   1.719346e-02
  4.249602e+00    4.062839e-01   1.807025e-02
  4.251813e+00    4.133223e-01   1.840599e-02
  4.254023e+00    3.150344e-01   1.623130e-02
  4.256234e+00    4.219476e-01   1.898463e-02
  4.258444e+00    4.447790e-01   1.969609e-02
  4.260655e+00    4.211656e-01   1.937665e-02
  4.262865e+00    4.527789e-01   2.031847e-02
  4.265076e+00    3.806337e-01   1.884184e-02
  4.267286e+00    3.454216e-01   1.816180e-02
  4.269496e+00    3.910333e-01   1.955937e-02
  4.271707e+00    4.111758e-01   2.030479e-02
  4.273917e+00    3.393270e-01   1.868405e-02
  4.276128e+00    3.983857e-01   2.051358e-02
  4.278338e+00    4.148898e-01   2.121382e-02
  4.280549e+00    3.730787e-01   2.040493e-02
  4.282759e+00    3.908976e-01   2.118720e-02
  4.284970e+00    4.075888e-01   2.195396e-02
  4.287180e+00    4.625470e-01   2.366874e-02
  4.289391e+00    4.246002e-01   2.284661e-02
  4.291601e+00    3.998043e-01   2.234679e-02
  4.293811e+00    4.484537e-01   2.385207e-02
  4.296022e+00    3.823035e-01   2.220031e-02
  4.298232e+00    4.262708e-01   2.363790e-02
  4.300443e+00    4.814058e-01   2.532796e-02
  4.302653e+00    3.783047e-01   2.264698e-02
  4.304864e+00    3.981879e-01   2.343500e-02
  4.307074e+00    3.086635e-01   2.081958e-02
  4.309285e+00    3.862729e-01   2.350009e-02
  4.311495e+00    4.184685e-01   2.469004e-02
  4.313706e+00    3.315567e-01   2.218362e-02
  4.315916e+00    3.773974e-01   2.389981e-02
  4.318126e+00    3.817745e-01   2.427644e-02
  4.320337e+00    4.238509e-01   2.583761e-02
  4.322547e+00    4.452569e-01   2.676312e-02
  4.324758e+00    4.393118e-01   2.686032e-02
  4.326968e+00    4.583651e-01   2.774479e-02
  4.329179e+00    4.312436e-01   2.720921e-02
  4.331389e+00    3.821467e-01   2.590807e-02
  4.333600e+00    3.628197e-01   2.554623e-02
  4.335810e+00    4.660542e-01   2.929814e-02
  4.338021e+00    3.644374e-01   2.623889e-02
  4.340231e+00    3.234410e-01   2.502966e-02
  4.342442e+00    3.240116e-01   2.538758e-02
  4.344652e+00    3.449222e-01   2.654964e-02
  4.346862e+00    3.504906e-01   2.713697e-02
  4.349073e+00    5.046165e-01   3.303669e-02
  4.351283e+00    3.906897e-01   2.950300e-02
  4.353494e+00    4.395870e-01   3.177926e-02
  4.355704e+00    4.199211e-01   3.155849e-02
  4.357915e+00    3.410223e-01   2.891434e-02
  4.360125e+00    4.483054e-01   3.371675e-02
  4.362336e+00    4.686465e-01   3.510330e-02
  4.364546e+00    3.497762e-01   3.087639e-02
  4.366757e+00    3.254089e-01   3.037628e-02
  4.368967e+00    3.879486e-01   3.382573e-02
  4.371177e+00    3.981835e-01   3.499932e-02
  4.373388e+00    3.820995e-01   3.505227e-02
  4.375598e+00    4.254066e-01   3.782708e-02
  4.377809e+00    4.995736e-01   4.202972e-02
  4.380019e+00    4.402067e-01   4.044776e-02
  4.382230e+00    3.396260e-01   3.651801e-02
  4.384440e+00    3.775549e-01   3.961064e-02
  4.386651e+00    4.063518e-01   4.236361e-02
  4.388861e+00    2.617755e-01   3.513803e-02
  4.391072e+00    4.334354e-01   4.680807e-02
  4.393282e+00    3.870973e-01   4.594448e-02
  4.395492e+00    3.939306e-01   4.827470e-02
  4.397703e+00    2.910524e-01   4.339123e-02
  4.399913e+00    3.271474e-01   4.833143e-02
  4.402124e+00    2.727709e-01   4.663511e-02
  4.404334e+00    3.896053e-01   5.924444e-02
  4.406545e+00    4.264641e-01   6.659565e-02
  4.408755e+00    5.398455e-01   8.126056e-02
  4.410966e+00    4.431948e-01   8.148983e-02
  4.413176e+00    1.998877e-01   6.196269e-02
  4.415387e+00   -7.529738e-01            nan
  4.417597e+00   -1.737250e+00            nan
  4.419807e+00    4.633816e-01   2.445061e-01
