# == pyFAI calibration ==
# Distance Sample to Detector: 0.216 m
# PONI: 1.166e-01, 1.308e-01 m
# Rotations: 0.000000 0.000000 0.000000 rad
# 
# == Fit2d calibration ==
# Distance Sample-beamCenter: 216.000 mm
# Center: x=1744.293, y=1555.000 pix
# Tilt: 0.000 deg  TiltPlanRot: 0.000 deg
# 
# Detector Eiger 9M	 PixelSize= 7.500e-05, 7.500e-05 m
#    Detector has a mask: True 
#    Detector has a dark current: False 
#    detector has a flat field: False 
# 
# Wavelength: 9.8e-11 m
# Mask applied: from detector
# Dark current applied: False
# Flat field applied: False
# Polarization factor: None
# Normalization factor: 1.0
# 
# Headers of the input frame:
# {
# "_array_data.header_convention": "SLS_1.0",
# "_array_data.header_contents": "# Detector: Dectris Eiger 9M, S/N E-18-0102\r\n# Pixel_size 75e-6 m x 75e-6 m\r\n# Silicon sensor, thickness 0.000450 m\r\n# Exposure_time 0.024997 s\r\n# Exposure_period 0.025000 s\r\n# Count_cutoff 62318 counts\r\n# Wavelength 0.980106 A\r\n# Detector_distance 0.215992 m\r\n# Beam_xy (1555, 1744) pixels\r\n# Start_angle 0.000000 deg.\r\n# Angle_increment 0.000000 deg.",
# "Content-Type": "application/octet-stream;",
# "conversions": "x-CBF_BYTE_OFFSET",
# "Content-Transfer-Encoding": "BINARY",
# "X-Binary-Size": "10166630",
# "X-Binary-ID": "1",
# "X-Binary-Element-Type": "signed 32-bit integer",
# "X-Binary-Element-Byte-Order": "LITTLE_ENDIAN",
# "Content-MD5": "GArfcNEt1V6xc1UZNNeAVg==",
# "X-Binary-Number-of-Elements": "10166590",
# "X-Binary-Size-Fastest-Dimension": "3110",
# "X-Binary-Size-Second-Dimension": "3269",
# "X-Binary-Size-Padding": "4095"
# }
# --> H:/Proxima2a_2019-04-05/RAW_DATA/C5_gel17_position5/C5_mesh_1_data.cbf/C5_mesh_1_data.cbf000027.dat
#        q_A^-1              I           sigma 
  1.105228e-03    1.015417e+00   5.452669e-01
  3.315685e-03    1.449233e+00   3.960176e-01
  5.526141e-03    1.366915e+00   2.974013e-01
  7.736597e-03    1.182964e+00   2.337255e-01
  9.947054e-03    1.135288e+00   2.018503e-01
  1.215751e-02    1.290982e+00   1.946385e-01
  1.436797e-02    1.358721e+00   1.836711e-01
  1.657842e-02    1.205588e+00   1.610437e-01
  1.878888e-02    1.230705e+00   1.528412e-01
  2.099934e-02    1.310765e+00   1.492329e-01
  2.320979e-02    1.285969e+00   1.405880e-01
  2.542025e-02    1.217562e+00   1.307239e-01
  2.763070e-02    1.328430e+00   1.309663e-01
  2.984116e-02    1.514820e+00   1.345727e-01
  3.205162e-02    1.482305e+00   1.284562e-01
  3.426207e-02    1.366627e+00   1.192888e-01
  3.647253e-02    1.357576e+00   1.152317e-01
  3.868299e-02    1.229248e+00   1.064794e-01
  4.089344e-02    1.323511e+00   1.074594e-01
  4.310390e-02    1.394957e+00   1.074495e-01
  4.531436e-02    1.354123e+00   1.032512e-01
  4.752481e-02    1.293441e+00   9.853540e-02
  4.973527e-02    1.340454e+00   9.805680e-02
  5.194572e-02    1.596333e+00   1.047043e-01
  5.415618e-02    1.409982e+00   9.637082e-02
  5.636664e-02    1.321631e+00   9.145772e-02
  5.857709e-02    1.317412e+00   8.957262e-02
  6.078755e-02    1.476375e+00   9.307986e-02
  6.299801e-02    1.413877e+00   8.947512e-02
  6.520846e-02    1.326866e+00   8.519699e-02
  6.741892e-02    1.294394e+00   8.275286e-02
  6.962938e-02    1.353386e+00   8.326781e-02
  7.183983e-02    1.390825e+00   8.310140e-02
  7.405029e-02    1.321469e+00   7.978287e-02
  7.626074e-02    1.402714e+00   8.099811e-02
  7.847120e-02    1.406406e+00   7.995202e-02
  8.068166e-02    1.362757e+00   7.761533e-02
  8.289211e-02    1.372214e+00   7.683829e-02
  8.510257e-02    1.455720e+00   7.810669e-02
  8.731303e-02    1.458571e+00   7.718422e-02
  8.952348e-02    1.443496e+00   7.583252e-02
  9.173394e-02    1.356071e+00   7.260642e-02
  9.394439e-02    1.374722e+00   7.223652e-02
  9.615485e-02    1.457388e+00   7.351523e-02
  9.836531e-02    1.354521e+00   7.007051e-02
  1.005758e-01    1.388808e+00   7.016822e-02
  1.027862e-01    1.449090e+00   7.089826e-02
  1.049967e-01    1.416808e+00   6.936102e-02
  1.072071e-01    1.436995e+00   6.912868e-02
  1.094176e-01    1.486534e+00   6.959529e-02
  1.116280e-01    1.482054e+00   6.879736e-02
  1.138385e-01    1.423631e+00   6.676856e-02
  1.160490e-01    1.526389e+00   6.847382e-02
  1.182594e-01    1.446994e+00   6.604179e-02
  1.204699e-01    1.401903e+00   6.440500e-02
  1.226803e-01    1.422936e+00   6.429646e-02
  1.248908e-01    1.410349e+00   6.344171e-02
  1.271012e-01    1.481212e+00   6.444687e-02
  1.293117e-01    1.594718e+00   6.629574e-02
  1.315222e-01    1.611681e+00   6.608347e-02
  1.337326e-01    1.406186e+00   6.121349e-02
  1.359431e-01    1.508113e+00   6.343029e-02
  1.381535e-01    1.568345e+00   6.555282e-02
  1.403640e-01    1.541231e+00   6.526427e-02
  1.425744e-01    1.478466e+00   6.402370e-02
  1.447849e-01    1.460362e+00   6.364510e-02
  1.469953e-01    1.498740e+00   6.443562e-02
  1.492058e-01    1.561165e+00   6.568741e-02
  1.514163e-01    1.526025e+00   6.483612e-02
  1.536267e-01    1.502993e+00   6.421934e-02
  1.558372e-01    1.581096e+00   6.572136e-02
  1.580476e-01    1.572095e+00   6.537502e-02
  1.602581e-01    1.593392e+00   6.564917e-02
  1.624685e-01    1.565227e+00   6.488825e-02
  1.646790e-01    1.580893e+00   6.502489e-02
  1.668895e-01    1.634546e+00   6.592816e-02
  1.690999e-01    1.570791e+00   6.443553e-02
  1.713104e-01    1.617877e+00   6.519121e-02
  1.735208e-01    1.793275e+00   6.842066e-02
  1.757313e-01    1.731056e+00   6.701256e-02
  1.779417e-01    1.696316e+00   6.612039e-02
  1.801522e-01    1.659856e+00   6.519760e-02
  1.823626e-01    1.768566e+00   6.707472e-02
  1.845731e-01    1.846306e+00   6.831107e-02
  1.867836e-01    1.867896e+00   6.847741e-02
  1.889940e-01    1.922188e+00   6.923849e-02
  1.912045e-01    1.871415e+00   6.808978e-02
  1.934149e-01    1.842556e+00   6.733660e-02
  1.956254e-01    1.939556e+00   6.885846e-02
  1.978358e-01    1.910212e+00   6.810144e-02
  2.000463e-01    1.915609e+00   6.797154e-02
  2.022568e-01    1.923681e+00   6.789105e-02
  2.044672e-01    1.830379e+00   6.599730e-02
  2.066777e-01    1.894305e+00   6.691702e-02
  2.088881e-01    1.943874e+00   6.756511e-02
  2.110986e-01    1.987959e+00   6.809269e-02
  2.133090e-01    1.835352e+00   6.521422e-02
  2.155195e-01    1.888478e+00   6.593187e-02
  2.177300e-01    1.978142e+00   6.694883e-02
  2.199404e-01    1.918961e+00   6.420226e-02
  2.221509e-01    1.892372e+00   6.270901e-02
  2.243613e-01    1.936491e+00   6.263161e-02
  2.265718e-01    1.935341e+00   6.192288e-02
  2.287822e-01    1.926509e+00   6.116992e-02
  2.309927e-01    2.049649e+00   6.251980e-02
  2.332031e-01    2.117329e+00   6.299979e-02
  2.354136e-01    2.078353e+00   6.191134e-02
  2.376241e-01    2.106308e+00   6.184256e-02
  2.398345e-01    2.111078e+00   6.145436e-02
  2.420450e-01    2.040156e+00   5.998148e-02
  2.442554e-01    2.028550e+00   5.939859e-02
  2.464659e-01    2.090115e+00   5.988840e-02
  2.486763e-01    2.124014e+00   5.997525e-02
  2.508868e-01    2.096855e+00   5.921470e-02
  2.530973e-01    2.059002e+00   5.831396e-02
  2.553077e-01    2.087413e+00   5.835875e-02
  2.575182e-01    2.035182e+00   5.728308e-02
  2.597286e-01    2.012540e+00   5.663241e-02
  2.619391e-01    2.014129e+00   5.632859e-02
  2.641495e-01    2.037845e+00   5.634566e-02
  2.663600e-01    2.014984e+00   5.572062e-02
  2.685704e-01    1.969535e+00   5.478999e-02
  2.707809e-01    2.004128e+00   5.497572e-02
  2.729914e-01    1.964576e+00   5.414686e-02
  2.752018e-01    1.960719e+00   5.381213e-02
  2.774123e-01    1.979448e+00   5.379235e-02
  2.796227e-01    1.925249e+00   5.278839e-02
  2.818332e-01    1.885712e+00   5.198293e-02
  2.840436e-01    1.810302e+00   5.068602e-02
  2.862541e-01    1.887682e+00   5.150912e-02
  2.884646e-01    1.926367e+00   5.178734e-02
  2.906750e-01    1.791369e+00   4.970299e-02
  2.928855e-01    1.817858e+00   4.983709e-02
  2.950959e-01    1.904394e+00   5.077521e-02
  2.973064e-01    1.863298e+00   4.999866e-02
  2.995168e-01    1.823586e+00   4.923894e-02
  3.017273e-01    1.820435e+00   4.897949e-02
  3.039377e-01    1.871808e+00   4.944830e-02
  3.061482e-01    1.890914e+00   4.948502e-02
  3.083587e-01    1.836831e+00   4.856114e-02
  3.105691e-01    1.835270e+00   4.833313e-02
  3.127796e-01    1.864520e+00   4.851197e-02
  3.149900e-01    1.843423e+00   4.803576e-02
  3.172005e-01    1.813095e+00   4.744416e-02
  3.194109e-01    1.848744e+00   4.771056e-02
  3.216214e-01    1.804385e+00   4.694237e-02
  3.238319e-01    1.767374e+00   4.627436e-02
  3.260423e-01    1.807312e+00   4.660790e-02
  3.282528e-01    1.784032e+00   4.612242e-02
  3.304632e-01    1.718969e+00   4.509818e-02
  3.326737e-01    1.697490e+00   4.464066e-02
  3.348841e-01    1.805434e+00   4.585961e-02
  3.370946e-01    1.818339e+00   4.585008e-02
  3.393050e-01    1.813497e+00   4.561554e-02
  3.415155e-01    1.770617e+00   4.490355e-02
  3.437260e-01    1.771062e+00   4.474275e-02
  3.459364e-01    1.827325e+00   4.527975e-02
  3.481469e-01    1.720847e+00   4.378037e-02
  3.503573e-01    1.696537e+00   4.331166e-02
  3.525678e-01    1.704449e+00   4.325782e-02
  3.547782e-01    1.695098e+00   4.298308e-02
  3.569887e-01    1.691777e+00   4.278881e-02
  3.591992e-01    1.741570e+00   4.326029e-02
  3.614096e-01    1.763302e+00   4.337846e-02
  3.636201e-01    1.786380e+00   4.350796e-02
  3.658305e-01    1.741080e+00   4.280627e-02
  3.680410e-01    1.779553e+00   4.312777e-02
  3.702514e-01    1.817402e+00   4.343744e-02
  3.724619e-01    1.730849e+00   4.224614e-02
  3.746724e-01    1.672347e+00   4.138747e-02
  3.768828e-01    1.708062e+00   4.168634e-02
  3.790933e-01    1.684302e+00   4.126049e-02
  3.813037e-01    1.747911e+00   4.189486e-02
  3.835142e-01    1.723926e+00   4.146980e-02
  3.857246e-01    1.732395e+00   4.143697e-02
  3.879351e-01    1.725458e+00   4.122011e-02
  3.901455e-01    1.729653e+00   4.113877e-02
  3.923560e-01    1.735260e+00   4.107444e-02
  3.945665e-01    1.694750e+00   4.046344e-02
  3.967769e-01    1.722187e+00   4.066192e-02
  3.989874e-01    1.690865e+00   4.016467e-02
  4.011978e-01    1.734520e+00   4.055471e-02
  4.034083e-01    1.736650e+00   4.045507e-02
  4.056187e-01    1.712691e+00   4.005126e-02
  4.078292e-01    1.728084e+00   4.010909e-02
  4.100397e-01    1.751824e+00   4.026036e-02
  4.122501e-01    1.734776e+00   3.994411e-02
  4.144606e-01    1.733122e+00   3.980668e-02
  4.166710e-01    1.704112e+00   3.935475e-02
  4.188815e-01    1.736437e+00   3.960891e-02
  4.210919e-01    1.721238e+00   3.931960e-02
  4.233024e-01    1.721332e+00   3.920503e-02
  4.255128e-01    1.763417e+00   3.956667e-02
  4.277233e-01    1.767799e+00   3.950200e-02
  4.299338e-01    1.715652e+00   3.880305e-02
  4.321442e-01    1.643420e+00   3.786875e-02
  4.343547e-01    1.676999e+00   3.814549e-02
  4.365651e-01    1.693586e+00   3.822477e-02
  4.387756e-01    1.691995e+00   3.809981e-02
  4.409860e-01    1.714602e+00   3.824725e-02
  4.431965e-01    1.732554e+00   3.834065e-02
  4.454070e-01    1.689659e+00   3.775771e-02
  4.476174e-01    1.678488e+00   3.752935e-02
  4.498279e-01    1.672301e+00   3.735821e-02
  4.520383e-01    1.662502e+00   3.714637e-02
  4.542488e-01    1.670198e+00   3.713185e-02
  4.564592e-01    1.672514e+00   3.705791e-02
  4.586697e-01    1.632949e+00   3.651977e-02
  4.608801e-01    1.689068e+00   3.704250e-02
  4.630906e-01    1.713181e+00   3.720720e-02
  4.653011e-01    1.714889e+00   3.712784e-02
  4.675115e-01    1.709973e+00   3.697696e-02
  4.697220e-01    1.678575e+00   3.653999e-02
  4.719324e-01    1.645514e+00   3.608477e-02
  4.741429e-01    1.663225e+00   3.618496e-02
  4.763533e-01    1.720759e+00   3.671113e-02
  4.785638e-01    1.705803e+00   3.645684e-02
  4.807743e-01    1.680299e+00   3.609126e-02
  4.829847e-01    1.707555e+00   3.629088e-02
  4.851952e-01    1.713252e+00   3.625939e-02
  4.874056e-01    1.679918e+00   3.581439e-02
  4.896161e-01    1.648810e+00   3.539325e-02
  4.918265e-01    1.588055e+00   3.464878e-02
  4.940370e-01    1.622177e+00   3.493257e-02
  4.962475e-01    1.667674e+00   3.533161e-02
  4.984579e-01    1.663386e+00   3.519919e-02
  5.006684e-01    1.663608e+00   3.511571e-02
  5.028788e-01    1.621060e+00   3.457976e-02
  5.050893e-01    1.626066e+00   3.454887e-02
  5.072997e-01    1.638394e+00   3.459582e-02
  5.095102e-01    1.649917e+00   3.463413e-02
  5.117206e-01    1.615517e+00   3.418969e-02
  5.139311e-01    1.589178e+00   3.382957e-02
  5.161416e-01    1.668716e+00   3.458390e-02
  5.183520e-01    1.600899e+00   3.379337e-02
  5.205625e-01    1.595277e+00   3.365494e-02
  5.227729e-01    1.657050e+00   3.422035e-02
  5.249834e-01    1.642847e+00   3.399429e-02
  5.271938e-01    1.620829e+00   3.368693e-02
  5.294043e-01    1.630213e+00   3.370633e-02
  5.316148e-01    1.711218e+00   3.445451e-02
  5.338252e-01    1.736895e+00   3.463275e-02
  5.360357e-01    1.681960e+00   3.400304e-02
  5.382461e-01    1.734190e+00   3.444892e-02
  5.404566e-01    1.699601e+00   3.402605e-02
  5.426670e-01    1.719258e+00   3.414511e-02
  5.448775e-01    1.748581e+00   3.435814e-02
  5.470879e-01    1.709205e+00   3.389333e-02
  5.492984e-01    1.773205e+00   3.444529e-02
  5.515089e-01    1.730491e+00   3.395243e-02
  5.537193e-01    1.732139e+00   3.389375e-02
  5.559298e-01    1.728945e+00   3.378821e-02
  5.581402e-01    1.712969e+00   3.355827e-02
  5.603507e-01    1.728017e+00   3.363197e-02
  5.625611e-01    1.774027e+00   3.400283e-02
  5.647716e-01    1.771789e+00   3.390761e-02
  5.669821e-01    1.719764e+00   3.333407e-02
  5.691925e-01    1.721616e+00   3.328040e-02
  5.714030e-01    1.734673e+00   3.333515e-02
  5.736134e-01    1.686990e+00   3.280389e-02
  5.758239e-01    1.667478e+00   3.254401e-02
  5.780343e-01    1.630865e+00   3.211666e-02
  5.802448e-01    1.625990e+00   3.200149e-02
  5.824552e-01    1.619047e+00   3.186609e-02
  5.846657e-01    1.606074e+00   3.167202e-02
  5.868762e-01    1.585546e+00   3.140343e-02
  5.890866e-01    1.575060e+00   3.123448e-02
  5.912971e-01    1.614955e+00   3.156210e-02
  5.935075e-01    1.605770e+00   3.140718e-02
  5.957180e-01    1.554129e+00   3.083463e-02
  5.979284e-01    1.550087e+00   3.073164e-02
  6.001389e-01    1.589858e+00   3.105999e-02
  6.023494e-01    1.632279e+00   3.140775e-02
  6.045598e-01    1.618614e+00   3.121234e-02
  6.067703e-01    1.616466e+00   3.112889e-02
  6.089807e-01    1.621364e+00   3.111334e-02
  6.111912e-01    1.631683e+00   3.114987e-02
  6.134016e-01    1.634075e+00   3.111051e-02
  6.156121e-01    1.647080e+00   3.117198e-02
  6.178226e-01    1.630825e+00   3.095639e-02
  6.200330e-01    1.626589e+00   3.085515e-02
  6.222435e-01    1.657315e+00   3.108352e-02
  6.244539e-01    1.638358e+00   3.084473e-02
  6.266644e-01    1.634808e+00   3.075118e-02
  6.288748e-01    1.645304e+00   3.078970e-02
  6.310853e-01    1.654567e+00   3.081631e-02
  6.332957e-01    1.642952e+00   3.064866e-02
  6.355062e-01    1.689177e+00   3.101644e-02
  6.377167e-01    1.664713e+00   3.073197e-02
  6.399271e-01    1.638048e+00   3.042641e-02
  6.421376e-01    1.654744e+00   3.052271e-02
  6.443480e-01    1.658685e+00   3.050091e-02
  6.465585e-01    1.647638e+00   3.034159e-02
  6.487689e-01    1.622140e+00   3.004904e-02
  6.509794e-01    1.655868e+00   3.030257e-02
  6.531899e-01    1.635378e+00   3.005787e-02
  6.554003e-01    1.617546e+00   2.983734e-02
  6.576108e-01    1.614941e+00   2.975780e-02
  6.598212e-01    1.572796e+00   2.931239e-02
  6.620317e-01    1.553694e+00   2.907981e-02
  6.642421e-01    1.561775e+00   2.910142e-02
  6.664526e-01    1.547374e+00   2.891355e-02
  6.686630e-01    1.555617e+00   2.893688e-02
  6.708735e-01    1.531149e+00   2.865574e-02
  6.730840e-01    1.483695e+00   2.815676e-02
  6.752944e-01    1.511509e+00   2.836776e-02
  6.775049e-01    1.545704e+00   2.863477e-02
  6.797153e-01    1.585039e+00   2.894432e-02
  6.819258e-01    1.591747e+00   2.895321e-02
  6.841362e-01    1.553424e+00   2.855110e-02
  6.863467e-01    1.544255e+00   2.841573e-02
  6.885572e-01    1.563504e+00   2.854104e-02
  6.907676e-01    1.522853e+00   2.811710e-02
  6.929781e-01    1.565483e+00   2.845724e-02
  6.951885e-01    1.564409e+00   2.839713e-02
  6.973990e-01    1.501140e+00   2.776777e-02
  6.996094e-01    1.527736e+00   2.796338e-02
  7.018199e-01    1.510710e+00   2.775835e-02
  7.040303e-01    1.517935e+00   2.777573e-02
  7.062408e-01    1.571734e+00   2.821418e-02
  7.084513e-01    1.536168e+00   2.784462e-02
  7.106617e-01    1.538337e+00   2.781583e-02
  7.128722e-01    1.545852e+00   2.783545e-02
  7.150826e-01    1.556899e+00   2.788659e-02
  7.172931e-01    1.549671e+00   2.777383e-02
  7.195035e-01    1.559669e+00   2.781535e-02
  7.217140e-01    1.560558e+00   2.787253e-02
  7.239245e-01    1.531046e+00   2.783129e-02
  7.261349e-01    1.509287e+00   2.773915e-02
  7.283454e-01    1.480836e+00   2.754668e-02
  7.305558e-01    1.508779e+00   2.785820e-02
  7.327663e-01    1.512282e+00   2.793218e-02
  7.349767e-01    1.483604e+00   2.768197e-02
  7.371872e-01    1.479293e+00   2.763086e-02
  7.393976e-01    1.507431e+00   2.787846e-02
  7.416081e-01    1.547506e+00   2.823059e-02
  7.438186e-01    1.518911e+00   2.782679e-02
  7.460290e-01    1.521779e+00   2.756380e-02
  7.482395e-01    1.524024e+00   2.741571e-02
  7.504499e-01    1.559171e+00   2.759446e-02
  7.526604e-01    1.506376e+00   2.700925e-02
  7.548708e-01    1.488038e+00   2.675740e-02
  7.570813e-01    1.530800e+00   2.708891e-02
  7.592918e-01    1.480658e+00   2.660745e-02
  7.615022e-01    1.522911e+00   2.695116e-02
  7.637127e-01    1.531748e+00   2.699693e-02
  7.659231e-01    1.554692e+00   2.716656e-02
  7.681336e-01    1.532755e+00   2.694306e-02
  7.703440e-01    1.513577e+00   2.674335e-02
  7.725545e-01    1.521281e+00   2.678097e-02
  7.747650e-01    1.542678e+00   2.693084e-02
  7.769754e-01    1.530680e+00   2.677397e-02
  7.791859e-01    1.535051e+00   2.675936e-02
  7.813963e-01    1.518971e+00   2.656727e-02
  7.836068e-01    1.534302e+00   2.664982e-02
  7.858172e-01    1.528927e+00   2.655337e-02
  7.880277e-01    1.537044e+00   2.657312e-02
  7.902381e-01    1.541717e+00   2.656512e-02
  7.924486e-01    1.595597e+00   2.697526e-02
  7.946591e-01    1.589437e+00   2.687504e-02
  7.968695e-01    1.591484e+00   2.684420e-02
  7.990800e-01    1.619518e+00   2.703121e-02
  8.012904e-01    1.605586e+00   2.686815e-02
  8.035009e-01    1.568704e+00   2.651051e-02
  8.057113e-01    1.586496e+00   2.661430e-02
  8.079218e-01    1.588591e+00   2.658593e-02
  8.101323e-01    1.590808e+00   2.655927e-02
  8.123427e-01    1.607692e+00   2.665434e-02
  8.145532e-01    1.567792e+00   2.627648e-02
  8.167636e-01    1.544832e+00   2.603948e-02
  8.189741e-01    1.599514e+00   2.645216e-02
  8.211845e-01    1.602197e+00   2.642999e-02
  8.233950e-01    1.585788e+00   2.625152e-02
  8.256054e-01    1.573372e+00   2.610523e-02
  8.278159e-01    1.585732e+00   2.616429e-02
  8.300264e-01    1.604619e+00   2.627700e-02
  8.322368e-01    1.619480e+00   2.635553e-02
  8.344473e-01    1.633278e+00   2.642428e-02
  8.366577e-01    1.612378e+00   2.621243e-02
  8.388682e-01    1.640976e+00   2.640159e-02
  8.410786e-01    1.644028e+00   2.638402e-02
  8.432891e-01    1.614369e+00   2.610343e-02
  8.454996e-01    1.606735e+00   2.600040e-02
  8.477100e-01    1.607511e+00   2.596542e-02
  8.499205e-01    1.627853e+00   2.608814e-02
  8.521309e-01    1.632409e+00   2.608390e-02
  8.543414e-01    1.613569e+00   2.589247e-02
  8.565518e-01    1.609096e+00   2.581632e-02
  8.587623e-01    1.589653e+00   2.561992e-02
  8.609727e-01    1.581062e+00   2.551097e-02
  8.631832e-01    1.598779e+00   2.561395e-02
  8.653937e-01    1.598603e+00   2.557318e-02
  8.676041e-01    1.555189e+00   2.518550e-02
  8.698146e-01    1.540445e+00   2.502750e-02
  8.720250e-01    1.543864e+00   2.501707e-02
  8.742355e-01    1.525768e+00   2.483217e-02
  8.764459e-01    1.542241e+00   2.492777e-02
  8.786564e-01    1.557315e+00   2.501195e-02
  8.808669e-01    1.541890e+00   2.485006e-02
  8.830773e-01    1.510989e+00   2.456274e-02
  8.852878e-01    1.556821e+00   2.489509e-02
  8.874982e-01    1.573881e+00   2.499481e-02
  8.897087e-01    1.530667e+00   2.461245e-02
  8.919191e-01    1.517590e+00   2.447029e-02
  8.941296e-01    1.560590e+00   2.477773e-02
  8.963401e-01    1.551692e+00   2.467113e-02
  8.985505e-01    1.585340e+00   2.490039e-02
  9.007610e-01    1.574373e+00   2.477769e-02
  9.029714e-01    1.566677e+00   2.468158e-02
  9.051819e-01    1.570969e+00   2.467848e-02
  9.073923e-01    1.552172e+00   2.449438e-02
  9.096028e-01    1.540126e+00   2.436489e-02
  9.118132e-01    1.543469e+00   2.435572e-02
  9.140237e-01    1.574317e+00   2.456160e-02
  9.162342e-01    1.563054e+00   2.443942e-02
  9.184446e-01    1.560610e+00   2.438499e-02
  9.206551e-01    1.542072e+00   2.420478e-02
  9.228655e-01    1.571971e+00   2.440339e-02
  9.250760e-01    1.568919e+00   2.434469e-02
  9.272864e-01    1.546238e+00   2.413444e-02
  9.294969e-01    1.558999e+00   2.419850e-02
  9.317074e-01    1.541416e+00   2.402764e-02
  9.339178e-01    1.582841e+00   2.431512e-02
  9.361283e-01    1.552978e+00   2.404914e-02
  9.383387e-01    1.593929e+00   2.433103e-02
  9.405492e-01    1.612211e+00   2.443599e-02
  9.427596e-01    1.624003e+00   2.448989e-02
  9.449701e-01    1.635864e+00   2.454576e-02
  9.471805e-01    1.640896e+00   2.454867e-02
  9.493910e-01    1.605967e+00   2.425265e-02
  9.516015e-01    1.639280e+00   2.446869e-02
  9.538119e-01    1.658117e+00   2.457515e-02
  9.560224e-01    1.678410e+00   2.469026e-02
  9.582328e-01    1.686959e+00   2.471987e-02
  9.604433e-01    1.699401e+00   2.477572e-02
  9.626537e-01    1.711341e+00   2.482917e-02
  9.648642e-01    1.765491e+00   2.518440e-02
  9.670747e-01    1.780182e+00   2.525408e-02
  9.692851e-01    1.796998e+00   2.533937e-02
  9.714956e-01    1.848279e+00   2.566211e-02
  9.737060e-01    1.883024e+00   2.586821e-02
  9.759165e-01    1.798537e+00   2.524558e-02
  9.781269e-01    1.779299e+00   2.507734e-02
  9.803374e-01    1.790069e+00   2.511833e-02
  9.825478e-01    1.769372e+00   2.493975e-02
  9.847583e-01    1.750697e+00   2.477411e-02
  9.869688e-01    1.741298e+00   2.467443e-02
  9.891792e-01    1.740274e+00   2.463441e-02
  9.913897e-01    1.725588e+00   2.449712e-02
  9.936001e-01    1.739567e+00   2.456394e-02
  9.958106e-01    1.758651e+00   2.466477e-02
  9.980210e-01    1.691997e+00   2.416146e-02
  1.000231e+00    1.621205e+00   2.378017e-02
  1.002442e+00    1.582869e+00   2.362216e-02
  1.004652e+00    1.580914e+00   2.367342e-02
  1.006863e+00    1.579185e+00   2.370956e-02
  1.009073e+00    1.572790e+00   2.369774e-02
  1.011284e+00    1.565309e+00   2.367291e-02
  1.013494e+00    1.562289e+00   2.367353e-02
  1.015705e+00    1.528777e+00   2.344038e-02
  1.017915e+00    1.511191e+00   2.332122e-02
  1.020126e+00    1.510329e+00   2.333032e-02
  1.022336e+00    1.500904e+00   2.326889e-02
  1.024547e+00    1.486885e+00   2.317093e-02
  1.026757e+00    1.499367e+00   2.327623e-02
  1.028967e+00    1.489141e+00   2.320426e-02
  1.031178e+00    1.474148e+00   2.309320e-02
  1.033388e+00    1.474356e+00   2.309978e-02
  1.035599e+00    1.465152e+00   2.303093e-02
  1.037809e+00    1.465551e+00   2.303723e-02
  1.040020e+00    1.480110e+00   2.315265e-02
  1.042230e+00    1.448063e+00   2.290253e-02
  1.044441e+00    1.450549e+00   2.292195e-02
  1.046651e+00    1.466178e+00   2.304527e-02
  1.048862e+00    1.495919e+00   2.327705e-02
  1.051072e+00    1.497370e+00   2.328599e-02
  1.053282e+00    1.448448e+00   2.290151e-02
  1.055493e+00    1.423205e+00   2.269686e-02
  1.057703e+00    1.420165e+00   2.267112e-02
  1.059914e+00    1.441738e+00   2.283847e-02
  1.062124e+00    1.449733e+00   2.289771e-02
  1.064335e+00    1.442601e+00   2.283792e-02
  1.066545e+00    1.459580e+00   2.296598e-02
  1.068756e+00    1.447811e+00   2.286953e-02
  1.070966e+00    1.437982e+00   2.278529e-02
  1.073177e+00    1.431394e+00   2.272709e-02
  1.075387e+00    1.434526e+00   2.274675e-02
  1.077597e+00    1.486696e+00   2.314936e-02
  1.079808e+00    1.638023e+00   2.415857e-02
  1.082018e+00    1.612144e+00   2.376856e-02
  1.084229e+00    1.547469e+00   2.317360e-02
  1.086439e+00    1.578951e+00   2.331704e-02
  1.088650e+00    1.613127e+00   2.348837e-02
  1.090860e+00    1.546133e+00   2.292576e-02
  1.093071e+00    1.460927e+00   2.222267e-02
  1.095281e+00    1.425117e+00   2.189178e-02
  1.097492e+00    1.424436e+00   2.183202e-02
  1.099702e+00    1.465999e+00   2.209638e-02
  1.101912e+00    1.617786e+00   2.316029e-02
  1.104123e+00    1.783220e+00   2.426198e-02
  1.106333e+00    1.606551e+00   2.298184e-02
  1.108544e+00    1.465159e+00   2.190238e-02
  1.110754e+00    1.402054e+00   2.138286e-02
  1.112965e+00    1.411470e+00   2.141414e-02
  1.115175e+00    1.439183e+00   2.158189e-02
  1.117386e+00    1.432292e+00   2.149066e-02
  1.119596e+00    1.416470e+00   2.133371e-02
  1.121807e+00    1.373141e+00   2.096657e-02
  1.124017e+00    1.364228e+00   2.086232e-02
  1.126228e+00    1.376679e+00   2.092191e-02
  1.128438e+00    1.367919e+00   2.081891e-02
  1.130648e+00    1.359203e+00   2.071866e-02
  1.132859e+00    1.360434e+00   2.069412e-02
  1.135069e+00    1.374218e+00   2.076419e-02
  1.137280e+00    1.357889e+00   2.060786e-02
  1.139490e+00    1.326346e+00   2.033477e-02
  1.141701e+00    1.330096e+00   2.033100e-02
  1.143911e+00    1.348345e+00   2.043858e-02
  1.146122e+00    1.311454e+00   2.012584e-02
  1.148332e+00    1.311305e+00   2.009360e-02
  1.150543e+00    1.350027e+00   2.035759e-02
  1.152753e+00    1.325259e+00   2.013974e-02
  1.154963e+00    1.331322e+00   2.015516e-02
  1.157174e+00    1.325139e+00   2.007870e-02
  1.159384e+00    1.330684e+00   2.009126e-02
  1.161595e+00    1.327048e+00   2.003441e-02
  1.163805e+00    1.312536e+00   1.989594e-02
  1.166016e+00    1.296732e+00   1.974713e-02
  1.168226e+00    1.298460e+00   1.973205e-02
  1.170437e+00    1.301141e+00   1.972447e-02
  1.172647e+00    1.322675e+00   1.985859e-02
  1.174858e+00    1.339936e+00   1.995990e-02
  1.177068e+00    1.335435e+00   1.989838e-02
  1.179278e+00    1.323413e+00   1.978046e-02
  1.181489e+00    1.323527e+00   1.975462e-02
  1.183699e+00    1.367708e+00   2.005399e-02
  1.185910e+00    1.333995e+00   1.977777e-02
  1.188120e+00    1.325904e+00   1.969130e-02
  1.190331e+00    1.346904e+00   1.981996e-02
  1.192541e+00    1.324503e+00   1.962738e-02
  1.194752e+00    1.320938e+00   1.957422e-02
  1.196962e+00    1.310602e+00   1.947213e-02
  1.199173e+00    1.313801e+00   1.946975e-02
  1.201383e+00    1.293052e+00   1.928879e-02
  1.203593e+00    1.344108e+00   1.964115e-02
  1.205804e+00    1.321761e+00   1.945157e-02
  1.208014e+00    1.316835e+00   1.938875e-02
  1.210225e+00    1.319977e+00   1.938684e-02
  1.212435e+00    1.316246e+00   1.933494e-02
  1.214646e+00    1.314873e+00   1.929909e-02
  1.216856e+00    1.307424e+00   1.921928e-02
  1.219067e+00    1.316232e+00   1.925974e-02
  1.221277e+00    1.295573e+00   1.908349e-02
  1.223488e+00    1.323098e+00   1.925964e-02
  1.225698e+00    1.312350e+00   1.915474e-02
  1.227909e+00    1.326497e+00   1.922778e-02
  1.230119e+00    1.329988e+00   1.922148e-02
  1.232329e+00    1.290613e+00   1.890477e-02
  1.234540e+00    1.309927e+00   1.901584e-02
  1.236750e+00    1.316059e+00   1.903043e-02
  1.238961e+00    1.341085e+00   1.918364e-02
  1.241171e+00    1.333929e+00   1.910835e-02
  1.243382e+00    1.318893e+00   1.897710e-02
  1.245592e+00    1.311566e+00   1.890057e-02
  1.247803e+00    1.327190e+00   1.898936e-02
  1.250013e+00    1.307668e+00   1.882601e-02
  1.252224e+00    1.282065e+00   1.861815e-02
  1.254434e+00    1.310202e+00   1.879793e-02
  1.256644e+00    1.342475e+00   1.900490e-02
  1.258855e+00    1.329358e+00   1.888876e-02
  1.261065e+00    1.312093e+00   1.874264e-02
  1.263276e+00    1.313287e+00   1.872856e-02
  1.265486e+00    1.322559e+00   1.877189e-02
  1.267697e+00    1.331277e+00   1.881082e-02
  1.269907e+00    1.312388e+00   1.865450e-02
  1.272118e+00    1.327359e+00   1.873822e-02
  1.274328e+00    1.334431e+00   1.876547e-02
  1.276539e+00    1.318937e+00   1.863369e-02
  1.278749e+00    1.315071e+00   1.858436e-02
  1.280959e+00    1.335692e+00   1.870708e-02
  1.283170e+00    1.333794e+00   1.867151e-02
  1.285380e+00    1.308520e+00   1.847164e-02
  1.287591e+00    1.331769e+00   1.861313e-02
  1.289801e+00    1.321638e+00   1.852121e-02
  1.292012e+00    1.320698e+00   1.849770e-02
  1.294222e+00    1.329325e+00   1.854191e-02
  1.296433e+00    1.337487e+00   1.858321e-02
  1.298643e+00    1.352350e+00   1.866969e-02
  1.300854e+00    1.362307e+00   1.872182e-02
  1.303064e+00    1.412689e+00   1.904518e-02
  1.305274e+00    1.407991e+00   1.899164e-02
  1.307485e+00    1.368856e+00   1.870412e-02
  1.309695e+00    1.371343e+00   1.869869e-02
  1.311906e+00    1.376263e+00   1.871029e-02
  1.314116e+00    1.390370e+00   1.878482e-02
  1.316327e+00    1.408992e+00   1.888806e-02
  1.318537e+00    1.398318e+00   1.879410e-02
  1.320748e+00    1.395545e+00   1.875355e-02
  1.322958e+00    1.385742e+00   1.866677e-02
  1.325169e+00    1.382985e+00   1.862693e-02
  1.327379e+00    1.393586e+00   1.867599e-02
  1.329589e+00    1.383326e+00   1.858583e-02
  1.331800e+00    1.361300e+00   1.841647e-02
  1.334010e+00    1.346550e+00   1.829580e-02
  1.336221e+00    1.337571e+00   1.821304e-02
  1.338431e+00    1.384204e+00   1.850667e-02
  1.340642e+00    1.362880e+00   1.842806e-02
  1.342852e+00    1.364174e+00   1.853798e-02
  1.345063e+00    1.377581e+00   1.867886e-02
  1.347273e+00    1.376361e+00   1.870617e-02
  1.349484e+00    1.364100e+00   1.865049e-02
  1.351694e+00    1.336251e+00   1.848172e-02
  1.353905e+00    1.327695e+00   1.844030e-02
  1.356115e+00    1.307403e+00   1.831365e-02
  1.358325e+00    1.311442e+00   1.835502e-02
  1.360536e+00    1.310302e+00   1.835852e-02
  1.362746e+00    1.286660e+00   1.820147e-02
  1.364957e+00    1.276460e+00   1.813664e-02
  1.367167e+00    1.280304e+00   1.817089e-02
  1.369378e+00    1.269847e+00   1.810237e-02
  1.371588e+00    1.293889e+00   1.827799e-02
  1.373799e+00    1.285068e+00   1.821917e-02
  1.376009e+00    1.296003e+00   1.829986e-02
  1.378220e+00    1.309848e+00   1.839983e-02
  1.380430e+00    1.329125e+00   1.853746e-02
  1.382640e+00    1.294922e+00   1.829829e-02
  1.384851e+00    1.276855e+00   1.817106e-02
  1.387061e+00    1.258197e+00   1.803808e-02
  1.389272e+00    1.240623e+00   1.791186e-02
  1.391482e+00    1.267205e+00   1.810207e-02
  1.393693e+00    1.250341e+00   1.798036e-02
  1.395903e+00    1.268700e+00   1.811039e-02
  1.398114e+00    1.266773e+00   1.809528e-02
  1.400324e+00    1.253049e+00   1.799488e-02
  1.402535e+00    1.266699e+00   1.809032e-02
  1.404745e+00    1.245785e+00   1.793801e-02
  1.406955e+00    1.257721e+00   1.802106e-02
  1.409166e+00    1.235523e+00   1.785808e-02
  1.411376e+00    1.231561e+00   1.782633e-02
  1.413587e+00    1.244591e+00   1.791663e-02
  1.415797e+00    1.256807e+00   1.800080e-02
  1.418008e+00    1.270788e+00   1.805878e-02
  1.420218e+00    1.253682e+00   1.778808e-02
  1.422429e+00    1.227332e+00   1.751627e-02
  1.424639e+00    1.211598e+00   1.734043e-02
  1.426850e+00    1.240390e+00   1.749121e-02
  1.429060e+00    1.226298e+00   1.734345e-02
  1.431270e+00    1.215277e+00   1.722197e-02
  1.433481e+00    1.236812e+00   1.733346e-02
  1.435691e+00    1.265995e+00   1.749841e-02
  1.437902e+00    1.252741e+00   1.737036e-02
  1.440112e+00    1.245460e+00   1.728480e-02
  1.442323e+00    1.247676e+00   1.726741e-02
  1.444533e+00    1.243877e+00   1.720891e-02
  1.446744e+00    1.239898e+00   1.715059e-02
  1.448954e+00    1.240784e+00   1.712688e-02
  1.451165e+00    1.231897e+00   1.703612e-02
  1.453375e+00    1.248499e+00   1.712272e-02
  1.455586e+00    1.272039e+00   1.725522e-02
  1.457796e+00    1.246780e+00   1.705578e-02
  1.460006e+00    1.242528e+00   1.699972e-02
  1.462217e+00    1.211981e+00   1.676384e-02
  1.464427e+00    1.238803e+00   1.692300e-02
  1.466638e+00    1.255619e+00   1.701232e-02
  1.468848e+00    1.240186e+00   1.688239e-02
  1.471059e+00    1.234948e+00   1.682195e-02
  1.473269e+00    1.225012e+00   1.673019e-02
  1.475480e+00    1.250104e+00   1.687706e-02
  1.477690e+00    1.269875e+00   1.698617e-02
  1.479901e+00    1.252890e+00   1.684848e-02
  1.482111e+00    1.258464e+00   1.686268e-02
  1.484321e+00    1.232404e+00   1.666437e-02
  1.486532e+00    1.262118e+00   1.684176e-02
  1.488742e+00    1.244706e+00   1.670274e-02
  1.490953e+00    1.234862e+00   1.661421e-02
  1.493163e+00    1.230134e+00   1.656039e-02
  1.495374e+00    1.210030e+00   1.640348e-02
  1.497584e+00    1.209418e+00   1.637812e-02
  1.499795e+00    1.231422e+00   1.650505e-02
  1.502005e+00    1.247603e+00   1.659155e-02
  1.504216e+00    1.241884e+00   1.653260e-02
  1.506426e+00    1.230591e+00   1.643667e-02
  1.508636e+00    1.200114e+00   1.621189e-02
  1.510847e+00    1.217743e+00   1.630901e-02
  1.513057e+00    1.246014e+00   1.647228e-02
  1.515268e+00    1.222466e+00   1.629050e-02
  1.517478e+00    1.223834e+00   1.627475e-02
  1.519689e+00    1.257399e+00   1.647143e-02
  1.521899e+00    1.258266e+00   1.645397e-02
  1.524110e+00    1.250953e+00   1.638577e-02
  1.526320e+00    1.232239e+00   1.624331e-02
  1.528531e+00    1.221182e+00   1.615074e-02
  1.530741e+00    1.227620e+00   1.617428e-02
  1.532951e+00    1.228348e+00   1.615966e-02
  1.535162e+00    1.231860e+00   1.626872e-02
  1.537372e+00    1.228738e+00   1.631447e-02
  1.539583e+00    1.221536e+00   1.630043e-02
  1.541793e+00    1.233037e+00   1.638390e-02
  1.544004e+00    1.238168e+00   1.641822e-02
  1.546214e+00    1.210698e+00   1.623358e-02
  1.548425e+00    1.220102e+00   1.629676e-02
  1.550635e+00    1.205752e+00   1.621017e-02
  1.552846e+00    1.223692e+00   1.633989e-02
  1.555056e+00    1.225206e+00   1.630884e-02
  1.557266e+00    1.195008e+00   1.599838e-02
  1.559477e+00    1.214683e+00   1.607111e-02
  1.561687e+00    1.227181e+00   1.612315e-02
  1.563898e+00    1.209552e+00   1.599000e-02
  1.566108e+00    1.214989e+00   1.601013e-02
  1.568319e+00    1.203625e+00   1.591972e-02
  1.570529e+00    1.212709e+00   1.595486e-02
  1.572740e+00    1.232547e+00   1.605735e-02
  1.574950e+00    1.237840e+00   1.606554e-02
  1.577161e+00    1.250561e+00   1.612236e-02
  1.579371e+00    1.229153e+00   1.596025e-02
  1.581582e+00    1.229671e+00   1.594395e-02
  1.583792e+00    1.213383e+00   1.582022e-02
  1.586002e+00    1.198551e+00   1.570592e-02
  1.588213e+00    1.230409e+00   1.589615e-02
  1.590423e+00    1.204687e+00   1.570937e-02
  1.592634e+00    1.224120e+00   1.581412e-02
  1.594844e+00    1.204792e+00   1.566771e-02
  1.597055e+00    1.231799e+00   1.582192e-02
  1.599265e+00    1.221699e+00   1.573640e-02
  1.601476e+00    1.198489e+00   1.556622e-02
  1.603686e+00    1.222754e+00   1.570338e-02
  1.605897e+00    1.228464e+00   1.571994e-02
  1.608107e+00    1.223025e+00   1.566565e-02
  1.610317e+00    1.230032e+00   1.569122e-02
  1.612528e+00    1.190853e+00   1.542048e-02
  1.614738e+00    1.193413e+00   1.541836e-02
  1.616949e+00    1.211577e+00   1.551642e-02
  1.619159e+00    1.175611e+00   1.526603e-02
  1.621370e+00    1.149816e+00   1.507967e-02
  1.623580e+00    1.186543e+00   1.530049e-02
  1.625791e+00    1.184988e+00   1.527239e-02
  1.628001e+00    1.159909e+00   1.509198e-02
  1.630212e+00    1.156726e+00   1.505378e-02
  1.632422e+00    1.152100e+00   1.500600e-02
  1.634632e+00    1.163059e+00   1.506004e-02
  1.636843e+00    1.149493e+00   1.495463e-02
  1.639053e+00    1.127816e+00   1.479599e-02
  1.641264e+00    1.123185e+00   1.474885e-02
  1.643474e+00    1.113830e+00   1.467025e-02
  1.645685e+00    1.101430e+00   1.457213e-02
  1.647895e+00    1.103045e+00   1.456658e-02
  1.650106e+00    1.096332e+00   1.450561e-02
  1.652316e+00    1.089894e+00   1.444689e-02
  1.654527e+00    1.093096e+00   1.445178e-02
  1.656737e+00    1.096995e+00   1.446128e-02
  1.658947e+00    1.088060e+00   1.438629e-02
  1.661158e+00    1.113846e+00   1.453959e-02
  1.663368e+00    1.098863e+00   1.442563e-02
  1.665579e+00    1.094406e+00   1.438037e-02
  1.667789e+00    1.070344e+00   1.420552e-02
  1.670000e+00    1.064691e+00   1.415278e-02
  1.672210e+00    1.097079e+00   1.435066e-02
  1.674421e+00    1.061410e+00   1.410042e-02
  1.676631e+00    1.066888e+00   1.412114e-02
  1.678842e+00    1.060246e+00   1.406162e-02
  1.681052e+00    1.071583e+00   1.412137e-02
  1.683263e+00    1.047343e+00   1.394590e-02
  1.685473e+00    1.051285e+00   1.395721e-02
  1.687683e+00    1.076190e+00   1.410618e-02
  1.689894e+00    1.095010e+00   1.421311e-02
  1.692104e+00    1.112166e+00   1.430887e-02
  1.694315e+00    1.086593e+00   1.412881e-02
  1.696525e+00    1.078284e+00   1.405948e-02
  1.698736e+00    1.040373e+00   1.379546e-02
  1.700946e+00    1.024981e+00   1.367812e-02
  1.703157e+00    1.042022e+00   1.377684e-02
  1.705367e+00    1.014840e+00   1.358172e-02
  1.707578e+00    1.024629e+00   1.363268e-02
  1.709788e+00    1.014358e+00   1.355026e-02
  1.711998e+00    1.039235e+00   1.370043e-02
  1.714209e+00    1.051082e+00   1.376378e-02
  1.716419e+00    1.021568e+00   1.355499e-02
  1.718630e+00    1.026312e+00   1.357219e-02
  1.720840e+00    1.015080e+00   1.348364e-02
  1.723051e+00    1.001675e+00   1.338059e-02
  1.725261e+00    1.002710e+00   1.337297e-02
  1.727472e+00    9.829222e-01   1.322642e-02
  1.729682e+00    9.699358e-01   1.312562e-02
  1.731893e+00    9.592522e-01   1.303956e-02
  1.734103e+00    9.784585e-01   1.315588e-02
  1.736313e+00    9.905694e-01   1.322316e-02
  1.738524e+00    9.727999e-01   1.309037e-02
  1.740734e+00    1.001323e+00   1.326719e-02
  1.742945e+00    1.049076e+00   1.356605e-02
  1.745155e+00    1.078564e+00   1.374137e-02
  1.747366e+00    1.133185e+00   1.407022e-02
  1.749576e+00    1.217782e+00   1.457079e-02
  1.751787e+00    1.127700e+00   1.400728e-02
  1.753997e+00    1.019259e+00   1.330311e-02
  1.756208e+00    9.772399e-01   1.301278e-02
  1.758418e+00    1.015321e+00   1.325048e-02
  1.760628e+00    1.013590e+00   1.322555e-02
  1.762839e+00    1.007077e+00   1.316947e-02
  1.765049e+00    1.024466e+00   1.326916e-02
  1.767260e+00    1.016986e+00   1.320745e-02
  1.769470e+00    1.003639e+00   1.310716e-02
  1.771681e+00    1.081429e+00   1.359160e-02
  1.773891e+00    1.074288e+00   1.353287e-02
  1.776102e+00    9.896346e-01   1.297554e-02
  1.778312e+00    1.008186e+00   1.308343e-02
  1.780523e+00    1.012395e+00   1.309752e-02
  1.782733e+00    1.007190e+00   1.305065e-02
  1.784944e+00    1.048116e+00   1.329953e-02
  1.787154e+00    1.022535e+00   1.312312e-02
  1.789364e+00    9.720498e-01   1.278230e-02
  1.791575e+00    9.382026e-01   1.254519e-02
  1.793785e+00    9.090230e-01   1.233621e-02
  1.795996e+00    9.358140e-01   1.250407e-02
  1.798206e+00    9.503292e-01   1.258794e-02
  1.800417e+00    9.296077e-01   1.243720e-02
  1.802627e+00    9.025616e-01   1.224307e-02
  1.804838e+00    8.940085e-01   1.217292e-02
  1.807048e+00    9.084715e-01   1.225815e-02
  1.809259e+00    9.178786e-01   1.230779e-02
  1.811469e+00    9.166048e-01   1.228416e-02
  1.813679e+00    9.305697e-01   1.236218e-02
  1.815890e+00    9.195299e-01   1.227373e-02
  1.818100e+00    8.852901e-01   1.202803e-02
  1.820311e+00    8.683322e-01   1.189772e-02
  1.822521e+00    8.613131e-01   1.183492e-02
  1.824732e+00    8.742814e-01   1.190900e-02
  1.826942e+00    8.697289e-01   1.186574e-02
  1.829153e+00    8.665358e-01   1.183239e-02
  1.831363e+00    8.582600e-01   1.176389e-02
  1.833574e+00    8.506661e-01   1.170024e-02
  1.835784e+00    8.425219e-01   1.163294e-02
  1.837994e+00    8.437320e-01   1.162977e-02
  1.840205e+00    8.449225e-01   1.162701e-02
  1.842415e+00    8.300345e-01   1.151263e-02
  1.844626e+00    8.368742e-01   1.154864e-02
  1.846836e+00    8.480985e-01   1.161453e-02
  1.849047e+00    8.305719e-01   1.148254e-02
  1.851257e+00    8.052397e-01   1.129682e-02
  1.853468e+00    8.187621e-01   1.138268e-02
  1.855678e+00    8.589899e-01   1.165009e-02
  1.857889e+00    8.672324e-01   1.169734e-02
  1.860099e+00    8.501921e-01   1.157324e-02
  1.862309e+00    8.494490e-01   1.155971e-02
  1.864520e+00    8.451154e-01   1.152166e-02
  1.866730e+00    8.310709e-01   1.141628e-02
  1.868941e+00    8.350671e-01   1.143285e-02
  1.871151e+00    8.465879e-01   1.150008e-02
  1.873362e+00    8.943754e-01   1.180853e-02
  1.875572e+00    9.744279e-01   1.231401e-02
  1.877783e+00    8.796209e-01   1.168806e-02
  1.879993e+00    8.381740e-01   1.139821e-02
  1.882204e+00    8.401622e-01   1.140085e-02
  1.884414e+00    8.267931e-01   1.129883e-02
  1.886624e+00    8.174350e-01   1.122380e-02
  1.888835e+00    8.110567e-01   1.116916e-02
  1.891045e+00    8.155726e-01   1.118948e-02
  1.893256e+00    8.129454e-01   1.116052e-02
  1.895466e+00    8.532653e-01   1.142265e-02
  1.897677e+00    8.259926e-01   1.122779e-02
  1.899887e+00    8.283391e-01   1.123277e-02
  1.902098e+00    8.233812e-01   1.118832e-02
  1.904308e+00    8.133032e-01   1.110916e-02
  1.906519e+00    8.312615e-01   1.122029e-02
  1.908729e+00    8.442637e-01   1.129700e-02
  1.910940e+00    8.731379e-01   1.147710e-02
  1.913150e+00    9.319625e-01   1.184619e-02
  1.915360e+00    8.945500e-01   1.159495e-02
  1.917571e+00    8.309681e-01   1.116436e-02
  1.919781e+00    8.194372e-01   1.107593e-02
  1.921992e+00    8.123235e-01   1.101719e-02
  1.924202e+00    7.933751e-01   1.087733e-02
  1.926413e+00    8.010647e-01   1.091970e-02
  1.928623e+00    7.991552e-01   1.089625e-02
  1.930834e+00    8.094744e-01   1.095595e-02
  1.933044e+00    7.914773e-01   1.082296e-02
  1.935255e+00    7.916389e-01   1.081384e-02
  1.937465e+00    7.752157e-01   1.069090e-02
  1.939675e+00    7.937466e-01   1.080715e-02
  1.941886e+00    7.970164e-01   1.081918e-02
  1.944096e+00    7.802925e-01   1.069503e-02
  1.946307e+00    7.758231e-01   1.065417e-02
  1.948517e+00    7.809510e-01   1.067901e-02
  1.950728e+00    7.879496e-01   1.071658e-02
  1.952938e+00    7.923431e-01   1.073636e-02
  1.955149e+00    7.834210e-01   1.066559e-02
  1.957359e+00    7.809381e-01   1.063874e-02
  1.959570e+00    7.841411e-01   1.064972e-02
  1.961780e+00    7.743396e-01   1.057316e-02
  1.963990e+00    7.776482e-01   1.058570e-02
  1.966201e+00    7.686332e-01   1.051424e-02
  1.968411e+00    7.889354e-01   1.064205e-02
  1.970622e+00    7.652240e-01   1.047096e-02
  1.972832e+00    7.658211e-01   1.046522e-02
  1.975043e+00    7.784598e-01   1.054120e-02
  1.977253e+00    7.933744e-01   1.063172e-02
  1.979464e+00    7.636278e-01   1.042061e-02
  1.981674e+00    7.732778e-01   1.047602e-02
  1.983885e+00    7.695924e-01   1.044110e-02
  1.986095e+00    7.655010e-01   1.040370e-02
  1.988305e+00    7.629453e-01   1.037652e-02
  1.990516e+00    7.677846e-01   1.039953e-02
  1.992726e+00    7.801936e-01   1.047355e-02
  1.994937e+00    7.747560e-01   1.042688e-02
  1.997147e+00    7.628334e-01   1.033669e-02
  1.999358e+00    7.371954e-01   1.015190e-02
  2.001568e+00    7.492576e-01   1.022396e-02
  2.003779e+00    7.594560e-01   1.028149e-02
  2.005989e+00    7.574385e-01   1.025592e-02
  2.008200e+00    7.660404e-01   1.030249e-02
  2.010410e+00    7.584596e-01   1.023974e-02
  2.012621e+00    7.430560e-01   1.012372e-02
  2.014831e+00    7.285097e-01   1.001295e-02
  2.017041e+00    7.269327e-01   9.991994e-03
  2.019252e+00    7.472472e-01   1.012080e-02
  2.021462e+00    7.375842e-01   1.004583e-02
  2.023673e+00    7.329475e-01   1.000500e-02
  2.025883e+00    7.443169e-01   1.007290e-02
  2.028094e+00    7.395745e-01   1.003127e-02
  2.030304e+00    7.476865e-01   1.007668e-02
  2.032515e+00    7.476568e-01   1.006726e-02
  2.034725e+00    7.350534e-01   9.972754e-03
  2.036936e+00    7.459714e-01   1.003729e-02
  2.039146e+00    7.397016e-01   9.985559e-03
  2.041356e+00    7.297581e-01   9.908745e-03
  2.043567e+00    7.437584e-01   9.994095e-03
  2.045777e+00    7.451055e-01   9.993981e-03
  2.047988e+00    7.405028e-01   9.953762e-03
  2.050198e+00    7.607712e-01   1.008060e-02
  2.052409e+00    7.679265e-01   1.012017e-02
  2.054619e+00    7.396865e-01   9.925048e-03
  2.056830e+00    7.265093e-01   9.829161e-03
  2.059040e+00    7.588156e-01   1.003777e-02
  2.061251e+00    7.593866e-01   1.003427e-02
  2.063461e+00    7.547516e-01   9.995968e-03
  2.065671e+00    7.360957e-01   9.863026e-03
  2.067882e+00    7.246784e-01   9.777367e-03
  2.070092e+00    7.313697e-01   9.813299e-03
  2.072303e+00    7.481395e-01   9.916018e-03
  2.074513e+00    7.380546e-01   9.839704e-03
  2.076724e+00    7.327934e-01   9.795157e-03
  2.078934e+00    7.527838e-01   9.918814e-03
  2.081145e+00    7.167935e-01   9.669892e-03
  2.083355e+00    7.202125e-01   9.683868e-03
  2.085566e+00    7.207549e-01   9.678737e-03
  2.087776e+00    7.288101e-01   9.723234e-03
  2.089986e+00    7.185450e-01   9.645846e-03
  2.092197e+00    7.288621e-01   9.705950e-03
  2.094407e+00    7.082135e-01   9.558436e-03
  2.096618e+00    7.136018e-01   9.585931e-03
  2.098828e+00    7.314934e-01   9.696096e-03
  2.101039e+00    7.366715e-01   9.721335e-03
  2.103249e+00    7.370188e-01   9.714938e-03
  2.105460e+00    7.241484e-01   9.620752e-03
  2.107670e+00    7.193746e-01   9.580312e-03
  2.109881e+00    7.317141e-01   9.652922e-03
  2.112091e+00    7.296771e-01   9.630497e-03
  2.114301e+00    6.925611e-01   9.373767e-03
  2.116512e+00    6.900758e-01   9.348334e-03
  2.118722e+00    7.152913e-01   9.508809e-03
  2.120933e+00    7.238277e-01   9.556508e-03
  2.123143e+00    7.253422e-01   9.557544e-03
  2.125354e+00    7.220850e-01   9.527519e-03
  2.127564e+00    7.023853e-01   9.388016e-03
  2.129775e+00    7.102990e-01   9.432041e-03
  2.131985e+00    7.107367e-01   9.425926e-03
  2.134196e+00    6.961756e-01   9.320379e-03
  2.136406e+00    6.969470e-01   9.316896e-03
  2.138617e+00    7.009510e-01   9.335221e-03
  2.140827e+00    7.032939e-01   9.366794e-03
  2.143037e+00    7.039157e-01   9.416332e-03
  2.145248e+00    6.930013e-01   9.364833e-03
  2.147458e+00    7.062932e-01   9.469363e-03
  2.149669e+00    6.993713e-01   9.434690e-03
  2.151879e+00    6.855769e-01   9.350285e-03
  2.154090e+00    6.993881e-01   9.451297e-03
  2.156300e+00    6.743192e-01   9.286868e-03
  2.158511e+00    6.825975e-01   9.348908e-03
  2.160721e+00    6.814698e-01   9.345960e-03
  2.162932e+00    6.762350e-01   9.313667e-03
  2.165142e+00    6.874893e-01   9.393851e-03
  2.167352e+00    6.958610e-01   9.453774e-03
  2.169563e+00    6.978460e-01   9.469231e-03
  2.171773e+00    6.722219e-01   9.296162e-03
  2.173984e+00    6.659960e-01   9.254381e-03
  2.176194e+00    6.573810e-01   9.195508e-03
  2.178405e+00    6.678269e-01   9.268957e-03
  2.180615e+00    6.729376e-01   9.305029e-03
  2.182826e+00    6.654918e-01   9.254085e-03
  2.185036e+00    6.657757e-01   9.256098e-03
  2.187247e+00    6.645503e-01   9.247528e-03
  2.189457e+00    6.776338e-01   9.337714e-03
  2.191667e+00    6.722643e-01   9.300464e-03
  2.193878e+00    6.613353e-01   9.224029e-03
  2.196088e+00    6.621038e-01   9.228671e-03
  2.198299e+00    6.767249e-01   9.328955e-03
  2.200509e+00    6.807979e-01   9.355928e-03
  2.202720e+00    6.722886e-01   9.296138e-03
  2.204930e+00    6.658765e-01   9.250457e-03
  2.207141e+00    6.795818e-01   9.344072e-03
  2.209351e+00    6.754629e-01   9.313820e-03
  2.211562e+00    6.550528e-01   9.170470e-03
  2.213772e+00    6.492165e-01   9.075144e-03
  2.215982e+00    6.681155e-01   9.162348e-03
  2.218193e+00    6.534067e-01   9.031804e-03
  2.220403e+00    6.591408e-01   9.047029e-03
  2.222614e+00    6.522833e-01   8.979253e-03
  2.224824e+00    6.410225e-01   8.882484e-03
  2.227035e+00    6.579729e-01   8.981897e-03
  2.229245e+00    6.755770e-01   9.084249e-03
  2.231456e+00    6.656359e-01   9.001630e-03
  2.233666e+00    6.687086e-01   9.007299e-03
  2.235877e+00    6.563669e-01   8.909687e-03
  2.238087e+00    6.625396e-01   8.938069e-03
  2.240298e+00    6.674491e-01   8.957380e-03
  2.242508e+00    6.549180e-01   8.857921e-03
  2.244718e+00    6.777052e-01   8.994794e-03
  2.246929e+00    6.660801e-01   8.902920e-03
  2.249139e+00    6.461095e-01   8.756262e-03
  2.251350e+00    6.550081e-01   8.804737e-03
  2.253560e+00    6.653652e-01   8.862528e-03
  2.255771e+00    6.612236e-01   8.823536e-03
  2.257981e+00    6.539291e-01   8.763642e-03
  2.260192e+00    6.600598e-01   8.793551e-03
  2.262402e+00    6.583065e-01   8.771061e-03
  2.264613e+00    6.658069e-01   8.810033e-03
  2.266823e+00    6.659577e-01   8.800617e-03
  2.269033e+00    6.528194e-01   8.703072e-03
  2.271244e+00    6.471201e-01   8.654730e-03
  2.273454e+00    6.437783e-01   8.622227e-03
  2.275665e+00    6.683885e-01   8.775128e-03
  2.277875e+00    6.734711e-01   8.798427e-03
  2.280086e+00    6.521140e-01   8.647812e-03
  2.282296e+00    6.614190e-01   8.699860e-03
  2.284507e+00    6.384073e-01   8.537231e-03
  2.286717e+00    6.331931e-01   8.492976e-03
  2.288928e+00    6.441534e-01   8.556416e-03
  2.291138e+00    6.339368e-01   8.479024e-03
  2.293348e+00    6.373875e-01   8.492664e-03
  2.295559e+00    6.384878e-01   8.490803e-03
  2.297769e+00    6.372707e-01   8.473577e-03
  2.299980e+00    6.454394e-01   8.518440e-03
  2.302190e+00    6.432424e-01   8.494873e-03
  2.304401e+00    6.339514e-01   8.424117e-03
  2.306611e+00    6.334590e-01   8.411764e-03
  2.308822e+00    6.311288e-01   8.388036e-03
  2.311032e+00    6.217016e-01   8.318839e-03
  2.313243e+00    6.435533e-01   8.457527e-03
  2.315453e+00    6.405949e-01   8.430555e-03
  2.317663e+00    6.389614e-01   8.410723e-03
  2.319874e+00    6.522979e-01   8.489286e-03
  2.322084e+00    6.296857e-01   8.331995e-03
  2.324295e+00    6.367971e-01   8.370735e-03
  2.326505e+00    6.324000e-01   8.332822e-03
  2.328716e+00    6.286030e-01   8.299312e-03
  2.330926e+00    6.241947e-01   8.261507e-03
  2.333137e+00    5.983674e-01   8.080686e-03
  2.335347e+00    6.237279e-01   8.241393e-03
  2.337558e+00    6.382550e-01   8.328605e-03
  2.339768e+00    6.331776e-01   8.286896e-03
  2.341979e+00    6.310600e-01   8.264694e-03
  2.344189e+00    6.430389e-01   8.334350e-03
  2.346399e+00    6.181507e-01   8.163100e-03
  2.348610e+00    6.043859e-01   8.063461e-03
  2.350820e+00    6.115780e-01   8.103241e-03
  2.353031e+00    6.139283e-01   8.110669e-03
  2.355241e+00    6.113829e-01   8.085901e-03
  2.357452e+00    6.164466e-01   8.111024e-03
  2.359662e+00    6.164052e-01   8.102610e-03
  2.361873e+00    6.213274e-01   8.126747e-03
  2.364083e+00    6.034316e-01   8.001022e-03
  2.366294e+00    6.142601e-01   8.064462e-03
  2.368504e+00    6.114465e-01   8.038002e-03
  2.370714e+00    6.200537e-01   8.086355e-03
  2.372925e+00    6.200118e-01   8.078078e-03
  2.375135e+00    6.038518e-01   7.964170e-03
  2.377346e+00    5.962737e-01   7.906281e-03
  2.379556e+00    6.037871e-01   7.948152e-03
  2.381767e+00    6.179569e-01   8.033022e-03
  2.383977e+00    6.217062e-01   8.049443e-03
  2.386188e+00    5.932524e-01   7.855328e-03
  2.388398e+00    5.948287e-01   7.857957e-03
  2.390609e+00    5.939298e-01   7.844424e-03
  2.392819e+00    5.989865e-01   7.870096e-03
  2.395029e+00    5.963845e-01   7.845440e-03
  2.397240e+00    5.865411e-01   7.772745e-03
  2.399450e+00    6.000901e-01   7.854272e-03
  2.401661e+00    5.902832e-01   7.782305e-03
  2.403871e+00    5.961358e-01   7.813106e-03
  2.406082e+00    5.915290e-01   7.775547e-03
  2.408292e+00    5.843211e-01   7.720404e-03
  2.410503e+00    5.892518e-01   7.745532e-03
  2.412713e+00    5.893736e-01   7.738652e-03
  2.414924e+00    5.943378e-01   7.763763e-03
  2.417134e+00    5.990386e-01   7.786803e-03
  2.419344e+00    5.953059e-01   7.755150e-03
  2.421555e+00    5.883815e-01   7.702496e-03
  2.423765e+00    5.859098e-01   7.678977e-03
  2.425976e+00    5.863973e-01   7.674459e-03
  2.428186e+00    5.888257e-01   7.683167e-03
  2.430397e+00    5.816894e-01   7.629099e-03
  2.432607e+00    5.672132e-01   7.526454e-03
  2.434818e+00    5.924892e-01   7.684793e-03
  2.437028e+00    5.934068e-01   7.683611e-03
  2.439239e+00    5.929083e-01   7.672735e-03
  2.441449e+00    5.724919e-01   7.532399e-03
  2.443659e+00    5.696992e-01   7.506778e-03
  2.445870e+00    5.713073e-01   7.529428e-03
  2.448080e+00    5.677293e-01   7.540159e-03
  2.450291e+00    5.724545e-01   7.587999e-03
  2.452501e+00    5.814294e-01   7.658483e-03
  2.454712e+00    5.538546e-01   7.482958e-03
  2.456922e+00    5.477240e-01   7.447905e-03
  2.459133e+00    5.507520e-01   7.473804e-03
  2.461343e+00    5.507557e-01   7.478144e-03
  2.463554e+00    5.372274e-01   7.389093e-03
  2.465764e+00    5.441861e-01   7.439882e-03
  2.467975e+00    5.580810e-01   7.536549e-03
  2.470185e+00    5.553923e-01   7.520619e-03
  2.472395e+00    5.415380e-01   7.427448e-03
  2.474606e+00    5.241823e-01   7.308961e-03
  2.476816e+00    5.476500e-01   7.471510e-03
  2.479027e+00    5.354613e-01   7.388746e-03
  2.481237e+00    5.261664e-01   7.324623e-03
  2.483448e+00    5.151658e-01   7.247909e-03
  2.485658e+00    5.261930e-01   7.324948e-03
  2.487869e+00    5.285011e-01   7.341019e-03
  2.490079e+00    5.395953e-01   7.417175e-03
  2.492290e+00    5.267626e-01   7.328000e-03
  2.494500e+00    5.246963e-01   7.312901e-03
  2.496710e+00    5.228918e-01   7.299637e-03
  2.498921e+00    5.092008e-01   7.202458e-03
  2.501131e+00    5.068368e-01   7.184791e-03
  2.503342e+00    5.292639e-01   7.340764e-03
  2.505552e+00    5.277482e-01   7.329128e-03
  2.507763e+00    5.296533e-01   7.340937e-03
  2.509973e+00    5.172578e-01   7.253143e-03
  2.512184e+00    5.193141e-01   7.265952e-03
  2.514394e+00    5.011780e-01   7.128811e-03
  2.516605e+00    5.138494e-01   7.171875e-03
  2.518815e+00    5.102857e-01   7.119068e-03
  2.521025e+00    5.138326e-01   7.123019e-03
  2.523236e+00    5.274575e-01   7.198848e-03
  2.525446e+00    5.017079e-01   7.005683e-03
  2.527657e+00    5.250399e-01   7.152099e-03
  2.529867e+00    5.365782e-01   7.215963e-03
  2.532078e+00    5.262097e-01   7.130838e-03
  2.534288e+00    5.207142e-01   7.079669e-03
  2.536499e+00    5.335996e-01   7.154695e-03
  2.538709e+00    5.154518e-01   7.021080e-03
  2.540920e+00    5.153795e-01   7.010017e-03
  2.543130e+00    5.184767e-01   7.020752e-03
  2.545340e+00    5.130659e-01   6.974049e-03
  2.547551e+00    5.210621e-01   7.018278e-03
  2.549761e+00    5.118498e-01   6.946452e-03
  2.551972e+00    5.191499e-01   6.986497e-03
  2.554182e+00    5.092631e-01   6.910591e-03
  2.556393e+00    5.037611e-01   6.864192e-03
  2.558603e+00    5.129157e-01   6.917280e-03
  2.560814e+00    5.211802e-01   6.964076e-03
  2.563024e+00    5.113637e-01   6.889681e-03
  2.565235e+00    5.005709e-01   6.807241e-03
  2.567445e+00    5.000583e-01   6.794371e-03
  2.569656e+00    5.087997e-01   6.843830e-03
  2.571866e+00    5.121002e-01   6.856709e-03
  2.574076e+00    5.115427e-01   6.843740e-03
  2.576287e+00    5.075933e-01   6.809018e-03
  2.578497e+00    5.070240e-01   6.797427e-03
  2.580708e+00    5.010594e-01   6.749341e-03
  2.582918e+00    5.142149e-01   6.829630e-03
  2.585129e+00    4.979398e-01   6.713051e-03
  2.587339e+00    5.038589e-01   6.745226e-03
  2.589550e+00    4.985771e-01   6.702332e-03
  2.591760e+00    5.045344e-01   6.734583e-03
  2.593971e+00    4.963033e-01   6.672001e-03
  2.596181e+00    4.992067e-01   6.685345e-03
  2.598391e+00    5.056071e-01   6.722905e-03
  2.600602e+00    4.954213e-01   6.649015e-03
  2.602812e+00    4.981924e-01   6.660120e-03
  2.605023e+00    4.943723e-01   6.627474e-03
  2.607233e+00    4.966233e-01   6.635489e-03
  2.609444e+00    4.937091e-01   6.608857e-03
  2.611654e+00    4.953938e-01   6.612886e-03
  2.613865e+00    4.863063e-01   6.545062e-03
  2.616075e+00    4.937184e-01   6.587682e-03
  2.618286e+00    5.081382e-01   6.676200e-03
  2.620496e+00    4.867360e-01   6.527509e-03
  2.622706e+00    4.880579e-01   6.530721e-03
  2.624917e+00    4.903624e-01   6.540353e-03
  2.627127e+00    4.938647e-01   6.557979e-03
  2.629338e+00    4.890231e-01   6.519878e-03
  2.631548e+00    4.896899e-01   6.518227e-03
  2.633759e+00    4.825979e-01   6.463862e-03
  2.635969e+00    4.965061e-01   6.549666e-03
  2.638180e+00    4.969962e-01   6.545967e-03
  2.640390e+00    4.919799e-01   6.506308e-03
  2.642601e+00    4.800720e-01   6.420548e-03
  2.644811e+00    4.870944e-01   6.460365e-03
  2.647021e+00    4.899076e-01   6.472483e-03
  2.649232e+00    4.959167e-01   6.505377e-03
  2.651442e+00    4.960524e-01   6.499772e-03
  2.653653e+00    4.895857e-01   6.450553e-03
  2.655863e+00    4.855991e-01   6.417628e-03
  2.658074e+00    4.894131e-01   6.436235e-03
  2.660284e+00    4.868974e-01   6.413375e-03
  2.662495e+00    4.912447e-01   6.435235e-03
  2.664705e+00    4.849329e-01   6.387280e-03
  2.666916e+00    4.816985e-01   6.359566e-03
  2.669126e+00    4.754395e-01   6.311801e-03
  2.671337e+00    4.777846e-01   6.320871e-03
  2.673547e+00    4.689705e-01   6.256103e-03
  2.675757e+00    4.715053e-01   6.266676e-03
  2.677968e+00    4.831344e-01   6.337036e-03
  2.680178e+00    4.778793e-01   6.296192e-03
  2.682389e+00    4.848866e-01   6.335835e-03
  2.684599e+00    4.785090e-01   6.287947e-03
  2.686810e+00    4.753125e-01   6.260402e-03
  2.689020e+00    4.801363e-01   6.285884e-03
  2.691231e+00    4.747805e-01   6.244538e-03
  2.693441e+00    4.854625e-01   6.308271e-03
  2.695652e+00    4.872781e-01   6.313578e-03
  2.697862e+00    4.819044e-01   6.272381e-03
  2.700072e+00    4.686155e-01   6.179324e-03
  2.702283e+00    4.719504e-01   6.195184e-03
  2.704493e+00    4.760309e-01   6.215690e-03
  2.706704e+00    4.889483e-01   6.293064e-03
  2.708914e+00    4.749035e-01   6.196132e-03
  2.711125e+00    4.761837e-01   6.198308e-03
  2.713335e+00    4.718921e-01   6.164322e-03
  2.715546e+00    4.799154e-01   6.210096e-03
  2.717756e+00    4.674143e-01   6.122898e-03
  2.719967e+00    4.685716e-01   6.124381e-03
  2.722177e+00    4.652691e-01   6.096772e-03
  2.724387e+00    4.735286e-01   6.144609e-03
  2.726598e+00    4.699759e-01   6.115551e-03
  2.728808e+00    4.823376e-01   6.189328e-03
  2.731019e+00    4.967296e-01   6.274777e-03
  2.733229e+00    5.062618e-01   6.328774e-03
  2.735440e+00    5.129683e-01   6.364112e-03
  2.737650e+00    4.962200e-01   6.253257e-03
  2.739861e+00    4.815248e-01   6.153918e-03
  2.742071e+00    4.764738e-01   6.115845e-03
  2.744282e+00    4.767127e-01   6.111169e-03
  2.746492e+00    4.685241e-01   6.052510e-03
  2.748702e+00    4.689138e-01   6.049203e-03
  2.750913e+00    4.586818e-01   5.977184e-03
  2.753123e+00    4.697422e-01   6.042774e-03
  2.755334e+00    4.591269e-01   5.968178e-03
  2.757544e+00    4.603854e-01   5.970733e-03
  2.759755e+00    4.544836e-01   5.926612e-03
  2.761965e+00    4.774732e-01   6.068680e-03
  2.764176e+00    4.797338e-01   6.077059e-03
  2.766386e+00    4.810137e-01   6.079367e-03
  2.768597e+00    4.812855e-01   6.075214e-03
  2.770807e+00    4.632945e-01   5.954801e-03
  2.773017e+00    4.697007e-01   5.989906e-03
  2.775228e+00    4.764557e-01   6.027067e-03
  2.777438e+00    4.614692e-01   5.925828e-03
  2.779649e+00    4.692646e-01   5.969816e-03
  2.781859e+00    4.727112e-01   5.985964e-03
  2.784070e+00    4.651784e-01   5.932295e-03
  2.786280e+00    4.620263e-01   5.906498e-03
  2.788491e+00    4.638323e-01   5.912263e-03
  2.790701e+00    4.695072e-01   5.942712e-03
  2.792912e+00    4.829013e-01   6.020883e-03
  2.795122e+00    4.723464e-01   5.949026e-03
  2.797333e+00    4.615532e-01   5.875164e-03
  2.799543e+00    4.784275e-01   5.975711e-03
  2.801753e+00    4.765396e-01   5.958087e-03
  2.803964e+00    4.541098e-01   5.810620e-03
  2.806174e+00    4.595790e-01   5.839448e-03
  2.808385e+00    4.650899e-01   5.867644e-03
  2.810595e+00    4.538216e-01   5.789415e-03
  2.812806e+00    4.542907e-01   5.785938e-03
  2.815016e+00    4.580372e-01   5.805074e-03
  2.817227e+00    4.649275e-01   5.874258e-03
  2.819437e+00    4.591965e-01   5.848860e-03
  2.821648e+00    4.508244e-01   5.797524e-03
  2.823858e+00    4.586332e-01   5.852761e-03
  2.826068e+00    4.663526e-01   5.906759e-03
  2.828279e+00    4.682373e-01   5.922714e-03
  2.830489e+00    4.611691e-01   5.881132e-03
  2.832700e+00    4.578846e-01   5.862675e-03
  2.834910e+00    4.611834e-01   5.885789e-03
  2.837121e+00    4.585886e-01   5.870908e-03
  2.839331e+00    4.618507e-01   5.892959e-03
  2.841542e+00    4.709835e-01   5.951956e-03
  2.843752e+00    4.621291e-01   5.896525e-03
  2.845963e+00    4.605917e-01   5.887101e-03
  2.848173e+00    4.630908e-01   5.903140e-03
  2.850383e+00    4.598087e-01   5.882467e-03
  2.852594e+00    4.624336e-01   5.899156e-03
  2.854804e+00    4.673462e-01   5.929904e-03
  2.857015e+00    4.571158e-01   5.864220e-03
  2.859225e+00    4.506473e-01   5.822327e-03
  2.861436e+00    4.535584e-01   5.840457e-03
  2.863646e+00    4.446769e-01   5.783032e-03
  2.865857e+00    4.586983e-01   5.873829e-03
  2.868067e+00    4.495016e-01   5.814876e-03
  2.870278e+00    4.387251e-01   5.744407e-03
  2.872488e+00    4.503266e-01   5.818698e-03
  2.874698e+00    4.570654e-01   5.861057e-03
  2.876909e+00    4.491867e-01   5.809007e-03
  2.879119e+00    4.491093e-01   5.806910e-03
  2.881330e+00    4.425847e-01   5.763143e-03
  2.883540e+00    4.500601e-01   5.810225e-03
  2.885751e+00    4.542661e-01   5.835692e-03
  2.887961e+00    4.459562e-01   5.780215e-03
  2.890172e+00    4.555795e-01   5.840646e-03
  2.892382e+00    4.468374e-01   5.782581e-03
  2.894593e+00    4.450090e-01   5.768935e-03
  2.896803e+00    4.433934e-01   5.756519e-03
  2.899014e+00    4.436863e-01   5.756539e-03
  2.901224e+00    4.528784e-01   5.813884e-03
  2.903434e+00    4.442142e-01   5.756109e-03
  2.905645e+00    4.467999e-01   5.770613e-03
  2.907855e+00    4.587388e-01   5.845123e-03
  2.910066e+00    4.615874e-01   5.861166e-03
  2.912276e+00    4.514111e-01   5.794094e-03
  2.914487e+00    4.377795e-01   5.703535e-03
  2.916697e+00    4.442187e-01   5.743128e-03
  2.918908e+00    4.465452e-01   5.756188e-03
  2.921118e+00    4.480854e-01   5.763421e-03
  2.923329e+00    4.486375e-01   5.764696e-03
  2.925539e+00    4.502041e-01   5.772478e-03
  2.927749e+00    4.532213e-01   5.789489e-03
  2.929960e+00    4.500899e-01   5.766710e-03
  2.932170e+00    4.510274e-01   5.770383e-03
  2.934381e+00    4.538601e-01   5.786051e-03
  2.936591e+00    4.546344e-01   5.788408e-03
  2.938802e+00    4.428006e-01   5.709918e-03
  2.941012e+00    4.595548e-01   5.814571e-03
  2.943223e+00    4.479178e-01   5.737842e-03
  2.945433e+00    4.360602e-01   5.657698e-03
  2.947644e+00    4.539322e-01   5.768354e-03
  2.949854e+00    4.361627e-01   5.650170e-03
  2.952064e+00    4.390918e-01   5.664920e-03
  2.954275e+00    4.553174e-01   5.764250e-03
  2.956485e+00    4.460005e-01   5.700826e-03
  2.958696e+00    4.418585e-01   5.669980e-03
  2.960906e+00    4.532426e-01   5.738374e-03
  2.963117e+00    4.475796e-01   5.697983e-03
  2.965327e+00    4.336406e-01   5.604729e-03
  2.967538e+00    4.470428e-01   5.687786e-03
  2.969748e+00    4.321788e-01   5.589692e-03
  2.971959e+00    4.517226e-01   5.711546e-03
  2.974169e+00    4.407642e-01   5.639308e-03
  2.976379e+00    4.487852e-01   5.687472e-03
  2.978590e+00    4.508540e-01   5.697451e-03
  2.980800e+00    4.486112e-01   5.680478e-03
  2.983011e+00    4.614464e-01   5.758354e-03
  2.985221e+00    4.421447e-01   5.633523e-03
  2.987432e+00    4.442405e-01   5.643781e-03
  2.989642e+00    4.378881e-01   5.600706e-03
  2.991853e+00    4.426204e-01   5.627648e-03
  2.994063e+00    4.370577e-01   5.589320e-03
  2.996274e+00    4.480147e-01   5.655786e-03
  2.998484e+00    4.523437e-01   5.680343e-03
  3.000694e+00    4.510708e-01   5.668920e-03
  3.002905e+00    4.427328e-01   5.613373e-03
  3.005115e+00    4.362700e-01   5.569312e-03
  3.007326e+00    4.402874e-01   5.591792e-03
  3.009536e+00    4.534835e-01   5.671721e-03
  3.011747e+00    4.521998e-01   5.660787e-03
  3.013957e+00    4.308438e-01   5.522383e-03
  3.016168e+00    4.567661e-01   5.682807e-03
  3.018378e+00    4.582656e-01   5.689087e-03
  3.020589e+00    4.472845e-01   5.617313e-03
  3.022799e+00    4.469779e-01   5.612252e-03
  3.025010e+00    4.391401e-01   5.559626e-03
  3.027220e+00    4.429453e-01   5.580595e-03
  3.029430e+00    4.430341e-01   5.577937e-03
  3.031641e+00    4.369560e-01   5.536451e-03
  3.033851e+00    4.395314e-01   5.549278e-03
  3.036062e+00    4.388333e-01   5.542131e-03
  3.038272e+00    4.517893e-01   5.619761e-03
  3.040483e+00    4.577313e-01   5.653359e-03
  3.042693e+00    4.538691e-01   5.626194e-03
  3.044904e+00    4.356198e-01   5.507971e-03
  3.047114e+00    4.287580e-01   5.459720e-03
  3.049325e+00    4.342827e-01   5.490468e-03
  3.051535e+00    4.371096e-01   5.503986e-03
  3.053745e+00    4.433987e-01   5.538730e-03
  3.055956e+00    4.327083e-01   5.467078e-03
  3.058166e+00    4.393863e-01   5.504875e-03
  3.060377e+00    4.332456e-01   5.461620e-03
  3.062587e+00    4.401374e-01   5.500287e-03
  3.064798e+00    4.442457e-01   5.521676e-03
  3.067008e+00    4.404527e-01   5.493385e-03
  3.069219e+00    4.390332e-01   5.480052e-03
  3.071429e+00    4.492196e-01   5.539748e-03
  3.073640e+00    4.549864e-01   5.571859e-03
  3.075850e+00    4.231245e-01   5.369756e-03
  3.078060e+00    4.346499e-01   5.439299e-03
  3.080271e+00    4.510950e-01   5.537793e-03
  3.082481e+00    4.533063e-01   5.547876e-03
  3.084692e+00    4.542715e-01   5.550382e-03
  3.086902e+00    4.446186e-01   5.487876e-03
  3.089113e+00    4.322396e-01   5.407417e-03
  3.091323e+00    4.395790e-01   5.449794e-03
  3.093534e+00    4.382339e-01   5.438120e-03
  3.095744e+00    4.444674e-01   5.473278e-03
  3.097955e+00    4.369692e-01   5.423433e-03
  3.100165e+00    4.446485e-01   5.467542e-03
  3.102375e+00    4.276515e-01   5.358690e-03
  3.104586e+00    4.309665e-01   5.375966e-03
  3.106796e+00    4.562351e-01   5.527786e-03
  3.109007e+00    4.447276e-01   5.454415e-03
  3.111217e+00    4.339811e-01   5.384471e-03
  3.113428e+00    4.407372e-01   5.422802e-03
  3.115638e+00    4.490553e-01   5.470515e-03
  3.117849e+00    4.320531e-01   5.362287e-03
  3.120059e+00    4.319753e-01   5.358375e-03
  3.122270e+00    4.345116e-01   5.370872e-03
  3.124480e+00    4.373583e-01   5.384781e-03
  3.126691e+00    4.322585e-01   5.349775e-03
  3.128901e+00    4.427648e-01   5.411295e-03
  3.131111e+00    4.395559e-01   5.387826e-03
  3.133322e+00    4.337932e-01   5.348982e-03
  3.135532e+00    4.405430e-01   5.387048e-03
  3.137743e+00    4.433740e-01   5.400862e-03
  3.139953e+00    4.403816e-01   5.378932e-03
  3.142164e+00    4.295825e-01   5.324410e-03
  3.144374e+00    4.338035e-01   5.378627e-03
  3.146585e+00    4.185058e-01   5.297103e-03
  3.148795e+00    4.338293e-01   5.403871e-03
  3.151006e+00    4.332899e-01   5.408989e-03
  3.153216e+00    4.393920e-01   5.454047e-03
  3.155426e+00    4.406096e-01   5.467913e-03
  3.157637e+00    4.197707e-01   5.342444e-03
  3.159847e+00    4.231044e-01   5.368375e-03
  3.162058e+00    4.356021e-01   5.451495e-03
  3.164268e+00    4.266809e-01   5.399385e-03
  3.166479e+00    4.327014e-01   5.440969e-03
  3.168689e+00    4.344724e-01   5.455446e-03
  3.170900e+00    4.333889e-01   5.451773e-03
  3.173110e+00    4.383585e-01   5.485821e-03
  3.175321e+00    4.341165e-01   5.461701e-03
  3.177531e+00    4.316191e-01   5.448688e-03
  3.179741e+00    4.185329e-01   5.367475e-03
  3.181952e+00    4.364094e-01   5.483005e-03
  3.184162e+00    4.177756e-01   5.366841e-03
  3.186373e+00    4.171844e-01   5.364580e-03
  3.188583e+00    4.235531e-01   5.407129e-03
  3.190794e+00    4.277537e-01   5.435626e-03
  3.193004e+00    4.205021e-01   5.390563e-03
  3.195215e+00    4.268648e-01   5.432684e-03
  3.197425e+00    4.341294e-01   5.479935e-03
  3.199636e+00    4.163484e-01   5.365788e-03
  3.201846e+00    4.213961e-01   5.397607e-03
  3.204056e+00    4.212214e-01   5.397370e-03
  3.206267e+00    4.207326e-01   5.395072e-03
  3.208477e+00    4.172956e-01   5.373897e-03
  3.210688e+00    4.172112e-01   5.374178e-03
  3.212898e+00    4.248082e-01   5.423456e-03
  3.215109e+00    4.318649e-01   5.469069e-03
  3.217319e+00    4.298633e-01   5.457023e-03
  3.219530e+00    4.301226e-01   5.459064e-03
  3.221740e+00    4.076360e-01   5.314979e-03
  3.223951e+00    4.180765e-01   5.383090e-03
  3.226161e+00    4.241654e-01   5.422323e-03
  3.228372e+00    4.279415e-01   5.446945e-03
  3.230582e+00    4.295998e-01   5.457616e-03
  3.232792e+00    4.348584e-01   5.491163e-03
  3.235003e+00    4.115707e-01   5.342336e-03
  3.237213e+00    4.152111e-01   5.366010e-03
  3.239424e+00    4.195713e-01   5.394112e-03
  3.241634e+00    4.147326e-01   5.363046e-03
  3.243845e+00    4.180253e-01   5.384346e-03
  3.246055e+00    4.189430e-01   5.389990e-03
  3.248266e+00    4.317015e-01   5.471665e-03
  3.250476e+00    4.176850e-01   5.381800e-03
  3.252687e+00    4.158439e-01   5.369850e-03
  3.254897e+00    4.204626e-01   5.399453e-03
  3.257107e+00    4.050503e-01   5.299271e-03
  3.259318e+00    4.155871e-01   5.367534e-03
  3.261528e+00    4.145214e-01   5.360500e-03
  3.263739e+00    4.109045e-01   5.336512e-03
  3.265949e+00    4.278779e-01   5.445497e-03
  3.268160e+00    4.126530e-01   5.347333e-03
  3.270370e+00    4.223502e-01   5.409285e-03
  3.272581e+00    4.162444e-01   5.369768e-03
  3.274791e+00    4.099730e-01   5.328654e-03
  3.277002e+00    4.201977e-01   5.394103e-03
  3.279212e+00    4.232367e-01   5.413228e-03
  3.281422e+00    4.286409e-01   5.447075e-03
  3.283633e+00    4.006093e-01   5.265321e-03
  3.285843e+00    4.124876e-01   5.342447e-03
  3.288054e+00    4.175481e-01   5.374214e-03
  3.290264e+00    4.060780e-01   5.299558e-03
  3.292475e+00    4.100986e-01   5.324916e-03
  3.294685e+00    4.120634e-01   5.337032e-03
  3.296896e+00    4.097752e-01   5.321448e-03
  3.299106e+00    4.077860e-01   5.307973e-03
  3.301317e+00    4.037744e-01   5.280795e-03
  3.303527e+00    4.153523e-01   5.355499e-03
  3.305737e+00    4.204039e-01   5.386947e-03
  3.307948e+00    4.110170e-01   5.325773e-03
  3.310158e+00    4.129407e-01   5.337437e-03
  3.312369e+00    4.147845e-01   5.348401e-03
  3.314579e+00    4.170293e-01   5.362004e-03
  3.316790e+00    4.167394e-01   5.359396e-03
  3.319000e+00    4.259371e-01   5.417056e-03
  3.321211e+00    4.178544e-01   5.364812e-03
  3.323421e+00    4.150071e-01   5.345284e-03
  3.325632e+00    4.149118e-01   5.343799e-03
  3.327842e+00    4.041928e-01   5.273450e-03
  3.330052e+00    4.028206e-01   5.263418e-03
  3.332263e+00    4.063141e-01   5.285188e-03
  3.334473e+00    3.981911e-01   5.231224e-03
  3.336684e+00    4.121620e-01   5.320935e-03
  3.338894e+00    4.257483e-01   5.407085e-03
  3.341105e+00    4.141136e-01   5.331507e-03
  3.343315e+00    4.124624e-01   5.319724e-03
  3.345526e+00    4.111378e-01   5.310294e-03
  3.347736e+00    4.018431e-01   5.248536e-03
  3.349947e+00    4.116119e-01   5.311034e-03
  3.352157e+00    4.172255e-01   5.345957e-03
  3.354368e+00    4.151705e-01   5.331488e-03
  3.356578e+00    4.174137e-01   5.344850e-03
  3.358788e+00    4.095802e-01   5.293156e-03
  3.360999e+00    4.071398e-01   5.276118e-03
  3.363209e+00    4.162563e-01   5.333864e-03
  3.365420e+00    4.093997e-01   5.288244e-03
  3.367630e+00    4.030089e-01   5.245803e-03
  3.369841e+00    4.152298e-01   5.323325e-03
  3.372051e+00    4.037356e-01   5.247193e-03
  3.374262e+00    4.067813e-01   5.264529e-03
  3.376472e+00    4.012332e-01   5.226105e-03
  3.378683e+00    4.035821e-01   5.238912e-03
  3.380893e+00    3.880293e-01   5.134728e-03
  3.383103e+00    4.016627e-01   5.221481e-03
  3.385314e+00    4.078732e-01   5.259480e-03
  3.387524e+00    4.030679e-01   5.225722e-03
  3.389735e+00    4.130431e-01   5.287359e-03
  3.391945e+00    4.172460e-01   5.310499e-03
  3.394156e+00    3.981274e-01   5.183273e-03
  3.396366e+00    4.009804e-01   5.198435e-03
  3.398577e+00    4.038765e-01   5.214165e-03
  3.400787e+00    3.846012e-01   5.099753e-03
  3.402998e+00    3.914941e-01   5.182430e-03
  3.405208e+00    3.744193e-01   5.088009e-03
  3.407418e+00    3.970918e-01   5.255489e-03
  3.409629e+00    3.900653e-01   5.222572e-03
  3.411839e+00    3.733555e-01   5.120881e-03
  3.414050e+00    3.761390e-01   5.150607e-03
  3.416260e+00    3.817462e-01   5.198358e-03
  3.418471e+00    3.768643e-01   5.174229e-03
  3.420681e+00    3.763706e-01   5.179141e-03
  3.422892e+00    3.819241e-01   5.225132e-03
  3.425102e+00    3.626007e-01   5.098789e-03
  3.427313e+00    3.620600e-01   5.101879e-03
  3.429523e+00    3.783092e-01   5.222120e-03
  3.431733e+00    3.815223e-01   5.250873e-03
  3.433944e+00    3.773271e-01   5.228363e-03
  3.436154e+00    3.594378e-01   5.108946e-03
  3.438365e+00    3.747433e-01   5.222453e-03
  3.440575e+00    3.778318e-01   5.249859e-03
  3.442786e+00    3.800315e-01   5.270708e-03
  3.444996e+00    3.739047e-01   5.233573e-03
  3.447207e+00    3.612287e-01   5.149244e-03
  3.449417e+00    3.533784e-01   5.132820e-03
  3.451628e+00    3.634931e-01   5.234936e-03
  3.453838e+00    3.612778e-01   5.239998e-03
  3.456049e+00    3.642084e-01   5.284979e-03
  3.458259e+00    3.522958e-01   5.219360e-03
  3.460469e+00    3.477981e-01   5.205197e-03
  3.462680e+00    3.660648e-01   5.359179e-03
  3.464890e+00    3.622352e-01   5.348791e-03
  3.467101e+00    3.717300e-01   5.435999e-03
  3.469311e+00    3.791397e-01   5.506655e-03
  3.471522e+00    3.837880e-01   5.556887e-03
  3.473732e+00    3.811460e-01   5.553754e-03
  3.475943e+00    3.702556e-01   5.489250e-03
  3.478153e+00    3.981114e-01   5.707650e-03
  3.480364e+00    4.087730e-01   5.799022e-03
  3.482574e+00    4.026783e-01   5.770936e-03
  3.484784e+00    4.186641e-01   5.899394e-03
  3.486995e+00    4.070258e-01   5.831783e-03
  3.489205e+00    4.015167e-01   5.806422e-03
  3.491416e+00    4.246763e-01   5.986407e-03
  3.493626e+00    4.475262e-01   6.160162e-03
  3.495837e+00    4.471901e-01   6.172730e-03
  3.498047e+00    4.513932e-01   6.216255e-03
  3.500258e+00    4.568247e-01   6.268213e-03
  3.502468e+00    4.690384e-01   6.366093e-03
  3.504679e+00    4.650176e-01   6.353325e-03
  3.506889e+00    4.561009e-01   6.306394e-03
  3.509099e+00    4.699700e-01   6.415892e-03
  3.511310e+00    4.702917e-01   6.432477e-03
  3.513520e+00    4.779399e-01   6.498904e-03
  3.515731e+00    4.941379e-01   6.622631e-03
  3.517941e+00    4.809783e-01   6.548088e-03
  3.520152e+00    4.987469e-01   6.682284e-03
  3.522362e+00    5.009941e-01   6.711817e-03
  3.524573e+00    5.191926e-01   6.847105e-03
  3.526783e+00    5.074349e-01   6.782447e-03
  3.528994e+00    5.365969e-01   6.987083e-03
  3.531204e+00    5.154898e-01   6.860688e-03
  3.533414e+00    5.162918e-01   6.877968e-03
  3.535625e+00    5.265173e-01   6.958134e-03
  3.537835e+00    5.289190e-01   6.986002e-03
  3.540046e+00    5.227398e-01   6.953966e-03
  3.542256e+00    5.228488e-01   6.962084e-03
  3.544467e+00    5.342292e-01   7.045071e-03
  3.546677e+00    5.488902e-01   7.148739e-03
  3.548888e+00    5.404773e-01   7.101295e-03
  3.551098e+00    5.461721e-01   7.145932e-03
  3.553309e+00    5.492473e-01   7.174355e-03
  3.555519e+00    5.062804e-01   6.898955e-03
  3.557729e+00    5.183130e-01   6.991974e-03
  3.559940e+00    5.326560e-01   7.099579e-03
  3.562150e+00    5.284652e-01   7.083226e-03
  3.564361e+00    5.347898e-01   7.138788e-03
  3.566571e+00    5.116476e-01   6.996140e-03
  3.568782e+00    5.256966e-01   7.105505e-03
  3.570992e+00    5.155172e-01   7.049876e-03
  3.573203e+00    5.265923e-01   7.139221e-03
  3.575413e+00    5.149421e-01   7.073295e-03
  3.577624e+00    5.328843e-01   7.209578e-03
  3.579834e+00    5.247089e-01   7.167774e-03
  3.582045e+00    5.293582e-01   7.213404e-03
  3.584255e+00    5.213979e-01   7.172823e-03
  3.586465e+00    5.355980e-01   7.283770e-03
  3.588676e+00    5.343274e-01   7.289304e-03
  3.590886e+00    5.318334e-01   7.285914e-03
  3.593097e+00    5.527921e-01   7.442816e-03
  3.595307e+00    5.514178e-01   7.447719e-03
  3.597518e+00    5.529686e-01   7.472596e-03
  3.599728e+00    5.416472e-01   7.409907e-03
  3.601939e+00    5.142158e-01   7.233634e-03
  3.604149e+00    5.344284e-01   7.388764e-03
  3.606360e+00    5.287747e-01   7.363672e-03
  3.608570e+00    5.292520e-01   7.381071e-03
  3.610780e+00    5.220000e-01   7.341250e-03
  3.612991e+00    5.238308e-01   7.364027e-03
  3.615201e+00    5.175337e-01   7.329263e-03
  3.617412e+00    5.271085e-01   7.403962e-03
  3.619622e+00    5.226554e-01   7.378507e-03
  3.621833e+00    5.206190e-01   7.370755e-03
  3.624043e+00    5.482423e-01   7.573385e-03
  3.626254e+00    5.409911e-01   7.532922e-03
  3.628464e+00    5.423167e-01   7.553165e-03
  3.630675e+00    5.308045e-01   7.486686e-03
  3.632885e+00    5.372795e-01   7.546673e-03
  3.635095e+00    5.406816e-01   7.585043e-03
  3.637306e+00    5.224960e-01   7.470601e-03
  3.639516e+00    5.139903e-01   7.423827e-03
  3.641727e+00    5.172278e-01   7.461490e-03
  3.643937e+00    5.263890e-01   7.541745e-03
  3.646148e+00    5.270361e-01   7.560900e-03
  3.648358e+00    5.244612e-01   7.557173e-03
  3.650569e+00    5.062193e-01   7.438932e-03
  3.652779e+00    5.224738e-01   7.572012e-03
  3.654990e+00    5.454354e-01   7.751673e-03
  3.657200e+00    5.392311e-01   7.722523e-03
  3.659410e+00    5.230051e-01   7.620227e-03
  3.661621e+00    5.326365e-01   7.705213e-03
  3.663831e+00    5.184443e-01   7.616828e-03
  3.666042e+00    4.901692e-01   7.420687e-03
  3.668252e+00    5.338042e-01   7.759243e-03
  3.670463e+00    5.260443e-01   7.717837e-03
  3.672673e+00    5.377442e-01   7.818670e-03
  3.674884e+00    5.244337e-01   7.736657e-03
  3.677094e+00    5.079144e-01   7.628991e-03
  3.679305e+00    5.053931e-01   7.625198e-03
  3.681515e+00    5.407757e-01   7.903378e-03
  3.683726e+00    5.312710e-01   7.849457e-03
  3.685936e+00    5.090403e-01   7.698915e-03
  3.688146e+00    4.870286e-01   7.545725e-03
  3.690357e+00    4.976347e-01   7.642943e-03
  3.692567e+00    5.011193e-01   7.685363e-03
  3.694778e+00    4.975353e-01   7.673435e-03
  3.696988e+00    5.045127e-01   7.742705e-03
  3.699199e+00    5.133730e-01   7.826463e-03
  3.701409e+00    5.054541e-01   7.781911e-03
  3.703620e+00    5.042589e-01   7.788724e-03
  3.705830e+00    5.131196e-01   7.873031e-03
  3.708041e+00    5.261800e-01   7.989278e-03
  3.710251e+00    5.175430e-01   7.940032e-03
  3.712461e+00    5.081059e-01   7.883804e-03
  3.714672e+00    5.194081e-01   7.987722e-03
  3.716882e+00    5.058393e-01   7.899134e-03
  3.719093e+00    5.132578e-01   7.973871e-03
  3.721303e+00    5.027515e-01   7.908556e-03
  3.723514e+00    5.142649e-01   8.015749e-03
  3.725724e+00    5.056617e-01   7.965396e-03
  3.727935e+00    4.808519e-01   7.784308e-03
  3.730145e+00    5.105668e-01   8.038445e-03
  3.732356e+00    5.222098e-01   8.147252e-03
  3.734566e+00    5.040120e-01   8.021386e-03
  3.736776e+00    5.081168e-01   8.071605e-03
  3.738987e+00    4.967151e-01   7.997990e-03
  3.741197e+00    5.058446e-01   8.089005e-03
  3.743408e+00    4.948520e-01   8.018328e-03
  3.745618e+00    4.973995e-01   8.057029e-03
  3.747829e+00    5.014155e-01   8.107393e-03
  3.750039e+00    4.950687e-01   8.073970e-03
  3.752250e+00    5.186704e-01   8.282828e-03
  3.754460e+00    5.043576e-01   8.186158e-03
  3.756671e+00    5.060629e-01   8.218723e-03
  3.758881e+00    5.183806e-01   8.336973e-03
  3.761091e+00    5.028190e-01   8.229942e-03
  3.763302e+00    5.010914e-01   8.234666e-03
  3.765512e+00    5.093241e-01   8.321404e-03
  3.767723e+00    5.060514e-01   8.313896e-03
  3.769933e+00    4.881747e-01   8.184749e-03
  3.772144e+00    4.927893e-01   8.242646e-03
  3.774354e+00    4.962033e-01   8.290804e-03
  3.776565e+00    5.029398e-01   8.366688e-03
  3.778775e+00    4.961264e-01   8.329650e-03
  3.780986e+00    4.784569e-01   8.199736e-03
  3.783196e+00    4.960580e-01   8.369256e-03
  3.785407e+00    5.067533e-01   8.479546e-03
  3.787617e+00    5.005245e-01   8.447992e-03
  3.789827e+00    4.953279e-01   8.424354e-03
  3.792038e+00    4.758540e-01   8.277433e-03
  3.794248e+00    4.809078e-01   8.341964e-03
  3.796459e+00    4.909495e-01   8.449725e-03
  3.798669e+00    5.084592e-01   8.620637e-03
  3.800880e+00    4.994921e-01   8.565734e-03
  3.803090e+00    4.946985e-01   8.546209e-03
  3.805301e+00    5.053417e-01   8.659899e-03
  3.807511e+00    4.799172e-01   8.460759e-03
  3.809722e+00    4.764755e-01   8.452101e-03
  3.811932e+00    4.751555e-01   8.462003e-03
  3.814142e+00    5.072474e-01   8.766195e-03
  3.816353e+00    5.100862e-01   8.813799e-03
  3.818563e+00    4.837827e-01   8.606255e-03
  3.820774e+00    4.921550e-01   8.703482e-03
  3.822984e+00    4.844851e-01   8.658418e-03
  3.825195e+00    4.966817e-01   8.790423e-03
  3.827405e+00    5.223345e-01   9.039019e-03
  3.829616e+00    4.766591e-01   8.658391e-03
  3.831826e+00    4.955472e-01   8.852350e-03
  3.834037e+00    4.736503e-01   8.678487e-03
  3.836247e+00    4.651634e-01   8.624276e-03
  3.838457e+00    4.632725e-01   8.630907e-03
  3.840668e+00    4.868955e-01   8.873126e-03
  3.842878e+00    4.843513e-01   8.875189e-03
  3.845089e+00    4.822011e-01   8.880693e-03
  3.847299e+00    4.847951e-01   8.930038e-03
  3.849510e+00    4.767704e-01   8.881164e-03
  3.851720e+00    4.997474e-01   9.114173e-03
  3.853931e+00    5.148407e-01   9.270167e-03
  3.856141e+00    4.867737e-01   9.032821e-03
  3.858352e+00    4.733939e-01   8.926670e-03
  3.860562e+00    5.189689e-01   9.366187e-03
  3.862772e+00    4.868457e-01   9.091246e-03
  3.864983e+00    4.819502e-01   9.064761e-03
  3.867193e+00    4.912631e-01   9.171722e-03
  3.869404e+00    4.839203e-01   9.122531e-03
  3.871614e+00    4.795427e-01   9.100799e-03
  3.873825e+00    4.997743e-01   9.311346e-03
  3.876035e+00    5.044178e-01   9.375205e-03
  3.878246e+00    5.062084e-01   9.418053e-03
  3.880456e+00    4.735370e-01   9.137488e-03
  3.882667e+00    4.733262e-01   9.164161e-03
  3.884877e+00    4.815852e-01   9.273237e-03
  3.887087e+00    5.024595e-01   9.502336e-03
  3.889298e+00    4.908615e-01   9.422397e-03
  3.891508e+00    4.641842e-01   9.192502e-03
  3.893719e+00    5.082060e-01   9.649971e-03
  3.895929e+00    4.889567e-01   9.496916e-03
  3.898140e+00    4.578967e-01   9.220887e-03
  3.900350e+00    4.742644e-01   9.415860e-03
  3.902561e+00    5.064418e-01   9.762896e-03
  3.904771e+00    4.878646e-01   9.614982e-03
  3.906982e+00    5.073647e-01   9.838991e-03
  3.909192e+00    4.564932e-01   9.365074e-03
  3.911403e+00    4.797077e-01   9.633901e-03
  3.913613e+00    4.843641e-01   9.714649e-03
  3.915823e+00    4.622938e-01   9.524637e-03
  3.918034e+00    4.800219e-01   9.740513e-03
  3.920244e+00    5.023382e-01   1.000046e-02
  3.922455e+00    4.819609e-01   9.831600e-03
  3.924665e+00    4.599678e-01   9.639906e-03
  3.926876e+00    4.547704e-01   9.621082e-03
  3.929086e+00    4.816187e-01   9.938167e-03
  3.931297e+00    4.817601e-01   9.974278e-03
  3.933507e+00    4.637044e-01   9.813735e-03
  3.935718e+00    4.841160e-01   1.005606e-02
  3.937928e+00    4.766619e-01   1.000752e-02
  3.940138e+00    4.626414e-01   9.887742e-03
  3.942349e+00    4.911093e-01   1.021744e-02
  3.944559e+00    4.488362e-01   9.796690e-03
  3.946770e+00    4.596534e-01   9.943228e-03
  3.948980e+00    4.523036e-01   9.893097e-03
  3.951191e+00    4.751367e-01   1.017017e-02
  3.953401e+00    4.615755e-01   1.005456e-02
  3.955612e+00    4.870760e-01   1.036021e-02
  3.957822e+00    4.740973e-01   1.025258e-02
  3.960033e+00    4.748261e-01   1.029273e-02
  3.962243e+00    4.421864e-01   9.963986e-03
  3.964453e+00    4.594867e-01   1.018922e-02
  3.966664e+00    4.864938e-01   1.051774e-02
  3.968874e+00    5.041563e-01   1.073599e-02
  3.971085e+00    5.157426e-01   1.088124e-02
  3.973295e+00    5.160722e-01   1.090687e-02
  3.975506e+00    4.804974e-01   1.054573e-02
  3.977716e+00    5.137706e-01   1.092734e-02
  3.979927e+00    4.720314e-01   1.049597e-02
  3.982137e+00    4.759784e-01   1.056170e-02
  3.984348e+00    4.682259e-01   1.049765e-02
  3.986558e+00    4.812972e-01   1.066528e-02
  3.988768e+00    5.159165e-01   1.106590e-02
  3.990979e+00    4.857727e-01   1.076058e-02
  3.993189e+00    5.012015e-01   1.095363e-02
  3.995400e+00    4.638611e-01   1.056070e-02
  3.997610e+00    4.516075e-01   1.044906e-02
  3.999821e+00    4.740604e-01   1.074266e-02
  4.002031e+00    4.852426e-01   1.090702e-02
  4.004242e+00    4.898184e-01   1.099718e-02
  4.006452e+00    4.649936e-01   1.075340e-02
  4.008663e+00    4.452074e-01   1.056035e-02
  4.010873e+00    4.855631e-01   1.106870e-02
  4.013084e+00    4.631464e-01   1.085016e-02
  4.015294e+00    4.584192e-01   1.083452e-02
  4.017504e+00    4.513821e-01   1.079153e-02
  4.019715e+00    4.641595e-01   1.098466e-02
  4.021925e+00    4.594294e-01   1.097053e-02
  4.024136e+00    4.744820e-01   1.119200e-02
  4.026346e+00    4.780375e-01   1.127774e-02
  4.028557e+00    4.926903e-01   1.149394e-02
  4.030767e+00    4.848233e-01   1.144773e-02
  4.032978e+00    4.548058e-01   1.113232e-02
  4.035188e+00    4.428806e-01   1.102976e-02
  4.037399e+00    4.356704e-01   1.098463e-02
  4.039609e+00    4.663006e-01   1.141116e-02
  4.041819e+00    4.883350e-01   1.172659e-02
  4.044030e+00    4.968357e-01   1.187897e-02
  4.046240e+00    4.668116e-01   1.156333e-02
  4.048451e+00    4.925456e-01   1.192935e-02
  4.050661e+00    4.652713e-01   1.164474e-02
  4.052872e+00    4.926932e-01   1.203630e-02
  4.055082e+00    4.759792e-01   1.188356e-02
  4.057293e+00    4.704817e-01   1.186774e-02
  4.059503e+00    5.008840e-01   1.230090e-02
  4.061714e+00    4.617246e-01   1.186560e-02
  4.063924e+00    4.538301e-01   1.181863e-02
  4.066134e+00    4.821979e-01   1.223989e-02
  4.068345e+00    4.462609e-01   1.183176e-02
  4.070555e+00    4.594273e-01   1.206292e-02
  4.072766e+00    4.746090e-01   1.232083e-02
  4.074976e+00    4.848549e-01   1.251539e-02
  4.077187e+00    4.740889e-01   1.243698e-02
  4.079397e+00    5.019243e-01   1.286248e-02
  4.081608e+00    4.727798e-01   1.254829e-02
  4.083818e+00    4.754405e-01   1.264895e-02
  4.086029e+00    5.085512e-01   1.315091e-02
  4.088239e+00    5.652988e-01   1.393984e-02
  4.090449e+00    6.382570e-01   1.489266e-02
  4.092660e+00    5.374612e-01   1.374150e-02
  4.094870e+00    4.562001e-01   1.273043e-02
  4.097081e+00    4.512037e-01   1.272977e-02
  4.099291e+00    4.397961e-01   1.261999e-02
  4.101502e+00    4.680161e-01   1.306702e-02
  4.103712e+00    4.699942e-01   1.314338e-02
  4.105923e+00    4.747941e-01   1.326152e-02
  4.108133e+00    4.768815e-01   1.334177e-02
  4.110344e+00    4.821641e-01   1.346694e-02
  4.112554e+00    4.587264e-01   1.318733e-02
  4.114764e+00    4.524446e-01   1.314942e-02
  4.116975e+00    5.042159e-01   1.393597e-02
  4.119185e+00    4.964884e-01   1.388504e-02
  4.121396e+00    4.929645e-01   1.389288e-02
  4.123606e+00    4.996072e-01   1.404344e-02
  4.125817e+00    4.813737e-01   1.384262e-02
  4.128027e+00    4.348979e-01   1.321294e-02
  4.130238e+00    4.704004e-01   1.380027e-02
  4.132448e+00    5.007212e-01   1.430015e-02
  4.134659e+00    4.386253e-01   1.344145e-02
  4.136869e+00    5.140222e-01   1.461617e-02
  4.139080e+00    4.274631e-01   1.338859e-02
  4.141290e+00    5.093158e-01   1.467924e-02
  4.143500e+00    4.700287e-01   1.416688e-02
  4.145711e+00    4.625831e-01   1.411969e-02
  4.147921e+00    4.871168e-01   1.455576e-02
  4.150132e+00    4.857410e-01   1.460459e-02
  4.152342e+00    4.480918e-01   1.409521e-02
  4.154553e+00    4.893183e-01   1.479924e-02
  4.156763e+00    4.900393e-01   1.488357e-02
  4.158974e+00    4.494607e-01   1.432571e-02
  4.161184e+00    4.435503e-01   1.430186e-02
  4.163395e+00    4.689274e-01   1.478012e-02
  4.165605e+00    4.927297e-01   1.522946e-02
  4.167815e+00    5.028656e-01   1.546571e-02
  4.170026e+00    4.632312e-01   1.492183e-02
  4.172236e+00    4.769051e-01   1.522238e-02
  4.174447e+00    4.563252e-01   1.497126e-02
  4.176657e+00    4.408916e-01   1.479627e-02
  4.178868e+00    4.446136e-01   1.494297e-02
  4.181078e+00    4.749449e-01   1.553113e-02
  4.183289e+00    4.663179e-01   1.547737e-02
  4.185499e+00    4.555472e-01   1.538812e-02
  4.187710e+00    4.588631e-01   1.553426e-02
  4.189920e+00    4.327604e-01   1.517685e-02
  4.192130e+00    4.495584e-01   1.556324e-02
  4.194341e+00    4.404087e-01   1.549833e-02
  4.196551e+00    5.296481e-01   1.710363e-02
  4.198762e+00    5.130847e-01   1.694144e-02
  4.200972e+00    4.040435e-01   1.513094e-02
  4.203183e+00    4.403221e-01   1.589965e-02
  4.205393e+00    4.561123e-01   1.629000e-02
  4.207604e+00    4.490129e-01   1.627308e-02
  4.209814e+00    5.039912e-01   1.735862e-02
  4.212025e+00    4.330267e-01   1.620430e-02
  4.214235e+00    4.534074e-01   1.669892e-02
  4.216445e+00    5.070164e-01   1.778590e-02
  4.218656e+00    4.728848e-01   1.730608e-02
  4.220866e+00    5.005959e-01   1.793720e-02
  4.223077e+00    4.620893e-01   1.736644e-02
  4.225287e+00    5.175403e-01   1.852334e-02
  4.227498e+00    4.964422e-01   1.828415e-02
  4.229708e+00    4.323141e-01   1.720126e-02
  4.231919e+00    4.734237e-01   1.814924e-02
  4.234129e+00    4.935845e-01   1.868709e-02
  4.236340e+00    5.231771e-01   1.940387e-02
  4.238550e+00    4.809540e-01   1.876875e-02
  4.240761e+00    4.713915e-01   1.874534e-02
  4.242971e+00    4.504651e-01   1.849227e-02
  4.245181e+00    4.826550e-01   1.932121e-02
  4.247392e+00    4.604313e-01   1.904796e-02
  4.249602e+00    4.723631e-01   1.948447e-02
  4.251813e+00    5.230207e-01   2.070476e-02
  4.254023e+00    4.306260e-01   1.897683e-02
  4.256234e+00    5.041971e-01   2.075286e-02
  4.258444e+00    4.408479e-01   1.960862e-02
  4.260655e+00    4.773753e-01   2.062916e-02
  4.262865e+00    4.906953e-01   2.115231e-02
  4.265076e+00    4.172524e-01   1.972688e-02
  4.267286e+00    4.023478e-01   1.960131e-02
  4.269496e+00    3.936655e-01   1.962535e-02
  4.271707e+00    5.280227e-01   2.300910e-02
  4.273917e+00    5.380507e-01   2.352765e-02
  4.276128e+00    4.197941e-01   2.105790e-02
  4.278338e+00    4.387432e-01   2.181481e-02
  4.280549e+00    4.072632e-01   2.131962e-02
  4.282759e+00    3.575636e-01   2.026307e-02
  4.284970e+00    4.979434e-01   2.426608e-02
  4.287180e+00    4.078264e-01   2.222477e-02
  4.289391e+00    4.099048e-01   2.244773e-02
  4.291601e+00    4.714800e-01   2.426678e-02
  4.293811e+00    5.172074e-01   2.561626e-02
  4.296022e+00    4.736846e-01   2.471147e-02
  4.298232e+00    3.950135e-01   2.275505e-02
  4.300443e+00    4.070591e-01   2.328946e-02
  4.302653e+00    4.447623e-01   2.455568e-02
  4.304864e+00    4.758312e-01   2.561860e-02
  4.307074e+00    4.566190e-01   2.532212e-02
  4.309285e+00    5.028201e-01   2.681250e-02
  4.311495e+00    4.912882e-01   2.675220e-02
  4.313706e+00    4.535862e-01   2.594624e-02
  4.315916e+00    4.401002e-01   2.580961e-02
  4.318126e+00    4.380967e-01   2.600504e-02
  4.320337e+00    3.829299e-01   2.455904e-02
  4.322547e+00    4.515471e-01   2.695077e-02
  4.324758e+00    5.003663e-01   2.866592e-02
  4.326968e+00    5.705228e-01   3.095439e-02
  4.329179e+00    5.541207e-01   3.084195e-02
  4.331389e+00    4.903487e-01   2.934803e-02
  4.333600e+00    4.817656e-01   2.943716e-02
  4.335810e+00    3.783351e-01   2.639732e-02
  4.338021e+00    5.156490e-01   3.121022e-02
  4.340231e+00    6.471764e-01   3.540488e-02
  4.342442e+00    5.730096e-01   3.376203e-02
  4.344652e+00    4.853221e-01   3.149298e-02
  4.346862e+00    4.992422e-01   3.238871e-02
  4.349073e+00    4.698687e-01   3.187910e-02
  4.351283e+00    4.944734e-01   3.319119e-02
  4.353494e+00    5.079756e-01   3.416062e-02
  4.355704e+00    3.895715e-01   3.039875e-02
  4.357915e+00    3.451189e-01   2.908701e-02
  4.360125e+00    4.414805e-01   3.345882e-02
  4.362336e+00    4.952094e-01   3.608349e-02
  4.364546e+00    3.780673e-01   3.210237e-02
  4.366757e+00    3.535845e-01   3.166192e-02
  4.368967e+00    3.706813e-01   3.306576e-02
  4.371177e+00    4.560979e-01   3.745881e-02
  4.373388e+00    4.742559e-01   3.904932e-02
  4.375598e+00    5.029719e-01   4.113266e-02
  4.377809e+00    5.830557e-01   4.540680e-02
  4.380019e+00    4.588689e-01   4.129625e-02
  4.382230e+00    2.927898e-01   3.390609e-02
  4.384440e+00    3.482175e-01   3.804134e-02
  4.386651e+00    2.310979e-01   3.194664e-02
  4.388861e+00    2.753802e-01   3.604105e-02
  4.391072e+00    5.036036e-01   5.045232e-02
  4.393282e+00    3.874494e-01   4.596791e-02
  4.395492e+00    4.609058e-01   5.221460e-02
  4.397703e+00    4.553789e-01   5.427911e-02
  4.399913e+00    4.315854e-01   5.551155e-02
  4.402124e+00    3.388451e-01   5.197354e-02
  4.404334e+00    5.217063e-01   6.856177e-02
  4.406545e+00    4.172759e-01   6.586860e-02
  4.408755e+00    4.953899e-01   7.785314e-02
  4.410966e+00    2.373645e-01   5.962869e-02
  4.413176e+00    2.567754e-01   7.022848e-02
  4.415387e+00   -9.398333e-01            nan
  4.417597e+00   -2.044852e+00            nan
  4.419807e+00   -3.766224e-01            nan
