# == pyFAI calibration ==
# Distance Sample to Detector: 0.216 m
# PONI: 1.166e-01, 1.308e-01 m
# Rotations: 0.000000 0.000000 0.000000 rad
# 
# == Fit2d calibration ==
# Distance Sample-beamCenter: 216.000 mm
# Center: x=1744.293, y=1555.000 pix
# Tilt: 0.000 deg  TiltPlanRot: 0.000 deg
# 
# Detector Eiger 9M	 PixelSize= 7.500e-05, 7.500e-05 m
#    Detector has a mask: True 
#    Detector has a dark current: False 
#    detector has a flat field: False 
# 
# Wavelength: 9.8e-11 m
# Mask applied: from detector
# Dark current applied: False
# Flat field applied: False
# Polarization factor: None
# Normalization factor: 1.0
# 
# Headers of the input frame:
# {
# "_array_data.header_convention": "SLS_1.0",
# "_array_data.header_contents": "# Detector: Dectris Eiger 9M, S/N E-18-0102\r\n# Pixel_size 75e-6 m x 75e-6 m\r\n# Silicon sensor, thickness 0.000450 m\r\n# Exposure_time 0.024997 s\r\n# Exposure_period 0.025000 s\r\n# Count_cutoff 62318 counts\r\n# Wavelength 0.980106 A\r\n# Detector_distance 0.215992 m\r\n# Beam_xy (1555, 1744) pixels\r\n# Start_angle 0.000000 deg.\r\n# Angle_increment 0.000000 deg.",
# "Content-Type": "application/octet-stream;",
# "conversions": "x-CBF_BYTE_OFFSET",
# "Content-Transfer-Encoding": "BINARY",
# "X-Binary-Size": "10166594",
# "X-Binary-ID": "1",
# "X-Binary-Element-Type": "signed 32-bit integer",
# "X-Binary-Element-Byte-Order": "LITTLE_ENDIAN",
# "Content-MD5": "TF5LV1rFXFIgIM6DWoOVXw==",
# "X-Binary-Number-of-Elements": "10166590",
# "X-Binary-Size-Fastest-Dimension": "3110",
# "X-Binary-Size-Second-Dimension": "3269",
# "X-Binary-Size-Padding": "4095"
# }
# --> H:/Proxima2a_2019-04-05/RAW_DATA/C5_gel17_position5/C5_mesh_1_data.cbf/C5_mesh_1_data.cbf000023.dat
#        q_A^-1              I           sigma 
  1.105228e-03    6.633514e-01   4.407160e-01
  3.315685e-03    8.514343e-01   3.035435e-01
  5.526141e-03    1.037859e+00   2.591441e-01
  7.736597e-03    1.070130e+00   2.222995e-01
  9.947054e-03    1.122925e+00   2.007483e-01
  1.215751e-02    1.252486e+00   1.917145e-01
  1.436797e-02    1.460682e+00   1.904380e-01
  1.657842e-02    1.323620e+00   1.687431e-01
  1.878888e-02    1.272927e+00   1.554409e-01
  2.099934e-02    1.285955e+00   1.478138e-01
  2.320979e-02    1.282738e+00   1.404112e-01
  2.542025e-02    1.322635e+00   1.362478e-01
  2.763070e-02    1.327720e+00   1.309313e-01
  2.984116e-02    1.510159e+00   1.343655e-01
  3.205162e-02    1.502421e+00   1.293249e-01
  3.426207e-02    1.371536e+00   1.195029e-01
  3.647253e-02    1.444776e+00   1.188749e-01
  3.868299e-02    1.516503e+00   1.182680e-01
  4.089344e-02    1.514167e+00   1.149391e-01
  4.310390e-02    1.399563e+00   1.076267e-01
  4.531436e-02    1.298250e+00   1.010986e-01
  4.752481e-02    1.367249e+00   1.013078e-01
  4.973527e-02    1.298763e+00   9.651987e-02
  5.194572e-02    1.364681e+00   9.680961e-02
  5.415618e-02    1.417532e+00   9.662848e-02
  5.636664e-02    1.418697e+00   9.475674e-02
  5.857709e-02    1.393309e+00   9.211668e-02
  6.078755e-02    1.499119e+00   9.379406e-02
  6.299801e-02    1.497679e+00   9.208860e-02
  6.520846e-02    1.413033e+00   8.791985e-02
  6.741892e-02    1.388445e+00   8.570660e-02
  6.962938e-02    1.459648e+00   8.647496e-02
  7.183983e-02    1.514462e+00   8.671641e-02
  7.405029e-02    1.483545e+00   8.453403e-02
  7.626074e-02    1.504843e+00   8.389499e-02
  7.847120e-02    1.499981e+00   8.256897e-02
  8.068166e-02    1.498896e+00   8.139995e-02
  8.289211e-02    1.260756e+00   7.365164e-02
  8.510257e-02    1.360875e+00   7.551938e-02
  8.731303e-02    1.491443e+00   7.804911e-02
  8.952348e-02    1.545209e+00   7.845873e-02
  9.173394e-02    1.505832e+00   7.651068e-02
  9.394439e-02    1.589774e+00   7.768138e-02
  9.615485e-02    1.564100e+00   7.615913e-02
  9.836531e-02    1.585722e+00   7.581513e-02
  1.005758e-01    1.653322e+00   7.655934e-02
  1.027862e-01    1.585188e+00   7.415293e-02
  1.049967e-01    1.517962e+00   7.179436e-02
  1.072071e-01    1.536425e+00   7.148033e-02
  1.094176e-01    1.579107e+00   7.172956e-02
  1.116280e-01    1.516532e+00   6.959300e-02
  1.138385e-01    1.513240e+00   6.883782e-02
  1.160490e-01    1.646374e+00   7.111418e-02
  1.182594e-01    1.664793e+00   7.083787e-02
  1.204699e-01    1.604777e+00   6.890775e-02
  1.226803e-01    1.515711e+00   6.635942e-02
  1.248908e-01    1.579544e+00   6.713937e-02
  1.271012e-01    1.591324e+00   6.679941e-02
  1.293117e-01    1.524420e+00   6.481808e-02
  1.315222e-01    1.509480e+00   6.395388e-02
  1.337326e-01    1.570232e+00   6.468559e-02
  1.359431e-01    1.642095e+00   6.618794e-02
  1.381535e-01    1.604726e+00   6.630878e-02
  1.403640e-01    1.560090e+00   6.566237e-02
  1.425744e-01    1.516336e+00   6.483845e-02
  1.447849e-01    1.586446e+00   6.633573e-02
  1.469953e-01    1.600210e+00   6.658116e-02
  1.492058e-01    1.597581e+00   6.644913e-02
  1.514163e-01    1.575278e+00   6.587411e-02
  1.536267e-01    1.580441e+00   6.585313e-02
  1.558372e-01    1.615507e+00   6.643269e-02
  1.580476e-01    1.709652e+00   6.817519e-02
  1.602581e-01    1.663400e+00   6.707588e-02
  1.624685e-01    1.604136e+00   6.568981e-02
  1.646790e-01    1.576890e+00   6.494251e-02
  1.668895e-01    1.691367e+00   6.706428e-02
  1.690999e-01    1.737514e+00   6.776889e-02
  1.713104e-01    1.718168e+00   6.718142e-02
  1.735208e-01    1.796070e+00   6.847394e-02
  1.757313e-01    1.735449e+00   6.709754e-02
  1.779417e-01    1.810192e+00   6.830366e-02
  1.801522e-01    1.840574e+00   6.865515e-02
  1.823626e-01    1.859851e+00   6.878399e-02
  1.845731e-01    1.916557e+00   6.959852e-02
  1.867836e-01    1.958917e+00   7.012600e-02
  1.889940e-01    1.995112e+00   7.053965e-02
  1.912045e-01    1.886466e+00   6.836305e-02
  1.934149e-01    1.923836e+00   6.880578e-02
  1.956254e-01    1.831280e+00   6.690884e-02
  1.978358e-01    1.927507e+00   6.840899e-02
  2.000463e-01    1.978500e+00   6.907831e-02
  2.022568e-01    2.024737e+00   6.965148e-02
  2.044672e-01    1.964440e+00   6.837149e-02
  2.066777e-01    2.018953e+00   6.908357e-02
  2.088881e-01    1.980549e+00   6.819951e-02
  2.110986e-01    1.980468e+00   6.796427e-02
  2.133090e-01    1.975902e+00   6.766519e-02
  2.155195e-01    1.964999e+00   6.725442e-02
  2.177300e-01    1.950399e+00   6.647768e-02
  2.199404e-01    1.946715e+00   6.466486e-02
  2.221509e-01    1.928697e+00   6.330800e-02
  2.243613e-01    1.910421e+00   6.220858e-02
  2.265718e-01    2.025824e+00   6.335385e-02
  2.287822e-01    2.097493e+00   6.382674e-02
  2.309927e-01    2.135922e+00   6.382202e-02
  2.332031e-01    2.109302e+00   6.288026e-02
  2.354136e-01    2.113330e+00   6.243012e-02
  2.376241e-01    2.126073e+00   6.213206e-02
  2.398345e-01    2.062514e+00   6.074339e-02
  2.420450e-01    2.096474e+00   6.080374e-02
  2.442554e-01    2.139359e+00   6.099933e-02
  2.464659e-01    2.132466e+00   6.049210e-02
  2.486763e-01    2.090405e+00   5.949888e-02
  2.508868e-01    2.083182e+00   5.902128e-02
  2.530973e-01    2.132575e+00   5.934668e-02
  2.553077e-01    2.116606e+00   5.876542e-02
  2.575182e-01    2.072127e+00   5.780068e-02
  2.597286e-01    2.113680e+00   5.803799e-02
  2.619391e-01    2.136706e+00   5.801732e-02
  2.641495e-01    2.088572e+00   5.704265e-02
  2.663600e-01    2.039887e+00   5.606388e-02
  2.685704e-01    2.037159e+00   5.572268e-02
  2.707809e-01    1.940788e+00   5.410000e-02
  2.729914e-01    1.929669e+00   5.366365e-02
  2.752018e-01    2.005420e+00   5.442211e-02
  2.774123e-01    1.951983e+00   5.341785e-02
  2.796227e-01    1.980988e+00   5.354708e-02
  2.818332e-01    2.015445e+00   5.374133e-02
  2.840436e-01    1.965448e+00   5.281333e-02
  2.862541e-01    1.987098e+00   5.284812e-02
  2.884646e-01    1.964208e+00   5.229351e-02
  2.906750e-01    2.030796e+00   5.292037e-02
  2.928855e-01    1.972978e+00   5.191991e-02
  2.950959e-01    1.971025e+00   5.165584e-02
  2.973064e-01    1.968032e+00   5.138461e-02
  2.995168e-01    1.866507e+00   4.981505e-02
  3.017273e-01    1.837624e+00   4.921016e-02
  3.039377e-01    1.876932e+00   4.951594e-02
  3.061482e-01    1.928445e+00   4.997372e-02
  3.083587e-01    1.907660e+00   4.948853e-02
  3.105691e-01    1.918158e+00   4.941254e-02
  3.127796e-01    1.932307e+00   4.938595e-02
  3.149900e-01    1.896308e+00   4.871992e-02
  3.172005e-01    1.932236e+00   4.897818e-02
  3.194109e-01    1.915852e+00   4.856878e-02
  3.216214e-01    1.935283e+00   4.861525e-02
  3.238319e-01    1.938936e+00   4.846833e-02
  3.260423e-01    1.901258e+00   4.780393e-02
  3.282528e-01    1.873331e+00   4.726264e-02
  3.304632e-01    1.896919e+00   4.737499e-02
  3.326737e-01    1.916106e+00   4.742824e-02
  3.348841e-01    1.857138e+00   4.651166e-02
  3.370946e-01    1.899541e+00   4.686264e-02
  3.393050e-01    1.948090e+00   4.727798e-02
  3.415155e-01    1.887779e+00   4.636540e-02
  3.437260e-01    1.834510e+00   4.553714e-02
  3.459364e-01    1.876777e+00   4.588835e-02
  3.481469e-01    1.831966e+00   4.517175e-02
  3.503573e-01    1.808893e+00   4.472284e-02
  3.525678e-01    1.834132e+00   4.487328e-02
  3.547782e-01    1.811749e+00   4.443746e-02
  3.569887e-01    1.788957e+00   4.400059e-02
  3.591992e-01    1.752238e+00   4.339260e-02
  3.614096e-01    1.839047e+00   4.430034e-02
  3.636201e-01    1.835386e+00   4.410071e-02
  3.658305e-01    1.800359e+00   4.352889e-02
  3.680410e-01    1.749216e+00   4.275859e-02
  3.702514e-01    1.807743e+00   4.332183e-02
  3.724619e-01    1.806553e+00   4.316013e-02
  3.746724e-01    1.794345e+00   4.287051e-02
  3.768828e-01    1.814727e+00   4.296823e-02
  3.790933e-01    1.793864e+00   4.258134e-02
  3.813037e-01    1.752730e+00   4.195256e-02
  3.835142e-01    1.836245e+00   4.279941e-02
  3.857246e-01    1.873542e+00   4.309197e-02
  3.879351e-01    1.806023e+00   4.217144e-02
  3.901455e-01    1.827572e+00   4.228720e-02
  3.923560e-01    1.854583e+00   4.246319e-02
  3.945665e-01    1.759069e+00   4.122413e-02
  3.967769e-01    1.819385e+00   4.179360e-02
  3.989874e-01    1.787066e+00   4.129143e-02
  4.011978e-01    1.820038e+00   4.154244e-02
  4.034083e-01    1.765250e+00   4.078683e-02
  4.056187e-01    1.739778e+00   4.036671e-02
  4.078292e-01    1.821583e+00   4.117987e-02
  4.100397e-01    1.782464e+00   4.061092e-02
  4.122501e-01    1.756671e+00   4.019539e-02
  4.144606e-01    1.785283e+00   4.040127e-02
  4.166710e-01    1.765347e+00   4.005558e-02
  4.188815e-01    1.809329e+00   4.043170e-02
  4.210919e-01    1.805616e+00   4.027184e-02
  4.233024e-01    1.732513e+00   3.933216e-02
  4.255128e-01    1.769995e+00   3.964042e-02
  4.277233e-01    1.762393e+00   3.944154e-02
  4.299338e-01    1.764792e+00   3.935482e-02
  4.321442e-01    1.766713e+00   3.926356e-02
  4.343547e-01    1.757872e+00   3.905445e-02
  4.365651e-01    1.766597e+00   3.904001e-02
  4.387756e-01    1.781744e+00   3.909723e-02
  4.409860e-01    1.729200e+00   3.840973e-02
  4.431965e-01    1.755972e+00   3.859887e-02
  4.454070e-01    1.762813e+00   3.856642e-02
  4.476174e-01    1.720976e+00   3.800138e-02
  4.498279e-01    1.744726e+00   3.815860e-02
  4.520383e-01    1.652651e+00   3.703616e-02
  4.542488e-01    1.726236e+00   3.774961e-02
  4.564592e-01    1.773516e+00   3.816045e-02
  4.586697e-01    1.756559e+00   3.787679e-02
  4.608801e-01    1.744080e+00   3.764091e-02
  4.630906e-01    1.758872e+00   3.770010e-02
  4.653011e-01    1.773442e+00   3.775638e-02
  4.675115e-01    1.747089e+00   3.737610e-02
  4.697220e-01    1.745552e+00   3.726186e-02
  4.719324e-01    1.718803e+00   3.687960e-02
  4.741429e-01    1.738092e+00   3.699040e-02
  4.763533e-01    1.705800e+00   3.655123e-02
  4.785638e-01    1.704750e+00   3.644557e-02
  4.807743e-01    1.702365e+00   3.632746e-02
  4.829847e-01    1.733005e+00   3.656032e-02
  4.851952e-01    1.675866e+00   3.586159e-02
  4.874056e-01    1.632678e+00   3.530722e-02
  4.896161e-01    1.692564e+00   3.585976e-02
  4.918265e-01    1.717191e+00   3.603001e-02
  4.940370e-01    1.701386e+00   3.577529e-02
  4.962475e-01    1.710131e+00   3.577853e-02
  4.984579e-01    1.689840e+00   3.547798e-02
  5.006684e-01    1.722741e+00   3.573435e-02
  5.028788e-01    1.702968e+00   3.544261e-02
  5.050893e-01    1.700717e+00   3.533301e-02
  5.072997e-01    1.735154e+00   3.560277e-02
  5.095102e-01    1.706025e+00   3.521809e-02
  5.117206e-01    1.711562e+00   3.519134e-02
  5.139311e-01    1.632509e+00   3.428769e-02
  5.161416e-01    1.677149e+00   3.467117e-02
  5.183520e-01    1.638749e+00   3.419052e-02
  5.205625e-01    1.666500e+00   3.439802e-02
  5.227729e-01    1.675755e+00   3.441297e-02
  5.249834e-01    1.689721e+00   3.447583e-02
  5.271938e-01    1.738632e+00   3.488966e-02
  5.294043e-01    1.768452e+00   3.510638e-02
  5.316148e-01    1.750034e+00   3.484311e-02
  5.338252e-01    1.755286e+00   3.481559e-02
  5.360357e-01    1.750242e+00   3.468641e-02
  5.382461e-01    1.709310e+00   3.420091e-02
  5.404566e-01    1.755604e+00   3.458208e-02
  5.426670e-01    1.737778e+00   3.432854e-02
  5.448775e-01    1.735653e+00   3.423089e-02
  5.470879e-01    1.780922e+00   3.459709e-02
  5.492984e-01    1.765162e+00   3.436710e-02
  5.515089e-01    1.771166e+00   3.434914e-02
  5.537193e-01    1.753305e+00   3.410021e-02
  5.559298e-01    1.765999e+00   3.414835e-02
  5.581402e-01    1.808386e+00   3.448024e-02
  5.603507e-01    1.813529e+00   3.445408e-02
  5.625611e-01    1.777832e+00   3.403928e-02
  5.647716e-01    1.827633e+00   3.443780e-02
  5.669821e-01    1.772288e+00   3.383927e-02
  5.691925e-01    1.747151e+00   3.352631e-02
  5.714030e-01    1.753317e+00   3.351381e-02
  5.736134e-01    1.781659e+00   3.371175e-02
  5.758239e-01    1.706216e+00   3.291986e-02
  5.780343e-01    1.706860e+00   3.285642e-02
  5.802448e-01    1.698513e+00   3.270737e-02
  5.824552e-01    1.669288e+00   3.235675e-02
  5.846657e-01    1.599063e+00   3.160281e-02
  5.868762e-01    1.574814e+00   3.129696e-02
  5.890866e-01    1.617593e+00   3.165339e-02
  5.912971e-01    1.612833e+00   3.154136e-02
  5.935075e-01    1.624706e+00   3.159180e-02
  5.957180e-01    1.663097e+00   3.189728e-02
  5.979284e-01    1.686118e+00   3.205174e-02
  6.001389e-01    1.675741e+00   3.188790e-02
  6.023494e-01    1.623791e+00   3.132599e-02
  6.045598e-01    1.623591e+00   3.126030e-02
  6.067703e-01    1.644334e+00   3.139607e-02
  6.089807e-01    1.647155e+00   3.135983e-02
  6.111912e-01    1.682930e+00   3.163524e-02
  6.134016e-01    1.704193e+00   3.177099e-02
  6.156121e-01    1.701686e+00   3.168450e-02
  6.178226e-01    1.677554e+00   3.139676e-02
  6.200330e-01    1.674558e+00   3.130681e-02
  6.222435e-01    1.682560e+00   3.131938e-02
  6.244539e-01    1.705038e+00   3.146613e-02
  6.266644e-01    1.735390e+00   3.168306e-02
  6.288748e-01    1.747942e+00   3.173554e-02
  6.310853e-01    1.753085e+00   3.172050e-02
  6.332957e-01    1.731531e+00   3.146402e-02
  6.355062e-01    1.715798e+00   3.125990e-02
  6.377167e-01    1.717797e+00   3.121810e-02
  6.399271e-01    1.695202e+00   3.095268e-02
  6.421376e-01    1.710263e+00   3.103052e-02
  6.443480e-01    1.687245e+00   3.076239e-02
  6.465585e-01    1.661994e+00   3.047347e-02
  6.487689e-01    1.664985e+00   3.044330e-02
  6.509794e-01    1.662631e+00   3.036437e-02
  6.531899e-01    1.647555e+00   3.016959e-02
  6.554003e-01    1.632317e+00   2.997326e-02
  6.576108e-01    1.619108e+00   2.979617e-02
  6.598212e-01    1.588908e+00   2.946214e-02
  6.620317e-01    1.592183e+00   2.943780e-02
  6.642421e-01    1.592774e+00   2.938880e-02
  6.664526e-01    1.610982e+00   2.950185e-02
  6.686630e-01    1.634767e+00   2.966389e-02
  6.708735e-01    1.614739e+00   2.942753e-02
  6.730840e-01    1.645457e+00   2.965198e-02
  6.752944e-01    1.587046e+00   2.906797e-02
  6.775049e-01    1.586185e+00   2.900731e-02
  6.797153e-01    1.591045e+00   2.899911e-02
  6.819258e-01    1.592096e+00   2.895636e-02
  6.841362e-01    1.624336e+00   2.919548e-02
  6.863467e-01    1.604570e+00   2.896534e-02
  6.885572e-01    1.647597e+00   2.929851e-02
  6.907676e-01    1.624499e+00   2.904033e-02
  6.929781e-01    1.584429e+00   2.862892e-02
  6.951885e-01    1.607315e+00   2.878389e-02
  6.973990e-01    1.591841e+00   2.859434e-02
  6.996094e-01    1.601191e+00   2.862775e-02
  7.018199e-01    1.606402e+00   2.862397e-02
  7.040303e-01    1.597239e+00   2.849209e-02
  7.062408e-01    1.559909e+00   2.810784e-02
  7.084513e-01    1.580341e+00   2.824211e-02
  7.106617e-01    1.585188e+00   2.823623e-02
  7.128722e-01    1.601400e+00   2.833115e-02
  7.150826e-01    1.582033e+00   2.811079e-02
  7.172931e-01    1.576384e+00   2.801218e-02
  7.195035e-01    1.563271e+00   2.784747e-02
  7.217140e-01    1.567644e+00   2.793573e-02
  7.239245e-01    1.582276e+00   2.829308e-02
  7.261349e-01    1.615295e+00   2.869678e-02
  7.283454e-01    1.543722e+00   2.812551e-02
  7.305558e-01    1.542203e+00   2.816508e-02
  7.327663e-01    1.555295e+00   2.832662e-02
  7.349767e-01    1.517386e+00   2.799535e-02
  7.371872e-01    1.535368e+00   2.814968e-02
  7.393976e-01    1.573723e+00   2.848486e-02
  7.416081e-01    1.605275e+00   2.875268e-02
  7.438186e-01    1.544144e+00   2.805699e-02
  7.460290e-01    1.548996e+00   2.780918e-02
  7.482395e-01    1.567780e+00   2.780651e-02
  7.504499e-01    1.566941e+00   2.766313e-02
  7.526604e-01    1.537104e+00   2.728333e-02
  7.548708e-01    1.535968e+00   2.718493e-02
  7.570813e-01    1.540563e+00   2.717515e-02
  7.592918e-01    1.559652e+00   2.730797e-02
  7.615022e-01    1.595482e+00   2.758585e-02
  7.637127e-01    1.585067e+00   2.746278e-02
  7.659231e-01    1.562235e+00   2.723239e-02
  7.681336e-01    1.551445e+00   2.710683e-02
  7.703440e-01    1.561875e+00   2.716668e-02
  7.725545e-01    1.573509e+00   2.723680e-02
  7.747650e-01    1.660010e+00   2.793621e-02
  7.769754e-01    1.613131e+00   2.748563e-02
  7.791859e-01    1.556288e+00   2.694383e-02
  7.813963e-01    1.583883e+00   2.712899e-02
  7.836068e-01    1.571498e+00   2.697093e-02
  7.858172e-01    1.582446e+00   2.701411e-02
  7.880277e-01    1.594742e+00   2.706727e-02
  7.902381e-01    1.608851e+00   2.713735e-02
  7.924486e-01    1.626712e+00   2.723702e-02
  7.946591e-01    1.604331e+00   2.700066e-02
  7.968695e-01    1.610241e+00   2.700194e-02
  7.990800e-01    1.658042e+00   2.735081e-02
  8.012904e-01    1.644269e+00   2.718989e-02
  8.035009e-01    1.607066e+00   2.683269e-02
  8.057113e-01    1.612694e+00   2.683315e-02
  8.079218e-01    1.602695e+00   2.670367e-02
  8.101323e-01    1.655490e+00   2.709384e-02
  8.123427e-01    1.725283e+00   2.761191e-02
  8.145532e-01    1.750096e+00   2.776219e-02
  8.167636e-01    1.745867e+00   2.768200e-02
  8.189741e-01    1.811360e+00   2.814942e-02
  8.211845e-01    1.760334e+00   2.770364e-02
  8.233950e-01    1.681348e+00   2.703092e-02
  8.256054e-01    1.692395e+00   2.707463e-02
  8.278159e-01    1.716890e+00   2.722484e-02
  8.300264e-01    1.754430e+00   2.747628e-02
  8.322368e-01    1.744978e+00   2.735767e-02
  8.344473e-01    1.728769e+00   2.718576e-02
  8.366577e-01    1.730145e+00   2.715284e-02
  8.388682e-01    1.705324e+00   2.691426e-02
  8.410786e-01    1.709243e+00   2.690224e-02
  8.432891e-01    1.663142e+00   2.649480e-02
  8.454996e-01    1.629226e+00   2.618175e-02
  8.477100e-01    1.621601e+00   2.607895e-02
  8.499205e-01    1.645947e+00   2.623273e-02
  8.521309e-01    1.633834e+00   2.609527e-02
  8.543414e-01    1.658489e+00   2.625041e-02
  8.565518e-01    1.609826e+00   2.582219e-02
  8.587623e-01    1.580859e+00   2.554894e-02
  8.609727e-01    1.592696e+00   2.560466e-02
  8.631832e-01    1.590006e+00   2.554357e-02
  8.653937e-01    1.641076e+00   2.591068e-02
  8.676041e-01    1.629242e+00   2.577815e-02
  8.698146e-01    1.602026e+00   2.552285e-02
  8.720250e-01    1.592550e+00   2.540847e-02
  8.742355e-01    1.581959e+00   2.528530e-02
  8.764459e-01    1.561581e+00   2.508358e-02
  8.786564e-01    1.592371e+00   2.529190e-02
  8.808669e-01    1.606473e+00   2.536514e-02
  8.830773e-01    1.599467e+00   2.527167e-02
  8.852878e-01    1.581613e+00   2.509255e-02
  8.874982e-01    1.581956e+00   2.505883e-02
  8.897087e-01    1.590328e+00   2.508751e-02
  8.919191e-01    1.595081e+00   2.508727e-02
  8.941296e-01    1.625666e+00   2.528907e-02
  8.963401e-01    1.645251e+00   2.540402e-02
  8.985505e-01    1.637674e+00   2.530806e-02
  9.007610e-01    1.607098e+00   2.503388e-02
  9.029714e-01    1.577491e+00   2.476661e-02
  9.051819e-01    1.589869e+00   2.482649e-02
  9.073923e-01    1.575579e+00   2.467838e-02
  9.096028e-01    1.581120e+00   2.468701e-02
  9.118132e-01    1.601412e+00   2.480869e-02
  9.140237e-01    1.582628e+00   2.462635e-02
  9.162342e-01    1.572240e+00   2.451112e-02
  9.184446e-01    1.597719e+00   2.467322e-02
  9.206551e-01    1.566490e+00   2.439566e-02
  9.228655e-01    1.607266e+00   2.467582e-02
  9.250760e-01    1.581219e+00   2.443993e-02
  9.272864e-01    1.578557e+00   2.438536e-02
  9.294969e-01    1.586819e+00   2.441344e-02
  9.317074e-01    1.606962e+00   2.453319e-02
  9.339178e-01    1.603309e+00   2.447183e-02
  9.361283e-01    1.621921e+00   2.457716e-02
  9.383387e-01    1.646014e+00   2.472537e-02
  9.405492e-01    1.612280e+00   2.443652e-02
  9.427596e-01    1.657736e+00   2.474291e-02
  9.449701e-01    1.673238e+00   2.482458e-02
  9.471805e-01    1.664909e+00   2.472764e-02
  9.493910e-01    1.646185e+00   2.455445e-02
  9.516015e-01    1.688596e+00   2.483400e-02
  9.538119e-01    1.744567e+00   2.520765e-02
  9.560224e-01    1.726394e+00   2.504072e-02
  9.582328e-01    1.718410e+00   2.494923e-02
  9.604433e-01    1.754891e+00   2.517697e-02
  9.626537e-01    1.776193e+00   2.529526e-02
  9.648642e-01    1.769613e+00   2.521378e-02
  9.670747e-01    1.781875e+00   2.526610e-02
  9.692851e-01    1.780975e+00   2.522613e-02
  9.714956e-01    1.820145e+00   2.546608e-02
  9.737060e-01    1.828180e+00   2.548870e-02
  9.759165e-01    1.806603e+00   2.530211e-02
  9.781269e-01    1.820996e+00   2.536947e-02
  9.803374e-01    1.812784e+00   2.527719e-02
  9.825478e-01    1.783245e+00   2.503734e-02
  9.847583e-01    1.825526e+00   2.529800e-02
  9.869688e-01    1.805060e+00   2.512214e-02
  9.891792e-01    1.793445e+00   2.500790e-02
  9.913897e-01    1.763990e+00   2.476822e-02
  9.936001e-01    1.761105e+00   2.471556e-02
  9.958106e-01    1.716275e+00   2.436581e-02
  9.980210e-01    1.692399e+00   2.416431e-02
  1.000231e+00    1.650612e+00   2.399487e-02
  1.002442e+00    1.604628e+00   2.378397e-02
  1.004652e+00    1.635914e+00   2.408169e-02
  1.006863e+00    1.631831e+00   2.410155e-02
  1.009073e+00    1.604751e+00   2.393730e-02
  1.011284e+00    1.588420e+00   2.384704e-02
  1.013494e+00    1.572781e+00   2.375289e-02
  1.015705e+00    1.528750e+00   2.344017e-02
  1.017915e+00    1.527591e+00   2.344742e-02
  1.020126e+00    1.538746e+00   2.354878e-02
  1.022336e+00    1.527076e+00   2.347089e-02
  1.024547e+00    1.503053e+00   2.329656e-02
  1.026757e+00    1.535214e+00   2.355283e-02
  1.028967e+00    1.491398e+00   2.322184e-02
  1.031178e+00    1.501184e+00   2.330398e-02
  1.033388e+00    1.514965e+00   2.341575e-02
  1.035599e+00    1.493151e+00   2.324995e-02
  1.037809e+00    1.468344e+00   2.305919e-02
  1.040020e+00    1.472737e+00   2.309490e-02
  1.042230e+00    1.483322e+00   2.317967e-02
  1.044441e+00    1.488315e+00   2.321842e-02
  1.046651e+00    1.503041e+00   2.333318e-02
  1.048862e+00    1.508105e+00   2.337168e-02
  1.051072e+00    1.495162e+00   2.326881e-02
  1.053282e+00    1.490822e+00   2.323407e-02
  1.055493e+00    1.478159e+00   2.313090e-02
  1.057703e+00    1.520381e+00   2.345739e-02
  1.059914e+00    1.521896e+00   2.346478e-02
  1.062124e+00    1.484706e+00   2.317227e-02
  1.064335e+00    1.513694e+00   2.339387e-02
  1.066545e+00    1.626669e+00   2.424490e-02
  1.068756e+00    1.578803e+00   2.388171e-02
  1.070966e+00    1.493422e+00   2.322040e-02
  1.073177e+00    1.455463e+00   2.291737e-02
  1.075387e+00    1.442659e+00   2.281115e-02
  1.077597e+00    1.427935e+00   2.268730e-02
  1.079808e+00    1.434586e+00   2.260866e-02
  1.082018e+00    1.443179e+00   2.248850e-02
  1.084229e+00    1.435302e+00   2.231794e-02
  1.086439e+00    1.514489e+00   2.283611e-02
  1.088650e+00    1.507001e+00   2.270260e-02
  1.090860e+00    1.476755e+00   2.240546e-02
  1.093071e+00    1.463419e+00   2.224161e-02
  1.095281e+00    1.466900e+00   2.221038e-02
  1.097492e+00    1.490581e+00   2.233316e-02
  1.099702e+00    1.509711e+00   2.242340e-02
  1.101912e+00    1.513192e+00   2.239916e-02
  1.104123e+00    1.546405e+00   2.259360e-02
  1.106333e+00    1.527972e+00   2.241268e-02
  1.108544e+00    1.504316e+00   2.219312e-02
  1.110754e+00    1.463614e+00   2.184724e-02
  1.112965e+00    1.458707e+00   2.176953e-02
  1.115175e+00    1.442441e+00   2.160631e-02
  1.117386e+00    1.405038e+00   2.128521e-02
  1.119596e+00    1.418060e+00   2.134567e-02
  1.121807e+00    1.399193e+00   2.116453e-02
  1.124017e+00    1.415497e+00   2.125071e-02
  1.126228e+00    1.411570e+00   2.118538e-02
  1.128438e+00    1.403270e+00   2.108620e-02
  1.130648e+00    1.399230e+00   2.102151e-02
  1.132859e+00    1.379001e+00   2.083486e-02
  1.135069e+00    1.375650e+00   2.077501e-02
  1.137280e+00    1.398666e+00   2.091497e-02
  1.139490e+00    1.391487e+00   2.082814e-02
  1.141701e+00    1.385972e+00   2.075366e-02
  1.143911e+00    1.349847e+00   2.044996e-02
  1.146122e+00    1.344455e+00   2.037748e-02
  1.148332e+00    1.354338e+00   2.042064e-02
  1.150543e+00    1.376010e+00   2.055257e-02
  1.152753e+00    1.378144e+00   2.053763e-02
  1.154963e+00    1.347391e+00   2.027646e-02
  1.157174e+00    1.337399e+00   2.017137e-02
  1.159384e+00    1.345334e+00   2.020153e-02
  1.161595e+00    1.395408e+00   2.054396e-02
  1.163805e+00    1.392369e+00   2.049206e-02
  1.166016e+00    1.415049e+00   2.062836e-02
  1.168226e+00    1.383891e+00   2.037084e-02
  1.170437e+00    1.369626e+00   2.023692e-02
  1.172647e+00    1.362950e+00   2.015866e-02
  1.174858e+00    1.377692e+00   2.023915e-02
  1.177068e+00    1.360448e+00   2.008388e-02
  1.179278e+00    1.338460e+00   1.989256e-02
  1.181489e+00    1.364204e+00   2.005591e-02
  1.183699e+00    1.374852e+00   2.010630e-02
  1.185910e+00    1.370419e+00   2.004595e-02
  1.188120e+00    1.358516e+00   1.993201e-02
  1.190331e+00    1.341855e+00   1.978276e-02
  1.192541e+00    1.399986e+00   2.017890e-02
  1.194752e+00    1.341428e+00   1.972546e-02
  1.196962e+00    1.352613e+00   1.978175e-02
  1.199173e+00    1.357710e+00   1.979243e-02
  1.201383e+00    1.334655e+00   1.959665e-02
  1.203593e+00    1.371934e+00   1.984342e-02
  1.205804e+00    1.354404e+00   1.969030e-02
  1.208014e+00    1.350800e+00   1.963721e-02
  1.210225e+00    1.342047e+00   1.954824e-02
  1.212435e+00    1.345463e+00   1.954834e-02
  1.214646e+00    1.350280e+00   1.955721e-02
  1.216856e+00    1.340297e+00   1.945938e-02
  1.219067e+00    1.345181e+00   1.947040e-02
  1.221277e+00    1.327750e+00   1.931900e-02
  1.223488e+00    1.305165e+00   1.912870e-02
  1.225698e+00    1.305625e+00   1.910558e-02
  1.227909e+00    1.335960e+00   1.929625e-02
  1.230119e+00    1.343484e+00   1.931876e-02
  1.232329e+00    1.312380e+00   1.906351e-02
  1.234540e+00    1.352446e+00   1.932200e-02
  1.236750e+00    1.353785e+00   1.930127e-02
  1.238961e+00    1.334350e+00   1.913540e-02
  1.241171e+00    1.356423e+00   1.926877e-02
  1.243382e+00    1.342278e+00   1.914462e-02
  1.245592e+00    1.341631e+00   1.911596e-02
  1.247803e+00    1.375527e+00   1.933206e-02
  1.250013e+00    1.359440e+00   1.919507e-02
  1.252224e+00    1.383735e+00   1.934228e-02
  1.254434e+00    1.356515e+00   1.912731e-02
  1.256644e+00    1.341715e+00   1.899952e-02
  1.258855e+00    1.340341e+00   1.896662e-02
  1.261065e+00    1.359027e+00   1.907491e-02
  1.263276e+00    1.356330e+00   1.903300e-02
  1.265486e+00    1.340946e+00   1.890193e-02
  1.267697e+00    1.385473e+00   1.918988e-02
  1.269907e+00    1.375043e+00   1.909462e-02
  1.272118e+00    1.362120e+00   1.898200e-02
  1.274328e+00    1.329843e+00   1.873318e-02
  1.276539e+00    1.361361e+00   1.893099e-02
  1.278749e+00    1.356930e+00   1.887783e-02
  1.280959e+00    1.321175e+00   1.860515e-02
  1.283170e+00    1.343507e+00   1.873935e-02
  1.285380e+00    1.344420e+00   1.872332e-02
  1.287591e+00    1.340953e+00   1.867720e-02
  1.289801e+00    1.357461e+00   1.877053e-02
  1.292012e+00    1.345387e+00   1.866981e-02
  1.294222e+00    1.349668e+00   1.868325e-02
  1.296433e+00    1.343707e+00   1.862638e-02
  1.298643e+00    1.359620e+00   1.871981e-02
  1.300854e+00    1.360028e+00   1.870616e-02
  1.303064e+00    1.360986e+00   1.869343e-02
  1.305274e+00    1.347075e+00   1.857624e-02
  1.307485e+00    1.338555e+00   1.849595e-02
  1.309695e+00    1.340298e+00   1.848582e-02
  1.311906e+00    1.361230e+00   1.860782e-02
  1.314116e+00    1.441141e+00   1.912469e-02
  1.316327e+00    1.524256e+00   1.964546e-02
  1.318537e+00    1.465420e+00   1.923977e-02
  1.320748e+00    1.468926e+00   1.924027e-02
  1.322958e+00    1.488515e+00   1.934661e-02
  1.325169e+00    1.444535e+00   1.903692e-02
  1.327379e+00    1.444476e+00   1.901395e-02
  1.329589e+00    1.420757e+00   1.883559e-02
  1.331800e+00    1.415735e+00   1.878107e-02
  1.334010e+00    1.408805e+00   1.871396e-02
  1.336221e+00    1.382326e+00   1.851525e-02
  1.338431e+00    1.374576e+00   1.844220e-02
  1.340642e+00    1.382837e+00   1.856249e-02
  1.342852e+00    1.375412e+00   1.861419e-02
  1.345063e+00    1.396711e+00   1.880810e-02
  1.347273e+00    1.370375e+00   1.866545e-02
  1.349484e+00    1.364570e+00   1.865370e-02
  1.351694e+00    1.359679e+00   1.864302e-02
  1.353905e+00    1.371884e+00   1.874466e-02
  1.356115e+00    1.374030e+00   1.877450e-02
  1.358325e+00    1.334302e+00   1.851433e-02
  1.360536e+00    1.319926e+00   1.842580e-02
  1.362746e+00    1.342672e+00   1.859342e-02
  1.364957e+00    1.344682e+00   1.861500e-02
  1.367167e+00    1.326250e+00   1.849407e-02
  1.369378e+00    1.335692e+00   1.856577e-02
  1.371588e+00    1.341855e+00   1.861371e-02
  1.373799e+00    1.319828e+00   1.846392e-02
  1.376009e+00    1.357245e+00   1.872723e-02
  1.378220e+00    1.351541e+00   1.869041e-02
  1.380430e+00    1.304869e+00   1.836752e-02
  1.382640e+00    1.347299e+00   1.866467e-02
  1.384851e+00    1.332802e+00   1.856489e-02
  1.387061e+00    1.297747e+00   1.831940e-02
  1.389272e+00    1.276246e+00   1.816721e-02
  1.391482e+00    1.292550e+00   1.828220e-02
  1.393693e+00    1.284087e+00   1.822139e-02
  1.395903e+00    1.287265e+00   1.824243e-02
  1.398114e+00    1.270493e+00   1.812183e-02
  1.400324e+00    1.265794e+00   1.808615e-02
  1.402535e+00    1.287471e+00   1.823803e-02
  1.404745e+00    1.288007e+00   1.823947e-02
  1.406955e+00    1.299733e+00   1.831956e-02
  1.409166e+00    1.295889e+00   1.828914e-02
  1.411376e+00    1.274392e+00   1.813368e-02
  1.413587e+00    1.252805e+00   1.797566e-02
  1.415797e+00    1.267602e+00   1.807795e-02
  1.418008e+00    1.268380e+00   1.804166e-02
  1.420218e+00    1.280104e+00   1.797453e-02
  1.422429e+00    1.268874e+00   1.781023e-02
  1.424639e+00    1.302000e+00   1.797571e-02
  1.426850e+00    1.348388e+00   1.823675e-02
  1.429060e+00    1.397398e+00   1.851386e-02
  1.431270e+00    1.412152e+00   1.856461e-02
  1.433481e+00    1.366177e+00   1.821747e-02
  1.435691e+00    1.328927e+00   1.792806e-02
  1.437902e+00    1.299619e+00   1.769239e-02
  1.440112e+00    1.291011e+00   1.759804e-02
  1.442323e+00    1.278800e+00   1.748149e-02
  1.444533e+00    1.237058e+00   1.716166e-02
  1.446744e+00    1.281021e+00   1.743268e-02
  1.448954e+00    1.285904e+00   1.743550e-02
  1.451165e+00    1.280434e+00   1.736851e-02
  1.453375e+00    1.253708e+00   1.715842e-02
  1.455586e+00    1.258371e+00   1.716226e-02
  1.457796e+00    1.272953e+00   1.723386e-02
  1.460006e+00    1.269208e+00   1.718127e-02
  1.462217e+00    1.255488e+00   1.706206e-02
  1.464427e+00    1.272847e+00   1.715398e-02
  1.466638e+00    1.266051e+00   1.708283e-02
  1.468848e+00    1.271350e+00   1.709318e-02
  1.471059e+00    1.261918e+00   1.700465e-02
  1.473269e+00    1.257169e+00   1.694836e-02
  1.475480e+00    1.265512e+00   1.698076e-02
  1.477690e+00    1.257549e+00   1.690352e-02
  1.479901e+00    1.257719e+00   1.688093e-02
  1.482111e+00    1.255005e+00   1.683948e-02
  1.484321e+00    1.271124e+00   1.692413e-02
  1.486532e+00    1.269914e+00   1.689372e-02
  1.488742e+00    1.251329e+00   1.674710e-02
  1.490953e+00    1.263146e+00   1.680340e-02
  1.493163e+00    1.253233e+00   1.671515e-02
  1.495374e+00    1.280001e+00   1.687107e-02
  1.497584e+00    1.274336e+00   1.681195e-02
  1.499795e+00    1.285185e+00   1.686149e-02
  1.502005e+00    1.309287e+00   1.699678e-02
  1.504216e+00    1.289349e+00   1.684557e-02
  1.506426e+00    1.255797e+00   1.660415e-02
  1.508636e+00    1.258908e+00   1.660424e-02
  1.510847e+00    1.251291e+00   1.653215e-02
  1.513057e+00    1.263385e+00   1.658671e-02
  1.515268e+00    1.239785e+00   1.640548e-02
  1.517478e+00    1.271682e+00   1.658986e-02
  1.519689e+00    1.258003e+00   1.647540e-02
  1.521899e+00    1.273843e+00   1.655549e-02
  1.524110e+00    1.270294e+00   1.651195e-02
  1.526320e+00    1.257674e+00   1.641009e-02
  1.528531e+00    1.265422e+00   1.644068e-02
  1.530741e+00    1.286831e+00   1.655975e-02
  1.532951e+00    1.258990e+00   1.635999e-02
  1.535162e+00    1.244792e+00   1.635390e-02
  1.537372e+00    1.260964e+00   1.652701e-02
  1.539583e+00    1.262234e+00   1.656976e-02
  1.541793e+00    1.252056e+00   1.650979e-02
  1.544004e+00    1.230230e+00   1.636550e-02
  1.546214e+00    1.247090e+00   1.647576e-02
  1.548425e+00    1.240941e+00   1.643533e-02
  1.550635e+00    1.270723e+00   1.664120e-02
  1.552846e+00    1.243793e+00   1.647354e-02
  1.555056e+00    1.256683e+00   1.651701e-02
  1.557266e+00    1.253496e+00   1.638519e-02
  1.559477e+00    1.246844e+00   1.628250e-02
  1.561687e+00    1.253644e+00   1.629605e-02
  1.563898e+00    1.247686e+00   1.624011e-02
  1.566108e+00    1.251570e+00   1.624936e-02
  1.568319e+00    1.258458e+00   1.627829e-02
  1.570529e+00    1.254619e+00   1.622823e-02
  1.572740e+00    1.251212e+00   1.617847e-02
  1.574950e+00    1.255183e+00   1.617771e-02
  1.577161e+00    1.239393e+00   1.605019e-02
  1.579371e+00    1.262998e+00   1.617849e-02
  1.581582e+00    1.249561e+00   1.607238e-02
  1.583792e+00    1.257558e+00   1.610562e-02
  1.586002e+00    1.261100e+00   1.611054e-02
  1.588213e+00    1.266666e+00   1.612867e-02
  1.590423e+00    1.218994e+00   1.580238e-02
  1.592634e+00    1.211059e+00   1.572953e-02
  1.594844e+00    1.208023e+00   1.568869e-02
  1.597055e+00    1.237058e+00   1.585567e-02
  1.599265e+00    1.261471e+00   1.599047e-02
  1.601476e+00    1.252300e+00   1.591185e-02
  1.603686e+00    1.248667e+00   1.586891e-02
  1.605897e+00    1.244563e+00   1.582261e-02
  1.608107e+00    1.244919e+00   1.580524e-02
  1.610317e+00    1.274445e+00   1.597198e-02
  1.612528e+00    1.261916e+00   1.587392e-02
  1.614738e+00    1.237495e+00   1.570055e-02
  1.616949e+00    1.237432e+00   1.568110e-02
  1.619159e+00    1.264950e+00   1.583545e-02
  1.621370e+00    1.252666e+00   1.573967e-02
  1.623580e+00    1.215947e+00   1.548893e-02
  1.625791e+00    1.201252e+00   1.537684e-02
  1.628001e+00    1.169700e+00   1.515555e-02
  1.630212e+00    1.162307e+00   1.509005e-02
  1.632422e+00    1.159769e+00   1.505586e-02
  1.634632e+00    1.155057e+00   1.500815e-02
  1.636843e+00    1.155027e+00   1.499057e-02
  1.639053e+00    1.152314e+00   1.495583e-02
  1.641264e+00    1.151511e+00   1.493365e-02
  1.643474e+00    1.147298e+00   1.488904e-02
  1.645685e+00    1.147656e+00   1.487476e-02
  1.647895e+00    1.137222e+00   1.479054e-02
  1.650106e+00    1.138904e+00   1.478456e-02
  1.652316e+00    1.130612e+00   1.471427e-02
  1.654527e+00    1.146701e+00   1.480191e-02
  1.656737e+00    1.127088e+00   1.465829e-02
  1.658947e+00    1.096626e+00   1.444282e-02
  1.661158e+00    1.114694e+00   1.454512e-02
  1.663368e+00    1.106310e+00   1.447443e-02
  1.665579e+00    1.093094e+00   1.437174e-02
  1.667789e+00    1.097433e+00   1.438414e-02
  1.670000e+00    1.104237e+00   1.441325e-02
  1.672210e+00    1.078236e+00   1.422688e-02
  1.674421e+00    1.077779e+00   1.420871e-02
  1.676631e+00    1.085984e+00   1.424695e-02
  1.678842e+00    1.074471e+00   1.415563e-02
  1.681052e+00    1.116706e+00   1.441561e-02
  1.683263e+00    1.065796e+00   1.406824e-02
  1.685473e+00    1.066426e+00   1.405736e-02
  1.687683e+00    1.069188e+00   1.406021e-02
  1.689894e+00    1.064356e+00   1.401278e-02
  1.692104e+00    1.042747e+00   1.385511e-02
  1.694315e+00    1.055660e+00   1.392623e-02
  1.696525e+00    1.034093e+00   1.376837e-02
  1.698736e+00    1.020100e+00   1.366036e-02
  1.700946e+00    1.049351e+00   1.383978e-02
  1.703157e+00    1.037117e+00   1.374438e-02
  1.705367e+00    1.046636e+00   1.379283e-02
  1.707578e+00    1.059950e+00   1.386566e-02
  1.709788e+00    1.025565e+00   1.362493e-02
  1.711998e+00    1.002705e+00   1.345749e-02
  1.714209e+00    1.022256e+00   1.357372e-02
  1.716419e+00    1.016602e+00   1.352201e-02
  1.718630e+00    9.960872e-01   1.337085e-02
  1.720840e+00    1.003968e+00   1.340961e-02
  1.723051e+00    1.010007e+00   1.343612e-02
  1.725261e+00    1.018152e+00   1.347555e-02
  1.727472e+00    9.809576e-01   1.321320e-02
  1.729682e+00    9.902418e-01   1.326227e-02
  1.731893e+00    9.905788e-01   1.325078e-02
  1.734103e+00    1.000425e+00   1.330274e-02
  1.736313e+00    1.001600e+00   1.329657e-02
  1.738524e+00    9.902732e-01   1.320744e-02
  1.740734e+00    9.586765e-01   1.298160e-02
  1.742945e+00    9.531481e-01   1.293094e-02
  1.745155e+00    9.652659e-01   1.299963e-02
  1.747366e+00    9.517006e-01   1.289441e-02
  1.749576e+00    9.653348e-01   1.297291e-02
  1.751787e+00    9.780900e-01   1.304502e-02
  1.753997e+00    1.008558e+00   1.323307e-02
  1.756208e+00    1.003247e+00   1.318482e-02
  1.758418e+00    9.710092e-01   1.295813e-02
  1.760628e+00    9.803282e-01   1.300673e-02
  1.762839e+00    9.715829e-01   1.293532e-02
  1.765049e+00    9.701638e-01   1.291271e-02
  1.767260e+00    9.473172e-01   1.274702e-02
  1.769470e+00    9.680182e-01   1.287246e-02
  1.771681e+00    9.743888e-01   1.290148e-02
  1.773891e+00    9.587659e-01   1.278451e-02
  1.776102e+00    9.569598e-01   1.275954e-02
  1.778312e+00    9.501898e-01   1.270154e-02
  1.780523e+00    9.560879e-01   1.272807e-02
  1.782733e+00    9.503856e-01   1.267731e-02
  1.784944e+00    9.294933e-01   1.252436e-02
  1.787154e+00    9.287775e-01   1.250699e-02
  1.789364e+00    9.386083e-01   1.256050e-02
  1.791575e+00    9.303626e-01   1.249264e-02
  1.793785e+00    9.428217e-01   1.256346e-02
  1.795996e+00    9.388527e-01   1.252436e-02
  1.798206e+00    9.408981e-01   1.252533e-02
  1.800417e+00    9.338520e-01   1.246555e-02
  1.802627e+00    9.305447e-01   1.243141e-02
  1.804838e+00    9.194151e-01   1.234469e-02
  1.807048e+00    9.068404e-01   1.224715e-02
  1.809259e+00    9.135197e-01   1.227853e-02
  1.811469e+00    9.172246e-01   1.228832e-02
  1.813679e+00    9.147735e-01   1.225682e-02
  1.815890e+00    9.032968e-01   1.216490e-02
  1.818100e+00    8.963391e-01   1.210285e-02
  1.820311e+00    8.853959e-01   1.201405e-02
  1.822521e+00    8.790492e-01   1.195615e-02
  1.824732e+00    8.832110e-01   1.196966e-02
  1.826942e+00    8.812659e-01   1.194419e-02
  1.829153e+00    8.728840e-01   1.187564e-02
  1.831363e+00    8.762059e-01   1.188623e-02
  1.833574e+00    8.790904e-01   1.189412e-02
  1.835784e+00    8.649186e-01   1.178654e-02
  1.837994e+00    8.742435e-01   1.183819e-02
  1.840205e+00    8.538388e-01   1.168821e-02
  1.842415e+00    8.614720e-01   1.172862e-02
  1.844626e+00    8.608558e-01   1.171295e-02
  1.846836e+00    8.524547e-01   1.164432e-02
  1.849047e+00    8.596221e-01   1.168161e-02
  1.851257e+00    8.486934e-01   1.159762e-02
  1.853468e+00    8.561884e-01   1.163996e-02
  1.855678e+00    8.443757e-01   1.155058e-02
  1.857889e+00    8.564987e-01   1.162471e-02
  1.860099e+00    8.350471e-01   1.146971e-02
  1.862309e+00    8.185713e-01   1.134766e-02
  1.864520e+00    8.385487e-01   1.147681e-02
  1.866730e+00    8.451097e-01   1.151228e-02
  1.868941e+00    8.425391e-01   1.148390e-02
  1.871151e+00    8.498535e-01   1.152223e-02
  1.873362e+00    8.428046e-01   1.146309e-02
  1.875572e+00    8.260646e-01   1.133786e-02
  1.877783e+00    8.286428e-01   1.134426e-02
  1.879993e+00    8.604861e-01   1.154891e-02
  1.882204e+00    8.572437e-01   1.151618e-02
  1.884414e+00    8.461955e-01   1.143062e-02
  1.886624e+00    8.327035e-01   1.132815e-02
  1.888835e+00    8.255065e-01   1.126821e-02
  1.891045e+00    8.352699e-01   1.132379e-02
  1.893256e+00    8.349572e-01   1.131061e-02
  1.895466e+00    8.520907e-01   1.141479e-02
  1.897677e+00    8.507332e-01   1.139469e-02
  1.899887e+00    8.465599e-01   1.135563e-02
  1.902098e+00    8.387895e-01   1.129253e-02
  1.904308e+00    8.329731e-01   1.124269e-02
  1.906519e+00    8.736729e-01   1.150294e-02
  1.908729e+00    9.023238e-01   1.167899e-02
  1.910940e+00    9.028456e-01   1.167074e-02
  1.913150e+00    8.781521e-01   1.149914e-02
  1.915360e+00    8.426548e-01   1.125359e-02
  1.917571e+00    8.276117e-01   1.114176e-02
  1.919781e+00    8.485803e-01   1.127116e-02
  1.921992e+00    8.430957e-01   1.122392e-02
  1.924202e+00    8.406795e-01   1.119692e-02
  1.926413e+00    8.213146e-01   1.105687e-02
  1.928623e+00    8.190038e-01   1.103072e-02
  1.930834e+00    8.281660e-01   1.108174e-02
  1.933044e+00    8.171705e-01   1.099721e-02
  1.935255e+00    8.034119e-01   1.089397e-02
  1.937465e+00    7.934457e-01   1.081586e-02
  1.939675e+00    8.063165e-01   1.089240e-02
  1.941886e+00    7.976620e-01   1.082355e-02
  1.944096e+00    8.010833e-01   1.083658e-02
  1.946307e+00    8.014531e-01   1.082871e-02
  1.948517e+00    8.368884e-01   1.105486e-02
  1.950728e+00    8.058549e-01   1.083767e-02
  1.952938e+00    8.014233e-01   1.079769e-02
  1.955149e+00    8.061898e-01   1.081948e-02
  1.957359e+00    7.762221e-01   1.060656e-02
  1.959570e+00    7.928064e-01   1.070841e-02
  1.961780e+00    7.767214e-01   1.058942e-02
  1.963990e+00    7.903210e-01   1.067159e-02
  1.966201e+00    8.033679e-01   1.074919e-02
  1.968411e+00    8.049585e-01   1.074957e-02
  1.970622e+00    8.176333e-01   1.082359e-02
  1.972832e+00    8.088849e-01   1.075544e-02
  1.975043e+00    8.067572e-01   1.073109e-02
  1.977253e+00    8.147278e-01   1.077384e-02
  1.979464e+00    7.979352e-01   1.065212e-02
  1.981674e+00    7.990258e-01   1.064901e-02
  1.983885e+00    8.009464e-01   1.065166e-02
  1.986095e+00    8.073427e-01   1.068424e-02
  1.988305e+00    7.914730e-01   1.056875e-02
  1.990516e+00    8.043698e-01   1.064442e-02
  1.992726e+00    7.980159e-01   1.059249e-02
  1.994937e+00    8.023052e-01   1.061065e-02
  1.997147e+00    7.859730e-01   1.049229e-02
  1.999358e+00    7.903962e-01   1.051183e-02
  2.001568e+00    7.838060e-01   1.045702e-02
  2.003779e+00    7.864361e-01   1.046253e-02
  2.005989e+00    7.783014e-01   1.039620e-02
  2.008200e+00    7.761284e-01   1.037011e-02
  2.010410e+00    7.676888e-01   1.030185e-02
  2.012621e+00    7.644612e-01   1.026848e-02
  2.014831e+00    7.588248e-01   1.021917e-02
  2.017041e+00    7.574286e-01   1.019942e-02
  2.019252e+00    7.729999e-01   1.029373e-02
  2.021462e+00    7.644497e-01   1.022714e-02
  2.023673e+00    7.614129e-01   1.019743e-02
  2.025883e+00    7.809433e-01   1.031776e-02
  2.028094e+00    7.609122e-01   1.017495e-02
  2.030304e+00    7.738590e-01   1.025152e-02
  2.032515e+00    7.544515e-01   1.011292e-02
  2.034725e+00    7.533974e-01   1.009643e-02
  2.036936e+00    7.496814e-01   1.006222e-02
  2.039146e+00    7.601621e-01   1.012270e-02
  2.041356e+00    7.695915e-01   1.017560e-02
  2.043567e+00    7.562523e-01   1.007769e-02
  2.045777e+00    7.430760e-01   9.980372e-03
  2.047988e+00    7.333602e-01   9.905639e-03
  2.050198e+00    7.574193e-01   1.005837e-02
  2.052409e+00    7.620221e-01   1.008118e-02
  2.054619e+00    7.649143e-01   1.009286e-02
  2.056830e+00    7.634304e-01   1.007584e-02
  2.059040e+00    7.621270e-01   1.005966e-02
  2.061251e+00    7.463520e-01   9.947781e-03
  2.063461e+00    7.713464e-01   1.010526e-02
  2.065671e+00    7.639203e-01   1.004771e-02
  2.067882e+00    7.489733e-01   9.939913e-03
  2.070092e+00    7.458112e-01   9.909716e-03
  2.072303e+00    7.503803e-01   9.930858e-03
  2.074513e+00    7.595975e-01   9.982256e-03
  2.076724e+00    7.600057e-01   9.975384e-03
  2.078934e+00    7.670191e-01   1.001216e-02
  2.081145e+00    7.513813e-01   9.900441e-03
  2.083355e+00    7.452710e-01   9.850891e-03
  2.085566e+00    7.450306e-01   9.840385e-03
  2.087776e+00    7.378575e-01   9.783404e-03
  2.089986e+00    7.324634e-01   9.738820e-03
  2.092197e+00    7.507747e-01   9.850754e-03
  2.094407e+00    7.494069e-01   9.832489e-03
  2.096618e+00    7.436404e-01   9.785621e-03
  2.098828e+00    7.450031e-01   9.785216e-03
  2.101039e+00    7.378878e-01   9.729372e-03
  2.103249e+00    7.296823e-01   9.666461e-03
  2.105460e+00    7.183138e-01   9.581923e-03
  2.107670e+00    7.193409e-01   9.580076e-03
  2.109881e+00    7.153457e-01   9.544362e-03
  2.112091e+00    7.120546e-01   9.513480e-03
  2.114301e+00    7.181511e-01   9.545369e-03
  2.116512e+00    7.018349e-01   9.427648e-03
  2.118722e+00    7.202447e-01   9.541683e-03
  2.120933e+00    7.113418e-01   9.473729e-03
  2.123143e+00    7.177930e-01   9.507675e-03
  2.125354e+00    7.239369e-01   9.539725e-03
  2.127564e+00    7.132235e-01   9.460161e-03
  2.129775e+00    7.168791e-01   9.475639e-03
  2.131985e+00    7.087895e-01   9.413000e-03
  2.134196e+00    7.052166e-01   9.380718e-03
  2.136406e+00    6.909152e-01   9.276488e-03
  2.138617e+00    6.956664e-01   9.299959e-03
  2.140827e+00    7.017597e-01   9.356578e-03
  2.143037e+00    7.043631e-01   9.419308e-03
  2.145248e+00    7.143229e-01   9.507798e-03
  2.147458e+00    7.083588e-01   9.483220e-03
  2.149669e+00    7.019948e-01   9.452360e-03
  2.151879e+00    6.909693e-01   9.386987e-03
  2.154090e+00    7.098795e-01   9.521917e-03
  2.156300e+00    7.125500e-01   9.546485e-03
  2.158511e+00    6.976183e-01   9.451239e-03
  2.160721e+00    7.044109e-01   9.501947e-03
  2.162932e+00    7.031766e-01   9.497390e-03
  2.165142e+00    7.032021e-01   9.500601e-03
  2.167352e+00    6.863019e-01   9.388628e-03
  2.169563e+00    6.874799e-01   9.398630e-03
  2.171773e+00    6.711618e-01   9.288826e-03
  2.173984e+00    6.882433e-01   9.407679e-03
  2.176194e+00    6.865271e-01   9.397139e-03
  2.178405e+00    6.986184e-01   9.480232e-03
  2.180615e+00    6.998063e-01   9.488977e-03
  2.182826e+00    6.912826e-01   9.431692e-03
  2.185036e+00    6.837251e-01   9.380060e-03
  2.187247e+00    6.937230e-01   9.448302e-03
  2.189457e+00    7.068930e-01   9.537188e-03
  2.191667e+00    6.891453e-01   9.416522e-03
  2.193878e+00    6.878172e-01   9.406871e-03
  2.196088e+00    6.753906e-01   9.320837e-03
  2.198299e+00    6.787124e-01   9.342643e-03
  2.200509e+00    6.771027e-01   9.330496e-03
  2.202720e+00    6.681612e-01   9.267560e-03
  2.204930e+00    6.693530e-01   9.274575e-03
  2.207141e+00    6.749955e-01   9.312484e-03
  2.209351e+00    6.855174e-01   9.382888e-03
  2.211562e+00    6.761328e-01   9.316827e-03
  2.213772e+00    6.818704e-01   9.300601e-03
  2.215982e+00    6.773456e-01   9.225409e-03
  2.218193e+00    6.836786e-01   9.238647e-03
  2.220403e+00    6.823152e-01   9.204700e-03
  2.222614e+00    6.799946e-01   9.168005e-03
  2.224824e+00    6.763046e-01   9.123647e-03
  2.227035e+00    6.823329e-01   9.146673e-03
  2.229245e+00    6.584802e-01   8.968586e-03
  2.231456e+00    6.433784e-01   8.849832e-03
  2.233666e+00    6.566592e-01   8.925783e-03
  2.235877e+00    6.750221e-01   9.035400e-03
  2.238087e+00    6.811701e-01   9.062867e-03
  2.240298e+00    6.809461e-01   9.047496e-03
  2.242508e+00    6.766892e-01   9.003956e-03
  2.244718e+00    6.740044e-01   8.970200e-03
  2.246929e+00    6.583876e-01   8.851369e-03
  2.249139e+00    6.612916e-01   8.858530e-03
  2.251350e+00    6.620984e-01   8.852268e-03
  2.253560e+00    6.657813e-01   8.865303e-03
  2.255771e+00    6.533958e-01   8.771146e-03
  2.257981e+00    6.642920e-01   8.832801e-03
  2.260192e+00    6.720591e-01   8.873126e-03
  2.262402e+00    6.665257e-01   8.825650e-03
  2.264613e+00    6.694083e-01   8.833836e-03
  2.266823e+00    6.569871e-01   8.741139e-03
  2.269033e+00    6.576897e-01   8.735481e-03
  2.271244e+00    6.565422e-01   8.717502e-03
  2.273454e+00    6.494512e-01   8.660133e-03
  2.275665e+00    6.665089e-01   8.762787e-03
  2.277875e+00    6.647885e-01   8.741519e-03
  2.280086e+00    6.625196e-01   8.716541e-03
  2.282296e+00    6.424696e-01   8.574334e-03
  2.284507e+00    6.512114e-01   8.622393e-03
  2.286717e+00    6.663307e-01   8.712387e-03
  2.288928e+00    6.611419e-01   8.668508e-03
  2.291138e+00    6.664344e-01   8.693645e-03
  2.293348e+00    6.543372e-01   8.604852e-03
  2.295559e+00    6.489002e-01   8.559760e-03
  2.297769e+00    6.312405e-01   8.433397e-03
  2.299980e+00    6.522506e-01   8.563260e-03
  2.302190e+00    6.589836e-01   8.598186e-03
  2.304401e+00    6.647215e-01   8.626127e-03
  2.306611e+00    6.441935e-01   8.482746e-03
  2.308822e+00    6.566269e-01   8.555791e-03
  2.311032e+00    6.500517e-01   8.506409e-03
  2.313243e+00    6.427855e-01   8.452478e-03
  2.315453e+00    6.544136e-01   8.521002e-03
  2.317663e+00    6.355935e-01   8.388531e-03
  2.319874e+00    6.485963e-01   8.465156e-03
  2.322084e+00    6.347858e-01   8.365668e-03
  2.324295e+00    6.491898e-01   8.451792e-03
  2.326505e+00    6.355268e-01   8.353400e-03
  2.328716e+00    6.373003e-01   8.356519e-03
  2.330926e+00    6.490014e-01   8.424067e-03
  2.333137e+00    6.521821e-01   8.436239e-03
  2.335347e+00    6.419764e-01   8.361098e-03
  2.337558e+00    6.408864e-01   8.345762e-03
  2.339768e+00    6.379948e-01   8.318348e-03
  2.341979e+00    6.607249e-01   8.456723e-03
  2.344189e+00    6.440300e-01   8.340780e-03
  2.346399e+00    6.374071e-01   8.289260e-03
  2.348610e+00    6.291326e-01   8.226881e-03
  2.350820e+00    6.457172e-01   8.326343e-03
  2.353031e+00    6.427246e-01   8.298698e-03
  2.355241e+00    6.359096e-01   8.246515e-03
  2.357452e+00    6.354710e-01   8.235220e-03
  2.359662e+00    6.434659e-01   8.278561e-03
  2.361873e+00    6.326897e-01   8.200721e-03
  2.364083e+00    6.259745e-01   8.149087e-03
  2.366294e+00    6.299695e-01   8.166943e-03
  2.368504e+00    6.386782e-01   8.215039e-03
  2.370714e+00    6.400318e-01   8.215603e-03
  2.372925e+00    6.304415e-01   8.145732e-03
  2.375135e+00    6.190074e-01   8.063491e-03
  2.377346e+00    6.159403e-01   8.035602e-03
  2.379556e+00    6.241558e-01   8.081104e-03
  2.381767e+00    6.203850e-01   8.048806e-03
  2.383977e+00    6.289248e-01   8.096016e-03
  2.386188e+00    6.242465e-01   8.057924e-03
  2.388398e+00    6.067682e-01   7.936426e-03
  2.390609e+00    6.254516e-01   8.049895e-03
  2.392819e+00    6.264879e-01   8.048749e-03
  2.395029e+00    6.206583e-01   8.003496e-03
  2.397240e+00    6.260481e-01   8.030244e-03
  2.399450e+00    6.153834e-01   7.953741e-03
  2.401661e+00    6.155027e-01   7.946805e-03
  2.403871e+00    6.081640e-01   7.891547e-03
  2.406082e+00    5.968348e-01   7.810345e-03
  2.408292e+00    6.061160e-01   7.863064e-03
  2.410503e+00    5.972431e-01   7.797877e-03
  2.412713e+00    6.207870e-01   7.942190e-03
  2.414924e+00    6.097039e-01   7.863508e-03
  2.417134e+00    5.963299e-01   7.769178e-03
  2.419344e+00    5.984420e-01   7.775545e-03
  2.421555e+00    6.049605e-01   7.810262e-03
  2.423765e+00    6.072149e-01   7.817336e-03
  2.425976e+00    5.958616e-01   7.736155e-03
  2.428186e+00    5.837481e-01   7.649975e-03
  2.430397e+00    5.897586e-01   7.681814e-03
  2.432607e+00    5.907043e-01   7.680738e-03
  2.434818e+00    5.813037e-01   7.611920e-03
  2.437028e+00    5.797845e-01   7.594900e-03
  2.439239e+00    6.034878e-01   7.740875e-03
  2.441449e+00    6.031311e-01   7.731321e-03
  2.443659e+00    5.945621e-01   7.668854e-03
  2.445870e+00    5.798028e-01   7.585206e-03
  2.448080e+00    5.724140e-01   7.571204e-03
  2.450291e+00    5.735371e-01   7.595182e-03
  2.452501e+00    5.702109e-01   7.584225e-03
  2.454712e+00    5.711868e-01   7.599134e-03
  2.456922e+00    5.709280e-01   7.604024e-03
  2.459133e+00    5.754825e-01   7.639779e-03
  2.461343e+00    5.616191e-01   7.551518e-03
  2.463554e+00    5.737488e-01   7.636119e-03
  2.465764e+00    5.744566e-01   7.644021e-03
  2.467975e+00    5.576432e-01   7.533596e-03
  2.470185e+00    5.606427e-01   7.556083e-03
  2.472395e+00    5.562676e-01   7.527772e-03
  2.474606e+00    5.522162e-01   7.501869e-03
  2.476816e+00    5.416907e-01   7.430747e-03
  2.479027e+00    5.540627e-01   7.515985e-03
  2.481237e+00    5.522897e-01   7.504232e-03
  2.483448e+00    5.482293e-01   7.476892e-03
  2.485658e+00    5.475308e-01   7.471985e-03
  2.487869e+00    5.545326e-01   7.519654e-03
  2.490079e+00    5.479330e-01   7.474247e-03
  2.492290e+00    5.379186e-01   7.405207e-03
  2.494500e+00    5.421255e-01   7.433359e-03
  2.496710e+00    5.411767e-01   7.426155e-03
  2.498921e+00    5.454146e-01   7.454186e-03
  2.501131e+00    5.247289e-01   7.310512e-03
  2.503342e+00    5.296102e-01   7.343176e-03
  2.505552e+00    5.296170e-01   7.342091e-03
  2.507763e+00    5.236626e-01   7.299302e-03
  2.509973e+00    5.275424e-01   7.324883e-03
  2.512184e+00    5.362666e-01   7.383592e-03
  2.514394e+00    5.212845e-01   7.270411e-03
  2.516605e+00    5.189473e-01   7.207359e-03
  2.518815e+00    5.219432e-01   7.199933e-03
  2.521025e+00    5.231940e-01   7.187610e-03
  2.523236e+00    5.274658e-01   7.198910e-03
  2.525446e+00    5.371128e-01   7.248637e-03
  2.527657e+00    5.291894e-01   7.180340e-03
  2.529867e+00    5.354956e-01   7.208661e-03
  2.532078e+00    5.402069e-01   7.225062e-03
  2.534288e+00    5.140764e-01   7.034410e-03
  2.536499e+00    5.124445e-01   7.011423e-03
  2.538709e+00    5.179940e-01   7.038371e-03
  2.540920e+00    5.152345e-01   7.009025e-03
  2.543130e+00    5.260934e-01   7.072130e-03
  2.545340e+00    5.269765e-01   7.067966e-03
  2.547551e+00    5.233613e-01   7.033737e-03
  2.549761e+00    5.044228e-01   6.895895e-03
  2.551972e+00    4.969871e-01   6.835733e-03
  2.554182e+00    5.272848e-01   7.031782e-03
  2.556393e+00    5.162422e-01   6.948723e-03
  2.558603e+00    5.143685e-01   6.927074e-03
  2.560814e+00    5.087628e-01   6.880616e-03
  2.563024e+00    5.140163e-01   6.907505e-03
  2.565235e+00    5.267224e-01   6.982794e-03
  2.567445e+00    5.183252e-01   6.917354e-03
  2.569656e+00    5.044152e-01   6.814301e-03
  2.571866e+00    5.046899e-01   6.806894e-03
  2.574076e+00    5.164129e-01   6.876247e-03
  2.576287e+00    5.178774e-01   6.877653e-03
  2.578497e+00    5.118734e-01   6.829862e-03
  2.580708e+00    5.030632e-01   6.762823e-03
  2.582918e+00    5.168731e-01   6.847254e-03
  2.585129e+00    5.119953e-01   6.807132e-03
  2.587339e+00    5.156535e-01   6.823728e-03
  2.589550e+00    5.073494e-01   6.761036e-03
  2.591760e+00    5.028452e-01   6.723301e-03
  2.593971e+00    5.088592e-01   6.755866e-03
  2.596181e+00    5.168942e-01   6.802750e-03
  2.598391e+00    5.168447e-01   6.797193e-03
  2.600602e+00    5.202766e-01   6.813771e-03
  2.602812e+00    5.110440e-01   6.745485e-03
  2.605023e+00    5.098619e-01   6.730499e-03
  2.607233e+00    4.935733e-01   6.615091e-03
  2.609444e+00    4.949761e-01   6.617333e-03
  2.611654e+00    4.937587e-01   6.601957e-03
  2.613865e+00    5.099714e-01   6.702409e-03
  2.616075e+00    5.060497e-01   6.669469e-03
  2.618286e+00    5.087316e-01   6.680077e-03
  2.620496e+00    5.169736e-01   6.727207e-03
  2.622706e+00    5.054734e-01   6.646227e-03
  2.624917e+00    4.930619e-01   6.558338e-03
  2.627127e+00    5.013929e-01   6.607763e-03
  2.629338e+00    5.135450e-01   6.681344e-03
  2.631548e+00    5.034547e-01   6.609214e-03
  2.633759e+00    4.863690e-01   6.489063e-03
  2.635969e+00    4.844439e-01   6.469630e-03
  2.638180e+00    4.938876e-01   6.525452e-03
  2.640390e+00    4.945970e-01   6.523582e-03
  2.642601e+00    4.975572e-01   6.536435e-03
  2.644811e+00    4.974931e-01   6.528956e-03
  2.647021e+00    4.901918e-01   6.474363e-03
  2.649232e+00    5.001845e-01   6.533301e-03
  2.651442e+00    5.123357e-01   6.605594e-03
  2.653653e+00    5.051829e-01   6.552488e-03
  2.655863e+00    5.037033e-01   6.536177e-03
  2.658074e+00    4.889016e-01   6.432866e-03
  2.660284e+00    5.036058e-01   6.522490e-03
  2.662495e+00    4.958390e-01   6.465261e-03
  2.664705e+00    4.952420e-01   6.454804e-03
  2.666916e+00    5.076250e-01   6.528468e-03
  2.669126e+00    4.914672e-01   6.417309e-03
  2.671337e+00    4.866383e-01   6.379181e-03
  2.673547e+00    4.903105e-01   6.396846e-03
  2.675757e+00    4.980396e-01   6.440589e-03
  2.677968e+00    4.965473e-01   6.424414e-03
  2.680178e+00    4.893139e-01   6.371066e-03
  2.682389e+00    4.915224e-01   6.379045e-03
  2.684599e+00    4.930487e-01   6.382759e-03
  2.686810e+00    4.952923e-01   6.390631e-03
  2.689020e+00    4.950111e-01   6.382508e-03
  2.691231e+00    5.033607e-01   6.429744e-03
  2.693441e+00    4.956498e-01   6.374120e-03
  2.695652e+00    4.948823e-01   6.362652e-03
  2.697862e+00    4.972733e-01   6.371603e-03
  2.700072e+00    4.950256e-01   6.351080e-03
  2.702283e+00    4.821671e-01   6.261869e-03
  2.704493e+00    4.897589e-01   6.304693e-03
  2.706704e+00    4.895556e-01   6.296961e-03
  2.708914e+00    4.955340e-01   6.329286e-03
  2.711125e+00    4.858429e-01   6.260870e-03
  2.713335e+00    4.707544e-01   6.156879e-03
  2.715546e+00    4.995888e-01   6.336087e-03
  2.717756e+00    4.938289e-01   6.293543e-03
  2.719967e+00    5.010460e-01   6.333048e-03
  2.722177e+00    4.860447e-01   6.231409e-03
  2.724387e+00    4.878524e-01   6.236843e-03
  2.726598e+00    4.859876e-01   6.218864e-03
  2.728808e+00    4.847348e-01   6.204692e-03
  2.731019e+00    4.837424e-01   6.192222e-03
  2.733229e+00    4.763478e-01   6.138953e-03
  2.735440e+00    4.852965e-01   6.190080e-03
  2.737650e+00    4.743480e-01   6.113878e-03
  2.739861e+00    4.892161e-01   6.202869e-03
  2.742071e+00    4.837011e-01   6.162045e-03
  2.744282e+00    4.923039e-01   6.210297e-03
  2.746492e+00    4.850568e-01   6.158378e-03
  2.748702e+00    4.795312e-01   6.117293e-03
  2.750913e+00    4.856191e-01   6.150193e-03
  2.753123e+00    4.783441e-01   6.097861e-03
  2.755334e+00    4.838527e-01   6.126761e-03
  2.757544e+00    4.815788e-01   6.106618e-03
  2.759755e+00    4.764322e-01   6.068040e-03
  2.761965e+00    4.740528e-01   6.046913e-03
  2.764176e+00    4.737853e-01   6.039272e-03
  2.766386e+00    4.737250e-01   6.033127e-03
  2.768597e+00    4.951169e-01   6.161877e-03
  2.770807e+00    4.919665e-01   6.136294e-03
  2.773017e+00    5.012389e-01   6.187747e-03
  2.775228e+00    4.828328e-01   6.067268e-03
  2.777438e+00    4.780154e-01   6.031122e-03
  2.779649e+00    4.818915e-01   6.049605e-03
  2.781859e+00    4.854570e-01   6.066135e-03
  2.784070e+00    4.675980e-01   5.947706e-03
  2.786280e+00    4.834721e-01   6.042017e-03
  2.788491e+00    4.741890e-01   5.977907e-03
  2.790701e+00    4.761101e-01   5.984362e-03
  2.792912e+00    4.758299e-01   5.976635e-03
  2.795122e+00    4.718738e-01   5.946033e-03
  2.797333e+00    4.748692e-01   5.959322e-03
  2.799543e+00    4.703785e-01   5.925243e-03
  2.801753e+00    4.827769e-01   5.996920e-03
  2.803964e+00    4.788527e-01   5.966829e-03
  2.806174e+00    4.803264e-01   5.969814e-03
  2.808385e+00    4.683944e-01   5.888457e-03
  2.810595e+00    4.688598e-01   5.884544e-03
  2.812806e+00    4.779723e-01   5.934824e-03
  2.815016e+00    4.788409e-01   5.935454e-03
  2.817227e+00    4.689968e-01   5.899911e-03
  2.819437e+00    4.652580e-01   5.887329e-03
  2.821648e+00    4.733245e-01   5.940437e-03
  2.823858e+00    4.685973e-01   5.916000e-03
  2.826068e+00    4.756215e-01   5.965177e-03
  2.828279e+00    4.712065e-01   5.941465e-03
  2.830489e+00    4.688500e-01   5.929898e-03
  2.832700e+00    4.679347e-01   5.926670e-03
  2.834910e+00    4.630957e-01   5.897979e-03
  2.837121e+00    4.807410e-01   6.011023e-03
  2.839331e+00    4.777477e-01   5.993527e-03
  2.841542e+00    4.732647e-01   5.966357e-03
  2.843752e+00    4.770419e-01   5.990904e-03
  2.845963e+00    4.699711e-01   5.946741e-03
  2.848173e+00    4.714052e-01   5.955894e-03
  2.850383e+00    4.729450e-01   5.965902e-03
  2.852594e+00    4.606538e-01   5.887801e-03
  2.854804e+00    4.641270e-01   5.909445e-03
  2.857015e+00    4.682435e-01   5.935156e-03
  2.859225e+00    4.732915e-01   5.966824e-03
  2.861436e+00    4.662788e-01   5.921789e-03
  2.863646e+00    4.559072e-01   5.855601e-03
  2.865857e+00    4.717828e-01   5.957017e-03
  2.868067e+00    4.655376e-01   5.917686e-03
  2.870278e+00    4.612324e-01   5.889907e-03
  2.872488e+00    4.679486e-01   5.931461e-03
  2.874698e+00    4.582351e-01   5.868563e-03
  2.876909e+00    4.527268e-01   5.831843e-03
  2.879119e+00    4.643604e-01   5.904682e-03
  2.881330e+00    4.604021e-01   5.878002e-03
  2.883540e+00    4.547617e-01   5.840500e-03
  2.885751e+00    4.684444e-01   5.926053e-03
  2.887961e+00    4.664893e-01   5.911787e-03
  2.890172e+00    4.481122e-01   5.792603e-03
  2.892382e+00    4.504399e-01   5.805821e-03
  2.894593e+00    4.711543e-01   5.935988e-03
  2.896803e+00    4.578535e-01   5.849632e-03
  2.899014e+00    4.601892e-01   5.862624e-03
  2.901224e+00    4.571078e-01   5.840972e-03
  2.903434e+00    4.542770e-01   5.820931e-03
  2.905645e+00    4.613062e-01   5.863549e-03
  2.907855e+00    4.720464e-01   5.929307e-03
  2.910066e+00    4.532010e-01   5.807677e-03
  2.912276e+00    4.577868e-01   5.834859e-03
  2.914487e+00    4.549390e-01   5.814234e-03
  2.916697e+00    4.573091e-01   5.827145e-03
  2.918908e+00    4.523767e-01   5.793657e-03
  2.921118e+00    4.573538e-01   5.822709e-03
  2.923329e+00    4.544435e-01   5.801886e-03
  2.925539e+00    4.549495e-01   5.802825e-03
  2.927749e+00    4.484337e-01   5.758836e-03
  2.929960e+00    4.548310e-01   5.796991e-03
  2.932170e+00    4.539771e-01   5.789217e-03
  2.934381e+00    4.613765e-01   5.833777e-03
  2.936591e+00    4.565550e-01   5.800622e-03
  2.938802e+00    4.501171e-01   5.756885e-03
  2.941012e+00    4.744488e-01   5.908051e-03
  2.943223e+00    4.755705e-01   5.912286e-03
  2.945433e+00    4.455424e-01   5.718911e-03
  2.947644e+00    4.497923e-01   5.741978e-03
  2.949854e+00    4.432435e-01   5.695839e-03
  2.952064e+00    4.448492e-01   5.701959e-03
  2.954275e+00    4.449260e-01   5.698088e-03
  2.956485e+00    4.533754e-01   5.747752e-03
  2.958696e+00    4.593057e-01   5.780852e-03
  2.960906e+00    4.410562e-01   5.660708e-03
  2.963117e+00    4.426484e-01   5.666496e-03
  2.965327e+00    4.379525e-01   5.632527e-03
  2.967538e+00    4.486699e-01   5.698123e-03
  2.969748e+00    4.524521e-01   5.719293e-03
  2.971959e+00    4.534470e-01   5.722444e-03
  2.974169e+00    4.708952e-01   5.828857e-03
  2.976379e+00    4.557611e-01   5.731523e-03
  2.978590e+00    4.559184e-01   5.729360e-03
  2.980800e+00    4.639466e-01   5.776759e-03
  2.983011e+00    4.560197e-01   5.724388e-03
  2.985221e+00    4.561136e-01   5.721825e-03
  2.987432e+00    4.561424e-01   5.718871e-03
  2.989642e+00    4.551809e-01   5.710236e-03
  2.991853e+00    4.384715e-01   5.601209e-03
  2.994063e+00    4.499067e-01   5.670882e-03
  2.996274e+00    4.517762e-01   5.679481e-03
  2.998484e+00    4.632296e-01   5.748280e-03
  3.000694e+00    4.716558e-01   5.796828e-03
  3.002905e+00    4.496330e-01   5.656941e-03
  3.005115e+00    4.621214e-01   5.731945e-03
  3.007326e+00    4.567420e-01   5.695329e-03
  3.009536e+00    4.524477e-01   5.665244e-03
  3.011747e+00    4.577971e-01   5.695702e-03
  3.013957e+00    4.500297e-01   5.644005e-03
  3.016168e+00    4.527764e-01   5.657936e-03
  3.018378e+00    4.698556e-01   5.760571e-03
  3.020589e+00    4.656092e-01   5.731231e-03
  3.022799e+00    4.534571e-01   5.652788e-03
  3.025010e+00    4.542826e-01   5.654656e-03
  3.027220e+00    4.597938e-01   5.685746e-03
  3.029430e+00    4.500096e-01   5.621679e-03
  3.031641e+00    4.416464e-01   5.566093e-03
  3.033851e+00    4.488780e-01   5.607964e-03
  3.036062e+00    4.533359e-01   5.632971e-03
  3.038272e+00    4.508890e-01   5.614168e-03
  3.040483e+00    4.476775e-01   5.590925e-03
  3.042693e+00    4.539163e-01   5.626481e-03
  3.044904e+00    4.614544e-01   5.668922e-03
  3.047114e+00    4.610097e-01   5.661360e-03
  3.049325e+00    4.391561e-01   5.521197e-03
  3.051535e+00    4.388952e-01   5.515217e-03
  3.053745e+00    4.522339e-01   5.593629e-03
  3.055956e+00    4.553768e-01   5.608452e-03
  3.058166e+00    4.638127e-01   5.655827e-03
  3.060377e+00    4.447142e-01   5.533435e-03
  3.062587e+00    4.458546e-01   5.535897e-03
  3.064798e+00    4.417966e-01   5.506446e-03
  3.067008e+00    4.409468e-01   5.496446e-03
  3.069219e+00    4.424077e-01   5.501091e-03
  3.071429e+00    4.328049e-01   5.437605e-03
  3.073640e+00    4.430327e-01   5.498164e-03
  3.075850e+00    4.504715e-01   5.540540e-03
  3.078060e+00    4.561746e-01   5.572385e-03
  3.080271e+00    4.459732e-01   5.506256e-03
  3.082481e+00    4.578632e-01   5.575694e-03
  3.084692e+00    4.442731e-01   5.488964e-03
  3.086902e+00    4.506021e-01   5.524667e-03
  3.089113e+00    4.420093e-01   5.468198e-03
  3.091323e+00    4.380533e-01   5.440322e-03
  3.093534e+00    4.452233e-01   5.481314e-03
  3.095744e+00    4.465674e-01   5.486197e-03
  3.097955e+00    4.568558e-01   5.545455e-03
  3.100165e+00    4.491936e-01   5.495426e-03
  3.102375e+00    4.466777e-01   5.476594e-03
  3.104586e+00    4.387743e-01   5.424451e-03
  3.106796e+00    4.442774e-01   5.454871e-03
  3.109007e+00    4.513141e-01   5.494638e-03
  3.111217e+00    4.599262e-01   5.543084e-03
  3.113428e+00    4.571736e-01   5.523013e-03
  3.115638e+00    4.460207e-01   5.451998e-03
  3.117849e+00    4.570344e-01   5.515115e-03
  3.120059e+00    4.545464e-01   5.496596e-03
  3.122270e+00    4.482527e-01   5.455135e-03
  3.124480e+00    4.389078e-01   5.394315e-03
  3.126691e+00    4.431599e-01   5.416813e-03
  3.128901e+00    4.496326e-01   5.453088e-03
  3.131111e+00    4.509733e-01   5.457363e-03
  3.133322e+00    4.505666e-01   5.451412e-03
  3.135532e+00    4.475200e-01   5.429546e-03
  3.137743e+00    4.625316e-01   5.516289e-03
  3.139953e+00    4.708478e-01   5.561890e-03
  3.142164e+00    4.396690e-01   5.386572e-03
  3.144374e+00    4.325519e-01   5.370840e-03
  3.146585e+00    4.502600e-01   5.494390e-03
  3.148795e+00    4.501432e-01   5.504537e-03
  3.151006e+00    4.597962e-01   5.571975e-03
  3.153216e+00    4.491445e-01   5.514255e-03
  3.155426e+00    4.321450e-01   5.415140e-03
  3.157637e+00    4.437589e-01   5.492949e-03
  3.159847e+00    4.406981e-01   5.478868e-03
  3.162058e+00    4.455721e-01   5.513529e-03
  3.164268e+00    4.337797e-01   5.444116e-03
  3.166479e+00    4.401798e-01   5.487781e-03
  3.168689e+00    4.558245e-01   5.587888e-03
  3.170900e+00    4.477858e-01   5.541606e-03
  3.173110e+00    4.370156e-01   5.477412e-03
  3.175321e+00    4.381650e-01   5.487109e-03
  3.177531e+00    4.244859e-01   5.403481e-03
  3.179741e+00    4.362449e-01   5.479858e-03
  3.181952e+00    4.323481e-01   5.457443e-03
  3.184162e+00    4.437864e-01   5.531356e-03
  3.186373e+00    4.469824e-01   5.552884e-03
  3.188583e+00    4.222305e-01   5.398680e-03
  3.190794e+00    4.332995e-01   5.470742e-03
  3.193004e+00    4.342679e-01   5.478096e-03
  3.195215e+00    4.477717e-01   5.564123e-03
  3.197425e+00    4.481150e-01   5.567496e-03
  3.199636e+00    4.361743e-01   5.492063e-03
  3.201846e+00    4.247594e-01   5.419122e-03
  3.204056e+00    4.319173e-01   5.465441e-03
  3.206267e+00    4.339529e-01   5.479189e-03
  3.208477e+00    4.258753e-01   5.428861e-03
  3.210688e+00    4.357048e-01   5.491998e-03
  3.212898e+00    4.324805e-01   5.472223e-03
  3.215109e+00    4.113655e-01   5.337693e-03
  3.217319e+00    4.186182e-01   5.385165e-03
  3.219530e+00    4.206786e-01   5.398790e-03
  3.221740e+00    4.357845e-01   5.495418e-03
  3.223951e+00    4.298544e-01   5.458400e-03
  3.226161e+00    4.181809e-01   5.383955e-03
  3.228372e+00    4.035798e-01   5.289618e-03
  3.230582e+00    4.282584e-01   5.449085e-03
  3.232792e+00    4.370319e-01   5.504861e-03
  3.235003e+00    4.281688e-01   5.448992e-03
  3.237213e+00    4.333455e-01   5.481950e-03
  3.239424e+00    4.132458e-01   5.353305e-03
  3.241634e+00    4.216832e-01   5.407782e-03
  3.243845e+00    4.340893e-01   5.486837e-03
  3.246055e+00    4.283150e-01   5.449966e-03
  3.248266e+00    4.256064e-01   5.432878e-03
  3.250476e+00    4.424664e-01   5.539141e-03
  3.252687e+00    4.336832e-01   5.483835e-03
  3.254897e+00    4.268811e-01   5.440508e-03
  3.257107e+00    4.219716e-01   5.408832e-03
  3.259318e+00    4.254569e-01   5.430897e-03
  3.261528e+00    4.265726e-01   5.437854e-03
  3.263739e+00    4.340797e-01   5.484940e-03
  3.265949e+00    4.211905e-01   5.402801e-03
  3.268160e+00    4.104333e-01   5.332912e-03
  3.270370e+00    4.167286e-01   5.373164e-03
  3.272581e+00    4.235472e-01   5.416673e-03
  3.274791e+00    4.039297e-01   5.289231e-03
  3.277002e+00    4.223154e-01   5.407695e-03
  3.279212e+00    4.230416e-01   5.411956e-03
  3.281422e+00    4.252172e-01   5.425291e-03
  3.283633e+00    4.281368e-01   5.443185e-03
  3.285843e+00    4.356961e-01   5.490714e-03
  3.288054e+00    4.267225e-01   5.432918e-03
  3.290264e+00    4.268987e-01   5.433721e-03
  3.292475e+00    4.384392e-01   5.505847e-03
  3.294685e+00    4.244234e-01   5.416483e-03
  3.296896e+00    4.139225e-01   5.348302e-03
  3.299106e+00    4.268466e-01   5.430613e-03
  3.301317e+00    4.195560e-01   5.383006e-03
  3.303527e+00    4.197035e-01   5.383487e-03
  3.305737e+00    4.167119e-01   5.363231e-03
  3.307948e+00    4.170849e-01   5.364963e-03
  3.310158e+00    4.205866e-01   5.386589e-03
  3.312369e+00    4.231543e-01   5.402121e-03
  3.314579e+00    4.361885e-01   5.483763e-03
  3.316790e+00    4.228638e-01   5.398668e-03
  3.319000e+00    4.177725e-01   5.364869e-03
  3.321211e+00    4.137664e-01   5.338500e-03
  3.323421e+00    4.373480e-01   5.487264e-03
  3.325632e+00    4.405484e-01   5.506420e-03
  3.327842e+00    4.287364e-01   5.431193e-03
  3.330052e+00    4.091132e-01   5.304382e-03
  3.332263e+00    4.189454e-01   5.366722e-03
  3.334473e+00    4.166338e-01   5.350994e-03
  3.336684e+00    4.206780e-01   5.375632e-03
  3.338894e+00    4.226293e-01   5.387243e-03
  3.341105e+00    4.143665e-01   5.333120e-03
  3.343315e+00    4.204925e-01   5.371273e-03
  3.345526e+00    4.119950e-01   5.315809e-03
  3.347736e+00    4.174904e-01   5.349766e-03
  3.349947e+00    4.106776e-01   5.304983e-03
  3.352157e+00    4.341658e-01   5.453408e-03
  3.354368e+00    4.146923e-01   5.328434e-03
  3.356578e+00    4.191171e-01   5.355732e-03
  3.358788e+00    4.224295e-01   5.375541e-03
  3.360999e+00    4.192089e-01   5.353753e-03
  3.363209e+00    4.137969e-01   5.318074e-03
  3.365420e+00    4.172840e-01   5.338924e-03
  3.367630e+00    4.164686e-01   5.332695e-03
  3.369841e+00    4.099158e-01   5.289146e-03
  3.372051e+00    4.119569e-01   5.300349e-03
  3.374262e+00    4.132211e-01   5.306032e-03
  3.376472e+00    4.131428e-01   5.303100e-03
  3.378683e+00    4.127064e-01   5.297801e-03
  3.380893e+00    4.070134e-01   5.258837e-03
  3.383103e+00    4.175998e-01   5.324048e-03
  3.385314e+00    4.216183e-01   5.347381e-03
  3.387524e+00    4.222689e-01   5.348738e-03
  3.389735e+00    4.373305e-01   5.440576e-03
  3.391945e+00    4.282975e-01   5.380393e-03
  3.394156e+00    4.069249e-01   5.240222e-03
  3.396366e+00    4.103905e-01   5.259100e-03
  3.398577e+00    3.879088e-01   5.110039e-03
  3.400787e+00    4.073372e-01   5.248307e-03
  3.402998e+00    4.161620e-01   5.343211e-03
  3.405208e+00    4.134750e-01   5.346790e-03
  3.407418e+00    4.028924e-01   5.293765e-03
  3.409629e+00    3.953719e-01   5.257959e-03
  3.411839e+00    3.976408e-01   5.284795e-03
  3.414050e+00    3.959557e-01   5.284556e-03
  3.416260e+00    3.982829e-01   5.309743e-03
  3.418471e+00    4.039686e-01   5.357058e-03
  3.420681e+00    3.951407e-01   5.306727e-03
  3.422892e+00    3.846355e-01   5.243649e-03
  3.425102e+00    3.900028e-01   5.287914e-03
  3.427313e+00    3.893340e-01   5.290582e-03
  3.429523e+00    3.864809e-01   5.278229e-03
  3.431733e+00    3.732493e-01   5.193627e-03
  3.433944e+00    3.809685e-01   5.253498e-03
  3.436154e+00    3.824240e-01   5.269807e-03
  3.438365e+00    3.856903e-01   5.298180e-03
  3.440575e+00    3.791721e-01   5.259159e-03
  3.442786e+00    3.857699e-01   5.310370e-03
  3.444996e+00    3.822215e-01   5.291439e-03
  3.447207e+00    3.697237e-01   5.209446e-03
  3.449417e+00    3.730077e-01   5.273430e-03
  3.451628e+00    3.627589e-01   5.229688e-03
  3.453838e+00    3.549103e-01   5.193578e-03
  3.456049e+00    3.651273e-01   5.291658e-03
  3.458259e+00    3.641766e-01   5.306620e-03
  3.460469e+00    3.633745e-01   5.320487e-03
  3.462680e+00    3.572542e-01   5.294315e-03
  3.464890e+00    3.625998e-01   5.351468e-03
  3.467101e+00    3.680145e-01   5.408780e-03
  3.469311e+00    3.768386e-01   5.489889e-03
  3.471522e+00    3.937532e-01   5.628585e-03
  3.473732e+00    4.069407e-01   5.738593e-03
  3.475943e+00    4.045227e-01   5.737639e-03
  3.478153e+00    4.287555e-01   5.923271e-03
  3.480364e+00    4.070460e-01   5.786760e-03
  3.482574e+00    4.140716e-01   5.851987e-03
  3.484784e+00    4.325356e-01   5.996339e-03
  3.486995e+00    4.227647e-01   5.943432e-03
  3.489205e+00    4.423869e-01   6.094795e-03
  3.491416e+00    4.432093e-01   6.115654e-03
  3.493626e+00    4.478471e-01   6.162388e-03
  3.495837e+00    4.460860e-01   6.165100e-03
  3.498047e+00    4.405859e-01   6.141402e-03
  3.500258e+00    4.512274e-01   6.229677e-03
  3.502468e+00    4.522335e-01   6.251021e-03
  3.504679e+00    4.737684e-01   6.412796e-03
  3.506889e+00    4.800434e-01   6.469824e-03
  3.509099e+00    4.660163e-01   6.388849e-03
  3.511310e+00    4.690577e-01   6.424016e-03
  3.513520e+00    4.895931e-01   6.577659e-03
  3.515731e+00    5.038270e-01   6.687230e-03
  3.517941e+00    4.935900e-01   6.633378e-03
  3.520152e+00    4.936087e-01   6.647798e-03
  3.522362e+00    5.051008e-01   6.739257e-03
  3.524573e+00    5.207867e-01   6.857611e-03
  3.526783e+00    5.204229e-01   6.868675e-03
  3.528994e+00    5.424970e-01   7.025415e-03
  3.531204e+00    5.283243e-01   6.945540e-03
  3.533414e+00    5.252315e-01   6.937303e-03
  3.535625e+00    5.246853e-01   6.945987e-03
  3.537835e+00    5.455024e-01   7.094690e-03
  3.540046e+00    5.613243e-01   7.206003e-03
  3.542256e+00    5.489541e-01   7.133802e-03
  3.544467e+00    5.422644e-01   7.097855e-03
  3.546677e+00    5.379012e-01   7.076826e-03
  3.548888e+00    5.393876e-01   7.094124e-03
  3.551098e+00    5.371659e-01   7.086808e-03
  3.553309e+00    5.148398e-01   6.945966e-03
  3.555519e+00    5.375021e-01   7.108469e-03
  3.557729e+00    5.507961e-01   7.207775e-03
  3.559940e+00    5.340352e-01   7.108761e-03
  3.562150e+00    5.319467e-01   7.106510e-03
  3.564361e+00    5.377549e-01   7.158555e-03
  3.566571e+00    5.370837e-01   7.167928e-03
  3.568782e+00    5.307871e-01   7.139840e-03
  3.570992e+00    5.236930e-01   7.105562e-03
  3.573203e+00    5.356289e-01   7.200192e-03
  3.575413e+00    5.460834e-01   7.284048e-03
  3.577624e+00    5.509481e-01   7.330735e-03
  3.579834e+00    5.303659e-01   7.206319e-03
  3.582045e+00    5.451654e-01   7.320318e-03
  3.584255e+00    5.356019e-01   7.269862e-03
  3.586465e+00    5.572183e-01   7.429340e-03
  3.588676e+00    5.390887e-01   7.321695e-03
  3.590886e+00    5.555593e-01   7.446667e-03
  3.593097e+00    5.380360e-01   7.342814e-03
  3.595307e+00    5.439786e-01   7.397302e-03
  3.597518e+00    5.469927e-01   7.432108e-03
  3.599728e+00    5.421663e-01   7.413466e-03
  3.601939e+00    5.365780e-01   7.389226e-03
  3.604149e+00    5.274531e-01   7.340404e-03
  3.606360e+00    5.400475e-01   7.441741e-03
  3.608570e+00    5.344577e-01   7.417290e-03
  3.610780e+00    5.305592e-01   7.401194e-03
  3.612991e+00    5.311130e-01   7.415004e-03
  3.615201e+00    5.519863e-01   7.569305e-03
  3.617412e+00    5.343664e-01   7.454774e-03
  3.619622e+00    5.311418e-01   7.438184e-03
  3.621833e+00    5.378581e-01   7.491765e-03
  3.624043e+00    5.468447e-01   7.563749e-03
  3.626254e+00    5.405378e-01   7.529751e-03
  3.628464e+00    5.398720e-01   7.536149e-03
  3.630675e+00    5.467456e-01   7.598245e-03
  3.632885e+00    5.427700e-01   7.585151e-03
  3.635095e+00    5.290855e-01   7.503262e-03
  3.637306e+00    5.323194e-01   7.540493e-03
  3.639516e+00    5.416805e-01   7.621172e-03
  3.641727e+00    5.277290e-01   7.536846e-03
  3.643937e+00    5.445302e-01   7.670590e-03
  3.646148e+00    5.533913e-01   7.747683e-03
  3.648358e+00    5.328375e-01   7.617240e-03
  3.650569e+00    5.376041e-01   7.666090e-03
  3.652779e+00    5.046302e-01   7.441609e-03
  3.654990e+00    5.170764e-01   7.547484e-03
  3.657200e+00    5.353304e-01   7.694470e-03
  3.659410e+00    5.505911e-01   7.818632e-03
  3.661621e+00    5.502514e-01   7.831589e-03
  3.663831e+00    5.341795e-01   7.731503e-03
  3.666042e+00    5.305425e-01   7.720314e-03
  3.668252e+00    5.134200e-01   7.609660e-03
  3.670463e+00    5.390564e-01   7.812676e-03
  3.672673e+00    5.196468e-01   7.686035e-03
  3.674884e+00    5.165235e-01   7.678021e-03
  3.677094e+00    5.470555e-01   7.917495e-03
  3.679305e+00    5.231938e-01   7.758354e-03
  3.681515e+00    5.275012e-01   7.805768e-03
  3.683726e+00    5.217432e-01   7.778773e-03
  3.685936e+00    5.217645e-01   7.794483e-03
  3.688146e+00    5.330651e-01   7.894301e-03
  3.690357e+00    5.513674e-01   8.044987e-03
  3.692567e+00    5.218378e-01   7.842666e-03
  3.694778e+00    5.195839e-01   7.841630e-03
  3.696988e+00    5.117922e-01   7.798354e-03
  3.699199e+00    5.298077e-01   7.950739e-03
  3.701409e+00    5.058400e-01   7.784908e-03
  3.703620e+00    5.177848e-01   7.892463e-03
  3.705830e+00    5.293739e-01   7.996777e-03
  3.708041e+00    5.271425e-01   7.996556e-03
  3.710251e+00    5.165958e-01   7.932780e-03
  3.712461e+00    5.400822e-01   8.128063e-03
  3.714672e+00    5.468417e-01   8.195949e-03
  3.716882e+00    5.387930e-01   8.152382e-03
  3.719093e+00    5.148166e-01   7.986031e-03
  3.721303e+00    5.088552e-01   7.956381e-03
  3.723514e+00    5.010668e-01   7.912245e-03
  3.725724e+00    5.067098e-01   7.973596e-03
  3.727935e+00    5.140832e-01   8.048827e-03
  3.730145e+00    5.199220e-01   8.111796e-03
  3.732356e+00    5.264338e-01   8.180092e-03
  3.734566e+00    5.110826e-01   8.077470e-03
  3.736776e+00    4.947193e-01   7.964475e-03
  3.738987e+00    5.292462e-01   8.255693e-03
  3.741197e+00    5.196985e-01   8.199056e-03
  3.743408e+00    5.117821e-01   8.154363e-03
  3.745618e+00    5.087757e-01   8.148639e-03
  3.747829e+00    5.128275e-01   8.199101e-03
  3.750039e+00    5.195646e-01   8.271319e-03
  3.752250e+00    5.213227e-01   8.303992e-03
  3.754460e+00    5.095520e-01   8.228205e-03
  3.756671e+00    5.134531e-01   8.278538e-03
  3.758881e+00    5.063440e-01   8.239603e-03
  3.761091e+00    5.149074e-01   8.328263e-03
  3.763302e+00    5.011085e-01   8.234837e-03
  3.765512e+00    5.098289e-01   8.325489e-03
  3.767723e+00    5.163303e-01   8.397918e-03
  3.769933e+00    5.297698e-01   8.526290e-03
  3.772144e+00    5.166008e-01   8.439443e-03
  3.774354e+00    5.113497e-01   8.416397e-03
  3.776565e+00    5.148961e-01   8.465547e-03
  3.778775e+00    5.230529e-01   8.552718e-03
  3.780986e+00    5.050588e-01   8.424570e-03
  3.783196e+00    5.122349e-01   8.504686e-03
  3.785407e+00    4.927877e-01   8.361882e-03
  3.787617e+00    4.959750e-01   8.409473e-03
  3.789827e+00    4.939432e-01   8.412609e-03
  3.792038e+00    5.081269e-01   8.553483e-03
  3.794248e+00    4.915621e-01   8.433889e-03
  3.796459e+00    4.875341e-01   8.420294e-03
  3.798669e+00    5.178649e-01   8.699995e-03
  3.800880e+00    5.212721e-01   8.750495e-03
  3.803090e+00    5.008925e-01   8.599546e-03
  3.805301e+00    4.802457e-01   8.442117e-03
  3.807511e+00    4.921971e-01   8.568337e-03
  3.809722e+00    5.126876e-01   8.767365e-03
  3.811932e+00    5.045622e-01   8.719986e-03
  3.814142e+00    5.049591e-01   8.746379e-03
  3.816353e+00    5.058532e-01   8.777143e-03
  3.818563e+00    5.061969e-01   8.803410e-03
  3.820774e+00    4.935019e-01   8.715334e-03
  3.822984e+00    4.962431e-01   8.762855e-03
  3.825195e+00    5.192280e-01   8.987755e-03
  3.827405e+00    4.892342e-01   8.747928e-03
  3.829616e+00    4.932154e-01   8.807478e-03
  3.831826e+00    4.984715e-01   8.878382e-03
  3.834037e+00    4.962224e-01   8.882902e-03
  3.836247e+00    4.681749e-01   8.652148e-03
  3.838457e+00    4.861538e-01   8.841442e-03
  3.840668e+00    5.050820e-01   9.037355e-03
  3.842878e+00    4.959836e-01   8.981137e-03
  3.845089e+00    4.691221e-01   8.759410e-03
  3.847299e+00    4.856946e-01   8.938276e-03
  3.849510e+00    5.093620e-01   9.179734e-03
  3.851720e+00    5.086392e-01   9.194934e-03
  3.853931e+00    5.030177e-01   9.163138e-03
  3.856141e+00    4.957348e-01   9.115549e-03
  3.858352e+00    4.962324e-01   9.139410e-03
  3.860562e+00    4.933386e-01   9.132093e-03
  3.862772e+00    4.917513e-01   9.136841e-03
  3.864983e+00    5.031205e-01   9.261747e-03
  3.867193e+00    4.753557e-01   9.021987e-03
  3.869404e+00    4.963022e-01   9.238466e-03
  3.871614e+00    4.725820e-01   9.034556e-03
  3.873825e+00    5.360863e-01   9.643579e-03
  3.876035e+00    5.072519e-01   9.401624e-03
  3.878246e+00    4.886304e-01   9.253066e-03
  3.880456e+00    4.789742e-01   9.189795e-03
  3.882667e+00    4.791394e-01   9.220234e-03
  3.884877e+00    4.997459e-01   9.446491e-03
  3.887087e+00    4.871618e-01   9.356566e-03
  3.889298e+00    4.900022e-01   9.414123e-03
  3.891508e+00    4.997117e-01   9.537776e-03
  3.893719e+00    5.287530e-01   9.843118e-03
  3.895929e+00    4.721324e-01   9.332082e-03
  3.898140e+00    4.897242e-01   9.535992e-03
  3.900350e+00    4.897879e-01   9.568754e-03
  3.902561e+00    4.810058e-01   9.514595e-03
  3.904771e+00    4.979410e-01   9.713737e-03
  3.906982e+00    4.839969e-01   9.609719e-03
  3.909192e+00    4.859673e-01   9.662682e-03
  3.911403e+00    4.623063e-01   9.457535e-03
  3.913613e+00    4.646828e-01   9.515241e-03
  3.915823e+00    4.662341e-01   9.565132e-03
  3.918034e+00    4.800774e-01   9.741010e-03
  3.920244e+00    4.882973e-01   9.859845e-03
  3.922455e+00    4.801631e-01   9.813105e-03
  3.924665e+00    4.567330e-01   9.605992e-03
  3.926876e+00    4.717103e-01   9.798645e-03
  3.929086e+00    4.953189e-01   1.007849e-02
  3.931297e+00    4.836167e-01   9.993516e-03
  3.933507e+00    4.591776e-01   9.765717e-03
  3.935718e+00    4.795450e-01   1.000845e-02
  3.937928e+00    5.045646e-01   1.029613e-02
  3.940138e+00    5.348072e-01   1.063106e-02
  3.942349e+00    5.176002e-01   1.048948e-02
  3.944559e+00    5.001676e-01   1.034160e-02
  3.946770e+00    5.040940e-01   1.041290e-02
  3.948980e+00    4.776080e-01   1.016605e-02
  3.951191e+00    4.898057e-01   1.032600e-02
  3.953401e+00    4.904284e-01   1.036407e-02
  3.955612e+00    4.958669e-01   1.045328e-02
  3.957822e+00    4.693264e-01   1.020090e-02
  3.960033e+00    4.601219e-01   1.013204e-02
  3.962243e+00    4.921931e-01   1.051233e-02
  3.964453e+00    4.985617e-01   1.061355e-02
  3.966664e+00    4.928707e-01   1.058661e-02
  3.968874e+00    4.904855e-01   1.058932e-02
  3.971085e+00    4.877449e-01   1.058180e-02
  3.973295e+00    4.833895e-01   1.055588e-02
  3.975506e+00    4.848257e-01   1.059304e-02
  3.977716e+00    4.995790e-01   1.077545e-02
  3.979927e+00    4.649095e-01   1.041644e-02
  3.982137e+00    4.573647e-01   1.035319e-02
  3.984348e+00    4.835034e-01   1.066743e-02
  3.986558e+00    4.543478e-01   1.036246e-02
  3.988768e+00    4.789125e-01   1.066165e-02
  3.990979e+00    4.753348e-01   1.064434e-02
  3.993189e+00    4.592464e-01   1.048515e-02
  3.995400e+00    4.596266e-01   1.051232e-02
  3.997610e+00    4.532268e-01   1.046775e-02
  3.999821e+00    4.796410e-01   1.080577e-02
  4.002031e+00    4.691445e-01   1.072461e-02
  4.004242e+00    4.686407e-01   1.075677e-02
  4.006452e+00    4.728074e-01   1.084325e-02
  4.008663e+00    5.024359e-01   1.121859e-02
  4.010873e+00    5.268777e-01   1.153001e-02
  4.013084e+00    4.824243e-01   1.107371e-02
  4.015294e+00    5.250737e-01   1.159545e-02
  4.017504e+00    5.017319e-01   1.137744e-02
  4.019715e+00    4.747694e-01   1.110970e-02
  4.021925e+00    4.438640e-01   1.078308e-02
  4.024136e+00    4.540881e-01   1.094883e-02
  4.026346e+00    4.838107e-01   1.134562e-02
  4.028557e+00    4.872914e-01   1.143075e-02
  4.030767e+00    5.164560e-01   1.181517e-02
  4.032978e+00    4.840490e-01   1.148473e-02
  4.035188e+00    5.027307e-01   1.175133e-02
  4.037399e+00    4.782360e-01   1.150885e-02
  4.039609e+00    4.711646e-01   1.147051e-02
  4.041819e+00    4.815792e-01   1.164520e-02
  4.044030e+00    4.827740e-01   1.170953e-02
  4.046240e+00    5.139917e-01   1.213370e-02
  4.048451e+00    4.848869e-01   1.183623e-02
  4.050661e+00    4.837514e-01   1.187377e-02
  4.052872e+00    4.859400e-01   1.195350e-02
  4.055082e+00    4.876184e-01   1.202802e-02
  4.057293e+00    4.741119e-01   1.191345e-02
  4.059503e+00    4.800413e-01   1.204225e-02
  4.061714e+00    4.974577e-01   1.231597e-02
  4.063924e+00    5.388029e-01   1.287779e-02
  4.066134e+00    5.163361e-01   1.266580e-02
  4.068345e+00    4.689621e-01   1.212895e-02
  4.070555e+00    4.836330e-01   1.237653e-02
  4.072766e+00    5.424840e-01   1.317251e-02
  4.074976e+00    4.605397e-01   1.219749e-02
  4.077187e+00    5.014911e-01   1.279154e-02
  4.079397e+00    5.012751e-01   1.285398e-02
  4.081608e+00    4.846905e-01   1.270543e-02
  4.083818e+00    4.621507e-01   1.247084e-02
  4.086029e+00    4.973508e-01   1.300540e-02
  4.088239e+00    4.585332e-01   1.255479e-02
  4.090449e+00    4.522245e-01   1.253581e-02
  4.092660e+00    4.683280e-01   1.282705e-02
  4.094870e+00    4.987887e-01   1.331132e-02
  4.097081e+00    4.707071e-01   1.300212e-02
  4.099291e+00    4.992805e-01   1.344624e-02
  4.101502e+00    4.454063e-01   1.274748e-02
  4.103712e+00    4.700034e-01   1.314370e-02
  4.105923e+00    4.429928e-01   1.280963e-02
  4.108133e+00    4.939835e-01   1.357888e-02
  4.110344e+00    5.015464e-01   1.373493e-02
  4.112554e+00    4.742877e-01   1.340921e-02
  4.114764e+00    4.806885e-01   1.355365e-02
  4.116975e+00    4.614806e-01   1.333246e-02
  4.119185e+00    4.633616e-01   1.341386e-02
  4.121396e+00    4.623034e-01   1.345368e-02
  4.123606e+00    4.717231e-01   1.364604e-02
  4.125817e+00    4.435021e-01   1.328685e-02
  4.128027e+00    4.636417e-01   1.364252e-02
  4.130238e+00    4.618587e-01   1.367438e-02
  4.132448e+00    5.240989e-01   1.463006e-02
  4.134659e+00    5.058596e-01   1.443523e-02
  4.136869e+00    4.947232e-01   1.433899e-02
  4.139080e+00    4.855087e-01   1.426881e-02
  4.141290e+00    5.032902e-01   1.459214e-02
  4.143500e+00    4.713750e-01   1.418724e-02
  4.145711e+00    4.333350e-01   1.366596e-02
  4.147921e+00    4.661817e-01   1.423962e-02
  4.150132e+00    4.619059e-01   1.424175e-02
  4.152342e+00    4.945454e-01   1.480772e-02
  4.154553e+00    5.064583e-01   1.505649e-02
  4.156763e+00    4.411936e-01   1.412232e-02
  4.158974e+00    4.705739e-01   1.465799e-02
  4.161184e+00    4.695953e-01   1.471591e-02
  4.163395e+00    4.326438e-01   1.419682e-02
  4.165605e+00    5.032055e-01   1.539058e-02
  4.167815e+00    4.815260e-01   1.513392e-02
  4.170026e+00    4.508543e-01   1.472118e-02
  4.172236e+00    4.734731e-01   1.516742e-02
  4.174447e+00    5.240661e-01   1.604395e-02
  4.176657e+00    5.174913e-01   1.603042e-02
  4.178868e+00    5.081978e-01   1.597548e-02
  4.181078e+00    5.124912e-01   1.613341e-02
  4.183289e+00    5.056223e-01   1.611641e-02
  4.185499e+00    4.576340e-01   1.542339e-02
  4.187710e+00    4.468036e-01   1.532865e-02
  4.189920e+00    5.231412e-01   1.668652e-02
  4.192130e+00    4.636575e-01   1.580543e-02
  4.194341e+00    4.706043e-01   1.602102e-02
  4.196551e+00    4.219113e-01   1.526535e-02
  4.198762e+00    4.719774e-01   1.624830e-02
  4.200972e+00    4.909810e-01   1.667956e-02
  4.203183e+00    4.642624e-01   1.632623e-02
  4.205393e+00    4.796160e-01   1.670450e-02
  4.207604e+00    4.444083e-01   1.618938e-02
  4.209814e+00    4.877756e-01   1.707703e-02
  4.212025e+00    4.468739e-01   1.646166e-02
  4.214235e+00    4.593822e-01   1.680821e-02
  4.216445e+00    4.793861e-01   1.729482e-02
  4.218656e+00    4.504188e-01   1.688963e-02
  4.220866e+00    4.992865e-01   1.791386e-02
  4.223077e+00    5.135751e-01   1.830822e-02
  4.225287e+00    4.712490e-01   1.767546e-02
  4.227498e+00    5.137098e-01   1.859961e-02
  4.229708e+00    4.542367e-01   1.763174e-02
  4.231919e+00    5.086995e-01   1.881350e-02
  4.234129e+00    4.865253e-01   1.855297e-02
  4.236340e+00    4.621946e-01   1.823798e-02
  4.238550e+00    4.846873e-01   1.884130e-02
  4.240761e+00    4.406478e-01   1.812353e-02
  4.242971e+00    4.724272e-01   1.893785e-02
  4.245181e+00    4.594422e-01   1.885081e-02
  4.247392e+00    5.459644e-01   2.074179e-02
  4.249602e+00    4.799175e-01   1.963969e-02
  4.251813e+00    5.105633e-01   2.045706e-02
  4.254023e+00    4.206896e-01   1.875638e-02
  4.256234e+00    4.424957e-01   1.944169e-02
  4.258444e+00    4.604314e-01   2.003944e-02
  4.260655e+00    4.586104e-01   2.021942e-02
  4.262865e+00    5.531741e-01   2.245856e-02
  4.265076e+00    4.438458e-01   2.034621e-02
  4.267286e+00    5.218719e-01   2.232338e-02
  4.269496e+00    4.757011e-01   2.157358e-02
  4.271707e+00    4.814727e-01   2.197164e-02
  4.273917e+00    5.358695e-01   2.347953e-02
  4.276128e+00    4.193416e-01   2.104677e-02
  4.278338e+00    4.492640e-01   2.207486e-02
  4.280549e+00    4.695255e-01   2.289163e-02
  4.282759e+00    4.153878e-01   2.184039e-02
  4.284970e+00    4.617141e-01   2.336654e-02
  4.287180e+00    4.910804e-01   2.438717e-02
  4.289391e+00    5.979300e-01   2.711197e-02
  4.291601e+00    5.288478e-01   2.570179e-02
  4.293811e+00    4.233593e-01   2.317516e-02
  4.296022e+00    4.846492e-01   2.499578e-02
  4.298232e+00    4.986462e-01   2.556616e-02
  4.300443e+00    3.851988e-01   2.265644e-02
  4.302653e+00    4.865354e-01   2.568197e-02
  4.304864e+00    4.640322e-01   2.530002e-02
  4.307074e+00    4.510064e-01   2.516545e-02
  4.309285e+00    4.296948e-01   2.478701e-02
  4.311495e+00    3.923258e-01   2.390593e-02
  4.313706e+00    3.761592e-01   2.362912e-02
  4.315916e+00    3.930427e-01   2.438936e-02
  4.318126e+00    5.105006e-01   2.807281e-02
  4.320337e+00    3.616363e-01   2.386624e-02
  4.322547e+00    3.949798e-01   2.520611e-02
  4.324758e+00    4.265884e-01   2.646821e-02
  4.326968e+00    4.543036e-01   2.762210e-02
  4.329179e+00    5.239985e-01   2.999253e-02
  4.331389e+00    5.155842e-01   3.009295e-02
  4.333600e+00    4.676171e-01   2.900244e-02
  4.335810e+00    4.144834e-01   2.762872e-02
  4.338021e+00    4.272254e-01   2.841026e-02
  4.340231e+00    4.505730e-01   2.954124e-02
  4.342442e+00    5.565413e-01   3.327268e-02
  4.344652e+00    5.535961e-01   3.363387e-02
  4.346862e+00    5.245599e-01   3.320138e-02
  4.349073e+00    5.838134e-01   3.553440e-02
  4.351283e+00    4.698682e-01   3.235542e-02
  4.353494e+00    5.319231e-01   3.495630e-02
  4.355704e+00    4.962769e-01   3.430971e-02
  4.357915e+00    3.920156e-01   3.100091e-02
  4.360125e+00    3.896549e-01   3.143444e-02
  4.362336e+00    3.210503e-01   2.905438e-02
  4.364546e+00    4.466484e-01   3.489069e-02
  4.366757e+00    4.728822e-01   3.661723e-02
  4.368967e+00    3.701475e-01   3.304158e-02
  4.371177e+00    4.608547e-01   3.765362e-02
  4.373388e+00    4.148923e-01   3.652510e-02
  4.375598e+00    4.186027e-01   3.752381e-02
  4.377809e+00    4.414226e-01   3.950753e-02
  4.380019e+00    5.053074e-01   4.333563e-02
  4.382230e+00    4.262457e-01   4.091201e-02
  4.384440e+00    3.605705e-01   3.870929e-02
  4.386651e+00    4.938330e-01   4.669727e-02
  4.388861e+00    4.780922e-01   4.749219e-02
  4.391072e+00    4.583283e-01   4.813107e-02
  4.393282e+00    4.571759e-01   4.993173e-02
  4.395492e+00    5.242037e-01   5.568389e-02
  4.397703e+00    2.855227e-01   4.298172e-02
  4.399913e+00    4.632544e-01   5.751423e-02
  4.402124e+00    4.224218e-01   5.803400e-02
  4.404334e+00    3.686411e-01   5.762837e-02
  4.406545e+00    1.641170e-01   4.131514e-02
  4.408755e+00    4.920410e-01   7.757621e-02
  4.410966e+00    6.622786e-01   9.961535e-02
  4.413176e+00    3.778923e-01   8.518179e-02
  4.415387e+00   -6.474108e-01            nan
  4.417597e+00   -1.979510e+00            nan
  4.419807e+00    1.431295e-01   1.358686e-01
