# == pyFAI calibration ==
# Distance Sample to Detector: 0.216 m
# PONI: 1.166e-01, 1.308e-01 m
# Rotations: 0.000000 0.000000 0.000000 rad
# 
# == Fit2d calibration ==
# Distance Sample-beamCenter: 216.000 mm
# Center: x=1744.293, y=1555.000 pix
# Tilt: 0.000 deg  TiltPlanRot: 0.000 deg
# 
# Detector Eiger 9M	 PixelSize= 7.500e-05, 7.500e-05 m
#    Detector has a mask: True 
#    Detector has a dark current: False 
#    detector has a flat field: False 
# 
# Wavelength: 9.8e-11 m
# Mask applied: from detector
# Dark current applied: False
# Flat field applied: False
# Polarization factor: None
# Normalization factor: 1.0
# 
# Headers of the input frame:
# {
# "_array_data.header_convention": "SLS_1.0",
# "_array_data.header_contents": "# Detector: Dectris Eiger 9M, S/N E-18-0102\r\n# Pixel_size 75e-6 m x 75e-6 m\r\n# Silicon sensor, thickness 0.000450 m\r\n# Exposure_time 0.024997 s\r\n# Exposure_period 0.025000 s\r\n# Count_cutoff 62318 counts\r\n# Wavelength 0.980106 A\r\n# Detector_distance 0.215992 m\r\n# Beam_xy (1555, 1744) pixels\r\n# Start_angle 0.000000 deg.\r\n# Angle_increment 0.000000 deg.",
# "Content-Type": "application/octet-stream;",
# "conversions": "x-CBF_BYTE_OFFSET",
# "Content-Transfer-Encoding": "BINARY",
# "X-Binary-Size": "10166606",
# "X-Binary-ID": "1",
# "X-Binary-Element-Type": "signed 32-bit integer",
# "X-Binary-Element-Byte-Order": "LITTLE_ENDIAN",
# "Content-MD5": "dQLJ1H5Gb1R3TvkHamXa5Q==",
# "X-Binary-Number-of-Elements": "10166590",
# "X-Binary-Size-Fastest-Dimension": "3110",
# "X-Binary-Size-Second-Dimension": "3269",
# "X-Binary-Size-Padding": "4095"
# }
# --> H:/Proxima2a_2019-04-05/RAW_DATA/C5_gel17_position5/C5_mesh_1_data.cbf/C5_mesh_1_data.cbf000175.dat
#        q_A^-1              I           sigma 
  1.105228e-03    7.568407e-01   4.707488e-01
  3.315685e-03    8.301015e-01   2.997167e-01
  5.526141e-03    9.391146e-01   2.465082e-01
  7.736597e-03    1.330001e+00   2.478255e-01
  9.947054e-03    1.471421e+00   2.297973e-01
  1.215751e-02    1.529022e+00   2.118242e-01
  1.436797e-02    1.250970e+00   1.762379e-01
  1.657842e-02    1.541571e+00   1.821068e-01
  1.878888e-02    1.354889e+00   1.603671e-01
  2.099934e-02    1.467518e+00   1.579042e-01
  2.320979e-02    1.586209e+00   1.561396e-01
  2.542025e-02    1.579425e+00   1.488878e-01
  2.763070e-02    1.600039e+00   1.437327e-01
  2.984116e-02    1.411909e+00   1.299212e-01
  3.205162e-02    1.349932e+00   1.225864e-01
  3.426207e-02    1.466544e+00   1.235727e-01
  3.647253e-02    1.506654e+00   1.213938e-01
  3.868299e-02    1.387730e+00   1.131353e-01
  4.089344e-02    1.355876e+00   1.087654e-01
  4.310390e-02    1.420550e+00   1.084307e-01
  4.531436e-02    1.461775e+00   1.072769e-01
  4.752481e-02    1.548644e+00   1.078189e-01
  4.973527e-02    1.485635e+00   1.032305e-01
  5.194572e-02    1.446006e+00   9.965242e-02
  5.415618e-02    1.398999e+00   9.599474e-02
  5.636664e-02    1.388189e+00   9.373234e-02
  5.857709e-02    1.562783e+00   9.755822e-02
  6.078755e-02    1.433879e+00   9.173046e-02
  6.299801e-02    1.457885e+00   9.085694e-02
  6.520846e-02    1.476660e+00   8.987751e-02
  6.741892e-02    1.528344e+00   8.992086e-02
  6.962938e-02    1.512422e+00   8.802438e-02
  7.183983e-02    1.360502e+00   8.219048e-02
  7.405029e-02    1.462631e+00   8.393607e-02
  7.626074e-02    1.486701e+00   8.338772e-02
  7.847120e-02    1.387779e+00   7.942080e-02
  8.068166e-02    1.393797e+00   7.849428e-02
  8.289211e-02    1.464992e+00   7.939339e-02
  8.510257e-02    1.477588e+00   7.869121e-02
  8.731303e-02    1.456718e+00   7.713516e-02
  8.952348e-02    1.442428e+00   7.580444e-02
  9.173394e-02    1.470244e+00   7.560117e-02
  9.394439e-02    1.453112e+00   7.426751e-02
  9.615485e-02    1.440481e+00   7.308757e-02
  9.836531e-02    1.467210e+00   7.292706e-02
  1.005758e-01    1.386303e+00   7.010492e-02
  1.027862e-01    1.396721e+00   6.960535e-02
  1.049967e-01    1.462541e+00   7.047156e-02
  1.072071e-01    1.605802e+00   7.307634e-02
  1.094176e-01    1.547892e+00   7.101707e-02
  1.116280e-01    1.549583e+00   7.034724e-02
  1.138385e-01    1.505821e+00   6.866890e-02
  1.160490e-01    1.469593e+00   6.718782e-02
  1.182594e-01    1.522024e+00   6.773234e-02
  1.204699e-01    1.556198e+00   6.785676e-02
  1.226803e-01    1.609113e+00   6.837346e-02
  1.248908e-01    1.560469e+00   6.673278e-02
  1.271012e-01    1.546613e+00   6.585428e-02
  1.293117e-01    1.632928e+00   6.708528e-02
  1.315222e-01    1.573276e+00   6.529136e-02
  1.337326e-01    1.522201e+00   6.368859e-02
  1.359431e-01    1.534408e+00   6.398087e-02
  1.381535e-01    1.550074e+00   6.516986e-02
  1.403640e-01    1.520574e+00   6.482544e-02
  1.425744e-01    1.543160e+00   6.540944e-02
  1.447849e-01    1.557131e+00   6.571998e-02
  1.469953e-01    1.544682e+00   6.541577e-02
  1.492058e-01    1.567516e+00   6.582092e-02
  1.514163e-01    1.520240e+00   6.471312e-02
  1.536267e-01    1.584121e+00   6.592975e-02
  1.558372e-01    1.634584e+00   6.682380e-02
  1.580476e-01    1.587941e+00   6.570365e-02
  1.602581e-01    1.626073e+00   6.631901e-02
  1.624685e-01    1.670738e+00   6.703959e-02
  1.646790e-01    1.634883e+00   6.612594e-02
  1.668895e-01    1.665261e+00   6.654470e-02
  1.690999e-01    1.743353e+00   6.788268e-02
  1.713104e-01    1.708355e+00   6.698931e-02
  1.735208e-01    1.736004e+00   6.731923e-02
  1.757313e-01    1.778559e+00   6.792578e-02
  1.779417e-01    1.738687e+00   6.694108e-02
  1.801522e-01    1.712367e+00   6.622086e-02
  1.823626e-01    1.798501e+00   6.764000e-02
  1.845731e-01    1.803899e+00   6.752201e-02
  1.867836e-01    1.868130e+00   6.848169e-02
  1.889940e-01    1.927732e+00   6.933826e-02
  1.912045e-01    1.914416e+00   6.886762e-02
  1.934149e-01    1.910659e+00   6.856973e-02
  1.956254e-01    2.039854e+00   7.061641e-02
  1.978358e-01    1.989842e+00   6.950638e-02
  2.000463e-01    1.916198e+00   6.798200e-02
  2.022568e-01    1.883899e+00   6.718537e-02
  2.044672e-01    1.875397e+00   6.680395e-02
  2.066777e-01    1.912865e+00   6.724405e-02
  2.088881e-01    1.980541e+00   6.819939e-02
  2.110986e-01    1.907514e+00   6.670073e-02
  2.133090e-01    1.950229e+00   6.722415e-02
  2.155195e-01    1.903641e+00   6.619605e-02
  2.177300e-01    1.936884e+00   6.624696e-02
  2.199404e-01    2.009185e+00   6.569421e-02
  2.221509e-01    2.038724e+00   6.508874e-02
  2.243613e-01    2.040937e+00   6.429849e-02
  2.265718e-01    2.027681e+00   6.338292e-02
  2.287822e-01    2.015128e+00   6.256101e-02
  2.309927e-01    1.998154e+00   6.172945e-02
  2.332031e-01    2.149820e+00   6.348129e-02
  2.354136e-01    2.110907e+00   6.239435e-02
  2.376241e-01    2.105500e+00   6.183071e-02
  2.398345e-01    2.162432e+00   6.219732e-02
  2.420450e-01    2.115847e+00   6.108403e-02
  2.442554e-01    2.120800e+00   6.073418e-02
  2.464659e-01    2.093876e+00   5.994225e-02
  2.486763e-01    2.097177e+00   5.959516e-02
  2.508868e-01    2.122968e+00   5.958225e-02
  2.530973e-01    2.093369e+00   5.879862e-02
  2.553077e-01    2.095078e+00   5.846581e-02
  2.575182e-01    2.076924e+00   5.786754e-02
  2.597286e-01    2.028791e+00   5.686060e-02
  2.619391e-01    2.051611e+00   5.685029e-02
  2.641495e-01    2.111249e+00   5.735149e-02
  2.663600e-01    2.014260e+00   5.571061e-02
  2.685704e-01    2.028422e+00   5.560303e-02
  2.707809e-01    2.053235e+00   5.564518e-02
  2.729914e-01    1.989771e+00   5.449296e-02
  2.752018e-01    2.052039e+00   5.505102e-02
  2.774123e-01    2.024737e+00   5.440424e-02
  2.796227e-01    1.956639e+00   5.321698e-02
  2.818332e-01    2.046528e+00   5.415415e-02
  2.840436e-01    1.997556e+00   5.324297e-02
  2.862541e-01    1.932855e+00   5.212181e-02
  2.884646e-01    1.997204e+00   5.273089e-02
  2.906750e-01    1.964026e+00   5.204315e-02
  2.928855e-01    1.940198e+00   5.148679e-02
  2.950959e-01    1.960759e+00   5.152113e-02
  2.973064e-01    1.951606e+00   5.116973e-02
  2.995168e-01    1.943724e+00   5.083501e-02
  3.017273e-01    1.911487e+00   5.018944e-02
  3.039377e-01    1.891139e+00   4.970298e-02
  3.061482e-01    1.895012e+00   4.953862e-02
  3.083587e-01    1.927829e+00   4.974946e-02
  3.105691e-01    1.921962e+00   4.946152e-02
  3.127796e-01    1.934896e+00   4.941905e-02
  3.149900e-01    1.884376e+00   4.856640e-02
  3.172005e-01    1.917075e+00   4.878566e-02
  3.194109e-01    1.854937e+00   4.779040e-02
  3.216214e-01    1.871098e+00   4.780228e-02
  3.238319e-01    1.860457e+00   4.747730e-02
  3.260423e-01    1.888247e+00   4.764008e-02
  3.282528e-01    1.823550e+00   4.663043e-02
  3.304632e-01    1.873457e+00   4.708111e-02
  3.326737e-01    1.860862e+00   4.673952e-02
  3.348841e-01    1.862364e+00   4.657706e-02
  3.370946e-01    1.820915e+00   4.588255e-02
  3.393050e-01    1.838852e+00   4.593330e-02
  3.415155e-01    1.839016e+00   4.576265e-02
  3.437260e-01    1.794717e+00   4.504056e-02
  3.459364e-01    1.817001e+00   4.515166e-02
  3.481469e-01    1.830884e+00   4.515839e-02
  3.503573e-01    1.782695e+00   4.439782e-02
  3.525678e-01    1.842469e+00   4.497514e-02
  3.547782e-01    1.844522e+00   4.483758e-02
  3.569887e-01    1.779336e+00   4.388211e-02
  3.591992e-01    1.788234e+00   4.383606e-02
  3.614096e-01    1.741052e+00   4.310389e-02
  3.636201e-01    1.801131e+00   4.368723e-02
  3.658305e-01    1.815436e+00   4.371076e-02
  3.680410e-01    1.784032e+00   4.318202e-02
  3.702514e-01    1.823936e+00   4.351543e-02
  3.724619e-01    1.807487e+00   4.317128e-02
  3.746724e-01    1.800688e+00   4.294622e-02
  3.768828e-01    1.817316e+00   4.299888e-02
  3.790933e-01    1.782673e+00   4.244830e-02
  3.813037e-01    1.832346e+00   4.289482e-02
  3.835142e-01    1.834377e+00   4.277764e-02
  3.857246e-01    1.799970e+00   4.223741e-02
  3.879351e-01    1.820755e+00   4.234308e-02
  3.901455e-01    1.808128e+00   4.206166e-02
  3.923560e-01    1.803013e+00   4.186863e-02
  3.945665e-01    1.777676e+00   4.144157e-02
  3.967769e-01    1.791718e+00   4.147462e-02
  3.989874e-01    1.803105e+00   4.147631e-02
  4.011978e-01    1.799600e+00   4.130854e-02
  4.034083e-01    1.807114e+00   4.126761e-02
  4.056187e-01    1.799283e+00   4.105126e-02
  4.078292e-01    1.752430e+00   4.039064e-02
  4.100397e-01    1.796132e+00   4.076632e-02
  4.122501e-01    1.796942e+00   4.065352e-02
  4.144606e-01    1.819370e+00   4.078512e-02
  4.166710e-01    1.835585e+00   4.084468e-02
  4.188815e-01    1.781596e+00   4.012065e-02
  4.210919e-01    1.797270e+00   4.017865e-02
  4.233024e-01    1.853145e+00   4.067841e-02
  4.255128e-01    1.822529e+00   4.022439e-02
  4.277233e-01    1.803419e+00   3.989798e-02
  4.299338e-01    1.804141e+00   3.979114e-02
  4.321442e-01    1.777041e+00   3.937815e-02
  4.343547e-01    1.795053e+00   3.946530e-02
  4.365651e-01    1.770742e+00   3.908580e-02
  4.387756e-01    1.719285e+00   3.840585e-02
  4.409860e-01    1.751983e+00   3.866193e-02
  4.431965e-01    1.741153e+00   3.843567e-02
  4.454070e-01    1.727162e+00   3.817444e-02
  4.476174e-01    1.733791e+00   3.814259e-02
  4.498279e-01    1.750464e+00   3.822128e-02
  4.520383e-01    1.740174e+00   3.800420e-02
  4.542488e-01    1.754370e+00   3.805600e-02
  4.564592e-01    1.749929e+00   3.790585e-02
  4.586697e-01    1.695327e+00   3.721076e-02
  4.608801e-01    1.702415e+00   3.718858e-02
  4.630906e-01    1.727573e+00   3.736316e-02
  4.653011e-01    1.718785e+00   3.716999e-02
  4.675115e-01    1.726939e+00   3.715995e-02
  4.697220e-01    1.685639e+00   3.661679e-02
  4.719324e-01    1.753537e+00   3.725038e-02
  4.741429e-01    1.711233e+00   3.670348e-02
  4.763533e-01    1.696079e+00   3.644694e-02
  4.785638e-01    1.665101e+00   3.601925e-02
  4.807743e-01    1.729580e+00   3.661668e-02
  4.829847e-01    1.680553e+00   3.600279e-02
  4.851952e-01    1.737390e+00   3.651391e-02
  4.874056e-01    1.731908e+00   3.636435e-02
  4.896161e-01    1.721209e+00   3.616195e-02
  4.918265e-01    1.678869e+00   3.562572e-02
  4.940370e-01    1.670456e+00   3.544860e-02
  4.962475e-01    1.687176e+00   3.553761e-02
  4.984579e-01    1.668949e+00   3.525800e-02
  5.006684e-01    1.685353e+00   3.534447e-02
  5.028788e-01    1.707021e+00   3.548475e-02
  5.050893e-01    1.688334e+00   3.520416e-02
  5.072997e-01    1.687824e+00   3.511384e-02
  5.095102e-01    1.679622e+00   3.494452e-02
  5.117206e-01    1.688556e+00   3.495402e-02
  5.139311e-01    1.654419e+00   3.451701e-02
  5.161416e-01    1.642050e+00   3.430645e-02
  5.183520e-01    1.677234e+00   3.458965e-02
  5.205625e-01    1.674770e+00   3.448327e-02
  5.227729e-01    1.687973e+00   3.453819e-02
  5.249834e-01    1.642632e+00   3.399207e-02
  5.271938e-01    1.641528e+00   3.390135e-02
  5.294043e-01    1.681392e+00   3.423134e-02
  5.316148e-01    1.700069e+00   3.434209e-02
  5.338252e-01    1.767205e+00   3.493360e-02
  5.360357e-01    1.723649e+00   3.442188e-02
  5.382461e-01    1.772473e+00   3.482708e-02
  5.404566e-01    1.755735e+00   3.458336e-02
  5.426670e-01    1.755139e+00   3.449959e-02
  5.448775e-01    1.732962e+00   3.420435e-02
  5.470879e-01    1.720050e+00   3.400069e-02
  5.492984e-01    1.702343e+00   3.375001e-02
  5.515089e-01    1.772588e+00   3.436291e-02
  5.537193e-01    1.724025e+00   3.381429e-02
  5.559298e-01    1.772282e+00   3.420904e-02
  5.581402e-01    1.806299e+00   3.446034e-02
  5.603507e-01    1.751894e+00   3.386356e-02
  5.625611e-01    1.769747e+00   3.396179e-02
  5.647716e-01    1.758752e+00   3.378263e-02
  5.669821e-01    1.749183e+00   3.361794e-02
  5.691925e-01    1.779720e+00   3.383737e-02
  5.714030e-01    1.722514e+00   3.321812e-02
  5.736134e-01    1.710217e+00   3.302894e-02
  5.758239e-01    1.643768e+00   3.231182e-02
  5.780343e-01    1.657397e+00   3.237684e-02
  5.802448e-01    1.665383e+00   3.238681e-02
  5.824552e-01    1.634019e+00   3.201310e-02
  5.846657e-01    1.582652e+00   3.144020e-02
  5.868762e-01    1.614014e+00   3.168409e-02
  5.890866e-01    1.637742e+00   3.184993e-02
  5.912971e-01    1.630037e+00   3.170911e-02
  5.935075e-01    1.683789e+00   3.216110e-02
  5.957180e-01    1.668708e+00   3.195108e-02
  5.979284e-01    1.624251e+00   3.145823e-02
  6.001389e-01    1.668000e+00   3.181414e-02
  6.023494e-01    1.682058e+00   3.188308e-02
  6.045598e-01    1.678748e+00   3.178684e-02
  6.067703e-01    1.623446e+00   3.119604e-02
  6.089807e-01    1.610137e+00   3.100542e-02
  6.111912e-01    1.662070e+00   3.143857e-02
  6.134016e-01    1.691054e+00   3.164827e-02
  6.156121e-01    1.659920e+00   3.129327e-02
  6.178226e-01    1.635818e+00   3.100373e-02
  6.200330e-01    1.664742e+00   3.121493e-02
  6.222435e-01    1.662892e+00   3.113577e-02
  6.244539e-01    1.650986e+00   3.096338e-02
  6.266644e-01    1.671365e+00   3.109309e-02
  6.288748e-01    1.751960e+00   3.177199e-02
  6.310853e-01    1.736547e+00   3.157052e-02
  6.332957e-01    1.716465e+00   3.132685e-02
  6.355062e-01    1.699829e+00   3.111410e-02
  6.377167e-01    1.752899e+00   3.153543e-02
  6.399271e-01    1.705039e+00   3.104237e-02
  6.421376e-01    1.673661e+00   3.069668e-02
  6.443480e-01    1.695851e+00   3.084072e-02
  6.465585e-01    1.675567e+00   3.059767e-02
  6.487689e-01    1.669997e+00   3.048908e-02
  6.509794e-01    1.686916e+00   3.058534e-02
  6.531899e-01    1.655046e+00   3.023809e-02
  6.554003e-01    1.616404e+00   2.982680e-02
  6.576108e-01    1.573629e+00   2.937472e-02
  6.598212e-01    1.588660e+00   2.945983e-02
  6.620317e-01    1.586358e+00   2.938391e-02
  6.642421e-01    1.597166e+00   2.942930e-02
  6.664526e-01    1.594787e+00   2.935319e-02
  6.686630e-01    1.597260e+00   2.932163e-02
  6.708735e-01    1.573946e+00   2.905347e-02
  6.730840e-01    1.586369e+00   2.911469e-02
  6.752944e-01    1.576506e+00   2.897129e-02
  6.775049e-01    1.537387e+00   2.855762e-02
  6.797153e-01    1.580893e+00   2.890643e-02
  6.819258e-01    1.618922e+00   2.919930e-02
  6.841362e-01    1.571042e+00   2.871255e-02
  6.863467e-01    1.585604e+00   2.879363e-02
  6.885572e-01    1.598894e+00   2.886224e-02
  6.907676e-01    1.593642e+00   2.876317e-02
  6.929781e-01    1.593102e+00   2.870718e-02
  6.951885e-01    1.608885e+00   2.879793e-02
  6.973990e-01    1.591317e+00   2.858965e-02
  6.996094e-01    1.567282e+00   2.832300e-02
  7.018199e-01    1.600745e+00   2.857351e-02
  7.040303e-01    1.608045e+00   2.858831e-02
  7.062408e-01    1.550579e+00   2.802367e-02
  7.084513e-01    1.554308e+00   2.800852e-02
  7.106617e-01    1.582798e+00   2.821494e-02
  7.128722e-01    1.604224e+00   2.835611e-02
  7.150826e-01    1.619742e+00   2.844383e-02
  7.172931e-01    1.617750e+00   2.837733e-02
  7.195035e-01    1.589300e+00   2.807836e-02
  7.217140e-01    1.569017e+00   2.794796e-02
  7.239245e-01    1.550603e+00   2.800848e-02
  7.261349e-01    1.582254e+00   2.840176e-02
  7.283454e-01    1.577471e+00   2.843128e-02
  7.305558e-01    1.549801e+00   2.823439e-02
  7.327663e-01    1.547940e+00   2.825955e-02
  7.349767e-01    1.567848e+00   2.845704e-02
  7.371872e-01    1.542504e+00   2.821505e-02
  7.393976e-01    1.527267e+00   2.806128e-02
  7.416081e-01    1.555805e+00   2.830617e-02
  7.438186e-01    1.566359e+00   2.825809e-02
  7.460290e-01    1.561248e+00   2.791894e-02
  7.482395e-01    1.588806e+00   2.799234e-02
  7.504499e-01    1.586268e+00   2.783321e-02
  7.526604e-01    1.560907e+00   2.749376e-02
  7.548708e-01    1.586078e+00   2.762482e-02
  7.570813e-01    1.583207e+00   2.754869e-02
  7.592918e-01    1.568678e+00   2.738690e-02
  7.615022e-01    1.563143e+00   2.730486e-02
  7.637127e-01    1.569250e+00   2.732540e-02
  7.659231e-01    1.583138e+00   2.741398e-02
  7.681336e-01    1.544422e+00   2.704541e-02
  7.703440e-01    1.563754e+00   2.718301e-02
  7.725545e-01    1.589291e+00   2.737304e-02
  7.747650e-01    1.595004e+00   2.738378e-02
  7.769754e-01    1.539461e+00   2.685065e-02
  7.791859e-01    1.558138e+00   2.695984e-02
  7.813963e-01    1.571895e+00   2.702612e-02
  7.836068e-01    1.574829e+00   2.699949e-02
  7.858172e-01    1.588604e+00   2.706663e-02
  7.880277e-01    1.573108e+00   2.688304e-02
  7.902381e-01    1.617567e+00   2.721076e-02
  7.924486e-01    1.617472e+00   2.715956e-02
  7.946591e-01    1.644722e+00   2.733841e-02
  7.968695e-01    1.624012e+00   2.711718e-02
  7.990800e-01    1.603773e+00   2.689949e-02
  8.012904e-01    1.611620e+00   2.691858e-02
  8.035009e-01    1.641876e+00   2.712173e-02
  8.057113e-01    1.657812e+00   2.720591e-02
  8.079218e-01    1.749268e+00   2.789802e-02
  8.101323e-01    1.760605e+00   2.794079e-02
  8.123427e-01    1.674870e+00   2.720554e-02
  8.145532e-01    1.638958e+00   2.686623e-02
  8.167636e-01    1.678483e+00   2.714252e-02
  8.189741e-01    1.696654e+00   2.724358e-02
  8.211845e-01    1.651064e+00   2.683001e-02
  8.233950e-01    1.632458e+00   2.663502e-02
  8.256054e-01    1.640863e+00   2.665923e-02
  8.278159e-01    1.661819e+00   2.678465e-02
  8.300264e-01    1.665925e+00   2.677427e-02
  8.322368e-01    1.642659e+00   2.654348e-02
  8.344473e-01    1.621697e+00   2.633042e-02
  8.366577e-01    1.635472e+00   2.639948e-02
  8.388682e-01    1.643876e+00   2.642491e-02
  8.410786e-01    1.649094e+00   2.642464e-02
  8.432891e-01    1.630978e+00   2.623734e-02
  8.454996e-01    1.665805e+00   2.647403e-02
  8.477100e-01    1.619426e+00   2.606147e-02
  8.499205e-01    1.620051e+00   2.602556e-02
  8.521309e-01    1.590960e+00   2.575062e-02
  8.543414e-01    1.620808e+00   2.595047e-02
  8.565518e-01    1.608996e+00   2.581553e-02
  8.587623e-01    1.601418e+00   2.571453e-02
  8.609727e-01    1.621111e+00   2.583206e-02
  8.631832e-01    1.624931e+00   2.582259e-02
  8.653937e-01    1.606505e+00   2.563632e-02
  8.676041e-01    1.599631e+00   2.554281e-02
  8.698146e-01    1.575297e+00   2.530904e-02
  8.720250e-01    1.563408e+00   2.517492e-02
  8.742355e-01    1.577952e+00   2.525324e-02
  8.764459e-01    1.573939e+00   2.518265e-02
  8.786564e-01    1.575191e+00   2.515509e-02
  8.808669e-01    1.591580e+00   2.524729e-02
  8.830773e-01    1.571252e+00   2.504776e-02
  8.852878e-01    1.596835e+00   2.521301e-02
  8.874982e-01    1.556343e+00   2.485515e-02
  8.897087e-01    1.551221e+00   2.477714e-02
  8.919191e-01    1.563986e+00   2.484154e-02
  8.941296e-01    1.614590e+00   2.520278e-02
  8.963401e-01    1.566989e+00   2.479245e-02
  8.985505e-01    1.549863e+00   2.462021e-02
  9.007610e-01    1.582031e+00   2.483785e-02
  9.029714e-01    1.607494e+00   2.500103e-02
  9.051819e-01    1.607086e+00   2.496056e-02
  9.073923e-01    1.584669e+00   2.474946e-02
  9.096028e-01    1.562859e+00   2.454406e-02
  9.118132e-01    1.559334e+00   2.448058e-02
  9.140237e-01    1.588765e+00   2.467404e-02
  9.162342e-01    1.601763e+00   2.474021e-02
  9.184446e-01    1.579747e+00   2.453404e-02
  9.206551e-01    1.588545e+00   2.456681e-02
  9.228655e-01    1.609172e+00   2.469044e-02
  9.250760e-01    1.601659e+00   2.459739e-02
  9.272864e-01    1.601379e+00   2.456100e-02
  9.294969e-01    1.653465e+00   2.492085e-02
  9.317074e-01    1.621614e+00   2.464479e-02
  9.339178e-01    1.626213e+00   2.464600e-02
  9.361283e-01    1.631520e+00   2.464980e-02
  9.383387e-01    1.636294e+00   2.465225e-02
  9.405492e-01    1.638365e+00   2.463341e-02
  9.427596e-01    1.635506e+00   2.457647e-02
  9.449701e-01    1.660251e+00   2.472805e-02
  9.471805e-01    1.624195e+00   2.442342e-02
  9.493910e-01    1.637543e+00   2.448989e-02
  9.516015e-01    1.722868e+00   2.508476e-02
  9.538119e-01    1.699173e+00   2.487754e-02
  9.560224e-01    1.715338e+00   2.496040e-02
  9.582328e-01    1.765895e+00   2.529159e-02
  9.604433e-01    1.759157e+00   2.520756e-02
  9.626537e-01    1.773534e+00   2.527631e-02
  9.648642e-01    1.814844e+00   2.553398e-02
  9.670747e-01    1.814314e+00   2.549504e-02
  9.692851e-01    1.836005e+00   2.561291e-02
  9.714956e-01    1.790447e+00   2.525748e-02
  9.737060e-01    1.777862e+00   2.513547e-02
  9.759165e-01    1.812384e+00   2.534256e-02
  9.781269e-01    1.808914e+00   2.528519e-02
  9.803374e-01    1.791209e+00   2.512632e-02
  9.825478e-01    1.796960e+00   2.513343e-02
  9.847583e-01    1.795576e+00   2.508963e-02
  9.869688e-01    1.749155e+00   2.473005e-02
  9.891792e-01    1.756519e+00   2.474911e-02
  9.913897e-01    1.731696e+00   2.454046e-02
  9.936001e-01    1.708979e+00   2.434704e-02
  9.958106e-01    1.707325e+00   2.430219e-02
  9.980210e-01    1.654836e+00   2.389465e-02
  1.000231e+00    1.633153e+00   2.386762e-02
  1.002442e+00    1.645986e+00   2.408853e-02
  1.004652e+00    1.608732e+00   2.388080e-02
  1.006863e+00    1.595860e+00   2.383442e-02
  1.009073e+00    1.569586e+00   2.367359e-02
  1.011284e+00    1.555634e+00   2.359963e-02
  1.013494e+00    1.562029e+00   2.367156e-02
  1.015705e+00    1.514010e+00   2.332689e-02
  1.017915e+00    1.529657e+00   2.346327e-02
  1.020126e+00    1.541860e+00   2.357259e-02
  1.022336e+00    1.548035e+00   2.363139e-02
  1.024547e+00    1.528996e+00   2.349677e-02
  1.026757e+00    1.511638e+00   2.337129e-02
  1.028967e+00    1.504120e+00   2.332067e-02
  1.031178e+00    1.469959e+00   2.306036e-02
  1.033388e+00    1.507383e+00   2.335706e-02
  1.035599e+00    1.510133e+00   2.338178e-02
  1.037809e+00    1.497150e+00   2.328428e-02
  1.040020e+00    1.479946e+00   2.315136e-02
  1.042230e+00    1.485655e+00   2.319789e-02
  1.044441e+00    1.468252e+00   2.306142e-02
  1.046651e+00    1.432956e+00   2.278269e-02
  1.048862e+00    1.461240e+00   2.300564e-02
  1.051072e+00    1.497126e+00   2.328408e-02
  1.053282e+00    1.479357e+00   2.314455e-02
  1.055493e+00    1.465965e+00   2.303530e-02
  1.057703e+00    1.456840e+00   2.296199e-02
  1.059914e+00    1.472561e+00   2.308132e-02
  1.062124e+00    1.479570e+00   2.313213e-02
  1.064335e+00    1.470592e+00   2.305843e-02
  1.066545e+00    1.440687e+00   2.281687e-02
  1.068756e+00    1.421808e+00   2.266320e-02
  1.070966e+00    1.427722e+00   2.270387e-02
  1.073177e+00    1.445737e+00   2.284066e-02
  1.075387e+00    1.434615e+00   2.274747e-02
  1.077597e+00    1.447614e+00   2.284309e-02
  1.079808e+00    1.438198e+00   2.263713e-02
  1.082018e+00    1.424342e+00   2.234125e-02
  1.084229e+00    1.414178e+00   2.215311e-02
  1.086439e+00    1.394874e+00   2.191578e-02
  1.088650e+00    1.415945e+00   2.200602e-02
  1.090860e+00    1.417622e+00   2.195229e-02
  1.093071e+00    1.434328e+00   2.201943e-02
  1.095281e+00    1.420836e+00   2.185887e-02
  1.097492e+00    1.413772e+00   2.175015e-02
  1.099702e+00    1.423704e+00   2.177532e-02
  1.101912e+00    1.403396e+00   2.157123e-02
  1.104123e+00    1.414672e+00   2.160985e-02
  1.106333e+00    1.390261e+00   2.137885e-02
  1.108544e+00    1.379735e+00   2.125427e-02
  1.110754e+00    1.412990e+00   2.146607e-02
  1.112965e+00    1.409109e+00   2.139622e-02
  1.115175e+00    1.405978e+00   2.133147e-02
  1.117386e+00    1.415680e+00   2.136567e-02
  1.119596e+00    1.393173e+00   2.115754e-02
  1.121807e+00    1.388447e+00   2.108306e-02
  1.124017e+00    1.508570e+00   2.193821e-02
  1.126228e+00    1.593302e+00   2.250781e-02
  1.128438e+00    1.651980e+00   2.287866e-02
  1.130648e+00    1.619105e+00   2.261291e-02
  1.132859e+00    1.831512e+00   2.401109e-02
  1.135069e+00    1.781725e+00   2.364336e-02
  1.137280e+00    1.541026e+00   2.195364e-02
  1.139490e+00    1.469395e+00   2.140324e-02
  1.141701e+00    1.546981e+00   2.192602e-02
  1.143911e+00    1.485946e+00   2.145617e-02
  1.146122e+00    1.412596e+00   2.088749e-02
  1.148332e+00    1.400002e+00   2.076207e-02
  1.150543e+00    1.387398e+00   2.063743e-02
  1.152753e+00    1.393374e+00   2.065081e-02
  1.154963e+00    1.382229e+00   2.053690e-02
  1.157174e+00    1.387409e+00   2.054504e-02
  1.159384e+00    1.402469e+00   2.062605e-02
  1.161595e+00    1.398128e+00   2.056398e-02
  1.163805e+00    1.394036e+00   2.050432e-02
  1.166016e+00    1.422134e+00   2.067991e-02
  1.168226e+00    1.489242e+00   2.113198e-02
  1.170437e+00    1.512715e+00   2.126775e-02
  1.172647e+00    1.596279e+00   2.181602e-02
  1.174858e+00    1.634419e+00   2.204441e-02
  1.177068e+00    1.574804e+00   2.160827e-02
  1.179278e+00    1.461504e+00   2.078687e-02
  1.181489e+00    1.408719e+00   2.038051e-02
  1.183699e+00    1.398894e+00   2.028133e-02
  1.185910e+00    1.404954e+00   2.029697e-02
  1.188120e+00    1.385671e+00   2.013024e-02
  1.190331e+00    1.384679e+00   2.009597e-02
  1.192541e+00    1.379411e+00   2.003008e-02
  1.194752e+00    1.368658e+00   1.992466e-02
  1.196962e+00    1.351914e+00   1.977664e-02
  1.199173e+00    1.341309e+00   1.967253e-02
  1.201383e+00    1.330495e+00   1.956608e-02
  1.203593e+00    1.339486e+00   1.960735e-02
  1.205804e+00    1.374901e+00   1.983871e-02
  1.208014e+00    1.361244e+00   1.971299e-02
  1.210225e+00    1.361067e+00   1.968627e-02
  1.212435e+00    1.349676e+00   1.957894e-02
  1.214646e+00    1.338148e+00   1.946916e-02
  1.216856e+00    1.312173e+00   1.925413e-02
  1.219067e+00    1.348460e+00   1.949410e-02
  1.221277e+00    1.346417e+00   1.945435e-02
  1.223488e+00    1.313592e+00   1.919034e-02
  1.225698e+00    1.327413e+00   1.926433e-02
  1.227909e+00    1.345320e+00   1.936374e-02
  1.230119e+00    1.323322e+00   1.917324e-02
  1.232329e+00    1.327805e+00   1.917523e-02
  1.234540e+00    1.325353e+00   1.912748e-02
  1.236750e+00    1.344138e+00   1.923238e-02
  1.238961e+00    1.331052e+00   1.911174e-02
  1.241171e+00    1.340138e+00   1.915277e-02
  1.243382e+00    1.324021e+00   1.901397e-02
  1.245592e+00    1.314052e+00   1.891847e-02
  1.247803e+00    1.314900e+00   1.890123e-02
  1.250013e+00    1.330402e+00   1.898895e-02
  1.252224e+00    1.332563e+00   1.898127e-02
  1.254434e+00    1.332612e+00   1.895803e-02
  1.256644e+00    1.339176e+00   1.898154e-02
  1.258855e+00    1.317595e+00   1.880501e-02
  1.261065e+00    1.321257e+00   1.880798e-02
  1.263276e+00    1.331219e+00   1.885598e-02
  1.265486e+00    1.348021e+00   1.895174e-02
  1.267697e+00    1.319741e+00   1.872914e-02
  1.269907e+00    1.319283e+00   1.870345e-02
  1.272118e+00    1.308213e+00   1.860259e-02
  1.274328e+00    1.323737e+00   1.869012e-02
  1.276539e+00    1.326914e+00   1.868995e-02
  1.278749e+00    1.357953e+00   1.888493e-02
  1.280959e+00    1.330105e+00   1.866794e-02
  1.283170e+00    1.332184e+00   1.866022e-02
  1.285380e+00    1.341650e+00   1.870402e-02
  1.287591e+00    1.335322e+00   1.863796e-02
  1.289801e+00    1.345899e+00   1.869041e-02
  1.292012e+00    1.343670e+00   1.865790e-02
  1.294222e+00    1.312201e+00   1.842209e-02
  1.296433e+00    1.332779e+00   1.855049e-02
  1.298643e+00    1.342135e+00   1.859905e-02
  1.300854e+00    1.337519e+00   1.855072e-02
  1.303064e+00    1.322836e+00   1.842957e-02
  1.305274e+00    1.325663e+00   1.842801e-02
  1.307485e+00    1.362675e+00   1.866183e-02
  1.309695e+00    1.363614e+00   1.864593e-02
  1.311906e+00    1.338197e+00   1.844973e-02
  1.314116e+00    1.342141e+00   1.845614e-02
  1.316327e+00    1.360730e+00   1.856175e-02
  1.318537e+00    1.347643e+00   1.845040e-02
  1.320748e+00    1.365337e+00   1.854947e-02
  1.322958e+00    1.333765e+00   1.831335e-02
  1.325169e+00    1.361228e+00   1.847980e-02
  1.327379e+00    1.347242e+00   1.836286e-02
  1.329589e+00    1.361963e+00   1.844174e-02
  1.331800e+00    1.379737e+00   1.854076e-02
  1.334010e+00    1.388269e+00   1.857705e-02
  1.336221e+00    1.380952e+00   1.850605e-02
  1.338431e+00    1.363523e+00   1.836791e-02
  1.340642e+00    1.354462e+00   1.837105e-02
  1.342852e+00    1.350572e+00   1.844535e-02
  1.345063e+00    1.364064e+00   1.858698e-02
  1.347273e+00    1.376077e+00   1.870424e-02
  1.349484e+00    1.343193e+00   1.850702e-02
  1.351694e+00    1.312025e+00   1.831342e-02
  1.353905e+00    1.314858e+00   1.835094e-02
  1.356115e+00    1.334643e+00   1.850343e-02
  1.358325e+00    1.349218e+00   1.861752e-02
  1.360536e+00    1.369351e+00   1.876760e-02
  1.362746e+00    1.363929e+00   1.874004e-02
  1.364957e+00    1.342674e+00   1.860111e-02
  1.367167e+00    1.331807e+00   1.853277e-02
  1.369378e+00    1.325997e+00   1.849826e-02
  1.371588e+00    1.321869e+00   1.847457e-02
  1.373799e+00    1.333133e+00   1.855675e-02
  1.376009e+00    1.312117e+00   1.841329e-02
  1.378220e+00    1.310381e+00   1.840359e-02
  1.380430e+00    1.307693e+00   1.838740e-02
  1.382640e+00    1.310413e+00   1.840739e-02
  1.384851e+00    1.304346e+00   1.836563e-02
  1.387061e+00    1.278144e+00   1.818050e-02
  1.389272e+00    1.271271e+00   1.813177e-02
  1.391482e+00    1.280800e+00   1.819891e-02
  1.393693e+00    1.295873e+00   1.830481e-02
  1.395903e+00    1.300223e+00   1.833401e-02
  1.398114e+00    1.302667e+00   1.834984e-02
  1.400324e+00    1.273437e+00   1.814069e-02
  1.402535e+00    1.267073e+00   1.809299e-02
  1.404745e+00    1.240044e+00   1.789664e-02
  1.406955e+00    1.256447e+00   1.801193e-02
  1.409166e+00    1.260430e+00   1.803717e-02
  1.411376e+00    1.260741e+00   1.803629e-02
  1.413587e+00    1.265455e+00   1.806616e-02
  1.415797e+00    1.295703e+00   1.827724e-02
  1.418008e+00    1.259323e+00   1.797714e-02
  1.420218e+00    1.279559e+00   1.797070e-02
  1.422429e+00    1.281173e+00   1.789634e-02
  1.424639e+00    1.261105e+00   1.769118e-02
  1.426850e+00    1.247455e+00   1.754094e-02
  1.429060e+00    1.258582e+00   1.757024e-02
  1.431270e+00    1.274330e+00   1.763543e-02
  1.433481e+00    1.265040e+00   1.753017e-02
  1.435691e+00    1.281606e+00   1.760596e-02
  1.437902e+00    1.292502e+00   1.764387e-02
  1.440112e+00    1.269819e+00   1.745301e-02
  1.442323e+00    1.289500e+00   1.755445e-02
  1.444533e+00    1.282493e+00   1.747399e-02
  1.446744e+00    1.268883e+00   1.734991e-02
  1.448954e+00    1.274543e+00   1.735830e-02
  1.451165e+00    1.262301e+00   1.724510e-02
  1.453375e+00    1.259957e+00   1.720110e-02
  1.455586e+00    1.278317e+00   1.729775e-02
  1.457796e+00    1.263990e+00   1.717309e-02
  1.460006e+00    1.300516e+00   1.739186e-02
  1.462217e+00    1.262180e+00   1.710750e-02
  1.464427e+00    1.229298e+00   1.685796e-02
  1.466638e+00    1.270251e+00   1.711113e-02
  1.468848e+00    1.292361e+00   1.723384e-02
  1.471059e+00    1.280877e+00   1.713192e-02
  1.473269e+00    1.281732e+00   1.711312e-02
  1.475480e+00    1.284789e+00   1.710961e-02
  1.477690e+00    1.266986e+00   1.696683e-02
  1.479901e+00    1.269426e+00   1.695931e-02
  1.482111e+00    1.264494e+00   1.690301e-02
  1.484321e+00    1.305570e+00   1.715191e-02
  1.486532e+00    1.275973e+00   1.693398e-02
  1.488742e+00    1.278325e+00   1.692679e-02
  1.490953e+00    1.278416e+00   1.690468e-02
  1.493163e+00    1.271655e+00   1.683755e-02
  1.495374e+00    1.261564e+00   1.674915e-02
  1.497584e+00    1.254546e+00   1.668088e-02
  1.499795e+00    1.248871e+00   1.662159e-02
  1.502005e+00    1.245002e+00   1.657425e-02
  1.504216e+00    1.244927e+00   1.655283e-02
  1.506426e+00    1.249909e+00   1.656518e-02
  1.508636e+00    1.231833e+00   1.642473e-02
  1.510847e+00    1.244689e+00   1.648849e-02
  1.513057e+00    1.241041e+00   1.643937e-02
  1.515268e+00    1.234792e+00   1.637242e-02
  1.517478e+00    1.249592e+00   1.644514e-02
  1.519689e+00    1.242869e+00   1.637599e-02
  1.521899e+00    1.236529e+00   1.631122e-02
  1.524110e+00    1.252062e+00   1.639303e-02
  1.526320e+00    1.243336e+00   1.631629e-02
  1.528531e+00    1.252472e+00   1.635633e-02
  1.530741e+00    1.239843e+00   1.625462e-02
  1.532951e+00    1.247746e+00   1.628675e-02
  1.535162e+00    1.227880e+00   1.624244e-02
  1.537372e+00    1.219972e+00   1.625616e-02
  1.539583e+00    1.234256e+00   1.638508e-02
  1.541793e+00    1.242575e+00   1.644715e-02
  1.544004e+00    1.215773e+00   1.626907e-02
  1.546214e+00    1.223160e+00   1.631691e-02
  1.548425e+00    1.242496e+00   1.644564e-02
  1.550635e+00    1.232465e+00   1.638875e-02
  1.552846e+00    1.243052e+00   1.646865e-02
  1.555056e+00    1.220621e+00   1.627831e-02
  1.557266e+00    1.215172e+00   1.613277e-02
  1.559477e+00    1.227706e+00   1.615706e-02
  1.561687e+00    1.228449e+00   1.613146e-02
  1.563898e+00    1.212018e+00   1.600630e-02
  1.566108e+00    1.222829e+00   1.606170e-02
  1.568319e+00    1.211909e+00   1.597441e-02
  1.570529e+00    1.232518e+00   1.608463e-02
  1.572740e+00    1.240847e+00   1.611133e-02
  1.574950e+00    1.237916e+00   1.606604e-02
  1.577161e+00    1.239482e+00   1.605078e-02
  1.579371e+00    1.239537e+00   1.602751e-02
  1.581582e+00    1.238329e+00   1.599999e-02
  1.583792e+00    1.217096e+00   1.584441e-02
  1.586002e+00    1.201682e+00   1.572643e-02
  1.588213e+00    1.229753e+00   1.589190e-02
  1.590423e+00    1.237478e+00   1.592175e-02
  1.592634e+00    1.205643e+00   1.569431e-02
  1.594844e+00    1.224847e+00   1.579757e-02
  1.597055e+00    1.216911e+00   1.572604e-02
  1.599265e+00    1.214581e+00   1.569046e-02
  1.601476e+00    1.211206e+00   1.564860e-02
  1.603686e+00    1.207780e+00   1.560694e-02
  1.605897e+00    1.230647e+00   1.573391e-02
  1.608107e+00    1.207857e+00   1.556821e-02
  1.610317e+00    1.214046e+00   1.558891e-02
  1.612528e+00    1.212082e+00   1.555732e-02
  1.614738e+00    1.206786e+00   1.550452e-02
  1.616949e+00    1.192908e+00   1.539641e-02
  1.619159e+00    1.181121e+00   1.530175e-02
  1.621370e+00    1.189834e+00   1.533984e-02
  1.623580e+00    1.190523e+00   1.532614e-02
  1.625791e+00    1.164479e+00   1.513966e-02
  1.628001e+00    1.141516e+00   1.497183e-02
  1.630212e+00    1.142641e+00   1.496183e-02
  1.632422e+00    1.153610e+00   1.501584e-02
  1.634632e+00    1.137004e+00   1.489039e-02
  1.636843e+00    1.156844e+00   1.500235e-02
  1.639053e+00    1.123081e+00   1.476492e-02
  1.641264e+00    1.124307e+00   1.475620e-02
  1.643474e+00    1.160238e+00   1.497275e-02
  1.645685e+00    1.131381e+00   1.476894e-02
  1.647895e+00    1.102634e+00   1.456387e-02
  1.650106e+00    1.098924e+00   1.452274e-02
  1.652316e+00    1.113122e+00   1.460002e-02
  1.654527e+00    1.108940e+00   1.455616e-02
  1.656737e+00    1.089849e+00   1.441409e-02
  1.658947e+00    1.099436e+00   1.446131e-02
  1.661158e+00    1.093045e+00   1.440320e-02
  1.663368e+00    1.094585e+00   1.439752e-02
  1.665579e+00    1.069540e+00   1.421606e-02
  1.667789e+00    1.076396e+00   1.424562e-02
  1.670000e+00    1.074023e+00   1.421467e-02
  1.672210e+00    1.080191e+00   1.423978e-02
  1.674421e+00    1.050408e+00   1.402715e-02
  1.676631e+00    1.067509e+00   1.412524e-02
  1.678842e+00    1.056010e+00   1.403350e-02
  1.681052e+00    1.047683e+00   1.396300e-02
  1.683263e+00    1.058912e+00   1.402271e-02
  1.685473e+00    1.061903e+00   1.402753e-02
  1.687683e+00    1.036607e+00   1.384435e-02
  1.689894e+00    1.042276e+00   1.386665e-02
  1.692104e+00    1.034204e+00   1.379824e-02
  1.694315e+00    1.046915e+00   1.386842e-02
  1.696525e+00    1.045985e+00   1.384731e-02
  1.698736e+00    1.038463e+00   1.378277e-02
  1.700946e+00    1.026270e+00   1.368674e-02
  1.703157e+00    1.025506e+00   1.366722e-02
  1.705367e+00    1.009539e+00   1.354622e-02
  1.707578e+00    1.020756e+00   1.360686e-02
  1.709788e+00    1.039768e+00   1.371895e-02
  1.711998e+00    1.016123e+00   1.354724e-02
  1.714209e+00    1.015929e+00   1.353165e-02
  1.716419e+00    1.011579e+00   1.348855e-02
  1.718630e+00    1.017875e+00   1.351629e-02
  1.720840e+00    1.018970e+00   1.350944e-02
  1.723051e+00    1.024567e+00   1.353262e-02
  1.725261e+00    1.008051e+00   1.340853e-02
  1.727472e+00    9.998444e-01   1.333979e-02
  1.729682e+00    1.008256e+00   1.338237e-02
  1.731893e+00    1.015425e+00   1.341593e-02
  1.734103e+00    1.010864e+00   1.337197e-02
  1.736313e+00    1.004631e+00   1.331668e-02
  1.738524e+00    1.005191e+00   1.330651e-02
  1.740734e+00    1.006536e+00   1.330171e-02
  1.742945e+00    9.934736e-01   1.320164e-02
  1.745155e+00    1.007715e+00   1.328239e-02
  1.747366e+00    1.020015e+00   1.334918e-02
  1.749576e+00    9.881105e-01   1.312508e-02
  1.751787e+00    9.870425e-01   1.310459e-02
  1.753997e+00    9.781149e-01   1.303184e-02
  1.756208e+00    9.608979e-01   1.290352e-02
  1.758418e+00    9.555779e-01   1.285473e-02
  1.760628e+00    9.749754e-01   1.297117e-02
  1.762839e+00    9.626672e-01   1.287583e-02
  1.765049e+00    9.499807e-01   1.277768e-02
  1.767260e+00    9.555182e-01   1.280208e-02
  1.769470e+00    9.639890e-01   1.284565e-02
  1.771681e+00    9.784171e-01   1.292811e-02
  1.773891e+00    9.915460e-01   1.300123e-02
  1.776102e+00    9.582404e-01   1.276808e-02
  1.778312e+00    9.358146e-01   1.260511e-02
  1.780523e+00    9.138821e-01   1.244398e-02
  1.782733e+00    9.229596e-01   1.249304e-02
  1.784944e+00    9.399104e-01   1.259432e-02
  1.787154e+00    9.283076e-01   1.250386e-02
  1.789364e+00    9.100733e-01   1.236809e-02
  1.791575e+00    9.085211e-01   1.234513e-02
  1.793785e+00    9.190063e-01   1.240377e-02
  1.795996e+00    9.206418e-01   1.240231e-02
  1.798206e+00    9.119342e-01   1.233103e-02
  1.800417e+00    9.068257e-01   1.228385e-02
  1.802627e+00    8.869479e-01   1.213670e-02
  1.804838e+00    9.004262e-01   1.221654e-02
  1.807048e+00    8.938221e-01   1.215892e-02
  1.809259e+00    8.893737e-01   1.211517e-02
  1.811469e+00    8.814141e-01   1.204606e-02
  1.813679e+00    8.766245e-01   1.199852e-02
  1.815890e+00    8.760721e-01   1.198018e-02
  1.818100e+00    8.753717e-01   1.196046e-02
  1.820311e+00    8.738966e-01   1.193576e-02
  1.822521e+00    8.881479e-01   1.201787e-02
  1.824732e+00    8.850176e-01   1.198191e-02
  1.826942e+00    8.732921e-01   1.189003e-02
  1.829153e+00    8.832116e-01   1.194569e-02
  1.831363e+00    8.727483e-01   1.186275e-02
  1.833574e+00    8.813242e-01   1.190922e-02
  1.835784e+00    8.678487e-01   1.180648e-02
  1.837994e+00    8.679777e-01   1.179569e-02
  1.840205e+00    8.676034e-01   1.178204e-02
  1.842415e+00    8.270584e-01   1.149200e-02
  1.844626e+00    8.257792e-01   1.147182e-02
  1.846836e+00    8.294539e-01   1.148615e-02
  1.849047e+00    8.407655e-01   1.155277e-02
  1.851257e+00    8.391200e-01   1.153203e-02
  1.853468e+00    8.223884e-01   1.140788e-02
  1.855678e+00    8.396397e-01   1.151813e-02
  1.857889e+00    8.467829e-01   1.155859e-02
  1.860099e+00    8.621740e-01   1.165451e-02
  1.862309e+00    8.437050e-01   1.152055e-02
  1.864520e+00    8.591397e-01   1.161687e-02
  1.866730e+00    8.410379e-01   1.148453e-02
  1.868941e+00    8.484235e-01   1.152393e-02
  1.871151e+00    8.194273e-01   1.131412e-02
  1.873362e+00    8.151191e-01   1.127322e-02
  1.875572e+00    8.267122e-01   1.134232e-02
  1.877783e+00    8.269733e-01   1.133281e-02
  1.879993e+00    8.388265e-01   1.140265e-02
  1.882204e+00    8.296218e-01   1.132912e-02
  1.884414e+00    8.447071e-01   1.142056e-02
  1.886624e+00    8.375449e-01   1.136104e-02
  1.888835e+00    8.154516e-01   1.119938e-02
  1.891045e+00    8.236760e-01   1.124493e-02
  1.893256e+00    8.261009e-01   1.125047e-02
  1.895466e+00    8.259550e-01   1.123839e-02
  1.897677e+00    7.972956e-01   1.103101e-02
  1.899887e+00    8.207315e-01   1.118107e-02
  1.902098e+00    8.307291e-01   1.123812e-02
  1.904308e+00    8.443983e-01   1.131952e-02
  1.906519e+00    8.860456e-01   1.158412e-02
  1.908729e+00    8.490594e-01   1.132907e-02
  1.910940e+00    8.181521e-01   1.110987e-02
  1.913150e+00    8.184132e-01   1.110111e-02
  1.915360e+00    8.153821e-01   1.106995e-02
  1.917571e+00    8.141459e-01   1.105076e-02
  1.919781e+00    8.233693e-01   1.110246e-02
  1.921992e+00    8.083180e-01   1.099000e-02
  1.924202e+00    7.995831e-01   1.091980e-02
  1.926413e+00    7.966514e-01   1.088959e-02
  1.928623e+00    7.756962e-01   1.073513e-02
  1.930834e+00    7.928334e-01   1.084276e-02
  1.933044e+00    7.879310e-01   1.079868e-02
  1.935255e+00    7.856396e-01   1.077278e-02
  1.937465e+00    7.871704e-01   1.077303e-02
  1.939675e+00    7.770715e-01   1.069304e-02
  1.941886e+00    7.936311e-01   1.079617e-02
  1.944096e+00    7.944037e-01   1.079129e-02
  1.946307e+00    7.891821e-01   1.074552e-02
  1.948517e+00    7.834279e-01   1.069594e-02
  1.950728e+00    7.743562e-01   1.062373e-02
  1.952938e+00    7.897908e-01   1.071906e-02
  1.955149e+00    7.858664e-01   1.068222e-02
  1.957359e+00    7.857369e-01   1.067137e-02
  1.959570e+00    7.974123e-01   1.073946e-02
  1.961780e+00    7.736002e-01   1.056813e-02
  1.963990e+00    7.753054e-01   1.056973e-02
  1.966201e+00    7.894399e-01   1.065560e-02
  1.968411e+00    7.779311e-01   1.056758e-02
  1.970622e+00    7.769638e-01   1.055096e-02
  1.972832e+00    8.073939e-01   1.074551e-02
  1.975043e+00    8.040903e-01   1.071335e-02
  1.977253e+00    7.889595e-01   1.060210e-02
  1.979464e+00    7.871326e-01   1.057975e-02
  1.981674e+00    7.801615e-01   1.052257e-02
  1.983885e+00    7.415081e-01   1.024883e-02
  1.986095e+00    7.527119e-01   1.031640e-02
  1.988305e+00    7.660395e-01   1.039756e-02
  1.990516e+00    7.576401e-01   1.033059e-02
  1.992726e+00    7.678906e-01   1.039062e-02
  1.994937e+00    7.839230e-01   1.048839e-02
  1.997147e+00    7.691959e-01   1.037970e-02
  1.999358e+00    7.664864e-01   1.035162e-02
  2.001568e+00    7.641438e-01   1.032503e-02
  2.003779e+00    7.671168e-01   1.033321e-02
  2.005989e+00    7.704402e-01   1.034358e-02
  2.008200e+00    7.639593e-01   1.028849e-02
  2.010410e+00    7.668239e-01   1.029604e-02
  2.012621e+00    7.667200e-01   1.028364e-02
  2.014831e+00    7.623847e-01   1.024310e-02
  2.017041e+00    7.581969e-01   1.020460e-02
  2.019252e+00    7.665719e-01   1.025085e-02
  2.021462e+00    7.590556e-01   1.019099e-02
  2.023673e+00    7.498668e-01   1.011982e-02
  2.025883e+00    7.492716e-01   1.010638e-02
  2.028094e+00    7.442067e-01   1.006263e-02
  2.030304e+00    7.580952e-01   1.014657e-02
  2.032515e+00    7.644199e-01   1.017950e-02
  2.034725e+00    7.576621e-01   1.012496e-02
  2.036936e+00    7.510173e-01   1.007119e-02
  2.039146e+00    7.418609e-01   1.000012e-02
  2.041356e+00    7.410086e-01   9.984835e-03
  2.043567e+00    7.431052e-01   9.989716e-03
  2.045777e+00    7.465386e-01   1.000358e-02
  2.047988e+00    7.292688e-01   9.877973e-03
  2.050198e+00    7.361779e-01   9.916337e-03
  2.052409e+00    7.385517e-01   9.924721e-03
  2.054619e+00    7.334625e-01   9.883184e-03
  2.056830e+00    7.376675e-01   9.904374e-03
  2.059040e+00    7.421717e-01   9.927073e-03
  2.061251e+00    7.499821e-01   9.971944e-03
  2.063461e+00    7.528959e-01   9.983672e-03
  2.065671e+00    7.586449e-01   1.001295e-02
  2.067882e+00    7.416201e-01   9.890993e-03
  2.070092e+00    7.457262e-01   9.909160e-03
  2.072303e+00    7.312926e-01   9.803739e-03
  2.074513e+00    7.350286e-01   9.819503e-03
  2.076724e+00    7.300702e-01   9.776947e-03
  2.078934e+00    7.170867e-01   9.680790e-03
  2.081145e+00    7.104099e-01   9.626722e-03
  2.083355e+00    7.216720e-01   9.693679e-03
  2.085566e+00    7.357072e-01   9.778602e-03
  2.087776e+00    7.397756e-01   9.796119e-03
  2.089986e+00    7.236050e-01   9.679750e-03
  2.092197e+00    7.343035e-01   9.742110e-03
  2.094407e+00    7.191758e-01   9.632124e-03
  2.096618e+00    7.112297e-01   9.570006e-03
  2.098828e+00    7.148940e-01   9.585436e-03
  2.101039e+00    7.243145e-01   9.639460e-03
  2.103249e+00    7.315168e-01   9.678596e-03
  2.105460e+00    7.385194e-01   9.715762e-03
  2.107670e+00    7.050672e-01   9.484557e-03
  2.109881e+00    7.363076e-01   9.683181e-03
  2.112091e+00    7.148137e-01   9.531903e-03
  2.114301e+00    7.247737e-01   9.589278e-03
  2.116512e+00    7.080553e-01   9.469347e-03
  2.118722e+00    6.993541e-01   9.402287e-03
  2.120933e+00    7.191533e-01   9.525597e-03
  2.123143e+00    7.015174e-01   9.399280e-03
  2.125354e+00    6.993119e-01   9.376076e-03
  2.127564e+00    6.852605e-01   9.272851e-03
  2.129775e+00    7.015697e-01   9.373914e-03
  2.131985e+00    7.055295e-01   9.391314e-03
  2.134196e+00    7.051939e-01   9.380559e-03
  2.136406e+00    7.002475e-01   9.338934e-03
  2.138617e+00    6.862774e-01   9.236989e-03
  2.140827e+00    6.981285e-01   9.332344e-03
  2.143037e+00    6.902728e-01   9.324621e-03
  2.145248e+00    6.915002e-01   9.354681e-03
  2.147458e+00    6.911168e-01   9.367088e-03
  2.149669e+00    6.872433e-01   9.352523e-03
  2.151879e+00    6.884848e-01   9.370086e-03
  2.154090e+00    6.914768e-01   9.397707e-03
  2.156300e+00    6.741868e-01   9.285943e-03
  2.158511e+00    6.761261e-01   9.304491e-03
  2.160721e+00    6.893357e-01   9.399730e-03
  2.162932e+00    6.849946e-01   9.373814e-03
  2.165142e+00    6.698130e-01   9.272294e-03
  2.167352e+00    6.944525e-01   9.444200e-03
  2.169563e+00    7.104103e-01   9.554084e-03
  2.171773e+00    6.805583e-01   9.353634e-03
  2.173984e+00    6.839657e-01   9.378393e-03
  2.176194e+00    6.940758e-01   9.448661e-03
  2.178405e+00    6.838858e-01   9.379755e-03
  2.180615e+00    6.843341e-01   9.383481e-03
  2.182826e+00    6.736965e-01   9.310962e-03
  2.185036e+00    6.804668e-01   9.357663e-03
  2.187247e+00    6.615859e-01   9.226898e-03
  2.189457e+00    6.528715e-01   9.165511e-03
  2.191667e+00    6.774317e-01   9.336138e-03
  2.193878e+00    6.883531e-01   9.410532e-03
  2.196088e+00    6.794513e-01   9.348820e-03
  2.198299e+00    6.743969e-01   9.312887e-03
  2.200509e+00    6.665592e-01   9.257578e-03
  2.202720e+00    6.672502e-01   9.261234e-03
  2.204930e+00    6.790991e-01   9.341848e-03
  2.207141e+00    6.763566e-01   9.321870e-03
  2.209351e+00    6.681244e-01   9.263097e-03
  2.211562e+00    6.975515e-01   9.463233e-03
  2.213772e+00    6.837063e-01   9.313121e-03
  2.215982e+00    6.609873e-01   9.113343e-03
  2.218193e+00    6.593210e-01   9.072576e-03
  2.220403e+00    6.585394e-01   9.042916e-03
  2.222614e+00    6.500906e-01   8.964133e-03
  2.224824e+00    6.697544e-01   9.079353e-03
  2.227035e+00    6.670125e-01   9.043412e-03
  2.229245e+00    6.572886e-01   8.960458e-03
  2.231456e+00    6.542832e-01   8.924513e-03
  2.233666e+00    6.633521e-01   8.971164e-03
  2.235877e+00    6.487254e-01   8.857663e-03
  2.238087e+00    6.477547e-01   8.837790e-03
  2.240298e+00    6.527144e-01   8.857946e-03
  2.242508e+00    6.421571e-01   8.771212e-03
  2.244718e+00    6.525722e-01   8.826418e-03
  2.246929e+00    6.681037e-01   8.916426e-03
  2.249139e+00    6.517480e-01   8.794389e-03
  2.251350e+00    6.426700e-01   8.721424e-03
  2.253560e+00    6.464884e-01   8.735898e-03
  2.255771e+00    6.625342e-01   8.832266e-03
  2.257981e+00    6.779640e-01   8.923232e-03
  2.260192e+00    6.749445e-01   8.892162e-03
  2.262402e+00    6.690080e-01   8.842069e-03
  2.264613e+00    6.544410e-01   8.734515e-03
  2.266823e+00    6.668295e-01   8.806361e-03
  2.269033e+00    7.141942e-01   9.102967e-03
  2.271244e+00    7.469224e-01   9.298183e-03
  2.273454e+00    7.208579e-01   9.123847e-03
  2.275665e+00    6.762737e-01   8.826754e-03
  2.277875e+00    6.751947e-01   8.809678e-03
  2.280086e+00    6.550665e-01   8.667374e-03
  2.282296e+00    6.496760e-01   8.622281e-03
  2.284507e+00    6.590386e-01   8.674067e-03
  2.286717e+00    6.398724e-01   8.537669e-03
  2.288928e+00    6.511804e-01   8.602945e-03
  2.291138e+00    6.518903e-01   8.598264e-03
  2.293348e+00    6.504096e-01   8.578970e-03
  2.295559e+00    6.611317e-01   8.640058e-03
  2.297769e+00    6.470820e-01   8.538567e-03
  2.299980e+00    6.367063e-01   8.460608e-03
  2.302190e+00    6.510285e-01   8.546127e-03
  2.304401e+00    6.545182e-01   8.559672e-03
  2.306611e+00    6.545303e-01   8.550519e-03
  2.308822e+00    6.553676e-01   8.547605e-03
  2.311032e+00    6.284565e-01   8.363915e-03
  2.313243e+00    6.413882e-01   8.443275e-03
  2.315453e+00    6.572767e-01   8.539621e-03
  2.317663e+00    6.367989e-01   8.396488e-03
  2.319874e+00    6.424157e-01   8.424729e-03
  2.322084e+00    6.329491e-01   8.353552e-03
  2.324295e+00    6.528104e-01   8.475326e-03
  2.326505e+00    6.494226e-01   8.444228e-03
  2.328716e+00    6.235947e-01   8.266204e-03
  2.330926e+00    6.194286e-01   8.229881e-03
  2.333137e+00    6.492681e-01   8.417370e-03
  2.335347e+00    6.143777e-01   8.179408e-03
  2.337558e+00    6.359102e-01   8.313285e-03
  2.339768e+00    6.334368e-01   8.288590e-03
  2.341979e+00    6.234894e-01   8.214978e-03
  2.344189e+00    6.257145e-01   8.221315e-03
  2.346399e+00    6.287512e-01   8.232784e-03
  2.348610e+00    6.312250e-01   8.240551e-03
  2.350820e+00    6.200536e-01   8.159207e-03
  2.353031e+00    6.325384e-01   8.232664e-03
  2.355241e+00    6.138160e-01   8.102006e-03
  2.357452e+00    6.078890e-01   8.054512e-03
  2.359662e+00    6.189998e-01   8.119653e-03
  2.361873e+00    6.181358e-01   8.105839e-03
  2.364083e+00    6.147653e-01   8.075803e-03
  2.366294e+00    6.060631e-01   8.010487e-03
  2.368504e+00    6.186224e-01   8.085025e-03
  2.370714e+00    6.167081e-01   8.064508e-03
  2.372925e+00    6.158186e-01   8.050709e-03
  2.375135e+00    6.149687e-01   8.037145e-03
  2.377346e+00    6.149390e-01   8.029070e-03
  2.379556e+00    6.173720e-01   8.037076e-03
  2.381767e+00    6.075267e-01   7.964948e-03
  2.383977e+00    6.125668e-01   7.990053e-03
  2.386188e+00    5.993876e-01   7.895834e-03
  2.388398e+00    6.073361e-01   7.940141e-03
  2.390609e+00    6.051935e-01   7.918463e-03
  2.392819e+00    6.020522e-01   7.890210e-03
  2.395029e+00    6.018532e-01   7.881340e-03
  2.397240e+00    5.857840e-01   7.767713e-03
  2.399450e+00    5.990191e-01   7.847266e-03
  2.401661e+00    6.068671e-01   7.890845e-03
  2.403871e+00    6.245158e-01   7.996941e-03
  2.406082e+00    5.826197e-01   7.716777e-03
  2.408292e+00    6.040841e-01   7.849865e-03
  2.410503e+00    5.997074e-01   7.813946e-03
  2.412713e+00    6.065825e-01   7.850820e-03
  2.414924e+00    6.076197e-01   7.850028e-03
  2.417134e+00    5.976351e-01   7.777690e-03
  2.419344e+00    5.883932e-01   7.709994e-03
  2.421555e+00    6.021501e-01   7.792084e-03
  2.423765e+00    5.991171e-01   7.765055e-03
  2.425976e+00    5.940890e-01   7.724612e-03
  2.428186e+00    5.964314e-01   7.732636e-03
  2.430397e+00    6.051958e-01   7.781713e-03
  2.432607e+00    5.927491e-01   7.694024e-03
  2.434818e+00    5.798911e-01   7.602660e-03
  2.437028e+00    6.023228e-01   7.741113e-03
  2.439239e+00    5.961532e-01   7.693695e-03
  2.441449e+00    5.912818e-01   7.655012e-03
  2.443659e+00    5.914230e-01   7.648569e-03
  2.445870e+00    5.900373e-01   7.651853e-03
  2.448080e+00    5.792017e-01   7.615972e-03
  2.450291e+00    5.741956e-01   7.599531e-03
  2.452501e+00    5.757288e-01   7.620844e-03
  2.454712e+00    5.556059e-01   7.494777e-03
  2.456922e+00    5.589585e-01   7.523888e-03
  2.459133e+00    5.587412e-01   7.527836e-03
  2.461343e+00    5.433053e-01   7.427374e-03
  2.463554e+00    5.548069e-01   7.509015e-03
  2.465764e+00    5.522519e-01   7.494821e-03
  2.467975e+00    5.502194e-01   7.483274e-03
  2.470185e+00    5.509333e-01   7.490372e-03
  2.472395e+00    5.453447e-01   7.453485e-03
  2.474606e+00    5.665584e-01   7.598659e-03
  2.476816e+00    5.458155e-01   7.459008e-03
  2.479027e+00    5.370309e-01   7.399554e-03
  2.481237e+00    5.448833e-01   7.453745e-03
  2.483448e+00    5.280408e-01   7.337946e-03
  2.485658e+00    5.413100e-01   7.429407e-03
  2.487869e+00    5.333539e-01   7.374671e-03
  2.490079e+00    5.390874e-01   7.413656e-03
  2.492290e+00    5.388150e-01   7.411364e-03
  2.494500e+00    5.537546e-01   7.512665e-03
  2.496710e+00    5.579051e-01   7.540060e-03
  2.498921e+00    5.423967e-01   7.433527e-03
  2.501131e+00    5.321931e-01   7.362331e-03
  2.503342e+00    5.269164e-01   7.324480e-03
  2.505552e+00    5.221735e-01   7.290317e-03
  2.507763e+00    5.222505e-01   7.289445e-03
  2.509973e+00    5.201951e-01   7.273716e-03
  2.512184e+00    5.152523e-01   7.237477e-03
  2.514394e+00    5.184650e-01   7.250709e-03
  2.516605e+00    5.270374e-01   7.263324e-03
  2.518815e+00    5.178425e-01   7.171585e-03
  2.521025e+00    5.198599e-01   7.164689e-03
  2.523236e+00    5.221721e-01   7.162685e-03
  2.525446e+00    5.119391e-01   7.076741e-03
  2.527657e+00    5.139517e-01   7.076206e-03
  2.529867e+00    5.115389e-01   7.045572e-03
  2.532078e+00    5.195897e-01   7.085830e-03
  2.534288e+00    5.241847e-01   7.103226e-03
  2.536499e+00    5.230893e-01   7.083878e-03
  2.538709e+00    5.110407e-01   6.990967e-03
  2.540920e+00    5.154818e-01   7.010716e-03
  2.543130e+00    5.175117e-01   7.014219e-03
  2.545340e+00    4.959536e-01   6.856772e-03
  2.547551e+00    5.096663e-01   6.941082e-03
  2.549761e+00    5.150158e-01   6.967915e-03
  2.551972e+00    5.234261e-01   7.015198e-03
  2.554182e+00    5.186138e-01   6.973751e-03
  2.556393e+00    5.139142e-01   6.933012e-03
  2.558603e+00    5.169469e-01   6.944430e-03
  2.560814e+00    5.120910e-01   6.903080e-03
  2.563024e+00    5.087030e-01   6.871723e-03
  2.565235e+00    5.280802e-01   6.991767e-03
  2.567445e+00    5.351269e-01   7.028576e-03
  2.569656e+00    5.327066e-01   7.002787e-03
  2.571866e+00    5.247533e-01   6.940892e-03
  2.574076e+00    5.300867e-01   6.966682e-03
  2.576287e+00    5.451701e-01   7.056537e-03
  2.578497e+00    5.504958e-01   7.082844e-03
  2.580708e+00    5.303944e-01   6.944119e-03
  2.582918e+00    5.356550e-01   6.970543e-03
  2.585129e+00    5.406566e-01   6.995075e-03
  2.587339e+00    5.238639e-01   6.877836e-03
  2.589550e+00    5.097618e-01   6.777104e-03
  2.591760e+00    5.067238e-01   6.749173e-03
  2.593971e+00    5.095383e-01   6.760384e-03
  2.596181e+00    4.936478e-01   6.648024e-03
  2.598391e+00    5.089561e-01   6.745117e-03
  2.600602e+00    5.167333e-01   6.790518e-03
  2.602812e+00    5.072418e-01   6.720344e-03
  2.605023e+00    5.019851e-01   6.678316e-03
  2.607233e+00    4.911807e-01   6.599029e-03
  2.609444e+00    5.092377e-01   6.711976e-03
  2.611654e+00    5.161160e-01   6.749780e-03
  2.613865e+00    5.080357e-01   6.689689e-03
  2.616075e+00    5.087930e-01   6.687504e-03
  2.618286e+00    5.080056e-01   6.675330e-03
  2.620496e+00    5.043547e-01   6.644590e-03
  2.622706e+00    4.987829e-01   6.602091e-03
  2.624917e+00    5.091403e-01   6.664398e-03
  2.627127e+00    5.023440e-01   6.614055e-03
  2.629338e+00    4.918614e-01   6.538762e-03
  2.631548e+00    5.025700e-01   6.603394e-03
  2.633759e+00    5.001821e-01   6.580564e-03
  2.635969e+00    4.949471e-01   6.539390e-03
  2.638180e+00    4.903876e-01   6.502287e-03
  2.640390e+00    5.066472e-01   6.602570e-03
  2.642601e+00    5.048856e-01   6.584393e-03
  2.644811e+00    4.939254e-01   6.505513e-03
  2.647021e+00    4.849778e-01   6.439842e-03
  2.649232e+00    4.910711e-01   6.473511e-03
  2.651442e+00    4.903215e-01   6.462127e-03
  2.653653e+00    4.859481e-01   6.426529e-03
  2.655863e+00    4.880169e-01   6.433598e-03
  2.658074e+00    4.787882e-01   6.365989e-03
  2.660284e+00    4.764022e-01   6.343876e-03
  2.662495e+00    4.914674e-01   6.436682e-03
  2.664705e+00    4.879007e-01   6.406792e-03
  2.666916e+00    4.984988e-01   6.469510e-03
  2.669126e+00    4.972433e-01   6.454914e-03
  2.671337e+00    4.858640e-01   6.374092e-03
  2.673547e+00    4.972955e-01   6.442245e-03
  2.675757e+00    4.832841e-01   6.344494e-03
  2.677968e+00    4.839921e-01   6.342653e-03
  2.680178e+00    4.915362e-01   6.385524e-03
  2.682389e+00    4.865510e-01   6.346711e-03
  2.684599e+00    4.902340e-01   6.364494e-03
  2.686810e+00    4.909440e-01   6.362530e-03
  2.689020e+00    4.835074e-01   6.307910e-03
  2.691231e+00    4.808631e-01   6.284408e-03
  2.693441e+00    4.917310e-01   6.348877e-03
  2.695652e+00    4.971668e-01   6.377310e-03
  2.697862e+00    4.970438e-01   6.370135e-03
  2.700072e+00    4.878176e-01   6.304672e-03
  2.702283e+00    4.874011e-01   6.295768e-03
  2.704493e+00    4.926839e-01   6.323482e-03
  2.706704e+00    4.850458e-01   6.267903e-03
  2.708914e+00    4.792632e-01   6.224501e-03
  2.711125e+00    4.791926e-01   6.217867e-03
  2.713335e+00    4.791752e-01   6.211711e-03
  2.715546e+00    4.772756e-01   6.192992e-03
  2.717756e+00    4.619091e-01   6.086733e-03
  2.719967e+00    4.855623e-01   6.234422e-03
  2.722177e+00    4.859750e-01   6.230953e-03
  2.724387e+00    4.812825e-01   6.194718e-03
  2.726598e+00    4.796979e-01   6.178493e-03
  2.728808e+00    4.802752e-01   6.176082e-03
  2.731019e+00    4.879354e-01   6.218995e-03
  2.733229e+00    4.759778e-01   6.136578e-03
  2.735440e+00    4.669309e-01   6.071820e-03
  2.737650e+00    4.666368e-01   6.063984e-03
  2.739861e+00    4.769778e-01   6.124774e-03
  2.742071e+00    4.863248e-01   6.178738e-03
  2.744282e+00    4.814831e-01   6.141681e-03
  2.746492e+00    4.759032e-01   6.099985e-03
  2.748702e+00    4.676921e-01   6.041321e-03
  2.750913e+00    4.619479e-01   5.998420e-03
  2.753123e+00    4.730372e-01   6.063930e-03
  2.755334e+00    4.729993e-01   6.057665e-03
  2.757544e+00    4.648730e-01   5.999762e-03
  2.759755e+00    4.854063e-01   6.124899e-03
  2.761965e+00    4.918365e-01   6.159304e-03
  2.764176e+00    4.733017e-01   6.036193e-03
  2.766386e+00    4.704949e-01   6.012516e-03
  2.768597e+00    4.768986e-01   6.047462e-03
  2.770807e+00    4.763224e-01   6.037937e-03
  2.773017e+00    4.804376e-01   6.057996e-03
  2.775228e+00    4.749420e-01   6.017477e-03
  2.777438e+00    4.783072e-01   6.032966e-03
  2.779649e+00    4.716852e-01   5.985200e-03
  2.781859e+00    4.670822e-01   5.950214e-03
  2.784070e+00    4.759399e-01   6.000517e-03
  2.786280e+00    4.788536e-01   6.013094e-03
  2.788491e+00    4.743260e-01   5.978771e-03
  2.790701e+00    4.742410e-01   5.972604e-03
  2.792912e+00    4.675419e-01   5.924358e-03
  2.795122e+00    4.739198e-01   5.958918e-03
  2.797333e+00    4.633729e-01   5.886741e-03
  2.799543e+00    4.721841e-01   5.936608e-03
  2.801753e+00    4.732621e-01   5.937528e-03
  2.803964e+00    4.757862e-01   5.947684e-03
  2.806174e+00    4.785703e-01   5.958893e-03
  2.808385e+00    4.816853e-01   5.971415e-03
  2.810595e+00    4.591350e-01   5.823200e-03
  2.812806e+00    4.754485e-01   5.919135e-03
  2.815016e+00    4.764692e-01   5.920727e-03
  2.817227e+00    4.802821e-01   5.970474e-03
  2.819437e+00    4.796660e-01   5.977796e-03
  2.821648e+00    4.632605e-01   5.876942e-03
  2.823858e+00    4.685766e-01   5.915877e-03
  2.826068e+00    4.761716e-01   5.968616e-03
  2.828279e+00    4.660862e-01   5.909105e-03
  2.830489e+00    4.584654e-01   5.863854e-03
  2.832700e+00    4.663585e-01   5.916689e-03
  2.834910e+00    4.655580e-01   5.913632e-03
  2.837121e+00    4.685343e-01   5.934220e-03
  2.839331e+00    4.637895e-01   5.905335e-03
  2.841542e+00    4.544286e-01   5.846414e-03
  2.843752e+00    4.630042e-01   5.902102e-03
  2.845963e+00    4.503690e-01   5.821400e-03
  2.848173e+00    4.627808e-01   5.901148e-03
  2.850383e+00    4.641225e-01   5.910011e-03
  2.852594e+00    4.576014e-01   5.868251e-03
  2.854804e+00    4.596404e-01   5.880815e-03
  2.857015e+00    4.578951e-01   5.869208e-03
  2.859225e+00    4.670430e-01   5.927288e-03
  2.861436e+00    4.744206e-01   5.973278e-03
  2.863646e+00    4.533531e-01   5.839176e-03
  2.865857e+00    4.465448e-01   5.795504e-03
  2.868067e+00    4.571717e-01   5.864255e-03
  2.870278e+00    4.681433e-01   5.933873e-03
  2.872488e+00    4.671144e-01   5.926182e-03
  2.874698e+00    4.595969e-01   5.877250e-03
  2.876909e+00    4.627604e-01   5.896134e-03
  2.879119e+00    4.611929e-01   5.884501e-03
  2.881330e+00    4.504591e-01   5.814188e-03
  2.883540e+00    4.563480e-01   5.850674e-03
  2.885751e+00    4.629335e-01   5.891103e-03
  2.887961e+00    4.579348e-01   5.857329e-03
  2.890172e+00    4.561563e-01   5.844348e-03
  2.892382e+00    4.601619e-01   5.868139e-03
  2.894593e+00    4.753563e-01   5.962409e-03
  2.896803e+00    4.515855e-01   5.809465e-03
  2.899014e+00    4.637927e-01   5.885514e-03
  2.901224e+00    4.569370e-01   5.839892e-03
  2.903434e+00    4.548801e-01   5.824797e-03
  2.905645e+00    4.559862e-01   5.829646e-03
  2.907855e+00    4.500603e-01   5.789574e-03
  2.910066e+00    4.507315e-01   5.791827e-03
  2.912276e+00    4.513420e-01   5.793646e-03
  2.914487e+00    4.465639e-01   5.760478e-03
  2.916697e+00    4.404315e-01   5.718597e-03
  2.918908e+00    4.532452e-01   5.799196e-03
  2.921118e+00    4.670321e-01   5.884011e-03
  2.923329e+00    4.662423e-01   5.876720e-03
  2.925539e+00    4.507488e-01   5.775977e-03
  2.927749e+00    4.542393e-01   5.795984e-03
  2.929960e+00    4.529882e-01   5.785241e-03
  2.932170e+00    4.475149e-01   5.747891e-03
  2.934381e+00    4.391923e-01   5.691775e-03
  2.936591e+00    4.520226e-01   5.771751e-03
  2.938802e+00    4.512945e-01   5.764427e-03
  2.941012e+00    4.357385e-01   5.661911e-03
  2.943223e+00    4.484955e-01   5.741514e-03
  2.945433e+00    4.466584e-01   5.726046e-03
  2.947644e+00    4.473265e-01   5.726231e-03
  2.949854e+00    4.526407e-01   5.755890e-03
  2.952064e+00    4.515811e-01   5.744943e-03
  2.954275e+00    4.472122e-01   5.712716e-03
  2.956485e+00    4.518312e-01   5.737952e-03
  2.958696e+00    4.584255e-01   5.775306e-03
  2.960906e+00    4.511395e-01   5.725047e-03
  2.963117e+00    4.530954e-01   5.732965e-03
  2.965327e+00    4.503995e-01   5.712020e-03
  2.967538e+00    4.517566e-01   5.717691e-03
  2.969748e+00    4.498460e-01   5.702804e-03
  2.971959e+00    4.508820e-01   5.706225e-03
  2.974169e+00    4.498330e-01   5.697028e-03
  2.976379e+00    4.687122e-01   5.812365e-03
  2.978590e+00    4.533310e-01   5.713095e-03
  2.980800e+00    4.409446e-01   5.631739e-03
  2.983011e+00    4.489859e-01   5.680072e-03
  2.985221e+00    4.456658e-01   5.655901e-03
  2.987432e+00    4.451175e-01   5.649357e-03
  2.989642e+00    4.395634e-01   5.611401e-03
  2.991853e+00    4.466490e-01   5.653194e-03
  2.994063e+00    4.587646e-01   5.726432e-03
  2.996274e+00    4.466474e-01   5.647161e-03
  2.998484e+00    4.446766e-01   5.632006e-03
  3.000694e+00    4.484111e-01   5.652168e-03
  3.002905e+00    4.554874e-01   5.693645e-03
  3.005115e+00    4.495175e-01   5.653247e-03
  3.007326e+00    4.584307e-01   5.705838e-03
  3.009536e+00    4.688271e-01   5.766882e-03
  3.011747e+00    4.529471e-01   5.665462e-03
  3.013957e+00    4.333254e-01   5.538263e-03
  3.016168e+00    4.495532e-01   5.637773e-03
  3.018378e+00    4.485969e-01   5.628747e-03
  3.020589e+00    4.485499e-01   5.625246e-03
  3.022799e+00    4.502147e-01   5.632530e-03
  3.025010e+00    4.595439e-01   5.687321e-03
  3.027220e+00    4.573673e-01   5.670710e-03
  3.029430e+00    4.624473e-01   5.698841e-03
  3.031641e+00    4.597271e-01   5.678873e-03
  3.033851e+00    4.818272e-01   5.810141e-03
  3.036062e+00    4.601186e-01   5.674976e-03
  3.038272e+00    4.436900e-01   5.569164e-03
  3.040483e+00    4.430490e-01   5.561950e-03
  3.042693e+00    4.417471e-01   5.550544e-03
  3.044904e+00    4.367232e-01   5.514937e-03
  3.047114e+00    4.463302e-01   5.570482e-03
  3.049325e+00    4.435320e-01   5.548627e-03
  3.051535e+00    4.432654e-01   5.542619e-03
  3.053745e+00    4.504293e-01   5.582456e-03
  3.055956e+00    4.526741e-01   5.591779e-03
  3.058166e+00    4.522947e-01   5.585165e-03
  3.060377e+00    4.578320e-01   5.614445e-03
  3.062587e+00    4.449207e-01   5.530101e-03
  3.064798e+00    4.347047e-01   5.462068e-03
  3.067008e+00    4.434114e-01   5.511791e-03
  3.069219e+00    4.436685e-01   5.508909e-03
  3.071429e+00    4.494987e-01   5.541481e-03
  3.073640e+00    4.501610e-01   5.542222e-03
  3.075850e+00    4.526998e-01   5.554234e-03
  3.078060e+00    4.482288e-01   5.523641e-03
  3.080271e+00    4.454137e-01   5.502805e-03
  3.082481e+00    4.501783e-01   5.528700e-03
  3.084692e+00    4.392939e-01   5.458125e-03
  3.086902e+00    4.370649e-01   5.441045e-03
  3.089113e+00    4.420245e-01   5.468280e-03
  3.091323e+00    4.462796e-01   5.491178e-03
  3.093534e+00    4.366027e-01   5.427990e-03
  3.095744e+00    4.421139e-01   5.458766e-03
  3.097955e+00    4.451590e-01   5.474020e-03
  3.100165e+00    4.357233e-01   5.412393e-03
  3.102375e+00    4.332041e-01   5.393363e-03
  3.104586e+00    4.403755e-01   5.434335e-03
  3.106796e+00    4.278899e-01   5.353332e-03
  3.109007e+00    4.371913e-01   5.407985e-03
  3.111217e+00    4.500065e-01   5.482973e-03
  3.113428e+00    4.414841e-01   5.427419e-03
  3.115638e+00    4.397152e-01   5.413321e-03
  3.117849e+00    4.428442e-01   5.428817e-03
  3.120059e+00    4.474054e-01   5.453244e-03
  3.122270e+00    4.461877e-01   5.442551e-03
  3.124480e+00    4.505393e-01   5.465323e-03
  3.126691e+00    4.501851e-01   5.459585e-03
  3.128901e+00    4.378580e-01   5.381231e-03
  3.131111e+00    4.454720e-01   5.423957e-03
  3.133322e+00    4.364285e-01   5.365206e-03
  3.135532e+00    4.570019e-01   5.486759e-03
  3.137743e+00    4.529529e-01   5.458894e-03
  3.139953e+00    4.348201e-01   5.344863e-03
  3.142164e+00    4.388495e-01   5.381520e-03
  3.144374e+00    4.488138e-01   5.470885e-03
  3.146585e+00    4.417165e-01   5.442013e-03
  3.148795e+00    4.340598e-01   5.405323e-03
  3.151006e+00    4.339591e-01   5.413150e-03
  3.153216e+00    4.400213e-01   5.457950e-03
  3.155426e+00    4.448030e-01   5.493875e-03
  3.157637e+00    4.337295e-01   5.430544e-03
  3.159847e+00    4.289310e-01   5.405208e-03
  3.162058e+00    4.375173e-01   5.463484e-03
  3.164268e+00    4.259955e-01   5.395042e-03
  3.166479e+00    4.367314e-01   5.466239e-03
  3.168689e+00    4.506864e-01   5.556295e-03
  3.170900e+00    4.458344e-01   5.529523e-03
  3.173110e+00    4.366902e-01   5.475379e-03
  3.175321e+00    4.325204e-01   5.451651e-03
  3.177531e+00    4.244696e-01   5.403365e-03
  3.179741e+00    4.431352e-01   5.522972e-03
  3.181952e+00    4.256026e-01   5.414720e-03
  3.184162e+00    4.161029e-01   5.356049e-03
  3.186373e+00    4.335443e-01   5.468765e-03
  3.188583e+00    4.259006e-01   5.422103e-03
  3.190794e+00    4.262414e-01   5.425991e-03
  3.193004e+00    4.417608e-01   5.525158e-03
  3.195215e+00    4.236692e-01   5.412318e-03
  3.197425e+00    4.227371e-01   5.407549e-03
  3.199636e+00    4.238285e-01   5.413758e-03
  3.201846e+00    4.404523e-01   5.518302e-03
  3.204056e+00    4.280534e-01   5.440970e-03
  3.206267e+00    4.242110e-01   5.417332e-03
  3.208477e+00    4.130873e-01   5.346722e-03
  3.210688e+00    4.294348e-01   5.452341e-03
  3.212898e+00    4.240051e-01   5.418331e-03
  3.215109e+00    4.312458e-01   5.465156e-03
  3.217319e+00    4.229522e-01   5.412970e-03
  3.219530e+00    4.332992e-01   5.479165e-03
  3.221740e+00    4.374315e-01   5.505820e-03
  3.223951e+00    4.298660e-01   5.458455e-03
  3.226161e+00    4.279211e-01   5.446288e-03
  3.228372e+00    4.354313e-01   5.494392e-03
  3.230582e+00    4.293887e-01   5.456296e-03
  3.232792e+00    4.218313e-01   5.408272e-03
  3.235003e+00    4.280229e-01   5.448059e-03
  3.237213e+00    4.279097e-01   5.447464e-03
  3.239424e+00    4.341235e-01   5.486843e-03
  3.241634e+00    4.393657e-01   5.520024e-03
  3.243845e+00    4.242030e-01   5.423996e-03
  3.246055e+00    4.220611e-01   5.410015e-03
  3.248266e+00    4.255738e-01   5.432683e-03
  3.250476e+00    4.187324e-01   5.388549e-03
  3.252687e+00    4.143408e-01   5.360123e-03
  3.254897e+00    4.279142e-01   5.447096e-03
  3.257107e+00    4.213158e-01   5.404626e-03
  3.259318e+00    4.209672e-01   5.402161e-03
  3.261528e+00    4.194133e-01   5.392054e-03
  3.263739e+00    4.246563e-01   5.425050e-03
  3.265949e+00    4.354915e-01   5.493754e-03
  3.268160e+00    4.082283e-01   5.318590e-03
  3.270370e+00    4.043034e-01   5.292455e-03
  3.272581e+00    4.124127e-01   5.344986e-03
  3.274791e+00    4.228461e-01   5.411663e-03
  3.277002e+00    4.058389e-01   5.301148e-03
  3.279212e+00    4.253497e-01   5.426717e-03
  3.281422e+00    4.207829e-01   5.396920e-03
  3.283633e+00    4.071179e-01   5.307908e-03
  3.285843e+00    4.165296e-01   5.368579e-03
  3.288054e+00    4.157172e-01   5.362394e-03
  3.290264e+00    4.136262e-01   5.348594e-03
  3.292475e+00    4.313703e-01   5.461265e-03
  3.294685e+00    4.161472e-01   5.363415e-03
  3.296896e+00    4.205369e-01   5.390886e-03
  3.299106e+00    4.061050e-01   5.297020e-03
  3.301317e+00    4.101268e-01   5.322164e-03
  3.303527e+00    4.159372e-01   5.359287e-03
  3.305737e+00    4.138944e-01   5.345066e-03
  3.307948e+00    4.168252e-01   5.363288e-03
  3.310158e+00    4.156670e-01   5.354998e-03
  3.312369e+00    4.197755e-01   5.380516e-03
  3.314579e+00    4.173337e-01   5.363928e-03
  3.316790e+00    4.334129e-01   5.465564e-03
  3.319000e+00    4.248222e-01   5.409972e-03
  3.321211e+00    4.187314e-01   5.370427e-03
  3.323421e+00    4.175841e-01   5.361859e-03
  3.325632e+00    4.087117e-01   5.303736e-03
  3.327842e+00    4.144079e-01   5.339641e-03
  3.330052e+00    4.279421e-01   5.425056e-03
  3.332263e+00    4.238661e-01   5.398153e-03
  3.334473e+00    4.150956e-01   5.341112e-03
  3.336684e+00    4.057928e-01   5.279674e-03
  3.338894e+00    4.207849e-01   5.375469e-03
  3.341105e+00    4.285082e-01   5.423356e-03
  3.343315e+00    4.309811e-01   5.437853e-03
  3.345526e+00    4.156117e-01   5.339101e-03
  3.347736e+00    4.126360e-01   5.318571e-03
  3.349947e+00    3.878333e-01   5.155351e-03
  3.352157e+00    4.038316e-01   5.259422e-03
  3.354368e+00    4.190573e-01   5.356383e-03
  3.356578e+00    4.235714e-01   5.384132e-03
  3.358788e+00    4.187272e-01   5.351924e-03
  3.360999e+00    4.232407e-01   5.379444e-03
  3.363209e+00    4.311750e-01   5.428589e-03
  3.365420e+00    4.073960e-01   5.275301e-03
  3.367630e+00    4.075566e-01   5.275323e-03
  3.369841e+00    4.124518e-01   5.305490e-03
  3.372051e+00    4.070317e-01   5.268564e-03
  3.374262e+00    4.045118e-01   5.249817e-03
  3.376472e+00    4.038317e-01   5.243010e-03
  3.378683e+00    4.110295e-01   5.287011e-03
  3.380893e+00    4.157191e-01   5.314773e-03
  3.383103e+00    4.103571e-01   5.277689e-03
  3.385314e+00    4.083344e-01   5.262467e-03
  3.387524e+00    3.978063e-01   5.191507e-03
  3.389735e+00    4.021529e-01   5.217197e-03
  3.391945e+00    3.994634e-01   5.196090e-03
  3.394156e+00    4.142700e-01   5.287299e-03
  3.396366e+00    4.053338e-01   5.226582e-03
  3.398577e+00    4.126652e-01   5.270595e-03
  3.400787e+00    4.016785e-01   5.211744e-03
  3.402998e+00    4.009520e-01   5.244644e-03
  3.405208e+00    4.054268e-01   5.294516e-03
  3.407418e+00    3.869672e-01   5.188072e-03
  3.409629e+00    3.902685e-01   5.223907e-03
  3.411839e+00    3.988950e-01   5.293122e-03
  3.414050e+00    3.985326e-01   5.301733e-03
  3.416260e+00    3.852283e-01   5.221999e-03
  3.418471e+00    3.831913e-01   5.217490e-03
  3.420681e+00    3.840841e-01   5.231940e-03
  3.422892e+00    3.902512e-01   5.281784e-03
  3.425102e+00    3.839995e-01   5.247064e-03
  3.427313e+00    3.849778e-01   5.260882e-03
  3.429523e+00    3.855774e-01   5.272072e-03
  3.431733e+00    3.667081e-01   5.147913e-03
  3.433944e+00    3.845206e-01   5.277948e-03
  3.436154e+00    3.874026e-01   5.303964e-03
  3.438365e+00    3.686983e-01   5.180191e-03
  3.440575e+00    3.594505e-01   5.120562e-03
  3.442786e+00    3.622563e-01   5.145979e-03
  3.444996e+00    3.654475e-01   5.174024e-03
  3.447207e+00    3.620384e-01   5.155009e-03
  3.449417e+00    3.633026e-01   5.204382e-03
  3.451628e+00    3.654514e-01   5.249040e-03
  3.453838e+00    3.778168e-01   5.358571e-03
  3.456049e+00    3.712423e-01   5.335798e-03
  3.458259e+00    3.471592e-01   5.181157e-03
  3.460469e+00    3.506480e-01   5.226479e-03
  3.462680e+00    3.592551e-01   5.309117e-03
  3.464890e+00    3.508240e-01   5.263865e-03
  3.467101e+00    3.678176e-01   5.407303e-03
  3.469311e+00    3.805494e-01   5.516881e-03
  3.471522e+00    3.883111e-01   5.589545e-03
  3.473732e+00    3.829404e-01   5.566781e-03
  3.475943e+00    4.004123e-01   5.708444e-03
  3.478153e+00    3.979038e-01   5.706161e-03
  3.480364e+00    4.157040e-01   5.847978e-03
  3.482574e+00    4.025741e-01   5.770208e-03
  3.484784e+00    4.121851e-01   5.853549e-03
  3.486995e+00    4.111901e-01   5.861522e-03
  3.489205e+00    4.226085e-01   5.956988e-03
  3.491416e+00    4.288672e-01   6.015885e-03
  3.493626e+00    4.398188e-01   6.106902e-03
  3.495837e+00    4.436154e-01   6.147973e-03
  3.498047e+00    4.547043e-01   6.239048e-03
  3.500258e+00    4.457595e-01   6.191826e-03
  3.502468e+00    4.502752e-01   6.237449e-03
  3.504679e+00    4.836631e-01   6.479438e-03
  3.506889e+00    4.745213e-01   6.432487e-03
  3.509099e+00    4.695956e-01   6.413334e-03
  3.511310e+00    4.834494e-01   6.521850e-03
  3.513520e+00    4.762276e-01   6.487248e-03
  3.515731e+00    4.912545e-01   6.603279e-03
  3.517941e+00    4.892314e-01   6.604026e-03
  3.520152e+00    4.941594e-01   6.651488e-03
  3.522362e+00    5.056739e-01   6.743110e-03
  3.524573e+00    5.059094e-01   6.758940e-03
  3.526783e+00    5.097032e-01   6.797580e-03
  3.528994e+00    5.156055e-01   6.849070e-03
  3.531204e+00    5.105967e-01   6.828024e-03
  3.533414e+00    5.300469e-01   6.968983e-03
  3.535625e+00    5.362464e-01   7.022123e-03
  3.537835e+00    5.263140e-01   6.968797e-03
  3.540046e+00    5.443994e-01   7.096541e-03
  3.542256e+00    5.249398e-01   6.976022e-03
  3.544467e+00    5.193924e-01   6.946556e-03
  3.546677e+00    5.192041e-01   6.952746e-03
  3.548888e+00    5.242332e-01   6.993754e-03
  3.551098e+00    5.320091e-01   7.052705e-03
  3.553309e+00    5.147908e-01   6.945617e-03
  3.555519e+00    5.335724e-01   7.082459e-03
  3.557729e+00    5.245671e-01   7.034064e-03
  3.559940e+00    5.271885e-01   7.063046e-03
  3.562150e+00    5.290790e-01   7.087336e-03
  3.564361e+00    5.281175e-01   7.094108e-03
  3.566571e+00    5.250555e-01   7.087207e-03
  3.568782e+00    5.387308e-01   7.193067e-03
  3.570992e+00    5.428194e-01   7.234115e-03
  3.573203e+00    5.405393e-01   7.233176e-03
  3.575413e+00    5.287789e-01   7.167694e-03
  3.577624e+00    5.479602e-01   7.310841e-03
  3.579834e+00    5.422861e-01   7.286825e-03
  3.582045e+00    5.403602e-01   7.287997e-03
  3.584255e+00    5.328429e-01   7.251119e-03
  3.586465e+00    5.215060e-01   7.187330e-03
  3.588676e+00    5.386035e-01   7.318411e-03
  3.590886e+00    5.474029e-01   7.391774e-03
  3.593097e+00    5.369686e-01   7.335569e-03
  3.595307e+00    5.187383e-01   7.223640e-03
  3.597518e+00    5.268574e-01   7.294020e-03
  3.599728e+00    5.479630e-01   7.452974e-03
  3.601939e+00    5.518429e-01   7.493599e-03
  3.604149e+00    5.270528e-01   7.337625e-03
  3.606360e+00    5.347645e-01   7.405258e-03
  3.608570e+00    5.388240e-01   7.447505e-03
  3.610780e+00    5.318782e-01   7.410407e-03
  3.612991e+00    5.238252e-01   7.363983e-03
  3.615201e+00    5.307339e-01   7.422125e-03
  3.617412e+00    5.380532e-01   7.480449e-03
  3.619622e+00    5.319138e-01   7.443580e-03
  3.621833e+00    5.300046e-01   7.436896e-03
  3.624043e+00    5.326183e-01   7.464703e-03
  3.626254e+00    5.330620e-01   7.477502e-03
  3.628464e+00    5.266266e-01   7.443112e-03
  3.630675e+00    5.244355e-01   7.441631e-03
  3.632885e+00    5.288383e-01   7.487159e-03
  3.635095e+00    5.263010e-01   7.483475e-03
  3.637306e+00    5.309532e-01   7.530823e-03
  3.639516e+00    5.296188e-01   7.535828e-03
  3.641727e+00    5.480708e-01   7.680740e-03
  3.643937e+00    5.205506e-01   7.499822e-03
  3.646148e+00    5.327611e-01   7.601842e-03
  3.648358e+00    5.327958e-01   7.616972e-03
  3.650569e+00    5.209343e-01   7.546276e-03
  3.652779e+00    5.069125e-01   7.458440e-03
  3.654990e+00    5.213643e-01   7.578694e-03
  3.657200e+00    5.343148e-01   7.687199e-03
  3.659410e+00    5.268482e-01   7.648192e-03
  3.661621e+00    5.153601e-01   7.579219e-03
  3.663831e+00    5.181678e-01   7.614759e-03
  3.666042e+00    5.384255e-01   7.777414e-03
  3.668252e+00    5.457141e-01   7.845332e-03
  3.670463e+00    5.487991e-01   7.882982e-03
  3.672673e+00    5.151352e-01   7.652599e-03
  3.674884e+00    5.137355e-01   7.657304e-03
  3.677094e+00    5.264621e-01   7.767013e-03
  3.679305e+00    5.270224e-01   7.786676e-03
  3.681515e+00    5.199949e-01   7.750028e-03
  3.683726e+00    5.422645e-01   7.930267e-03
  3.685936e+00    5.131640e-01   7.730005e-03
  3.688146e+00    5.192778e-01   7.791570e-03
  3.690357e+00    5.105704e-01   7.741621e-03
  3.692567e+00    5.297965e-01   7.902200e-03
  3.694778e+00    5.040017e-01   7.723185e-03
  3.696988e+00    5.112649e-01   7.794325e-03
  3.699199e+00    5.228590e-01   7.898426e-03
  3.701409e+00    5.181537e-01   7.879115e-03
  3.703620e+00    5.141804e-01   7.864904e-03
  3.705830e+00    5.343439e-01   8.034255e-03
  3.708041e+00    5.250921e-01   7.980999e-03
  3.710251e+00    5.388251e-01   8.101630e-03
  3.712461e+00    5.321855e-01   8.068475e-03
  3.714672e+00    5.026154e-01   7.857524e-03
  3.716882e+00    5.189026e-01   8.000502e-03
  3.719093e+00    5.127623e-01   7.970033e-03
  3.721303e+00    5.186781e-01   8.032825e-03
  3.723514e+00    5.071325e-01   7.960005e-03
  3.725724e+00    4.870124e-01   7.817077e-03
  3.727935e+00    5.219041e-01   8.109808e-03
  3.730145e+00    5.224435e-01   8.131416e-03
  3.732356e+00    5.120801e-01   8.067849e-03
  3.734566e+00    5.240247e-01   8.179060e-03
  3.736776e+00    5.114058e-01   8.097686e-03
  3.738987e+00    5.295222e-01   8.257871e-03
  3.741197e+00    5.118962e-01   8.137257e-03
  3.743408e+00    5.367233e-01   8.350710e-03
  3.745618e+00    5.203610e-01   8.240893e-03
  3.747829e+00    4.915154e-01   8.026963e-03
  3.750039e+00    5.215406e-01   8.287000e-03
  3.752250e+00    5.054551e-01   8.176652e-03
  3.754460e+00    4.988024e-01   8.140935e-03
  3.756671e+00    5.037872e-01   8.200230e-03
  3.758881e+00    5.257501e-01   8.395988e-03
  3.761091e+00    5.326267e-01   8.470347e-03
  3.763302e+00    5.210881e-01   8.397467e-03
  3.765512e+00    4.951838e-01   8.205023e-03
  3.767723e+00    4.956698e-01   8.228196e-03
  3.769933e+00    5.019092e-01   8.299065e-03
  3.772144e+00    4.948414e-01   8.259799e-03
  3.774354e+00    4.817321e-01   8.169044e-03
  3.776565e+00    4.853995e-01   8.219468e-03
  3.778775e+00    5.132443e-01   8.472119e-03
  3.780986e+00    5.035479e-01   8.411984e-03
  3.783196e+00    5.102251e-01   8.487967e-03
  3.785407e+00    5.029699e-01   8.447811e-03
  3.787617e+00    4.953761e-01   8.404437e-03
  3.789827e+00    4.910797e-01   8.388123e-03
  3.792038e+00    5.115515e-01   8.582284e-03
  3.794248e+00    5.041627e-01   8.541317e-03
  3.796459e+00    4.809855e-01   8.363558e-03
  3.798669e+00    5.029992e-01   8.574255e-03
  3.800880e+00    4.962571e-01   8.537923e-03
  3.803090e+00    4.889703e-01   8.496591e-03
  3.805301e+00    4.998778e-01   8.612914e-03
  3.807511e+00    5.009462e-01   8.644144e-03
  3.809722e+00    4.972605e-01   8.634497e-03
  3.811932e+00    4.942402e-01   8.630279e-03
  3.814142e+00    5.079238e-01   8.772070e-03
  3.816353e+00    5.040694e-01   8.761638e-03
  3.818563e+00    5.009001e-01   8.757226e-03
  3.820774e+00    4.981841e-01   8.756592e-03
  3.822984e+00    4.818609e-01   8.634911e-03
  3.825195e+00    4.863873e-01   8.698906e-03
  3.827405e+00    4.954278e-01   8.803098e-03
  3.829616e+00    4.770303e-01   8.661752e-03
  3.831826e+00    4.744588e-01   8.661972e-03
  3.834037e+00    4.591122e-01   8.544227e-03
  3.836247e+00    5.101814e-01   9.031946e-03
  3.838457e+00    5.024448e-01   8.988419e-03
  3.840668e+00    4.860741e-01   8.865646e-03
  3.842878e+00    5.063918e-01   9.074856e-03
  3.845089e+00    5.086977e-01   9.121398e-03
  3.847299e+00    5.061787e-01   9.124869e-03
  3.849510e+00    5.232755e-01   9.304253e-03
  3.851720e+00    5.085922e-01   9.194498e-03
  3.853931e+00    4.876202e-01   9.021855e-03
  3.856141e+00    4.807459e-01   8.976636e-03
  3.858352e+00    5.096683e-01   9.262346e-03
  3.860562e+00    4.906450e-01   9.107100e-03
  3.862772e+00    4.829099e-01   9.054348e-03
  3.864983e+00    5.071764e-01   9.298988e-03
  3.867193e+00    4.948061e-01   9.204722e-03
  3.869404e+00    5.055569e-01   9.324227e-03
  3.871614e+00    5.029054e-01   9.319874e-03
  3.873825e+00    5.108311e-01   9.413792e-03
  3.876035e+00    4.829452e-01   9.173517e-03
  3.878246e+00    4.986138e-01   9.347090e-03
  3.880456e+00    4.888498e-01   9.284045e-03
  3.882667e+00    5.036316e-01   9.453002e-03
  3.884877e+00    4.894436e-01   9.348577e-03
  3.887087e+00    4.988229e-01   9.467870e-03
  3.889298e+00    5.103788e-01   9.607927e-03
  3.891508e+00    4.694646e-01   9.244617e-03
  3.893719e+00    4.720595e-01   9.300483e-03
  3.895929e+00    4.858248e-01   9.466380e-03
  3.898140e+00    4.982151e-01   9.618321e-03
  3.900350e+00    4.802445e-01   9.475050e-03
  3.902561e+00    4.927239e-01   9.629797e-03
  3.904771e+00    4.648287e-01   9.385280e-03
  3.906982e+00    4.886851e-01   9.656077e-03
  3.909192e+00    4.851266e-01   9.654284e-03
  3.911403e+00    5.024261e-01   9.859356e-03
  3.913613e+00    5.233657e-01   1.009822e-02
  3.915823e+00    4.884354e-01   9.790273e-03
  3.918034e+00    4.741841e-01   9.681035e-03
  3.920244e+00    5.012103e-01   9.989301e-03
  3.922455e+00    4.896340e-01   9.909442e-03
  3.924665e+00    4.896101e-01   9.945657e-03
  3.926876e+00    5.214427e-01   1.030229e-02
  3.929086e+00    4.890061e-01   1.001411e-02
  3.931297e+00    4.806938e-01   9.963227e-03
  3.933507e+00    4.843516e-01   1.002986e-02
  3.935718e+00    4.877390e-01   1.009363e-02
  3.937928e+00    5.032251e-01   1.028251e-02
  3.940138e+00    4.897424e-01   1.017335e-02
  3.942349e+00    4.919952e-01   1.022658e-02
  3.944559e+00    5.068737e-01   1.041078e-02
  3.946770e+00    4.835342e-01   1.019832e-02
  3.948980e+00    4.757943e-01   1.014670e-02
  3.951191e+00    5.040039e-01   1.047462e-02
  3.953401e+00    4.830166e-01   1.028547e-02
  3.955612e+00    4.700904e-01   1.017796e-02
  3.957822e+00    4.925816e-01   1.045055e-02
  3.960033e+00    4.870613e-01   1.042440e-02
  3.962243e+00    4.932037e-01   1.052310e-02
  3.964453e+00    4.943381e-01   1.056857e-02
  3.966664e+00    4.803039e-01   1.045068e-02
  3.968874e+00    5.226135e-01   1.093072e-02
  3.971085e+00    5.096970e-01   1.081727e-02
  3.973295e+00    4.937232e-01   1.066805e-02
  3.975506e+00    4.886525e-01   1.063485e-02
  3.977716e+00    4.864370e-01   1.063277e-02
  3.979927e+00    4.525583e-01   1.027706e-02
  3.982137e+00    5.064788e-01   1.089492e-02
  3.984348e+00    4.863609e-01   1.069893e-02
  3.986558e+00    4.695947e-01   1.053486e-02
  3.988768e+00    4.709128e-01   1.057229e-02
  3.990979e+00    4.850729e-01   1.075279e-02
  3.993189e+00    4.840078e-01   1.076408e-02
  3.995400e+00    5.137582e-01   1.111418e-02
  3.997610e+00    4.599929e-01   1.054562e-02
  3.999821e+00    4.868375e-01   1.088649e-02
  4.002031e+00    4.956397e-01   1.102328e-02
  4.004242e+00    4.707517e-01   1.078105e-02
  4.006452e+00    4.543281e-01   1.062926e-02
  4.008663e+00    4.889443e-01   1.106696e-02
  4.010873e+00    4.666254e-01   1.085069e-02
  4.013084e+00    4.856840e-01   1.111102e-02
  4.015294e+00    4.751765e-01   1.103086e-02
  4.017504e+00    4.853116e-01   1.118967e-02
  4.019715e+00    4.718098e-01   1.107492e-02
  4.021925e+00    4.604419e-01   1.098256e-02
  4.024136e+00    4.932057e-01   1.141079e-02
  4.026346e+00    4.303159e-01   1.069998e-02
  4.028557e+00    4.403897e-01   1.086684e-02
  4.030767e+00    4.765396e-01   1.134927e-02
  4.032978e+00    4.973446e-01   1.164139e-02
  4.035188e+00    4.733573e-01   1.140290e-02
  4.037399e+00    4.854734e-01   1.159559e-02
  4.039609e+00    4.550053e-01   1.127206e-02
  4.041819e+00    5.026395e-01   1.189713e-02
  4.044030e+00    4.966153e-01   1.187633e-02
  4.046240e+00    4.708794e-01   1.161363e-02
  4.048451e+00    4.879008e-01   1.187293e-02
  4.050661e+00    5.046336e-01   1.212728e-02
  4.052872e+00    4.936798e-01   1.204845e-02
  4.055082e+00    5.020936e-01   1.220517e-02
  4.057293e+00    4.755570e-01   1.193155e-02
  4.059503e+00    4.868636e-01   1.212751e-02
  4.061714e+00    4.982953e-01   1.232659e-02
  4.063924e+00    4.748123e-01   1.208880e-02
  4.066134e+00    4.926473e-01   1.237178e-02
  4.068345e+00    5.124962e-01   1.267935e-02
  4.070555e+00    5.035570e-01   1.262897e-02
  4.072766e+00    4.456726e-01   1.193948e-02
  4.074976e+00    4.693061e-01   1.231300e-02
  4.077187e+00    4.939901e-01   1.269540e-02
  4.079397e+00    4.757134e-01   1.252202e-02
  4.081608e+00    5.088939e-01   1.301879e-02
  4.083818e+00    4.730727e-01   1.261749e-02
  4.086029e+00    4.770584e-01   1.273718e-02
  4.088239e+00    4.721862e-01   1.274045e-02
  4.090449e+00    4.931090e-01   1.309007e-02
  4.092660e+00    4.788802e-01   1.297092e-02
  4.094870e+00    4.759927e-01   1.300355e-02
  4.097081e+00    4.483341e-01   1.268935e-02
  4.099291e+00    4.569806e-01   1.286404e-02
  4.101502e+00    4.575005e-01   1.291934e-02
  4.103712e+00    4.970785e-01   1.351676e-02
  4.105923e+00    4.818514e-01   1.335986e-02
  4.108133e+00    4.955725e-01   1.360066e-02
  4.110344e+00    5.213401e-01   1.400340e-02
  4.112554e+00    4.904286e-01   1.363532e-02
  4.114764e+00    5.050693e-01   1.389325e-02
  4.116975e+00    4.596242e-01   1.330558e-02
  4.119185e+00    4.640084e-01   1.342320e-02
  4.121396e+00    4.575541e-01   1.338446e-02
  4.123606e+00    4.793439e-01   1.375568e-02
  4.125817e+00    4.983934e-01   1.408520e-02
  4.128027e+00    4.608043e-01   1.360069e-02
  4.130238e+00    4.370404e-01   1.330211e-02
  4.132448e+00    5.126042e-01   1.446867e-02
  4.134659e+00    4.977104e-01   1.431838e-02
  4.136869e+00    4.854628e-01   1.420416e-02
  4.139080e+00    4.815325e-01   1.421027e-02
  4.141290e+00    4.974042e-01   1.450660e-02
  4.143500e+00    4.684992e-01   1.414370e-02
  4.145711e+00    4.751206e-01   1.430984e-02
  4.147921e+00    4.771293e-01   1.440579e-02
  4.150132e+00    5.243845e-01   1.517437e-02
  4.152342e+00    5.173872e-01   1.514594e-02
  4.154553e+00    4.612765e-01   1.436917e-02
  4.156763e+00    4.764126e-01   1.467498e-02
  4.158974e+00    4.686881e-01   1.462914e-02
  4.161184e+00    4.233923e-01   1.397291e-02
  4.163395e+00    4.912493e-01   1.512784e-02
  4.165605e+00    4.478357e-01   1.451916e-02
  4.167815e+00    4.851755e-01   1.519116e-02
  4.170026e+00    5.034535e-01   1.555608e-02
  4.172236e+00    5.381450e-01   1.617015e-02
  4.174447e+00    5.325607e-01   1.617366e-02
  4.176657e+00    5.050752e-01   1.583685e-02
  4.178868e+00    4.958129e-01   1.577963e-02
  4.181078e+00    5.367573e-01   1.651084e-02
  4.183289e+00    4.709193e-01   1.555386e-02
  4.185499e+00    4.565411e-01   1.540473e-02
  4.187710e+00    4.967541e-01   1.616287e-02
  4.189920e+00    4.858621e-01   1.608098e-02
  4.192130e+00    5.271080e-01   1.685212e-02
  4.194341e+00    4.827160e-01   1.622583e-02
  4.196551e+00    4.996862e-01   1.661291e-02
  4.198762e+00    4.634974e-01   1.610181e-02
  4.200972e+00    4.921461e-01   1.669930e-02
  4.203183e+00    4.925589e-01   1.681640e-02
  4.205393e+00    4.681450e-01   1.650343e-02
  4.207604e+00    4.573930e-01   1.642432e-02
  4.209814e+00    4.686711e-01   1.673953e-02
  4.212025e+00    4.510027e-01   1.653717e-02
  4.214235e+00    4.801753e-01   1.718458e-02
  4.216445e+00    4.870448e-01   1.743242e-02
  4.218656e+00    4.507459e-01   1.689574e-02
  4.220866e+00    5.289541e-01   1.843836e-02
  4.223077e+00    5.245417e-01   1.850282e-02
  4.225287e+00    4.377984e-01   1.703687e-02
  4.227498e+00    4.931358e-01   1.822291e-02
  4.229708e+00    4.991327e-01   1.848288e-02
  4.231919e+00    5.046666e-01   1.873849e-02
  4.234129e+00    4.310568e-01   1.746392e-02
  4.236340e+00    4.132443e-01   1.724461e-02
  4.238550e+00    5.509419e-01   2.008763e-02
  4.240761e+00    5.071525e-01   1.944339e-02
  4.242971e+00    4.712594e-01   1.891433e-02
  4.245181e+00    4.689148e-01   1.904431e-02
  4.247392e+00    4.541213e-01   1.891696e-02
  4.249602e+00    4.068925e-01   1.808402e-02
  4.251813e+00    4.665478e-01   1.955477e-02
  4.254023e+00    4.592502e-01   1.959749e-02
  4.256234e+00    4.424995e-01   1.944196e-02
  4.258444e+00    4.770367e-01   2.039732e-02
  4.260655e+00    4.919641e-01   2.094245e-02
  4.262865e+00    4.495963e-01   2.024700e-02
  4.265076e+00    4.280459e-01   1.998045e-02
  4.267286e+00    4.900649e-01   2.163233e-02
  4.269496e+00    4.971719e-01   2.205543e-02
  4.271707e+00    4.220565e-01   2.057152e-02
  4.273917e+00    4.283403e-01   2.099188e-02
  4.276128e+00    5.036665e-01   2.306548e-02
  4.278338e+00    4.770136e-01   2.274681e-02
  4.280549e+00    4.396704e-01   2.215126e-02
  4.282759e+00    4.656534e-01   2.312437e-02
  4.284970e+00    3.929178e-01   2.155580e-02
  4.287180e+00    4.819093e-01   2.415809e-02
  4.289391e+00    5.237504e-01   2.537483e-02
  4.291601e+00    4.600273e-01   2.397091e-02
  4.293811e+00    5.052197e-01   2.531664e-02
  4.296022e+00    5.767713e-01   2.726799e-02
  4.298232e+00    5.206748e-01   2.612527e-02
  4.300443e+00    4.135050e-01   2.347372e-02
  4.302653e+00    4.823419e-01   2.557162e-02
  4.304864e+00    4.736513e-01   2.555979e-02
  4.307074e+00    5.642052e-01   2.814717e-02
  4.309285e+00    5.598580e-01   2.829304e-02
  4.311495e+00    4.985033e-01   2.694772e-02
  4.313706e+00    5.076089e-01   2.744804e-02
  4.315916e+00    4.907624e-01   2.725435e-02
  4.318126e+00    5.394753e-01   2.885823e-02
  4.320337e+00    4.500721e-01   2.662484e-02
  4.322547e+00    5.161063e-01   2.881357e-02
  4.324758e+00    4.825306e-01   2.815065e-02
  4.326968e+00    5.625920e-01   3.073836e-02
  4.329179e+00    4.525862e-01   2.787377e-02
  4.331389e+00    3.760512e-01   2.570138e-02
  4.333600e+00    3.927718e-01   2.657877e-02
  4.335810e+00    4.451913e-01   2.863417e-02
  4.338021e+00    4.600324e-01   2.948076e-02
  4.340231e+00    4.486665e-01   2.947884e-02
  4.342442e+00    4.805543e-01   3.091808e-02
  4.344652e+00    3.759534e-01   2.771827e-02
  4.346862e+00    4.174444e-01   2.961650e-02
  4.349073e+00    3.299287e-01   2.671295e-02
  4.351283e+00    3.834219e-01   2.922777e-02
  4.353494e+00    4.677817e-01   3.278116e-02
  4.355704e+00    4.891391e-01   3.406192e-02
  4.357915e+00    4.677363e-01   3.386202e-02
  4.360125e+00    5.007934e-01   3.563603e-02
  4.362336e+00    5.288781e-01   3.729073e-02
  4.364546e+00    4.319970e-01   3.431481e-02
  4.366757e+00    3.943890e-01   3.344036e-02
  4.368967e+00    4.553972e-01   3.664874e-02
  4.371177e+00    6.463798e-01   4.459094e-02
  4.373388e+00    5.195742e-01   4.087650e-02
  4.375598e+00    4.002215e-01   3.668972e-02
  4.377809e+00    3.746562e-01   3.639888e-02
  4.380019e+00    3.988981e-01   3.850111e-02
  4.382230e+00    2.971029e-01   3.415734e-02
  4.384440e+00    3.749048e-01   3.947142e-02
  4.386651e+00    4.048674e-01   4.228316e-02
  4.388861e+00    5.263404e-01   4.982787e-02
  4.391072e+00    5.436971e-01   5.242403e-02
  4.393282e+00    4.565506e-01   4.989717e-02
  4.395492e+00    5.663952e-01   5.788371e-02
  4.397703e+00    3.659049e-01   4.865337e-02
  4.399913e+00    2.864996e-01   4.522972e-02
  4.402124e+00    4.163811e-01   5.761772e-02
  4.404334e+00    3.082799e-01   5.269939e-02
  4.406545e+00    1.115514e-01   3.406503e-02
  4.408755e+00    2.959238e-01   6.016110e-02
  4.410966e+00    4.396438e-01   8.116218e-02
  4.413176e+00    4.067486e-02   2.797549e-02
  4.415387e+00   -5.759828e-01            nan
  4.417597e+00   -1.773412e+00            nan
  4.419807e+00   -3.766224e-01            nan
