# == pyFAI calibration ==
# Distance Sample to Detector: 0.216 m
# PONI: 1.166e-01, 1.308e-01 m
# Rotations: 0.000000 0.000000 0.000000 rad
# 
# == Fit2d calibration ==
# Distance Sample-beamCenter: 216.000 mm
# Center: x=1744.293, y=1555.000 pix
# Tilt: 0.000 deg  TiltPlanRot: 0.000 deg
# 
# Detector Eiger 9M	 PixelSize= 7.500e-05, 7.500e-05 m
#    Detector has a mask: True 
#    Detector has a dark current: False 
#    detector has a flat field: False 
# 
# Wavelength: 9.8e-11 m
# Mask applied: from detector
# Dark current applied: False
# Flat field applied: False
# Polarization factor: None
# Normalization factor: 1.0
# 
# Headers of the input frame:
# {
# "_array_data.header_convention": "SLS_1.0",
# "_array_data.header_contents": "# Detector: Dectris Eiger 9M, S/N E-18-0102\r\n# Pixel_size 75e-6 m x 75e-6 m\r\n# Silicon sensor, thickness 0.000450 m\r\n# Exposure_time 0.024997 s\r\n# Exposure_period 0.025000 s\r\n# Count_cutoff 62318 counts\r\n# Wavelength 0.980106 A\r\n# Detector_distance 0.215992 m\r\n# Beam_xy (1555, 1744) pixels\r\n# Start_angle 0.000000 deg.\r\n# Angle_increment 0.000000 deg.",
# "Content-Type": "application/octet-stream;",
# "conversions": "x-CBF_BYTE_OFFSET",
# "Content-Transfer-Encoding": "BINARY",
# "X-Binary-Size": "10166622",
# "X-Binary-ID": "1",
# "X-Binary-Element-Type": "signed 32-bit integer",
# "X-Binary-Element-Byte-Order": "LITTLE_ENDIAN",
# "Content-MD5": "Aa7H6iy1Q2ACE8L2zqCysA==",
# "X-Binary-Number-of-Elements": "10166590",
# "X-Binary-Size-Fastest-Dimension": "3110",
# "X-Binary-Size-Second-Dimension": "3269",
# "X-Binary-Size-Padding": "4095"
# }
# --> H:/Proxima2a_2019-04-05/RAW_DATA/C5_gel17_position5/C5_mesh_1_data.cbf/C5_mesh_1_data.cbf000156.dat
#        q_A^-1              I           sigma 
  1.105228e-03    2.026004e+00   7.702065e-01
  3.315685e-03    1.980531e+00   4.629524e-01
  5.526141e-03    1.397012e+00   3.006576e-01
  7.736597e-03    1.637575e+00   2.749925e-01
  9.947054e-03    1.502793e+00   2.322342e-01
  1.215751e-02    1.472601e+00   2.078792e-01
  1.436797e-02    1.413370e+00   1.873285e-01
  1.657842e-02    1.384927e+00   1.726068e-01
  1.878888e-02    1.354385e+00   1.603373e-01
  2.099934e-02    1.508838e+00   1.601118e-01
  2.320979e-02    1.441052e+00   1.488239e-01
  2.542025e-02    1.571509e+00   1.485142e-01
  2.763070e-02    1.546590e+00   1.413116e-01
  2.984116e-02    1.529323e+00   1.352154e-01
  3.205162e-02    1.425902e+00   1.259886e-01
  3.426207e-02    1.403599e+00   1.208917e-01
  3.647253e-02    1.412782e+00   1.175513e-01
  3.868299e-02    1.507523e+00   1.179173e-01
  4.089344e-02    1.548909e+00   1.162502e-01
  4.310390e-02    1.600832e+00   1.151057e-01
  4.531436e-02    1.507632e+00   1.089466e-01
  4.752481e-02    1.577025e+00   1.088023e-01
  4.973527e-02    1.541528e+00   1.051544e-01
  5.194572e-02    1.498458e+00   1.014437e-01
  5.415618e-02    1.571992e+00   1.017569e-01
  5.636664e-02    1.500803e+00   9.746014e-02
  5.857709e-02    1.510363e+00   9.590808e-02
  6.078755e-02    1.457345e+00   9.247802e-02
  6.299801e-02    1.384797e+00   8.855020e-02
  6.520846e-02    1.549835e+00   9.207748e-02
  6.741892e-02    1.546796e+00   9.046207e-02
  6.962938e-02    1.418668e+00   8.525243e-02
  7.183983e-02    1.512595e+00   8.666293e-02
  7.405029e-02    1.415191e+00   8.256362e-02
  7.626074e-02    1.474580e+00   8.304710e-02
  7.847120e-02    1.536121e+00   8.355775e-02
  8.068166e-02    1.530673e+00   8.225825e-02
  8.289211e-02    1.555470e+00   8.180831e-02
  8.510257e-02    1.598479e+00   8.184702e-02
  8.731303e-02    1.653362e+00   8.217669e-02
  8.952348e-02    1.519561e+00   7.780487e-02
  9.173394e-02    1.469154e+00   7.557314e-02
  9.394439e-02    1.467098e+00   7.462405e-02
  9.615485e-02    1.502841e+00   7.465281e-02
  9.836531e-02    1.542565e+00   7.477631e-02
  1.005758e-01    1.553212e+00   7.420528e-02
  1.027862e-01    1.600437e+00   7.450872e-02
  1.049967e-01    1.575988e+00   7.315371e-02
  1.072071e-01    1.608512e+00   7.313799e-02
  1.094176e-01    1.510135e+00   7.014559e-02
  1.116280e-01    1.559699e+00   7.057650e-02
  1.138385e-01    1.490529e+00   6.831931e-02
  1.160490e-01    1.567763e+00   6.939562e-02
  1.182594e-01    1.593004e+00   6.929372e-02
  1.204699e-01    1.510213e+00   6.684668e-02
  1.226803e-01    1.509857e+00   6.623115e-02
  1.248908e-01    1.514556e+00   6.574371e-02
  1.271012e-01    1.549028e+00   6.590569e-02
  1.293117e-01    1.593190e+00   6.626400e-02
  1.315222e-01    1.566460e+00   6.514977e-02
  1.337326e-01    1.585688e+00   6.500316e-02
  1.359431e-01    1.594988e+00   6.523168e-02
  1.381535e-01    1.504113e+00   6.419642e-02
  1.403640e-01    1.563556e+00   6.573525e-02
  1.425744e-01    1.573590e+00   6.605121e-02
  1.447849e-01    1.491954e+00   6.432986e-02
  1.469953e-01    1.547799e+00   6.548175e-02
  1.492058e-01    1.515006e+00   6.470904e-02
  1.514163e-01    1.594157e+00   6.626765e-02
  1.536267e-01    1.680500e+00   6.790573e-02
  1.558372e-01    1.688253e+00   6.791198e-02
  1.580476e-01    1.644107e+00   6.685554e-02
  1.602581e-01    1.629050e+00   6.637970e-02
  1.624685e-01    1.646615e+00   6.655387e-02
  1.646790e-01    1.682873e+00   6.708943e-02
  1.668895e-01    1.699630e+00   6.722791e-02
  1.690999e-01    1.807423e+00   6.911878e-02
  1.713104e-01    1.814114e+00   6.903174e-02
  1.735208e-01    1.798119e+00   6.851301e-02
  1.757313e-01    1.802814e+00   6.838740e-02
  1.779417e-01    1.887838e+00   6.975319e-02
  1.801522e-01    1.964682e+00   7.093208e-02
  1.823626e-01    1.972286e+00   7.083261e-02
  1.845731e-01    1.909104e+00   6.946308e-02
  1.867836e-01    1.979259e+00   7.048917e-02
  1.889940e-01    1.933467e+00   6.944133e-02
  1.912045e-01    2.021677e+00   7.077056e-02
  1.934149e-01    2.076949e+00   7.149140e-02
  1.956254e-01    2.076053e+00   7.124025e-02
  1.978358e-01    2.047143e+00   7.050005e-02
  2.000463e-01    2.048392e+00   7.028788e-02
  2.022568e-01    1.990187e+00   6.905463e-02
  2.044672e-01    1.995100e+00   6.890297e-02
  2.066777e-01    1.994132e+00   6.865759e-02
  2.088881e-01    2.086610e+00   7.000179e-02
  2.110986e-01    2.016008e+00   6.857137e-02
  2.133090e-01    1.977127e+00   6.768616e-02
  2.155195e-01    2.050153e+00   6.869619e-02
  2.177300e-01    2.018200e+00   6.762330e-02
  2.199404e-01    2.019969e+00   6.587029e-02
  2.221509e-01    1.994394e+00   6.437723e-02
  2.243613e-01    1.999618e+00   6.364425e-02
  2.265718e-01    2.088734e+00   6.433004e-02
  2.287822e-01    2.186505e+00   6.516698e-02
  2.309927e-01    2.112812e+00   6.347583e-02
  2.332031e-01    2.213545e+00   6.441529e-02
  2.354136e-01    2.171536e+00   6.328402e-02
  2.376241e-01    2.178918e+00   6.289948e-02
  2.398345e-01    2.130994e+00   6.174356e-02
  2.420450e-01    2.162598e+00   6.175519e-02
  2.442554e-01    2.164452e+00   6.135602e-02
  2.464659e-01    2.224997e+00   6.179059e-02
  2.486763e-01    2.167533e+00   6.058658e-02
  2.508868e-01    2.094714e+00   5.918444e-02
  2.530973e-01    2.107564e+00   5.899763e-02
  2.553077e-01    2.158031e+00   5.933770e-02
  2.575182e-01    2.149197e+00   5.886577e-02
  2.597286e-01    2.143399e+00   5.844460e-02
  2.619391e-01    2.129494e+00   5.791932e-02
  2.641495e-01    2.095790e+00   5.714113e-02
  2.663600e-01    2.073632e+00   5.652568e-02
  2.685704e-01    2.069286e+00   5.616033e-02
  2.707809e-01    2.036318e+00   5.541545e-02
  2.729914e-01    2.079517e+00   5.570832e-02
  2.752018e-01    2.080717e+00   5.543438e-02
  2.774123e-01    2.014720e+00   5.426950e-02
  2.796227e-01    2.104863e+00   5.519589e-02
  2.818332e-01    2.102619e+00   5.489127e-02
  2.840436e-01    2.045853e+00   5.388276e-02
  2.862541e-01    2.067979e+00   5.391296e-02
  2.884646e-01    2.012969e+00   5.293861e-02
  2.906750e-01    2.018239e+00   5.275651e-02
  2.928855e-01    2.055523e+00   5.299490e-02
  2.950959e-01    1.986697e+00   5.186078e-02
  2.973064e-01    1.969458e+00   5.140323e-02
  2.995168e-01    1.912680e+00   5.042743e-02
  3.017273e-01    1.852587e+00   4.941013e-02
  3.039377e-01    1.929283e+00   5.020170e-02
  3.061482e-01    2.031379e+00   5.129010e-02
  3.083587e-01    1.954482e+00   5.009219e-02
  3.105691e-01    1.887229e+00   4.901256e-02
  3.127796e-01    1.902212e+00   4.899985e-02
  3.149900e-01    1.928479e+00   4.913146e-02
  3.172005e-01    1.892842e+00   4.847634e-02
  3.194109e-01    1.954549e+00   4.905681e-02
  3.216214e-01    1.958056e+00   4.890047e-02
  3.238319e-01    1.905923e+00   4.805393e-02
  3.260423e-01    1.942220e+00   4.831613e-02
  3.282528e-01    1.899816e+00   4.759555e-02
  3.304632e-01    1.918483e+00   4.764352e-02
  3.326737e-01    1.901596e+00   4.724830e-02
  3.348841e-01    1.908457e+00   4.714991e-02
  3.370946e-01    1.830553e+00   4.600381e-02
  3.393050e-01    1.848266e+00   4.605075e-02
  3.415155e-01    1.802119e+00   4.530124e-02
  3.437260e-01    1.850371e+00   4.573357e-02
  3.459364e-01    1.884750e+00   4.598573e-02
  3.481469e-01    1.873980e+00   4.568678e-02
  3.503573e-01    1.839795e+00   4.510324e-02
  3.525678e-01    1.853063e+00   4.510428e-02
  3.547782e-01    1.814805e+00   4.447490e-02
  3.569887e-01    1.813900e+00   4.430627e-02
  3.591992e-01    1.910506e+00   4.530992e-02
  3.614096e-01    1.847744e+00   4.440500e-02
  3.636201e-01    1.810349e+00   4.379887e-02
  3.658305e-01    1.851722e+00   4.414544e-02
  3.680410e-01    1.834983e+00   4.379432e-02
  3.702514e-01    1.776269e+00   4.294306e-02
  3.724619e-01    1.885557e+00   4.409374e-02
  3.746724e-01    1.865127e+00   4.370791e-02
  3.768828e-01    1.870921e+00   4.362845e-02
  3.790933e-01    1.781972e+00   4.243996e-02
  3.813037e-01    1.771599e+00   4.217780e-02
  3.835142e-01    1.808887e+00   4.247938e-02
  3.857246e-01    1.758841e+00   4.175206e-02
  3.879351e-01    1.844845e+00   4.262227e-02
  3.901455e-01    1.801066e+00   4.197945e-02
  3.923560e-01    1.828143e+00   4.215939e-02
  3.945665e-01    1.822600e+00   4.196196e-02
  3.967769e-01    1.839102e+00   4.201946e-02
  3.989874e-01    1.805911e+00   4.150857e-02
  4.011978e-01    1.814978e+00   4.148467e-02
  4.034083e-01    1.801400e+00   4.120232e-02
  4.056187e-01    1.810873e+00   4.118326e-02
  4.078292e-01    1.854792e+00   4.155354e-02
  4.100397e-01    1.830974e+00   4.115981e-02
  4.122501e-01    1.829812e+00   4.102366e-02
  4.144606e-01    1.802900e+00   4.060011e-02
  4.166710e-01    1.832462e+00   4.080990e-02
  4.188815e-01    1.850948e+00   4.089408e-02
  4.210919e-01    1.840772e+00   4.066199e-02
  4.233024e-01    1.862855e+00   4.078484e-02
  4.255128e-01    1.837373e+00   4.038788e-02
  4.277233e-01    1.783318e+00   3.967499e-02
  4.299338e-01    1.815439e+00   3.991553e-02
  4.321442e-01    1.769592e+00   3.929555e-02
  4.343547e-01    1.765172e+00   3.913544e-02
  4.365651e-01    1.751602e+00   3.887399e-02
  4.387756e-01    1.754726e+00   3.879967e-02
  4.409860e-01    1.745287e+00   3.858797e-02
  4.431965e-01    1.781092e+00   3.887400e-02
  4.454070e-01    1.772828e+00   3.867580e-02
  4.476174e-01    1.751580e+00   3.833779e-02
  4.498279e-01    1.709388e+00   3.777019e-02
  4.520383e-01    1.709883e+00   3.767198e-02
  4.542488e-01    1.750679e+00   3.801596e-02
  4.564592e-01    1.788439e+00   3.832065e-02
  4.586697e-01    1.764282e+00   3.795997e-02
  4.608801e-01    1.754264e+00   3.775064e-02
  4.630906e-01    1.780553e+00   3.793174e-02
  4.653011e-01    1.764533e+00   3.766143e-02
  4.675115e-01    1.752871e+00   3.743789e-02
  4.697220e-01    1.736323e+00   3.716323e-02
  4.719324e-01    1.712136e+00   3.680800e-02
  4.741429e-01    1.722168e+00   3.682056e-02
  4.763533e-01    1.707888e+00   3.657358e-02
  4.785638e-01    1.767362e+00   3.710882e-02
  4.807743e-01    1.761328e+00   3.695123e-02
  4.829847e-01    1.694148e+00   3.614813e-02
  4.851952e-01    1.700303e+00   3.612209e-02
  4.874056e-01    1.684016e+00   3.585805e-02
  4.896161e-01    1.659137e+00   3.550390e-02
  4.918265e-01    1.683187e+00   3.567150e-02
  4.940370e-01    1.677749e+00   3.552590e-02
  4.962475e-01    1.725401e+00   3.593791e-02
  4.984579e-01    1.768122e+00   3.629043e-02
  5.006684e-01    1.753000e+00   3.604684e-02
  5.028788e-01    1.732268e+00   3.574619e-02
  5.050893e-01    1.700011e+00   3.532569e-02
  5.072997e-01    1.674338e+00   3.497327e-02
  5.095102e-01    1.721521e+00   3.537767e-02
  5.117206e-01    1.702150e+00   3.509445e-02
  5.139311e-01    1.680840e+00   3.479151e-02
  5.161416e-01    1.688837e+00   3.479179e-02
  5.183520e-01    1.676647e+00   3.458359e-02
  5.205625e-01    1.682663e+00   3.456443e-02
  5.227729e-01    1.720817e+00   3.487257e-02
  5.249834e-01    1.674359e+00   3.431878e-02
  5.271938e-01    1.701315e+00   3.451320e-02
  5.294043e-01    1.740901e+00   3.483183e-02
  5.316148e-01    1.758529e+00   3.492757e-02
  5.338252e-01    1.817062e+00   3.542295e-02
  5.360357e-01    1.761385e+00   3.479666e-02
  5.382461e-01    1.717216e+00   3.427991e-02
  5.404566e-01    1.761401e+00   3.463912e-02
  5.426670e-01    1.736631e+00   3.431720e-02
  5.448775e-01    1.795661e+00   3.481761e-02
  5.470879e-01    1.791194e+00   3.469674e-02
  5.492984e-01    1.776506e+00   3.447734e-02
  5.515089e-01    1.830679e+00   3.492143e-02
  5.537193e-01    1.806082e+00   3.460965e-02
  5.559298e-01    1.803674e+00   3.451069e-02
  5.581402e-01    1.789694e+00   3.430158e-02
  5.603507e-01    1.780913e+00   3.414285e-02
  5.625611e-01    1.828077e+00   3.451692e-02
  5.647716e-01    1.818124e+00   3.434812e-02
  5.669821e-01    1.782400e+00   3.393566e-02
  5.691925e-01    1.776486e+00   3.380660e-02
  5.714030e-01    1.765733e+00   3.363227e-02
  5.736134e-01    1.742484e+00   3.333905e-02
  5.758239e-01    1.773112e+00   3.355900e-02
  5.780343e-01    1.719897e+00   3.298166e-02
  5.802448e-01    1.696077e+00   3.268392e-02
  5.824552e-01    1.714042e+00   3.278761e-02
  5.846657e-01    1.682412e+00   3.241597e-02
  5.868762e-01    1.692529e+00   3.244559e-02
  5.890866e-01    1.647075e+00   3.194056e-02
  5.912971e-01    1.649195e+00   3.189493e-02
  5.935075e-01    1.673205e+00   3.205985e-02
  5.957180e-01    1.704343e+00   3.229042e-02
  5.979284e-01    1.676338e+00   3.195865e-02
  6.001389e-01    1.677605e+00   3.190563e-02
  6.023494e-01    1.669229e+00   3.176126e-02
  6.045598e-01    1.654389e+00   3.155537e-02
  6.067703e-01    1.660795e+00   3.155284e-02
  6.089807e-01    1.669798e+00   3.157463e-02
  6.111912e-01    1.698233e+00   3.177875e-02
  6.134016e-01    1.728874e+00   3.200022e-02
  6.156121e-01    1.687094e+00   3.154836e-02
  6.178226e-01    1.669430e+00   3.132063e-02
  6.200330e-01    1.658029e+00   3.115193e-02
  6.222435e-01    1.696241e+00   3.144643e-02
  6.244539e-01    1.720770e+00   3.161098e-02
  6.266644e-01    1.726607e+00   3.160278e-02
  6.288748e-01    1.723406e+00   3.151202e-02
  6.310853e-01    1.719792e+00   3.141785e-02
  6.332957e-01    1.721841e+00   3.137586e-02
  6.355062e-01    1.703854e+00   3.115092e-02
  6.377167e-01    1.711608e+00   3.116180e-02
  6.399271e-01    1.716302e+00   3.114472e-02
  6.421376e-01    1.732022e+00   3.122730e-02
  6.443480e-01    1.747356e+00   3.130556e-02
  6.465585e-01    1.704787e+00   3.086331e-02
  6.487689e-01    1.667199e+00   3.046354e-02
  6.509794e-01    1.640002e+00   3.015703e-02
  6.531899e-01    1.691419e+00   3.056855e-02
  6.554003e-01    1.629968e+00   2.995170e-02
  6.576108e-01    1.601457e+00   2.963331e-02
  6.598212e-01    1.594105e+00   2.951026e-02
  6.620317e-01    1.647444e+00   2.994431e-02
  6.642421e-01    1.658718e+00   2.999101e-02
  6.664526e-01    1.645915e+00   2.982001e-02
  6.686630e-01    1.605309e+00   2.939542e-02
  6.708735e-01    1.625703e+00   2.952727e-02
  6.730840e-01    1.622245e+00   2.944208e-02
  6.752944e-01    1.633132e+00   2.948699e-02
  6.775049e-01    1.650355e+00   2.958824e-02
  6.797153e-01    1.651185e+00   2.954210e-02
  6.819258e-01    1.629625e+00   2.929567e-02
  6.841362e-01    1.609136e+00   2.905857e-02
  6.863467e-01    1.604044e+00   2.896057e-02
  6.885572e-01    1.616670e+00   2.902226e-02
  6.907676e-01    1.599768e+00   2.881839e-02
  6.929781e-01    1.624919e+00   2.899243e-02
  6.951885e-01    1.663435e+00   2.928207e-02
  6.973990e-01    1.627456e+00   2.891247e-02
  6.996094e-01    1.582266e+00   2.845808e-02
  7.018199e-01    1.577598e+00   2.836618e-02
  7.040303e-01    1.598360e+00   2.850208e-02
  7.062408e-01    1.584601e+00   2.832943e-02
  7.084513e-01    1.607270e+00   2.848171e-02
  7.106617e-01    1.621876e+00   2.856111e-02
  7.128722e-01    1.668936e+00   2.892240e-02
  7.150826e-01    1.638881e+00   2.861139e-02
  7.172931e-01    1.601875e+00   2.823777e-02
  7.195035e-01    1.594842e+00   2.812724e-02
  7.217140e-01    1.602375e+00   2.824350e-02
  7.239245e-01    1.589889e+00   2.836106e-02
  7.261349e-01    1.619849e+00   2.873720e-02
  7.283454e-01    1.583293e+00   2.848370e-02
  7.305558e-01    1.566397e+00   2.838515e-02
  7.327663e-01    1.623555e+00   2.894154e-02
  7.349767e-01    1.582882e+00   2.859317e-02
  7.371872e-01    1.566780e+00   2.843619e-02
  7.393976e-01    1.568551e+00   2.843802e-02
  7.416081e-01    1.605403e+00   2.875382e-02
  7.438186e-01    1.584158e+00   2.841817e-02
  7.460290e-01    1.594733e+00   2.821677e-02
  7.482395e-01    1.571723e+00   2.784145e-02
  7.504499e-01    1.588520e+00   2.785296e-02
  7.526604e-01    1.554986e+00   2.744157e-02
  7.548708e-01    1.601191e+00   2.775611e-02
  7.570813e-01    1.575194e+00   2.747890e-02
  7.592918e-01    1.580279e+00   2.748796e-02
  7.615022e-01    1.581297e+00   2.746296e-02
  7.637127e-01    1.633026e+00   2.787513e-02
  7.659231e-01    1.624050e+00   2.776595e-02
  7.681336e-01    1.617846e+00   2.768081e-02
  7.703440e-01    1.625542e+00   2.771486e-02
  7.725545e-01    1.631984e+00   2.773827e-02
  7.747650e-01    1.699867e+00   2.826961e-02
  7.769754e-01    1.638362e+00   2.769974e-02
  7.791859e-01    1.618140e+00   2.747405e-02
  7.813963e-01    1.576133e+00   2.706254e-02
  7.836068e-01    1.579123e+00   2.703627e-02
  7.858172e-01    1.652303e+00   2.760392e-02
  7.880277e-01    1.798616e+00   2.874536e-02
  7.902381e-01    2.040577e+00   3.056224e-02
  7.924486e-01    2.064662e+00   3.068524e-02
  7.946591e-01    1.779398e+00   2.843576e-02
  7.968695e-01    1.620902e+00   2.709120e-02
  7.990800e-01    1.640331e+00   2.720434e-02
  8.012904e-01    1.638690e+00   2.714371e-02
  8.035009e-01    1.668992e+00   2.734479e-02
  8.057113e-01    1.641608e+00   2.707263e-02
  8.079218e-01    1.658635e+00   2.716571e-02
  8.101323e-01    1.645242e+00   2.700987e-02
  8.123427e-01    1.634745e+00   2.687766e-02
  8.145532e-01    1.637673e+00   2.685570e-02
  8.167636e-01    1.628434e+00   2.673479e-02
  8.189741e-01    1.658938e+00   2.693906e-02
  8.211845e-01    1.657656e+00   2.688350e-02
  8.233950e-01    1.641622e+00   2.670969e-02
  8.256054e-01    1.639578e+00   2.664880e-02
  8.278159e-01    1.652116e+00   2.670633e-02
  8.300264e-01    1.681850e+00   2.690194e-02
  8.322368e-01    1.671652e+00   2.677670e-02
  8.344473e-01    1.668270e+00   2.670583e-02
  8.366577e-01    1.653441e+00   2.654412e-02
  8.388682e-01    1.663130e+00   2.657920e-02
  8.410786e-01    1.689700e+00   2.674800e-02
  8.432891e-01    1.676105e+00   2.659785e-02
  8.454996e-01    1.681877e+00   2.660143e-02
  8.477100e-01    1.675490e+00   2.650875e-02
  8.499205e-01    1.621521e+00   2.603737e-02
  8.521309e-01    1.655178e+00   2.626517e-02
  8.543414e-01    1.627771e+00   2.600618e-02
  8.565518e-01    1.631710e+00   2.599709e-02
  8.587623e-01    1.633222e+00   2.596863e-02
  8.609727e-01    1.643290e+00   2.600817e-02
  8.631832e-01    1.619481e+00   2.577926e-02
  8.653937e-01    1.612266e+00   2.568225e-02
  8.676041e-01    1.577793e+00   2.536785e-02
  8.698146e-01    1.602582e+00   2.552728e-02
  8.720250e-01    1.627118e+00   2.568274e-02
  8.742355e-01    1.639958e+00   2.574463e-02
  8.764459e-01    1.672009e+00   2.595534e-02
  8.786564e-01    1.605110e+00   2.539288e-02
  8.808669e-01    1.616065e+00   2.544075e-02
  8.830773e-01    1.632435e+00   2.553078e-02
  8.852878e-01    1.595292e+00   2.520084e-02
  8.874982e-01    1.600833e+00   2.520790e-02
  8.897087e-01    1.576591e+00   2.497894e-02
  8.919191e-01    1.620972e+00   2.529004e-02
  8.941296e-01    1.636196e+00   2.537087e-02
  8.963401e-01    1.604715e+00   2.508911e-02
  8.985505e-01    1.593511e+00   2.496450e-02
  9.007610e-01    1.604198e+00   2.501126e-02
  9.029714e-01    1.616944e+00   2.507441e-02
  9.051819e-01    1.614303e+00   2.501654e-02
  9.073923e-01    1.612316e+00   2.496441e-02
  9.096028e-01    1.619070e+00   2.498154e-02
  9.118132e-01    1.588481e+00   2.470833e-02
  9.140237e-01    1.593869e+00   2.471365e-02
  9.162342e-01    1.583576e+00   2.459933e-02
  9.184446e-01    1.602662e+00   2.471135e-02
  9.206551e-01    1.604090e+00   2.468671e-02
  9.228655e-01    1.610168e+00   2.469810e-02
  9.250760e-01    1.603509e+00   2.461158e-02
  9.272864e-01    1.624439e+00   2.473720e-02
  9.294969e-01    1.632231e+00   2.476032e-02
  9.317074e-01    1.661046e+00   2.494262e-02
  9.339178e-01    1.657603e+00   2.488274e-02
  9.361283e-01    1.642786e+00   2.473475e-02
  9.383387e-01    1.663863e+00   2.485906e-02
  9.405492e-01    1.651470e+00   2.473173e-02
  9.427596e-01    1.660299e+00   2.476204e-02
  9.449701e-01    1.686277e+00   2.492110e-02
  9.471805e-01    1.684780e+00   2.487477e-02
  9.493910e-01    1.684979e+00   2.484209e-02
  9.516015e-01    1.703709e+00   2.494490e-02
  9.538119e-01    1.723771e+00   2.505696e-02
  9.560224e-01    1.688523e+00   2.476455e-02
  9.582328e-01    1.702796e+00   2.483563e-02
  9.604433e-01    1.735282e+00   2.503591e-02
  9.626537e-01    1.794689e+00   2.542661e-02
  9.648642e-01    1.811553e+00   2.551082e-02
  9.670747e-01    1.831260e+00   2.561383e-02
  9.692851e-01    1.805461e+00   2.539896e-02
  9.714956e-01    1.842875e+00   2.562458e-02
  9.737060e-01    1.875605e+00   2.581719e-02
  9.759165e-01    1.831195e+00   2.547373e-02
  9.781269e-01    1.846658e+00   2.554760e-02
  9.803374e-01    1.860834e+00   2.561000e-02
  9.825478e-01    1.867616e+00   2.562279e-02
  9.847583e-01    1.868070e+00   2.559110e-02
  9.869688e-01    1.828245e+00   2.528297e-02
  9.891792e-01    1.789200e+00   2.497829e-02
  9.913897e-01    1.811537e+00   2.509979e-02
  9.936001e-01    1.798804e+00   2.497870e-02
  9.958106e-01    1.743055e+00   2.455517e-02
  9.980210e-01    1.710905e+00   2.429606e-02
  1.000231e+00    1.681696e+00   2.421975e-02
  1.002442e+00    1.643440e+00   2.406990e-02
  1.004652e+00    1.667870e+00   2.431576e-02
  1.006863e+00    1.631136e+00   2.409643e-02
  1.009073e+00    1.583500e+00   2.377828e-02
  1.011284e+00    1.573527e+00   2.373497e-02
  1.013494e+00    1.615222e+00   2.407120e-02
  1.015705e+00    1.660892e+00   2.443224e-02
  1.017915e+00    1.627306e+00   2.420060e-02
  1.020126e+00    1.596876e+00   2.398949e-02
  1.022336e+00    1.577772e+00   2.385728e-02
  1.024547e+00    1.562315e+00   2.375140e-02
  1.026757e+00    1.564467e+00   2.377617e-02
  1.028967e+00    1.556567e+00   2.372376e-02
  1.031178e+00    1.557992e+00   2.374083e-02
  1.033388e+00    1.540576e+00   2.361285e-02
  1.035599e+00    1.511443e+00   2.339192e-02
  1.037809e+00    1.513047e+00   2.340757e-02
  1.040020e+00    1.497546e+00   2.328863e-02
  1.042230e+00    1.468267e+00   2.306174e-02
  1.044441e+00    1.467954e+00   2.305906e-02
  1.046651e+00    1.511075e+00   2.339546e-02
  1.048862e+00    1.480085e+00   2.315354e-02
  1.051072e+00    1.493329e+00   2.325453e-02
  1.053282e+00    1.515229e+00   2.342348e-02
  1.055493e+00    1.499421e+00   2.329667e-02
  1.057703e+00    1.508780e+00   2.336772e-02
  1.059914e+00    1.531921e+00   2.354191e-02
  1.062124e+00    1.596608e+00   2.402962e-02
  1.064335e+00    1.632057e+00   2.429133e-02
  1.066545e+00    1.568025e+00   2.380390e-02
  1.068756e+00    1.507821e+00   2.333867e-02
  1.070966e+00    1.477945e+00   2.309975e-02
  1.073177e+00    1.494398e+00   2.322186e-02
  1.075387e+00    1.488165e+00   2.316814e-02
  1.077597e+00    1.461821e+00   2.295491e-02
  1.079808e+00    1.444772e+00   2.268880e-02
  1.082018e+00    1.445419e+00   2.250594e-02
  1.084229e+00    1.439148e+00   2.234783e-02
  1.086439e+00    1.465653e+00   2.246493e-02
  1.088650e+00    1.436644e+00   2.216631e-02
  1.090860e+00    1.436812e+00   2.210036e-02
  1.093071e+00    1.456839e+00   2.219155e-02
  1.095281e+00    1.461204e+00   2.216721e-02
  1.097492e+00    1.448766e+00   2.201770e-02
  1.099702e+00    1.423393e+00   2.177295e-02
  1.101912e+00    1.429981e+00   2.177458e-02
  1.104123e+00    1.435894e+00   2.177134e-02
  1.106333e+00    1.396904e+00   2.142986e-02
  1.108544e+00    1.401260e+00   2.141944e-02
  1.110754e+00    1.392824e+00   2.131233e-02
  1.112965e+00    1.421084e+00   2.148694e-02
  1.115175e+00    1.398187e+00   2.127230e-02
  1.117386e+00    1.411868e+00   2.133687e-02
  1.119596e+00    1.404638e+00   2.124442e-02
  1.121807e+00    1.401685e+00   2.118336e-02
  1.124017e+00    1.392056e+00   2.107402e-02
  1.126228e+00    1.387563e+00   2.100446e-02
  1.128438e+00    1.391534e+00   2.099784e-02
  1.130648e+00    1.391118e+00   2.096049e-02
  1.132859e+00    1.387047e+00   2.089554e-02
  1.135069e+00    1.399059e+00   2.095103e-02
  1.137280e+00    1.399977e+00   2.092480e-02
  1.139490e+00    1.357149e+00   2.056954e-02
  1.141701e+00    1.363716e+00   2.058636e-02
  1.143911e+00    1.384435e+00   2.071029e-02
  1.146122e+00    1.362782e+00   2.051589e-02
  1.148332e+00    1.379482e+00   2.060933e-02
  1.150543e+00    1.370279e+00   2.050972e-02
  1.152753e+00    1.365765e+00   2.044519e-02
  1.154963e+00    1.357056e+00   2.034904e-02
  1.157174e+00    1.381655e+00   2.050238e-02
  1.159384e+00    1.407749e+00   2.066484e-02
  1.161595e+00    1.410331e+00   2.065354e-02
  1.163805e+00    1.390240e+00   2.047639e-02
  1.166016e+00    1.399685e+00   2.051607e-02
  1.168226e+00    1.383538e+00   2.036824e-02
  1.170437e+00    1.365658e+00   2.020758e-02
  1.172647e+00    1.379623e+00   2.028157e-02
  1.174858e+00    1.384877e+00   2.029187e-02
  1.177068e+00    1.370223e+00   2.015588e-02
  1.179278e+00    1.372650e+00   2.014505e-02
  1.181489e+00    1.362222e+00   2.004133e-02
  1.183699e+00    1.384803e+00   2.017892e-02
  1.185910e+00    1.379464e+00   2.011200e-02
  1.188120e+00    1.371076e+00   2.002394e-02
  1.190331e+00    1.361972e+00   1.993051e-02
  1.192541e+00    1.364511e+00   1.992159e-02
  1.194752e+00    1.363063e+00   1.988389e-02
  1.196962e+00    1.343174e+00   1.971262e-02
  1.199173e+00    1.346413e+00   1.970991e-02
  1.201383e+00    1.348658e+00   1.969918e-02
  1.203593e+00    1.351796e+00   1.969726e-02
  1.205804e+00    1.355715e+00   1.969981e-02
  1.208014e+00    1.383620e+00   1.987432e-02
  1.210225e+00    1.465337e+00   2.042640e-02
  1.212435e+00    1.544011e+00   2.094110e-02
  1.214646e+00    1.475957e+00   2.044713e-02
  1.216856e+00    1.385330e+00   1.978361e-02
  1.219067e+00    1.359631e+00   1.957469e-02
  1.221277e+00    1.351664e+00   1.949220e-02
  1.223488e+00    1.346009e+00   1.942569e-02
  1.225698e+00    1.357316e+00   1.948012e-02
  1.227909e+00    1.378742e+00   1.960278e-02
  1.230119e+00    1.383457e+00   1.960405e-02
  1.232329e+00    1.372689e+00   1.949660e-02
  1.234540e+00    1.417012e+00   1.977785e-02
  1.236750e+00    1.398736e+00   1.961910e-02
  1.238961e+00    1.373878e+00   1.941676e-02
  1.241171e+00    1.402217e+00   1.959133e-02
  1.243382e+00    1.446308e+00   1.987263e-02
  1.245592e+00    1.469142e+00   2.000377e-02
  1.247803e+00    1.456870e+00   1.989546e-02
  1.250013e+00    1.496289e+00   2.013802e-02
  1.252224e+00    1.623126e+00   2.094867e-02
  1.254434e+00    1.665167e+00   2.119194e-02
  1.256644e+00    1.510991e+00   2.016254e-02
  1.258855e+00    1.365387e+00   1.914303e-02
  1.261065e+00    1.335568e+00   1.890958e-02
  1.263276e+00    1.342348e+00   1.893462e-02
  1.265486e+00    1.361778e+00   1.904819e-02
  1.267697e+00    1.373948e+00   1.910990e-02
  1.269907e+00    1.374866e+00   1.909339e-02
  1.272118e+00    1.366992e+00   1.901590e-02
  1.274328e+00    1.403060e+00   1.924196e-02
  1.276539e+00    1.466381e+00   1.964759e-02
  1.278749e+00    1.572643e+00   2.032298e-02
  1.280959e+00    1.696683e+00   2.108397e-02
  1.283170e+00    1.731611e+00   2.127456e-02
  1.285380e+00    1.565928e+00   2.020703e-02
  1.287591e+00    1.430553e+00   1.929113e-02
  1.289801e+00    1.378836e+00   1.891773e-02
  1.292012e+00    1.399728e+00   1.904314e-02
  1.294222e+00    1.368876e+00   1.881571e-02
  1.296433e+00    1.394842e+00   1.897749e-02
  1.298643e+00    1.422191e+00   1.914571e-02
  1.300854e+00    1.398176e+00   1.896670e-02
  1.303064e+00    1.369627e+00   1.875268e-02
  1.305274e+00    1.353791e+00   1.862249e-02
  1.307485e+00    1.373559e+00   1.873623e-02
  1.309695e+00    1.377913e+00   1.874343e-02
  1.311906e+00    1.368179e+00   1.865526e-02
  1.314116e+00    1.371139e+00   1.865446e-02
  1.316327e+00    1.392099e+00   1.877448e-02
  1.318537e+00    1.399024e+00   1.879884e-02
  1.320748e+00    1.369374e+00   1.857688e-02
  1.322958e+00    1.378266e+00   1.861633e-02
  1.325169e+00    1.374593e+00   1.857034e-02
  1.327379e+00    1.355617e+00   1.841983e-02
  1.329589e+00    1.355028e+00   1.839473e-02
  1.331800e+00    1.395482e+00   1.864624e-02
  1.334010e+00    1.376786e+00   1.850008e-02
  1.336221e+00    1.338169e+00   1.821712e-02
  1.338431e+00    1.352144e+00   1.829110e-02
  1.340642e+00    1.363256e+00   1.843059e-02
  1.342852e+00    1.355156e+00   1.847662e-02
  1.345063e+00    1.357317e+00   1.854097e-02
  1.347273e+00    1.344788e+00   1.849037e-02
  1.349484e+00    1.376914e+00   1.873787e-02
  1.351694e+00    1.361963e+00   1.865868e-02
  1.353905e+00    1.347998e+00   1.858077e-02
  1.356115e+00    1.341707e+00   1.855234e-02
  1.358325e+00    1.331988e+00   1.849827e-02
  1.360536e+00    1.324480e+00   1.845755e-02
  1.362746e+00    1.353734e+00   1.866988e-02
  1.364957e+00    1.312327e+00   1.838969e-02
  1.367167e+00    1.320914e+00   1.845682e-02
  1.369378e+00    1.336678e+00   1.857263e-02
  1.371588e+00    1.312530e+00   1.840919e-02
  1.373799e+00    1.309523e+00   1.839169e-02
  1.376009e+00    1.335668e+00   1.857778e-02
  1.378220e+00    1.323477e+00   1.849534e-02
  1.380430e+00    1.298690e+00   1.832398e-02
  1.382640e+00    1.306282e+00   1.837837e-02
  1.384851e+00    1.275790e+00   1.816347e-02
  1.387061e+00    1.313311e+00   1.842889e-02
  1.389272e+00    1.330463e+00   1.854909e-02
  1.391482e+00    1.303654e+00   1.836058e-02
  1.393693e+00    1.289126e+00   1.825711e-02
  1.395903e+00    1.263729e+00   1.807489e-02
  1.398114e+00    1.284852e+00   1.822394e-02
  1.400324e+00    1.276355e+00   1.816144e-02
  1.402535e+00    1.309894e+00   1.839618e-02
  1.404745e+00    1.284211e+00   1.821257e-02
  1.406955e+00    1.288607e+00   1.824100e-02
  1.409166e+00    1.254460e+00   1.799441e-02
  1.411376e+00    1.269293e+00   1.809735e-02
  1.413587e+00    1.285488e+00   1.820862e-02
  1.415797e+00    1.251250e+00   1.796098e-02
  1.418008e+00    1.264645e+00   1.801506e-02
  1.420218e+00    1.276688e+00   1.795053e-02
  1.422429e+00    1.282470e+00   1.790540e-02
  1.424639e+00    1.264606e+00   1.771571e-02
  1.426850e+00    1.268408e+00   1.768764e-02
  1.429060e+00    1.262914e+00   1.760047e-02
  1.431270e+00    1.266864e+00   1.758369e-02
  1.433481e+00    1.281149e+00   1.764142e-02
  1.435691e+00    1.306974e+00   1.777936e-02
  1.437902e+00    1.315105e+00   1.779748e-02
  1.440112e+00    1.311543e+00   1.773744e-02
  1.442323e+00    1.298488e+00   1.761552e-02
  1.444533e+00    1.329952e+00   1.779436e-02
  1.446744e+00    1.301509e+00   1.757155e-02
  1.448954e+00    1.282534e+00   1.741263e-02
  1.451165e+00    1.289882e+00   1.743246e-02
  1.453375e+00    1.291129e+00   1.741261e-02
  1.455586e+00    1.270262e+00   1.724315e-02
  1.457796e+00    1.259896e+00   1.714526e-02
  1.460006e+00    1.255340e+00   1.708712e-02
  1.462217e+00    1.255538e+00   1.706241e-02
  1.464427e+00    1.276170e+00   1.717634e-02
  1.466638e+00    1.276298e+00   1.715183e-02
  1.468848e+00    1.284220e+00   1.717948e-02
  1.471059e+00    1.295530e+00   1.722961e-02
  1.473269e+00    1.288527e+00   1.715844e-02
  1.475480e+00    1.255285e+00   1.691201e-02
  1.477690e+00    1.244903e+00   1.681831e-02
  1.479901e+00    1.265547e+00   1.693335e-02
  1.482111e+00    1.276635e+00   1.698399e-02
  1.484321e+00    1.259906e+00   1.684928e-02
  1.486532e+00    1.283612e+00   1.698457e-02
  1.488742e+00    1.269603e+00   1.686896e-02
  1.490953e+00    1.256503e+00   1.675916e-02
  1.493163e+00    1.247289e+00   1.667547e-02
  1.495374e+00    1.257854e+00   1.672448e-02
  1.497584e+00    1.246953e+00   1.663035e-02
  1.499795e+00    1.262477e+00   1.671187e-02
  1.502005e+00    1.249550e+00   1.660449e-02
  1.504216e+00    1.277204e+00   1.676604e-02
  1.506426e+00    1.270124e+00   1.669859e-02
  1.508636e+00    1.258981e+00   1.660474e-02
  1.510847e+00    1.256168e+00   1.656435e-02
  1.513057e+00    1.240043e+00   1.643276e-02
  1.515268e+00    1.237571e+00   1.639083e-02
  1.517478e+00    1.278721e+00   1.663570e-02
  1.519689e+00    1.257268e+00   1.647060e-02
  1.521899e+00    1.257492e+00   1.644889e-02
  1.524110e+00    1.265127e+00   1.647834e-02
  1.526320e+00    1.252035e+00   1.637327e-02
  1.528531e+00    1.255884e+00   1.637861e-02
  1.530741e+00    1.255785e+00   1.635877e-02
  1.532951e+00    1.263252e+00   1.638766e-02
  1.535162e+00    1.246400e+00   1.636445e-02
  1.537372e+00    1.250351e+00   1.645733e-02
  1.539583e+00    1.232274e+00   1.637193e-02
  1.541793e+00    1.247457e+00   1.647942e-02
  1.544004e+00    1.260828e+00   1.656777e-02
  1.546214e+00    1.234260e+00   1.639080e-02
  1.548425e+00    1.250483e+00   1.649841e-02
  1.550635e+00    1.238019e+00   1.642564e-02
  1.552846e+00    1.246673e+00   1.649261e-02
  1.555056e+00    1.233443e+00   1.636356e-02
  1.557266e+00    1.258207e+00   1.641597e-02
  1.559477e+00    1.257985e+00   1.635507e-02
  1.561687e+00    1.259519e+00   1.633420e-02
  1.563898e+00    1.250282e+00   1.625698e-02
  1.566108e+00    1.259288e+00   1.629938e-02
  1.568319e+00    1.248857e+00   1.621609e-02
  1.570529e+00    1.250210e+00   1.619968e-02
  1.572740e+00    1.274760e+00   1.632999e-02
  1.574950e+00    1.271870e+00   1.628490e-02
  1.577161e+00    1.260399e+00   1.618564e-02
  1.579371e+00    1.261880e+00   1.617132e-02
  1.581582e+00    1.230038e+00   1.594634e-02
  1.583792e+00    1.250486e+00   1.606026e-02
  1.586002e+00    1.265447e+00   1.613828e-02
  1.588213e+00    1.308499e+00   1.639281e-02
  1.590423e+00    1.325611e+00   1.647896e-02
  1.592634e+00    1.288972e+00   1.622762e-02
  1.594844e+00    1.255744e+00   1.599559e-02
  1.597055e+00    1.235324e+00   1.584455e-02
  1.599265e+00    1.258497e+00   1.597161e-02
  1.601476e+00    1.267266e+00   1.600664e-02
  1.603686e+00    1.253953e+00   1.590248e-02
  1.605897e+00    1.232903e+00   1.574831e-02
  1.608107e+00    1.235281e+00   1.574395e-02
  1.610317e+00    1.244670e+00   1.578431e-02
  1.612528e+00    1.260636e+00   1.586584e-02
  1.614738e+00    1.284369e+00   1.599514e-02
  1.616949e+00    1.299030e+00   1.606664e-02
  1.619159e+00    1.305564e+00   1.608766e-02
  1.621370e+00    1.262624e+00   1.580212e-02
  1.623580e+00    1.249892e+00   1.570363e-02
  1.625791e+00    1.226007e+00   1.553448e-02
  1.628001e+00    1.230086e+00   1.554182e-02
  1.630212e+00    1.198629e+00   1.532403e-02
  1.632422e+00    1.169048e+00   1.511598e-02
  1.634632e+00    1.172010e+00   1.511787e-02
  1.636843e+00    1.179970e+00   1.515158e-02
  1.639053e+00    1.132627e+00   1.482753e-02
  1.641264e+00    1.137566e+00   1.484295e-02
  1.643474e+00    1.145060e+00   1.487450e-02
  1.645685e+00    1.146575e+00   1.486777e-02
  1.647895e+00    1.146607e+00   1.485143e-02
  1.650106e+00    1.168094e+00   1.497281e-02
  1.652316e+00    1.165898e+00   1.494213e-02
  1.654527e+00    1.173387e+00   1.497315e-02
  1.656737e+00    1.129967e+00   1.467701e-02
  1.658947e+00    1.105192e+00   1.449910e-02
  1.661158e+00    1.127124e+00   1.462600e-02
  1.663368e+00    1.122085e+00   1.457724e-02
  1.665579e+00    1.120584e+00   1.455135e-02
  1.667789e+00    1.132280e+00   1.461072e-02
  1.670000e+00    1.164115e+00   1.479885e-02
  1.672210e+00    1.199795e+00   1.500742e-02
  1.674421e+00    1.213015e+00   1.507383e-02
  1.676631e+00    1.196790e+00   1.495614e-02
  1.678842e+00    1.209956e+00   1.502160e-02
  1.681052e+00    1.207273e+00   1.498881e-02
  1.683263e+00    1.165598e+00   1.471217e-02
  1.685473e+00    1.178926e+00   1.478024e-02
  1.687683e+00    1.176125e+00   1.474661e-02
  1.689894e+00    1.143806e+00   1.452637e-02
  1.692104e+00    1.124830e+00   1.439010e-02
  1.694315e+00    1.134751e+00   1.443849e-02
  1.696525e+00    1.119663e+00   1.432670e-02
  1.698736e+00    1.098765e+00   1.417731e-02
  1.700946e+00    1.067896e+00   1.396156e-02
  1.703157e+00    1.054006e+00   1.385583e-02
  1.705367e+00    1.057870e+00   1.386668e-02
  1.707578e+00    1.049984e+00   1.380031e-02
  1.709788e+00    1.039176e+00   1.371503e-02
  1.711998e+00    1.035664e+00   1.367688e-02
  1.714209e+00    1.018377e+00   1.354796e-02
  1.716419e+00    1.038139e+00   1.366447e-02
  1.718630e+00    1.040890e+00   1.366824e-02
  1.720840e+00    1.037055e+00   1.362881e-02
  1.723051e+00    1.014723e+00   1.346745e-02
  1.725261e+00    1.023554e+00   1.351124e-02
  1.727472e+00    1.031456e+00   1.354902e-02
  1.729682e+00    1.023880e+00   1.348569e-02
  1.731893e+00    1.007979e+00   1.336665e-02
  1.734103e+00    1.003318e+00   1.332197e-02
  1.736313e+00    9.886428e-01   1.321028e-02
  1.738524e+00    9.929600e-01   1.322534e-02
  1.740734e+00    9.909008e-01   1.319796e-02
  1.742945e+00    9.800987e-01   1.311250e-02
  1.745155e+00    9.822567e-01   1.311353e-02
  1.747366e+00    9.769073e-01   1.306405e-02
  1.749576e+00    9.915519e-01   1.314790e-02
  1.751787e+00    9.926374e-01   1.314167e-02
  1.753997e+00    9.911784e-01   1.311858e-02
  1.756208e+00    9.849979e-01   1.306432e-02
  1.758418e+00    9.664227e-01   1.292751e-02
  1.760628e+00    9.240351e-01   1.262777e-02
  1.762839e+00    9.335405e-01   1.267955e-02
  1.765049e+00    9.288012e-01   1.263443e-02
  1.767260e+00    9.286577e-01   1.262086e-02
  1.769470e+00    9.120257e-01   1.249465e-02
  1.771681e+00    9.126647e-01   1.248615e-02
  1.773891e+00    9.079632e-01   1.244119e-02
  1.776102e+00    9.231403e-01   1.253203e-02
  1.778312e+00    9.379273e-01   1.261931e-02
  1.780523e+00    9.582584e-01   1.274252e-02
  1.782733e+00    9.361584e-01   1.258207e-02
  1.784944e+00    9.033788e-01   1.234716e-02
  1.787154e+00    9.142486e-01   1.240878e-02
  1.789364e+00    9.336450e-01   1.252725e-02
  1.791575e+00    9.242060e-01   1.245123e-02
  1.793785e+00    9.211062e-01   1.241795e-02
  1.795996e+00    9.100691e-01   1.233088e-02
  1.798206e+00    9.008540e-01   1.225590e-02
  1.800417e+00    9.028113e-01   1.225660e-02
  1.802627e+00    9.157142e-01   1.233195e-02
  1.804838e+00    9.155708e-01   1.231884e-02
  1.807048e+00    9.137385e-01   1.229365e-02
  1.809259e+00    8.872092e-01   1.210043e-02
  1.811469e+00    8.915361e-01   1.211502e-02
  1.813679e+00    8.783875e-01   1.201058e-02
  1.815890e+00    8.976771e-01   1.212699e-02
  1.818100e+00    8.954029e-01   1.209653e-02
  1.820311e+00    8.914650e-01   1.205514e-02
  1.822521e+00    9.096816e-01   1.216269e-02
  1.824732e+00    8.898038e-01   1.201426e-02
  1.826942e+00    9.001106e-01   1.207121e-02
  1.829153e+00    9.182501e-01   1.218033e-02
  1.831363e+00    9.175367e-01   1.216335e-02
  1.833574e+00    9.223790e-01   1.218344e-02
  1.835784e+00    9.118380e-01   1.210202e-02
  1.837994e+00    8.802485e-01   1.187878e-02
  1.840205e+00    8.798429e-01   1.186485e-02
  1.842415e+00    8.638781e-01   1.174501e-02
  1.844626e+00    8.503152e-01   1.164101e-02
  1.846836e+00    8.645464e-01   1.172661e-02
  1.849047e+00    8.500980e-01   1.161672e-02
  1.851257e+00    8.737215e-01   1.176737e-02
  1.853468e+00    8.723443e-01   1.174928e-02
  1.855678e+00    8.382803e-01   1.150882e-02
  1.857889e+00    8.460519e-01   1.155359e-02
  1.860099e+00    8.620879e-01   1.165392e-02
  1.862309e+00    8.631415e-01   1.165249e-02
  1.864520e+00    8.503101e-01   1.155703e-02
  1.866730e+00    8.424158e-01   1.149393e-02
  1.868941e+00    8.614722e-01   1.161219e-02
  1.871151e+00    8.654681e-01   1.162763e-02
  1.873362e+00    8.575543e-01   1.156295e-02
  1.875572e+00    8.271976e-01   1.134566e-02
  1.877783e+00    8.345558e-01   1.138466e-02
  1.879993e+00    8.407190e-01   1.141550e-02
  1.882204e+00    8.527104e-01   1.148568e-02
  1.884414e+00    8.502309e-01   1.145785e-02
  1.886624e+00    8.480834e-01   1.143228e-02
  1.888835e+00    8.384721e-01   1.135636e-02
  1.891045e+00    8.233853e-01   1.124295e-02
  1.893256e+00    8.290703e-01   1.127066e-02
  1.895466e+00    8.488349e-01   1.139297e-02
  1.897677e+00    8.295524e-01   1.125195e-02
  1.899887e+00    8.388361e-01   1.130372e-02
  1.902098e+00    8.362608e-01   1.127548e-02
  1.904308e+00    8.437146e-01   1.131496e-02
  1.906519e+00    8.207796e-01   1.114934e-02
  1.908729e+00    8.145602e-01   1.109648e-02
  1.910940e+00    8.432122e-01   1.127873e-02
  1.913150e+00    8.605816e-01   1.138350e-02
  1.915360e+00    8.418412e-01   1.124815e-02
  1.917571e+00    8.246025e-01   1.112150e-02
  1.919781e+00    8.297623e-01   1.114550e-02
  1.921992e+00    8.110334e-01   1.100843e-02
  1.924202e+00    8.280750e-01   1.111265e-02
  1.926413e+00    8.178326e-01   1.103340e-02
  1.928623e+00    8.048429e-01   1.093495e-02
  1.930834e+00    8.169433e-01   1.100638e-02
  1.933044e+00    8.159861e-01   1.098923e-02
  1.935255e+00    8.280678e-01   1.105986e-02
  1.937465e+00    8.023319e-01   1.087628e-02
  1.939675e+00    8.172881e-01   1.096625e-02
  1.941886e+00    8.172109e-01   1.095539e-02
  1.944096e+00    7.978727e-01   1.081483e-02
  1.946307e+00    8.150039e-01   1.091989e-02
  1.948517e+00    7.889254e-01   1.073341e-02
  1.950728e+00    7.874533e-01   1.071320e-02
  1.952938e+00    7.885528e-01   1.071065e-02
  1.955149e+00    8.020601e-01   1.079172e-02
  1.957359e+00    8.013616e-01   1.077696e-02
  1.959570e+00    7.858326e-01   1.066120e-02
  1.961780e+00    8.007502e-01   1.075196e-02
  1.963990e+00    7.781377e-01   1.058905e-02
  1.966201e+00    7.840813e-01   1.061936e-02
  1.968411e+00    7.879999e-01   1.063575e-02
  1.970622e+00    8.105950e-01   1.077688e-02
  1.972832e+00    8.151684e-01   1.079713e-02
  1.975043e+00    7.948991e-01   1.065195e-02
  1.977253e+00    8.052533e-01   1.071100e-02
  1.979464e+00    8.040010e-01   1.069252e-02
  1.981674e+00    8.010347e-01   1.066240e-02
  1.983885e+00    7.791016e-01   1.050541e-02
  1.986095e+00    7.839021e-01   1.052798e-02
  1.988305e+00    7.954448e-01   1.059523e-02
  1.990516e+00    7.986538e-01   1.060653e-02
  1.992726e+00    8.103760e-01   1.067421e-02
  1.994937e+00    8.113653e-01   1.067038e-02
  1.997147e+00    7.972458e-01   1.056727e-02
  1.999358e+00    7.987765e-01   1.056740e-02
  2.001568e+00    8.068619e-01   1.060970e-02
  2.003779e+00    8.017848e-01   1.056414e-02
  2.005989e+00    8.007442e-01   1.054503e-02
  2.008200e+00    8.092435e-01   1.058903e-02
  2.010410e+00    8.016810e-01   1.052745e-02
  2.012621e+00    7.819209e-01   1.038509e-02
  2.014831e+00    7.768376e-01   1.033975e-02
  2.017041e+00    7.793950e-01   1.034626e-02
  2.019252e+00    7.896929e-01   1.040429e-02
  2.021462e+00    7.737319e-01   1.028904e-02
  2.023673e+00    7.999242e-01   1.045213e-02
  2.025883e+00    8.175813e-01   1.055702e-02
  2.028094e+00    7.910210e-01   1.037431e-02
  2.030304e+00    7.850313e-01   1.032527e-02
  2.032515e+00    7.966065e-01   1.039158e-02
  2.034725e+00    8.045544e-01   1.043359e-02
  2.036936e+00    8.001583e-01   1.039545e-02
  2.039146e+00    7.837276e-01   1.027844e-02
  2.041356e+00    7.700992e-01   1.017894e-02
  2.043567e+00    7.983868e-01   1.035461e-02
  2.045777e+00    8.329841e-01   1.056690e-02
  2.047988e+00    7.995302e-01   1.034291e-02
  2.050198e+00    7.876554e-01   1.025718e-02
  2.052409e+00    7.592513e-01   1.006284e-02
  2.054619e+00    7.706158e-01   1.013041e-02
  2.056830e+00    7.463143e-01   9.962248e-03
  2.059040e+00    7.542344e-01   1.000742e-02
  2.061251e+00    7.700534e-01   1.010450e-02
  2.063461e+00    7.610118e-01   1.003734e-02
  2.065671e+00    7.595723e-01   1.001908e-02
  2.067882e+00    7.422133e-01   9.894946e-03
  2.070092e+00    7.555155e-01   9.973981e-03
  2.072303e+00    7.634454e-01   1.001693e-02
  2.074513e+00    7.654224e-01   1.002047e-02
  2.076724e+00    7.667056e-01   1.001926e-02
  2.078934e+00    7.349320e-01   9.800501e-03
  2.081145e+00    7.495813e-01   9.888567e-03
  2.083355e+00    7.720225e-01   1.002612e-02
  2.085566e+00    8.135437e-01   1.028288e-02
  2.087776e+00    8.454725e-01   1.047256e-02
  2.089986e+00    8.453006e-01   1.046212e-02
  2.092197e+00    8.401604e-01   1.042068e-02
  2.094407e+00    8.342367e-01   1.037409e-02
  2.096618e+00    7.850373e-01   1.005434e-02
  2.098828e+00    7.420156e-01   9.765585e-03
  2.101039e+00    7.370511e-01   9.723853e-03
  2.103249e+00    7.099697e-01   9.535003e-03
  2.105460e+00    7.058673e-01   9.498530e-03
  2.107670e+00    7.377923e-01   9.702164e-03
  2.109881e+00    7.188594e-01   9.567775e-03
  2.112091e+00    7.335713e-01   9.656137e-03
  2.114301e+00    7.405226e-01   9.692911e-03
  2.116512e+00    7.228690e-01   9.567875e-03
  2.118722e+00    7.197427e-01   9.538371e-03
  2.120933e+00    7.184139e-01   9.520696e-03
  2.123143e+00    7.261565e-01   9.562912e-03
  2.125354e+00    7.107131e-01   9.452196e-03
  2.127564e+00    7.304115e-01   9.573460e-03
  2.129775e+00    7.291767e-01   9.556573e-03
  2.131985e+00    7.256430e-01   9.524254e-03
  2.134196e+00    7.175274e-01   9.462233e-03
  2.136406e+00    7.028249e-01   9.356106e-03
  2.138617e+00    7.069544e-01   9.375105e-03
  2.140827e+00    7.111931e-01   9.419263e-03
  2.143037e+00    7.019934e-01   9.403453e-03
  2.145248e+00    7.015809e-01   9.422626e-03
  2.147458e+00    6.922948e-01   9.375066e-03
  2.149669e+00    6.947032e-01   9.403137e-03
  2.151879e+00    7.060191e-01   9.488658e-03
  2.154090e+00    6.992213e-01   9.450189e-03
  2.156300e+00    6.823474e-01   9.341962e-03
  2.158511e+00    7.010449e-01   9.474404e-03
  2.160721e+00    6.999331e-01   9.471713e-03
  2.162932e+00    6.997067e-01   9.473925e-03
  2.165142e+00    7.013342e-01   9.487976e-03
  2.167352e+00    6.958281e-01   9.453558e-03
  2.169563e+00    7.003974e-01   9.486519e-03
  2.171773e+00    6.984506e-01   9.475770e-03
  2.173984e+00    6.876428e-01   9.403598e-03
  2.176194e+00    6.812322e-01   9.360826e-03
  2.178405e+00    6.867213e-01   9.399173e-03
  2.180615e+00    6.870574e-01   9.402142e-03
  2.182826e+00    6.834562e-01   9.378153e-03
  2.185036e+00    6.966320e-01   9.468160e-03
  2.187247e+00    6.928938e-01   9.442681e-03
  2.189457e+00    6.897814e-01   9.421035e-03
  2.191667e+00    6.910645e-01   9.429619e-03
  2.193878e+00    6.875397e-01   9.404981e-03
  2.196088e+00    6.798365e-01   9.351456e-03
  2.198299e+00    6.831189e-01   9.372917e-03
  2.200509e+00    6.979377e-01   9.472961e-03
  2.202720e+00    6.861778e-01   9.391680e-03
  2.204930e+00    6.926720e-01   9.434747e-03
  2.207141e+00    7.056147e-01   9.521342e-03
  2.209351e+00    7.003806e-01   9.484076e-03
  2.211562e+00    6.920294e-01   9.425722e-03
  2.213772e+00    6.784083e-01   9.276956e-03
  2.215982e+00    6.610500e-01   9.113776e-03
  2.218193e+00    6.802462e-01   9.215412e-03
  2.220403e+00    6.873811e-01   9.238810e-03
  2.222614e+00    6.836699e-01   9.192729e-03
  2.224824e+00    6.797720e-01   9.147025e-03
  2.227035e+00    6.790560e-01   9.124677e-03
  2.229245e+00    6.608921e-01   8.984987e-03
  2.231456e+00    6.718990e-01   9.043861e-03
  2.233666e+00    6.568956e-01   8.927401e-03
  2.235877e+00    6.549670e-01   8.900172e-03
  2.238087e+00    6.783131e-01   9.043822e-03
  2.240298e+00    6.976167e-01   9.157591e-03
  2.242508e+00    6.660035e-01   8.932570e-03
  2.244718e+00    6.861710e-01   9.050804e-03
  2.246929e+00    6.733817e-01   8.951581e-03
  2.249139e+00    6.686537e-01   8.907711e-03
  2.251350e+00    6.497027e-01   8.769030e-03
  2.253560e+00    6.592005e-01   8.821355e-03
  2.255771e+00    6.824343e-01   8.963936e-03
  2.257981e+00    6.595689e-01   8.801362e-03
  2.260192e+00    6.770110e-01   8.905737e-03
  2.262402e+00    6.775641e-01   8.898442e-03
  2.264613e+00    6.608430e-01   8.777135e-03
  2.266823e+00    6.614162e-01   8.770553e-03
  2.269033e+00    6.695285e-01   8.813732e-03
  2.271244e+00    6.882297e-01   8.925406e-03
  2.273454e+00    6.748415e-01   8.827793e-03
  2.275665e+00    6.861240e-01   8.890809e-03
  2.277875e+00    6.734402e-01   8.798212e-03
  2.280086e+00    6.633215e-01   8.721816e-03
  2.282296e+00    6.550186e-01   8.657662e-03
  2.284507e+00    6.581003e-01   8.667889e-03
  2.286717e+00    6.581127e-01   8.658500e-03
  2.288928e+00    6.514170e-01   8.604518e-03
  2.291138e+00    6.408077e-01   8.524861e-03
  2.293348e+00    6.526071e-01   8.593447e-03
  2.295559e+00    6.594268e-01   8.628907e-03
  2.297769e+00    6.619021e-01   8.635782e-03
  2.299980e+00    6.648129e-01   8.645343e-03
  2.302190e+00    6.510853e-01   8.546506e-03
  2.304401e+00    6.568329e-01   8.574788e-03
  2.306611e+00    6.554447e-01   8.556504e-03
  2.308822e+00    6.567559e-01   8.556632e-03
  2.311032e+00    6.496471e-01   8.503758e-03
  2.313243e+00    6.458319e-01   8.472491e-03
  2.315453e+00    6.552180e-01   8.526233e-03
  2.317663e+00    6.470424e-01   8.463746e-03
  2.319874e+00    6.393484e-01   8.404600e-03
  2.322084e+00    6.580776e-01   8.517740e-03
  2.324295e+00    6.610507e-01   8.528661e-03
  2.326505e+00    6.513329e-01   8.456643e-03
  2.328716e+00    6.310874e-01   8.315696e-03
  2.330926e+00    6.544937e-01   8.459620e-03
  2.333137e+00    6.515093e-01   8.431893e-03
  2.335347e+00    6.455970e-01   8.384647e-03
  2.337558e+00    6.270946e-01   8.255475e-03
  2.339768e+00    6.431670e-01   8.351990e-03
  2.341979e+00    6.392926e-01   8.318453e-03
  2.344189e+00    6.351220e-01   8.282872e-03
  2.346399e+00    6.588513e-01   8.427549e-03
  2.348610e+00    6.437844e-01   8.322121e-03
  2.350820e+00    6.307550e-01   8.229331e-03
  2.353031e+00    6.184284e-01   8.140333e-03
  2.355241e+00    6.268227e-01   8.187365e-03
  2.357452e+00    6.375293e-01   8.248552e-03
  2.359662e+00    6.427768e-01   8.274125e-03
  2.361873e+00    6.433905e-01   8.269769e-03
  2.364083e+00    6.374830e-01   8.223668e-03
  2.366294e+00    6.444038e-01   8.259975e-03
  2.368504e+00    6.332359e-01   8.179974e-03
  2.370714e+00    6.403645e-01   8.217720e-03
  2.372925e+00    6.368788e-01   8.187216e-03
  2.375135e+00    6.438352e-01   8.223614e-03
  2.377346e+00    6.248046e-01   8.093231e-03
  2.379556e+00    6.213863e-01   8.063150e-03
  2.381767e+00    6.213285e-01   8.054926e-03
  2.383977e+00    6.148513e-01   8.004937e-03
  2.386188e+00    6.111517e-01   7.972945e-03
  2.388398e+00    6.147049e-01   7.988160e-03
  2.390609e+00    6.118443e-01   7.961857e-03
  2.392819e+00    6.258828e-01   8.044847e-03
  2.395029e+00    6.271594e-01   8.045310e-03
  2.397240e+00    6.185808e-01   7.982216e-03
  2.399450e+00    6.103838e-01   7.921351e-03
  2.401661e+00    6.107441e-01   7.916023e-03
  2.403871e+00    6.113013e-01   7.911879e-03
  2.406082e+00    6.146215e-01   7.925858e-03
  2.408292e+00    6.165059e-01   7.930179e-03
  2.410503e+00    6.178082e-01   7.930989e-03
  2.412713e+00    6.172511e-01   7.919566e-03
  2.414924e+00    6.092250e-01   7.860394e-03
  2.417134e+00    6.119919e-01   7.870553e-03
  2.419344e+00    6.121074e-01   7.863820e-03
  2.421555e+00    6.000381e-01   7.778421e-03
  2.423765e+00    6.022232e-01   7.785148e-03
  2.425976e+00    5.914263e-01   7.707299e-03
  2.428186e+00    5.909470e-01   7.696996e-03
  2.430397e+00    5.898877e-01   7.682668e-03
  2.432607e+00    5.980461e-01   7.728312e-03
  2.434818e+00    5.724701e-01   7.553875e-03
  2.437028e+00    5.868211e-01   7.640845e-03
  2.439239e+00    5.995905e-01   7.715837e-03
  2.441449e+00    5.774636e-01   7.565045e-03
  2.443659e+00    5.657632e-01   7.480807e-03
  2.445870e+00    5.735354e-01   7.544081e-03
  2.448080e+00    5.756830e-01   7.592799e-03
  2.450291e+00    5.792482e-01   7.632899e-03
  2.452501e+00    5.785872e-01   7.639734e-03
  2.454712e+00    5.610939e-01   7.531698e-03
  2.456922e+00    5.727709e-01   7.616287e-03
  2.459133e+00    5.588831e-01   7.528789e-03
  2.461343e+00    5.594769e-01   7.537107e-03
  2.463554e+00    5.571373e-01   7.524766e-03
  2.465764e+00    5.550948e-01   7.514097e-03
  2.467975e+00    5.543796e-01   7.511507e-03
  2.470185e+00    5.637364e-01   7.576909e-03
  2.472395e+00    5.512445e-01   7.493705e-03
  2.474606e+00    5.409798e-01   7.425155e-03
  2.476816e+00    5.313771e-01   7.359684e-03
  2.479027e+00    5.348739e-01   7.384680e-03
  2.481237e+00    5.363095e-01   7.394867e-03
  2.483448e+00    5.405478e-01   7.424330e-03
  2.485658e+00    5.310802e-01   7.358885e-03
  2.487869e+00    5.432801e-01   7.442949e-03
  2.490079e+00    5.507779e-01   7.493629e-03
  2.492290e+00    5.459651e-01   7.460384e-03
  2.494500e+00    5.328010e-01   7.369167e-03
  2.496710e+00    5.264089e-01   7.324123e-03
  2.498921e+00    5.396429e-01   7.414631e-03
  2.501131e+00    5.260954e-01   7.320032e-03
  2.503342e+00    5.293214e-01   7.341162e-03
  2.505552e+00    5.423706e-01   7.429971e-03
  2.507763e+00    5.313265e-01   7.352532e-03
  2.509973e+00    5.268475e-01   7.320053e-03
  2.512184e+00    5.504866e-01   7.480830e-03
  2.514394e+00    5.522492e-01   7.483235e-03
  2.516605e+00    5.440084e-01   7.379337e-03
  2.518815e+00    5.329791e-01   7.275648e-03
  2.521025e+00    5.275484e-01   7.217485e-03
  2.523236e+00    5.289068e-01   7.208718e-03
  2.525446e+00    5.361834e-01   7.242375e-03
  2.527657e+00    5.375440e-01   7.236792e-03
  2.529867e+00    5.296422e-01   7.169161e-03
  2.532078e+00    5.329805e-01   7.176563e-03
  2.534288e+00    5.282659e-01   7.130826e-03
  2.536499e+00    5.276106e-01   7.114436e-03
  2.538709e+00    5.186563e-01   7.042852e-03
  2.540920e+00    5.220158e-01   7.055019e-03
  2.543130e+00    5.157288e-01   7.002115e-03
  2.545340e+00    5.211873e-01   7.029036e-03
  2.547551e+00    5.313799e-01   7.087406e-03
  2.549761e+00    5.219007e-01   7.014339e-03
  2.551972e+00    5.267988e-01   7.037768e-03
  2.554182e+00    5.292650e-01   7.044988e-03
  2.556393e+00    5.152196e-01   6.941831e-03
  2.558603e+00    5.183675e-01   6.953952e-03
  2.560814e+00    5.181462e-01   6.943770e-03
  2.563024e+00    5.207893e-01   6.952872e-03
  2.565235e+00    5.254781e-01   6.974538e-03
  2.567445e+00    5.191332e-01   6.922751e-03
  2.569656e+00    5.270532e-01   6.965522e-03
  2.571866e+00    5.171678e-01   6.890547e-03
  2.574076e+00    5.148709e-01   6.865966e-03
  2.576287e+00    5.311458e-01   6.965193e-03
  2.578497e+00    5.306806e-01   6.954199e-03
  2.580708e+00    5.071918e-01   6.790529e-03
  2.582918e+00    5.134214e-01   6.824349e-03
  2.585129e+00    5.040624e-01   6.754203e-03
  2.587339e+00    5.186923e-01   6.843780e-03
  2.589550e+00    5.235872e-01   6.868385e-03
  2.591760e+00    5.188338e-01   6.829348e-03
  2.593971e+00    5.132812e-01   6.785167e-03
  2.596181e+00    5.123847e-01   6.773008e-03
  2.598391e+00    5.153854e-01   6.787601e-03
  2.600602e+00    5.188160e-01   6.804191e-03
  2.602812e+00    5.031262e-01   6.693029e-03
  2.605023e+00    4.932419e-01   6.619894e-03
  2.607233e+00    4.976504e-01   6.642337e-03
  2.609444e+00    5.120965e-01   6.730797e-03
  2.611654e+00    5.100572e-01   6.710052e-03
  2.613865e+00    4.973798e-01   6.619155e-03
  2.616075e+00    5.022182e-01   6.644154e-03
  2.618286e+00    5.106657e-01   6.692773e-03
  2.620496e+00    5.076496e-01   6.666268e-03
  2.622706e+00    5.071514e-01   6.657240e-03
  2.624917e+00    4.962384e-01   6.579427e-03
  2.627127e+00    4.990267e-01   6.592171e-03
  2.629338e+00    4.929020e-01   6.545681e-03
  2.631548e+00    5.039324e-01   6.612339e-03
  2.633759e+00    4.983531e-01   6.568519e-03
  2.635969e+00    4.995785e-01   6.569916e-03
  2.638180e+00    5.034992e-01   6.588636e-03
  2.640390e+00    5.094456e-01   6.620785e-03
  2.642601e+00    4.963327e-01   6.528384e-03
  2.644811e+00    5.012832e-01   6.553782e-03
  2.647021e+00    5.017288e-01   6.550119e-03
  2.649232e+00    4.954280e-01   6.502162e-03
  2.651442e+00    4.987216e-01   6.517246e-03
  2.653653e+00    5.018736e-01   6.530989e-03
  2.655863e+00    5.089669e-01   6.570223e-03
  2.658074e+00    5.045881e-01   6.535260e-03
  2.660284e+00    5.049511e-01   6.531196e-03
  2.662495e+00    5.026713e-01   6.509648e-03
  2.664705e+00    5.138752e-01   6.575109e-03
  2.666916e+00    5.126652e-01   6.560799e-03
  2.669126e+00    5.213974e-01   6.609817e-03
  2.671337e+00    5.093421e-01   6.526300e-03
  2.673547e+00    4.966590e-01   6.438139e-03
  2.675757e+00    4.877790e-01   6.373893e-03
  2.677968e+00    4.988363e-01   6.439209e-03
  2.680178e+00    4.882365e-01   6.364055e-03
  2.682389e+00    4.851460e-01   6.337525e-03
  2.684599e+00    4.954830e-01   6.398493e-03
  2.686810e+00    4.844267e-01   6.320155e-03
  2.689020e+00    4.927727e-01   6.368043e-03
  2.691231e+00    5.055090e-01   6.443452e-03
  2.693441e+00    4.877755e-01   6.323303e-03
  2.695652e+00    4.965305e-01   6.373217e-03
  2.697862e+00    4.980620e-01   6.376658e-03
  2.700072e+00    4.869784e-01   6.299249e-03
  2.702283e+00    4.890119e-01   6.306159e-03
  2.704493e+00    4.853792e-01   6.276427e-03
  2.706704e+00    4.995875e-01   6.361164e-03
  2.708914e+00    4.891750e-01   6.288548e-03
  2.711125e+00    4.948200e-01   6.318420e-03
  2.713335e+00    4.875876e-01   6.266008e-03
  2.715546e+00    4.976523e-01   6.323799e-03
  2.717756e+00    4.940080e-01   6.294683e-03
  2.719967e+00    4.856099e-01   6.234739e-03
  2.722177e+00    4.875843e-01   6.241253e-03
  2.724387e+00    4.932607e-01   6.271332e-03
  2.726598e+00    4.956242e-01   6.280209e-03
  2.728808e+00    4.811350e-01   6.181628e-03
  2.731019e+00    4.710636e-01   6.110530e-03
  2.733229e+00    4.880836e-01   6.214108e-03
  2.735440e+00    4.886214e-01   6.211241e-03
  2.737650e+00    4.857205e-01   6.186747e-03
  2.739861e+00    4.761865e-01   6.119709e-03
  2.742071e+00    4.962350e-01   6.241368e-03
  2.744282e+00    4.985183e-01   6.249371e-03
  2.746492e+00    4.944691e-01   6.217830e-03
  2.748702e+00    4.912068e-01   6.191337e-03
  2.750913e+00    4.784402e-01   6.104554e-03
  2.753123e+00    4.780021e-01   6.095688e-03
  2.755334e+00    4.760433e-01   6.077114e-03
  2.757544e+00    4.944995e-01   6.187989e-03
  2.759755e+00    4.716311e-01   6.037397e-03
  2.761965e+00    4.734042e-01   6.042770e-03
  2.764176e+00    4.856803e-01   6.114607e-03
  2.766386e+00    4.799950e-01   6.072924e-03
  2.768597e+00    4.995965e-01   6.189692e-03
  2.770807e+00    4.838669e-01   6.085586e-03
  2.773017e+00    4.707808e-01   5.996800e-03
  2.775228e+00    4.741565e-01   6.012491e-03
  2.777438e+00    4.880276e-01   6.093956e-03
  2.779649e+00    4.772655e-01   6.020498e-03
  2.781859e+00    4.759757e-01   6.006602e-03
  2.784070e+00    4.850816e-01   6.057876e-03
  2.786280e+00    4.873432e-01   6.066153e-03
  2.788491e+00    4.861034e-01   6.052537e-03
  2.790701e+00    4.801497e-01   6.009707e-03
  2.792912e+00    4.683445e-01   5.929449e-03
  2.795122e+00    4.641490e-01   5.897162e-03
  2.797333e+00    4.756291e-01   5.964085e-03
  2.799543e+00    4.738144e-01   5.946845e-03
  2.801753e+00    4.764636e-01   5.957584e-03
  2.803964e+00    4.688189e-01   5.903976e-03
  2.806174e+00    4.785615e-01   5.958839e-03
  2.808385e+00    4.711095e-01   5.905493e-03
  2.810595e+00    4.752685e-01   5.924632e-03
  2.812806e+00    4.694609e-01   5.881753e-03
  2.815016e+00    4.614255e-01   5.826514e-03
  2.817227e+00    4.721132e-01   5.919460e-03
  2.819437e+00    4.824089e-01   5.994870e-03
  2.821648e+00    4.633701e-01   5.877648e-03
  2.823858e+00    4.641187e-01   5.887656e-03
  2.826068e+00    4.707820e-01   5.934740e-03
  2.828279e+00    4.639016e-01   5.895238e-03
  2.830489e+00    4.765492e-01   5.978396e-03
  2.832700e+00    4.708497e-01   5.945091e-03
  2.834910e+00    4.683670e-01   5.931457e-03
  2.837121e+00    4.736452e-01   5.966501e-03
  2.839331e+00    4.761851e-01   5.983713e-03
  2.841542e+00    4.796915e-01   6.006733e-03
  2.843752e+00    4.781382e-01   5.997784e-03
  2.845963e+00    4.666073e-01   5.925429e-03
  2.848173e+00    4.729511e-01   5.965635e-03
  2.850383e+00    4.804547e-01   6.013089e-03
  2.852594e+00    4.733609e-01   5.968456e-03
  2.854804e+00    4.685739e-01   5.937691e-03
  2.857015e+00    4.668091e-01   5.926063e-03
  2.859225e+00    4.570249e-01   5.863385e-03
  2.861436e+00    4.772723e-01   5.991186e-03
  2.863646e+00    4.690373e-01   5.939325e-03
  2.865857e+00    4.686621e-01   5.937286e-03
  2.868067e+00    4.609832e-01   5.888663e-03
  2.870278e+00    4.587025e-01   5.873735e-03
  2.872488e+00    4.630221e-01   5.900163e-03
  2.874698e+00    4.639346e-01   5.904924e-03
  2.876909e+00    4.683579e-01   5.931677e-03
  2.879119e+00    4.649447e-01   5.908397e-03
  2.881330e+00    4.744413e-01   5.966939e-03
  2.883540e+00    4.668461e-01   5.917601e-03
  2.885751e+00    4.591590e-01   5.867029e-03
  2.887961e+00    4.552783e-01   5.840321e-03
  2.890172e+00    4.590734e-01   5.863006e-03
  2.892382e+00    4.544961e-01   5.831914e-03
  2.894593e+00    4.503632e-01   5.803543e-03
  2.896803e+00    4.612718e-01   5.871423e-03
  2.899014e+00    4.731901e-01   5.944850e-03
  2.901224e+00    4.663375e-01   5.899651e-03
  2.903434e+00    4.637198e-01   5.881119e-03
  2.905645e+00    4.594096e-01   5.851500e-03
  2.907855e+00    4.503334e-01   5.791330e-03
  2.910066e+00    4.710656e-01   5.921014e-03
  2.912276e+00    4.640577e-01   5.874692e-03
  2.914487e+00    4.651758e-01   5.879291e-03
  2.916697e+00    4.596769e-01   5.842218e-03
  2.918908e+00    4.434458e-01   5.736167e-03
  2.921118e+00    4.597902e-01   5.838219e-03
  2.923329e+00    4.809459e-01   5.968645e-03
  2.925539e+00    4.541883e-01   5.797985e-03
  2.927749e+00    4.630020e-01   5.851614e-03
  2.929960e+00    4.573261e-01   5.812892e-03
  2.932170e+00    4.497867e-01   5.762442e-03
  2.934381e+00    4.541608e-01   5.787967e-03
  2.936591e+00    4.550148e-01   5.790822e-03
  2.938802e+00    4.651038e-01   5.851938e-03
  2.941012e+00    4.665030e-01   5.858383e-03
  2.943223e+00    4.622180e-01   5.828695e-03
  2.945433e+00    4.570015e-01   5.791971e-03
  2.947644e+00    4.592635e-01   5.802135e-03
  2.949854e+00    4.577524e-01   5.788297e-03
  2.952064e+00    4.496089e-01   5.732378e-03
  2.954275e+00    4.627197e-01   5.810922e-03
  2.956485e+00    4.663927e-01   5.829673e-03
  2.958696e+00    4.766475e-01   5.888967e-03
  2.960906e+00    4.635527e-01   5.803281e-03
  2.963117e+00    4.584500e-01   5.766753e-03
  2.965327e+00    4.715946e-01   5.844861e-03
  2.967538e+00    4.521730e-01   5.720338e-03
  2.969748e+00    4.624418e-01   5.782077e-03
  2.971959e+00    4.670306e-01   5.807521e-03
  2.974169e+00    4.604246e-01   5.763701e-03
  2.976379e+00    4.704678e-01   5.823250e-03
  2.978590e+00    4.667660e-01   5.797131e-03
  2.980800e+00    4.760703e-01   5.851729e-03
  2.983011e+00    4.695566e-01   5.808747e-03
  2.985221e+00    4.664184e-01   5.786092e-03
  2.987432e+00    4.559406e-01   5.717627e-03
  2.989642e+00    4.548274e-01   5.707996e-03
  2.991853e+00    4.587847e-01   5.729492e-03
  2.994063e+00    4.641638e-01   5.760028e-03
  2.996274e+00    4.555701e-01   5.703289e-03
  2.998484e+00    4.440287e-01   5.627898e-03
  3.000694e+00    4.520030e-01   5.674757e-03
  3.002905e+00    4.589009e-01   5.714945e-03
  3.005115e+00    4.559277e-01   5.693414e-03
  3.007326e+00    4.625279e-01   5.731287e-03
  3.009536e+00    4.646851e-01   5.741330e-03
  3.011747e+00    4.675752e-01   5.756223e-03
  3.013957e+00    4.554819e-01   5.678092e-03
  3.016168e+00    4.542429e-01   5.667103e-03
  3.018378e+00    4.619773e-01   5.712074e-03
  3.020589e+00    4.423445e-01   5.586209e-03
  3.022799e+00    4.596265e-01   5.691102e-03
  3.025010e+00    4.573003e-01   5.673420e-03
  3.027220e+00    4.583942e-01   5.677075e-03
  3.029430e+00    4.580878e-01   5.671906e-03
  3.031641e+00    4.616285e-01   5.690610e-03
  3.033851e+00    4.592689e-01   5.672518e-03
  3.036062e+00    4.588387e-01   5.667049e-03
  3.038272e+00    4.467775e-01   5.588518e-03
  3.040483e+00    4.531642e-01   5.625070e-03
  3.042693e+00    4.608476e-01   5.669286e-03
  3.044904e+00    4.498485e-01   5.597195e-03
  3.047114e+00    4.491963e-01   5.588333e-03
  3.049325e+00    4.540284e-01   5.613901e-03
  3.051535e+00    4.617146e-01   5.656781e-03
  3.053745e+00    4.391587e-01   5.512188e-03
  3.055956e+00    4.563348e-01   5.614330e-03
  3.058166e+00    4.584171e-01   5.622847e-03
  3.060377e+00    4.462666e-01   5.543071e-03
  3.062587e+00    4.622847e-01   5.636976e-03
  3.064798e+00    4.588253e-01   5.611567e-03
  3.067008e+00    4.476045e-01   5.537799e-03
  3.069219e+00    4.484097e-01   5.538270e-03
  3.071429e+00    4.569082e-01   5.586962e-03
  3.073640e+00    4.489072e-01   5.534506e-03
  3.075850e+00    4.433650e-01   5.496668e-03
  3.078060e+00    4.452876e-01   5.505492e-03
  3.080271e+00    4.392596e-01   5.464650e-03
  3.082481e+00    4.535841e-01   5.549574e-03
  3.084692e+00    4.556354e-01   5.558709e-03
  3.086902e+00    4.462393e-01   5.497859e-03
  3.089113e+00    4.563244e-01   5.556032e-03
  3.091323e+00    4.514474e-01   5.522877e-03
  3.093534e+00    4.604678e-01   5.574347e-03
  3.095744e+00    4.468239e-01   5.487798e-03
  3.097955e+00    4.465782e-01   5.482714e-03
  3.100165e+00    4.428405e-01   5.456437e-03
  3.102375e+00    4.475130e-01   5.481692e-03
  3.104586e+00    4.466884e-01   5.473163e-03
  3.106796e+00    4.533584e-01   5.510322e-03
  3.109007e+00    4.528901e-01   5.504248e-03
  3.111217e+00    4.434126e-01   5.442667e-03
  3.113428e+00    4.426635e-01   5.434656e-03
  3.115638e+00    4.405988e-01   5.418748e-03
  3.117849e+00    4.542744e-01   5.498437e-03
  3.120059e+00    4.559171e-01   5.504867e-03
  3.122270e+00    4.525048e-01   5.480950e-03
  3.124480e+00    4.427908e-01   5.418119e-03
  3.126691e+00    4.489623e-01   5.452174e-03
  3.128901e+00    4.376912e-01   5.380192e-03
  3.131111e+00    4.493693e-01   5.447638e-03
  3.133322e+00    4.637136e-01   5.530379e-03
  3.135532e+00    4.496635e-01   5.442534e-03
  3.137743e+00    4.485928e-01   5.432557e-03
  3.139953e+00    4.385795e-01   5.367910e-03
  3.142164e+00    4.464906e-01   5.428171e-03
  3.144374e+00    4.517040e-01   5.488473e-03
  3.146585e+00    4.544669e-01   5.520004e-03
  3.148795e+00    4.459376e-01   5.478773e-03
  3.151006e+00    4.366669e-01   5.430021e-03
  3.153216e+00    4.398921e-01   5.457150e-03
  3.155426e+00    4.497491e-01   5.524324e-03
  3.157637e+00    4.383819e-01   5.459588e-03
  3.159847e+00    4.393316e-01   5.470357e-03
  3.162058e+00    4.372212e-01   5.461617e-03
  3.164268e+00    4.527131e-01   5.561661e-03
  3.166479e+00    4.509255e-01   5.554367e-03
  3.168689e+00    4.416222e-01   5.500149e-03
  3.170900e+00    4.434063e-01   5.514424e-03
  3.173110e+00    4.460377e-01   5.533670e-03
  3.175321e+00    4.343766e-01   5.463335e-03
  3.177531e+00    4.369110e-01   5.481986e-03
  3.179741e+00    4.345273e-01   5.469075e-03
  3.181952e+00    4.402424e-01   5.507036e-03
  3.184162e+00    4.406603e-01   5.511851e-03
  3.186373e+00    4.380229e-01   5.496938e-03
  3.188583e+00    4.375983e-01   5.496054e-03
  3.190794e+00    4.381697e-01   5.501406e-03
  3.193004e+00    4.387995e-01   5.506598e-03
  3.195215e+00    4.296824e-01   5.450587e-03
  3.197425e+00    4.380212e-01   5.504432e-03
  3.199636e+00    4.329481e-01   5.471701e-03
  3.201846e+00    4.328547e-01   5.470510e-03
  3.204056e+00    4.299890e-01   5.453249e-03
  3.206267e+00    4.338503e-01   5.478534e-03
  3.208477e+00    4.268571e-01   5.435106e-03
  3.210688e+00    4.335755e-01   5.478570e-03
  3.212898e+00    4.271551e-01   5.438420e-03
  3.215109e+00    4.264284e-01   5.434535e-03
  3.217319e+00    4.288718e-01   5.450728e-03
  3.219530e+00    4.335250e-01   5.480598e-03
  3.221740e+00    4.291099e-01   5.453194e-03
  3.223951e+00    4.268404e-01   5.439214e-03
  3.226161e+00    4.404362e-01   5.525335e-03
  3.228372e+00    4.314983e-01   5.469543e-03
  3.230582e+00    4.284305e-01   5.450184e-03
  3.232792e+00    4.418336e-01   5.535022e-03
  3.235003e+00    4.394734e-01   5.520457e-03
  3.237213e+00    4.377763e-01   5.509894e-03
  3.239424e+00    4.280096e-01   5.448092e-03
  3.241634e+00    4.298257e-01   5.459754e-03
  3.243845e+00    4.299503e-01   5.460617e-03
  3.246055e+00    4.180873e-01   5.384501e-03
  3.248266e+00    4.189829e-01   5.390440e-03
  3.250476e+00    4.341552e-01   5.486877e-03
  3.252687e+00    4.195993e-01   5.394045e-03
  3.254897e+00    4.237189e-01   5.420306e-03
  3.257107e+00    4.386472e-01   5.514682e-03
  3.259318e+00    4.241781e-01   5.422741e-03
  3.261528e+00    4.167945e-01   5.375157e-03
  3.263739e+00    4.393072e-01   5.517870e-03
  3.265949e+00    4.325155e-01   5.474925e-03
  3.268160e+00    4.385327e-01   5.512466e-03
  3.270370e+00    4.281650e-01   5.446391e-03
  3.272581e+00    4.267163e-01   5.436894e-03
  3.274791e+00    4.317310e-01   5.468220e-03
  3.277002e+00    4.297921e-01   5.455367e-03
  3.279212e+00    4.305378e-01   5.459696e-03
  3.281422e+00    4.218850e-01   5.404004e-03
  3.283633e+00    4.165011e-01   5.368711e-03
  3.285843e+00    4.322391e-01   5.468872e-03
  3.288054e+00    4.270460e-01   5.434968e-03
  3.290264e+00    4.356109e-01   5.488911e-03
  3.292475e+00    4.237480e-01   5.412798e-03
  3.294685e+00    4.303024e-01   5.453880e-03
  3.296896e+00    4.201850e-01   5.388612e-03
  3.299106e+00    4.246937e-01   5.416897e-03
  3.301317e+00    4.247980e-01   5.416521e-03
  3.303527e+00    4.367836e-01   5.491942e-03
  3.305737e+00    4.326015e-01   5.464526e-03
  3.307948e+00    4.429555e-01   5.528836e-03
  3.310158e+00    4.334979e-01   5.468654e-03
  3.312369e+00    4.269350e-01   5.426212e-03
  3.314579e+00    4.165024e-01   5.358591e-03
  3.316790e+00    4.330572e-01   5.463333e-03
  3.319000e+00    4.213088e-01   5.387535e-03
  3.321211e+00    4.317282e-01   5.453128e-03
  3.323421e+00    4.256232e-01   5.413236e-03
  3.325632e+00    4.277430e-01   5.425803e-03
  3.327842e+00    4.282511e-01   5.428085e-03
  3.330052e+00    4.304595e-01   5.441021e-03
  3.332263e+00    4.269475e-01   5.417715e-03
  3.334473e+00    4.246958e-01   5.402531e-03
  3.336684e+00    4.066435e-01   5.285210e-03
  3.338894e+00    4.195167e-01   5.367354e-03
  3.341105e+00    4.260291e-01   5.407656e-03
  3.343315e+00    4.350840e-01   5.463674e-03
  3.345526e+00    4.224587e-01   5.382896e-03
  3.347736e+00    4.232780e-01   5.386712e-03
  3.349947e+00    4.078166e-01   5.286490e-03
  3.352157e+00    4.242894e-01   5.391011e-03
  3.354368e+00    4.139515e-01   5.323663e-03
  3.356578e+00    4.174244e-01   5.344925e-03
  3.358788e+00    3.998105e-01   5.229646e-03
  3.360999e+00    4.154151e-01   5.329464e-03
  3.363209e+00    4.235562e-01   5.380426e-03
  3.365420e+00    4.095031e-01   5.288919e-03
  3.367630e+00    4.103158e-01   5.293143e-03
  3.369841e+00    4.039569e-01   5.250579e-03
  3.372051e+00    4.134910e-01   5.310189e-03
  3.374262e+00    4.124877e-01   5.301337e-03
  3.376472e+00    4.252033e-01   5.379918e-03
  3.378683e+00    4.274403e-01   5.391569e-03
  3.380893e+00    4.109192e-01   5.283989e-03
  3.383103e+00    4.218742e-01   5.351243e-03
  3.385314e+00    4.121943e-01   5.287285e-03
  3.387524e+00    4.037516e-01   5.230145e-03
  3.389735e+00    4.111075e-01   5.274954e-03
  3.391945e+00    4.212886e-01   5.336166e-03
  3.394156e+00    4.107053e-01   5.264510e-03
  3.396366e+00    4.187012e-01   5.312060e-03
  3.398577e+00    4.216333e-01   5.327557e-03
  3.400787e+00    4.153277e-01   5.299539e-03
  3.402998e+00    4.105438e-01   5.307026e-03
  3.405208e+00    4.021440e-01   5.273040e-03
  3.407418e+00    3.911692e-01   5.216149e-03
  3.409629e+00    4.053049e-01   5.323607e-03
  3.411839e+00    3.994824e-01   5.297024e-03
  3.414050e+00    3.997569e-01   5.309852e-03
  3.416260e+00    3.930438e-01   5.274710e-03
  3.418471e+00    4.041685e-01   5.358377e-03
  3.420681e+00    4.035905e-01   5.363175e-03
  3.422892e+00    3.904186e-01   5.282911e-03
  3.425102e+00    3.986179e-01   5.346001e-03
  3.427313e+00    3.916753e-01   5.306473e-03
  3.429523e+00    3.867862e-01   5.280314e-03
  3.431733e+00    3.838404e-01   5.266786e-03
  3.433944e+00    3.860504e-01   5.288450e-03
  3.436154e+00    3.838623e-01   5.279677e-03
  3.438365e+00    3.845205e-01   5.290149e-03
  3.440575e+00    3.915568e-01   5.344351e-03
  3.442786e+00    3.837207e-01   5.296258e-03
  3.444996e+00    3.681359e-01   5.193010e-03
  3.447207e+00    3.601705e-01   5.141710e-03
  3.449417e+00    3.727529e-01   5.271622e-03
  3.451628e+00    3.810685e-01   5.360042e-03
  3.453838e+00    3.710690e-01   5.310492e-03
  3.456049e+00    3.781271e-01   5.385031e-03
  3.458259e+00    3.671784e-01   5.328464e-03
  3.460469e+00    3.613866e-01   5.305903e-03
  3.462680e+00    3.645442e-01   5.348055e-03
  3.464890e+00    3.716950e-01   5.418185e-03
  3.467101e+00    3.774299e-01   5.477506e-03
  3.469311e+00    3.907407e-01   5.590249e-03
  3.471522e+00    4.006553e-01   5.677710e-03
  3.473732e+00    4.041243e-01   5.718687e-03
  3.475943e+00    4.035992e-01   5.731112e-03
  3.478153e+00    4.025254e-01   5.739207e-03
  3.480364e+00    4.054187e-01   5.775180e-03
  3.482574e+00    4.089796e-01   5.815912e-03
  3.484784e+00    4.363637e-01   6.022789e-03
  3.486995e+00    4.505591e-01   6.135697e-03
  3.489205e+00    4.577486e-01   6.199720e-03
  3.491416e+00    4.492980e-01   6.157533e-03
  3.493626e+00    4.378308e-01   6.093080e-03
  3.495837e+00    4.438364e-01   6.149511e-03
  3.498047e+00    4.671254e-01   6.323658e-03
  3.500258e+00    4.626537e-01   6.308074e-03
  3.502468e+00    4.508252e-01   6.241291e-03
  3.504679e+00    4.742514e-01   6.416062e-03
  3.506889e+00    4.826703e-01   6.487491e-03
  3.509099e+00    4.867740e-01   6.529585e-03
  3.511310e+00    4.880039e-01   6.552483e-03
  3.513520e+00    4.911720e-01   6.588253e-03
  3.515731e+00    5.124859e-01   6.744462e-03
  3.517941e+00    5.101850e-01   6.743954e-03
  3.520152e+00    5.106405e-01   6.761525e-03
  3.522362e+00    5.075976e-01   6.755892e-03
  3.524573e+00    5.249459e-01   6.884948e-03
  3.526783e+00    5.274119e-01   6.914646e-03
  3.528994e+00    5.287251e-01   6.935666e-03
  3.531204e+00    5.205414e-01   6.894189e-03
  3.533414e+00    5.405671e-01   7.037836e-03
  3.535625e+00    5.451955e-01   7.080445e-03
  3.537835e+00    5.489635e-01   7.117176e-03
  3.540046e+00    5.379553e-01   7.054420e-03
  3.542256e+00    5.461242e-01   7.115370e-03
  3.544467e+00    5.378221e-01   7.068730e-03
  3.546677e+00    5.482056e-01   7.144284e-03
  3.548888e+00    5.468397e-01   7.142956e-03
  3.551098e+00    5.591518e-01   7.230386e-03
  3.553309e+00    5.372967e-01   7.095828e-03
  3.555519e+00    5.062670e-01   6.898894e-03
  3.557729e+00    5.287966e-01   7.062318e-03
  3.559940e+00    5.317138e-01   7.093293e-03
  3.562150e+00    5.345389e-01   7.123809e-03
  3.564361e+00    5.474696e-01   7.222910e-03
  3.566571e+00    5.558281e-01   7.291954e-03
  3.568782e+00    5.464936e-01   7.244697e-03
  3.570992e+00    5.333358e-01   7.170686e-03
  3.573203e+00    5.331342e-01   7.183428e-03
  3.575413e+00    5.450759e-01   7.277300e-03
  3.577624e+00    5.484407e-01   7.314058e-03
  3.579834e+00    5.373415e-01   7.253526e-03
  3.582045e+00    5.587337e-01   7.410856e-03
  3.584255e+00    5.404527e-01   7.302734e-03
  3.586465e+00    5.494019e-01   7.377017e-03
  3.588676e+00    5.604037e-01   7.465062e-03
  3.590886e+00    5.255594e-01   7.242850e-03
  3.593097e+00    5.370396e-01   7.335981e-03
  3.595307e+00    5.412454e-01   7.378694e-03
  3.597518e+00    5.399307e-01   7.383999e-03
  3.599728e+00    5.438294e-01   7.424786e-03
  3.601939e+00    5.528554e-01   7.500459e-03
  3.604149e+00    5.525926e-01   7.513326e-03
  3.606360e+00    5.235270e-01   7.327050e-03
  3.608570e+00    5.428006e-01   7.474921e-03
  3.610780e+00    5.666690e-01   7.648911e-03
  3.612991e+00    5.420658e-01   7.491092e-03
  3.615201e+00    5.565184e-01   7.600293e-03
  3.617412e+00    5.517583e-01   7.575128e-03
  3.619622e+00    5.356382e-01   7.469604e-03
  3.621833e+00    5.408190e-01   7.512371e-03
  3.624043e+00    5.490373e-01   7.578876e-03
  3.626254e+00    5.542668e-01   7.624784e-03
  3.628464e+00    5.428781e-01   7.557106e-03
  3.630675e+00    5.343261e-01   7.511473e-03
  3.632885e+00    5.185565e-01   7.414016e-03
  3.635095e+00    5.458310e-01   7.621058e-03
  3.637306e+00    5.521614e-01   7.679752e-03
  3.639516e+00    5.377915e-01   7.593757e-03
  3.641727e+00    5.413121e-01   7.633245e-03
  3.643937e+00    5.425444e-01   7.656604e-03
  3.646148e+00    5.404499e-01   7.656517e-03
  3.648358e+00    5.349708e-01   7.632496e-03
  3.650569e+00    5.541069e-01   7.782802e-03
  3.652779e+00    5.332816e-01   7.649990e-03
  3.654990e+00    5.334310e-01   7.665909e-03
  3.657200e+00    5.412937e-01   7.737236e-03
  3.659410e+00    5.506678e-01   7.819150e-03
  3.661621e+00    5.501545e-01   7.830907e-03
  3.663831e+00    5.344661e-01   7.733583e-03
  3.666042e+00    5.653583e-01   7.969555e-03
  3.668252e+00    5.625829e-01   7.965703e-03
  3.670463e+00    5.487519e-01   7.882629e-03
  3.672673e+00    5.415826e-01   7.846562e-03
  3.674884e+00    5.242259e-01   7.735095e-03
  3.677094e+00    5.446870e-01   7.900331e-03
  3.679305e+00    5.346622e-01   7.842888e-03
  3.681515e+00    5.406436e-01   7.902441e-03
  3.683726e+00    5.101428e-01   7.691802e-03
  3.685936e+00    5.228809e-01   7.802822e-03
  3.688146e+00    5.217129e-01   7.809810e-03
  3.690357e+00    5.192860e-01   7.807428e-03
  3.692567e+00    5.194131e-01   7.824389e-03
  3.694778e+00    5.388095e-01   7.985374e-03
  3.696988e+00    5.320442e-01   7.951154e-03
  3.699199e+00    5.405539e-01   8.030980e-03
  3.701409e+00    5.247589e-01   7.929143e-03
  3.703620e+00    5.448612e-01   8.096197e-03
  3.705830e+00    5.374209e-01   8.057342e-03
  3.708041e+00    5.474014e-01   8.148776e-03
  3.710251e+00    5.275986e-01   8.016806e-03
  3.712461e+00    5.425458e-01   8.146600e-03
  3.714672e+00    5.205755e-01   7.996692e-03
  3.716882e+00    5.432424e-01   8.185982e-03
  3.719093e+00    5.269570e-01   8.079598e-03
  3.721303e+00    5.409172e-01   8.203187e-03
  3.723514e+00    5.513454e-01   8.299734e-03
  3.725724e+00    5.360837e-01   8.201500e-03
  3.727935e+00    5.156232e-01   8.060885e-03
  3.730145e+00    4.965901e-01   7.927662e-03
  3.732356e+00    5.146732e-01   8.088229e-03
  3.734566e+00    5.205301e-01   8.151761e-03
  3.736776e+00    5.337630e-01   8.272779e-03
  3.738987e+00    5.200129e-01   8.183398e-03
  3.741197e+00    5.162706e-01   8.171947e-03
  3.743408e+00    5.170127e-01   8.195945e-03
  3.745618e+00    5.112229e-01   8.168204e-03
  3.747829e+00    5.011652e-01   8.105343e-03
  3.750039e+00    5.300741e-01   8.354537e-03
  3.752250e+00    5.348287e-01   8.410858e-03
  3.754460e+00    4.977873e-01   8.132684e-03
  3.756671e+00    5.148509e-01   8.289796e-03
  3.758881e+00    5.036755e-01   8.217844e-03
  3.761091e+00    5.187395e-01   8.359214e-03
  3.763302e+00    5.070394e-01   8.283404e-03
  3.765512e+00    5.266766e-01   8.461948e-03
  3.767723e+00    5.260137e-01   8.476290e-03
  3.769933e+00    5.323213e-01   8.546833e-03
  3.772144e+00    5.122322e-01   8.403676e-03
  3.774354e+00    5.098562e-01   8.404084e-03
  3.776565e+00    5.136209e-01   8.455065e-03
  3.778775e+00    5.224059e-01   8.547389e-03
  3.780986e+00    5.251843e-01   8.590831e-03
  3.783196e+00    5.048037e-01   8.442771e-03
  3.785407e+00    4.981745e-01   8.407413e-03
  3.787617e+00    5.085546e-01   8.515472e-03
  3.789827e+00    5.232558e-01   8.658614e-03
  3.792038e+00    5.201174e-01   8.653865e-03
  3.794248e+00    4.736061e-01   8.278415e-03
  3.796459e+00    4.518627e-01   8.106441e-03
  3.798669e+00    4.914561e-01   8.475228e-03
  3.800880e+00    5.011839e-01   8.580258e-03
  3.803090e+00    4.861119e-01   8.471693e-03
  3.805301e+00    5.066791e-01   8.671302e-03
  3.807511e+00    5.008523e-01   8.643352e-03
  3.809722e+00    5.173614e-01   8.807230e-03
  3.811932e+00    5.233451e-01   8.880802e-03
  3.814142e+00    4.999428e-01   8.702888e-03
  3.816353e+00    5.119224e-01   8.829594e-03
  3.818563e+00    5.155410e-01   8.884268e-03
  3.820774e+00    4.917295e-01   8.699713e-03
  3.822984e+00    4.932352e-01   8.736250e-03
  3.825195e+00    4.891931e-01   8.723905e-03
  3.827405e+00    4.809853e-01   8.673902e-03
  3.829616e+00    4.924832e-01   8.800882e-03
  3.831826e+00    4.998742e-01   8.890909e-03
  3.834037e+00    5.024157e-01   8.938100e-03
  3.836247e+00    5.118780e-01   9.046998e-03
  3.838457e+00    5.080227e-01   9.038124e-03
  3.840668e+00    5.179687e-01   9.151887e-03
  3.842878e+00    5.429465e-01   9.396721e-03
  3.845089e+00    5.054445e-01   9.092235e-03
  3.847299e+00    4.825666e-01   8.909477e-03
  3.849510e+00    4.799399e-01   8.910664e-03
  3.851720e+00    4.956406e-01   9.076661e-03
  3.853931e+00    4.880873e-01   9.026108e-03
  3.856141e+00    5.004630e-01   9.158902e-03
  3.858352e+00    5.068370e-01   9.236590e-03
  3.860562e+00    4.919529e-01   9.119226e-03
  3.862772e+00    5.267409e-01   9.456297e-03
  3.864983e+00    5.128989e-01   9.351371e-03
  3.867193e+00    4.884900e-01   9.145803e-03
  3.869404e+00    4.946826e-01   9.223316e-03
  3.871614e+00    5.154802e-01   9.435745e-03
  3.873825e+00    4.894629e-01   9.214752e-03
  3.876035e+00    4.967717e-01   9.303903e-03
  3.878246e+00    4.973560e-01   9.335333e-03
  3.880456e+00    4.865450e-01   9.262132e-03
  3.882667e+00    4.995787e-01   9.414881e-03
  3.884877e+00    4.837433e-01   9.293973e-03
  3.887087e+00    5.223006e-01   9.688122e-03
  3.889298e+00    4.954345e-01   9.466232e-03
  3.891508e+00    4.997970e-01   9.538487e-03
  3.893719e+00    5.231967e-01   9.791380e-03
  3.895929e+00    4.822650e-01   9.431635e-03
  3.898140e+00    4.919804e-01   9.557941e-03
  3.900350e+00    5.005339e-01   9.673147e-03
  3.902561e+00    4.975166e-01   9.676479e-03
  3.904771e+00    4.738167e-01   9.475563e-03
  3.906982e+00    4.893939e-01   9.663118e-03
  3.909192e+00    5.091111e-01   9.890023e-03
  3.911403e+00    5.164046e-01   9.995636e-03
  3.913613e+00    5.051605e-01   9.921073e-03
  3.915823e+00    4.910782e-01   9.816605e-03
  3.918034e+00    5.193853e-01   1.013199e-02
  3.920244e+00    5.157270e-01   1.013298e-02
  3.922455e+00    4.925976e-01   9.939375e-03
  3.924665e+00    5.001712e-01   1.005239e-02
  3.926876e+00    4.767540e-01   9.850920e-03
  3.929086e+00    4.815109e-01   9.937089e-03
  3.931297e+00    4.881958e-01   1.004057e-02
  3.933507e+00    5.200171e-01   1.039257e-02
  3.935718e+00    4.914044e-01   1.013158e-02
  3.937928e+00    4.938782e-01   1.018661e-02
  3.940138e+00    4.921859e-01   1.019856e-02
  3.942349e+00    5.018442e-01   1.032852e-02
  3.944559e+00    4.858225e-01   1.019236e-02
  3.946770e+00    4.624009e-01   9.972898e-03
  3.948980e+00    5.072870e-01   1.047715e-02
  3.951191e+00    4.847917e-01   1.027299e-02
  3.953401e+00    4.872644e-01   1.033056e-02
  3.955612e+00    4.789925e-01   1.027393e-02
  3.957822e+00    4.953013e-01   1.047936e-02
  3.960033e+00    4.863486e-01   1.041686e-02
  3.962243e+00    4.822510e-01   1.040550e-02
  3.964453e+00    4.872293e-01   1.049229e-02
  3.966664e+00    5.075278e-01   1.074277e-02
  3.968874e+00    5.183058e-01   1.088564e-02
  3.971085e+00    5.082400e-01   1.080176e-02
  3.973295e+00    5.049558e-01   1.078875e-02
  3.975506e+00    5.059671e-01   1.082166e-02
  3.977716e+00    4.970034e-01   1.074757e-02
  3.979927e+00    4.860958e-01   1.065114e-02
  3.982137e+00    4.897416e-01   1.071337e-02
  3.984348e+00    4.986801e-01   1.083354e-02
  3.986558e+00    4.933131e-01   1.079767e-02
  3.988768e+00    4.829158e-01   1.070619e-02
  3.990979e+00    5.001379e-01   1.091853e-02
  3.993189e+00    5.138828e-01   1.109125e-02
  3.995400e+00    4.939926e-01   1.089830e-02
  3.997610e+00    4.907515e-01   1.089247e-02
  3.999821e+00    4.863482e-01   1.088108e-02
  4.002031e+00    4.795266e-01   1.084260e-02
  4.004242e+00    4.979692e-01   1.108822e-02
  4.006452e+00    4.880152e-01   1.101639e-02
  4.008663e+00    4.962509e-01   1.114937e-02
  4.010873e+00    5.062027e-01   1.130146e-02
  4.013084e+00    4.920187e-01   1.118327e-02
  4.015294e+00    5.024272e-01   1.134266e-02
  4.017504e+00    5.028661e-01   1.139029e-02
  4.019715e+00    4.938808e-01   1.133098e-02
  4.021925e+00    4.967880e-01   1.140784e-02
  4.024136e+00    4.778105e-01   1.123121e-02
  4.026346e+00    5.022244e-01   1.155946e-02
  4.028557e+00    5.136933e-01   1.173637e-02
  4.030767e+00    5.106705e-01   1.174887e-02
  4.032978e+00    4.770329e-01   1.140125e-02
  4.035188e+00    4.440789e-01   1.104461e-02
  4.037399e+00    4.592099e-01   1.127756e-02
  4.039609e+00    4.502544e-01   1.121303e-02
  4.041819e+00    4.688583e-01   1.149048e-02
  4.044030e+00    4.679212e-01   1.152802e-02
  4.046240e+00    4.997798e-01   1.196471e-02
  4.048451e+00    4.991512e-01   1.200900e-02
  4.050661e+00    5.135028e-01   1.223349e-02
  4.052872e+00    4.930264e-01   1.204043e-02
  4.055082e+00    4.751782e-01   1.187349e-02
  4.057293e+00    5.150238e-01   1.241679e-02
  4.059503e+00    4.942398e-01   1.221911e-02
  4.061714e+00    4.561467e-01   1.179371e-02
  4.063924e+00    4.861774e-01   1.223253e-02
  4.066134e+00    5.091527e-01   1.257741e-02
  4.068345e+00    4.764631e-01   1.222550e-02
  4.070555e+00    5.147382e-01   1.276840e-02
  4.072766e+00    5.045202e-01   1.270323e-02
  4.074976e+00    4.918649e-01   1.260537e-02
  4.077187e+00    4.684640e-01   1.236328e-02
  4.079397e+00    4.588984e-01   1.229865e-02
  4.081608e+00    4.566091e-01   1.233181e-02
  4.083818e+00    4.706954e-01   1.258562e-02
  4.086029e+00    5.213848e-01   1.331585e-02
  4.088239e+00    5.217915e-01   1.339291e-02
  4.090449e+00    4.846495e-01   1.297736e-02
  4.092660e+00    4.912763e-01   1.313768e-02
  4.094870e+00    4.789806e-01   1.304436e-02
  4.097081e+00    4.598678e-01   1.285139e-02
  4.099291e+00    4.856839e-01   1.326208e-02
  4.101502e+00    4.385497e-01   1.264899e-02
  4.103712e+00    4.472950e-01   1.282209e-02
  4.105923e+00    5.060638e-01   1.369112e-02
  4.108133e+00    5.116844e-01   1.382012e-02
  4.110344e+00    4.745527e-01   1.336022e-02
  4.112554e+00    4.576171e-01   1.317143e-02
  4.114764e+00    4.805826e-01   1.355214e-02
  4.116975e+00    4.880932e-01   1.371149e-02
  4.119185e+00    4.516708e-01   1.324350e-02
  4.121396e+00    4.595795e-01   1.341406e-02
  4.123606e+00    4.690604e-01   1.360734e-02
  4.125817e+00    5.098187e-01   1.424576e-02
  4.128027e+00    4.675027e-01   1.369909e-02
  4.130238e+00    4.845153e-01   1.400603e-02
  4.132448e+00    4.819051e-01   1.402870e-02
  4.134659e+00    4.742893e-01   1.397743e-02
  4.136869e+00    4.692561e-01   1.396516e-02
  4.139080e+00    4.976842e-01   1.444645e-02
  4.141290e+00    4.830023e-01   1.429517e-02
  4.143500e+00    4.567521e-01   1.396525e-02
  4.145711e+00    4.818107e-01   1.441018e-02
  4.147921e+00    4.686390e-01   1.427702e-02
  4.150132e+00    5.119036e-01   1.499285e-02
  4.152342e+00    4.895986e-01   1.473343e-02
  4.154553e+00    4.854151e-01   1.474037e-02
  4.156763e+00    5.080450e-01   1.515433e-02
  4.158974e+00    4.505548e-01   1.434331e-02
  4.161184e+00    4.250727e-01   1.400049e-02
  4.163395e+00    5.429052e-01   1.590337e-02
  4.165605e+00    4.769606e-01   1.498399e-02
  4.167815e+00    4.747785e-01   1.502749e-02
  4.170026e+00    4.762594e-01   1.513011e-02
  4.172236e+00    4.759561e-01   1.520729e-02
  4.174447e+00    4.769448e-01   1.530578e-02
  4.176657e+00    4.531538e-01   1.500074e-02
  4.178868e+00    4.682435e-01   1.533474e-02
  4.181078e+00    5.255521e-01   1.633751e-02
  4.183289e+00    4.860705e-01   1.580191e-02
  4.185499e+00    4.953838e-01   1.604664e-02
  4.187710e+00    5.280353e-01   1.666421e-02
  4.189920e+00    4.785025e-01   1.595867e-02
  4.192130e+00    5.068867e-01   1.652565e-02
  4.194341e+00    5.238964e-01   1.690354e-02
  4.196551e+00    4.851286e-01   1.636966e-02
  4.198762e+00    5.099604e-01   1.688916e-02
  4.200972e+00    4.760228e-01   1.642390e-02
  4.203183e+00    3.986618e-01   1.512877e-02
  4.205393e+00    4.520295e-01   1.621680e-02
  4.207604e+00    5.251893e-01   1.759947e-02
  4.209814e+00    4.684230e-01   1.673493e-02
  4.212025e+00    4.861017e-01   1.716887e-02
  4.214235e+00    4.699150e-01   1.699990e-02
  4.216445e+00    5.114451e-01   1.786342e-02
  4.218656e+00    5.078277e-01   1.793387e-02
  4.220866e+00    4.788009e-01   1.754282e-02
  4.223077e+00    5.037364e-01   1.813192e-02
  4.225287e+00    5.425735e-01   1.896608e-02
  4.227498e+00    4.815899e-01   1.800829e-02
  4.229708e+00    5.047896e-01   1.858721e-02
  4.231919e+00    4.768402e-01   1.821473e-02
  4.234129e+00    4.660050e-01   1.815760e-02
  4.236340e+00    4.343496e-01   1.768028e-02
  4.238550e+00    4.200900e-01   1.754067e-02
  4.240761e+00    4.975918e-01   1.925881e-02
  4.242971e+00    4.791479e-01   1.907215e-02
  4.245181e+00    4.966064e-01   1.959859e-02
  4.247392e+00    5.068564e-01   1.998512e-02
  4.249602e+00    4.386422e-01   1.877614e-02
  4.251813e+00    4.323600e-01   1.882542e-02
  4.254023e+00    3.694986e-01   1.757778e-02
  4.256234e+00    4.196035e-01   1.893237e-02
  4.258444e+00    4.397288e-01   1.958383e-02
  4.260655e+00    4.183536e-01   1.931181e-02
  4.262865e+00    5.079974e-01   2.152187e-02
  4.265076e+00    4.928491e-01   2.143953e-02
  4.267286e+00    5.313851e-01   2.252599e-02
  4.269496e+00    4.870435e-01   2.182954e-02
  4.271707e+00    4.939371e-01   2.225410e-02
  4.273917e+00    5.282429e-01   2.331154e-02
  4.276128e+00    5.332424e-01   2.373339e-02
  4.278338e+00    4.660835e-01   2.248457e-02
  4.280549e+00    4.662019e-01   2.280998e-02
  4.282759e+00    4.483286e-01   2.269020e-02
  4.284970e+00    4.926339e-01   2.413621e-02
  4.287180e+00    5.715089e-01   2.630865e-02
  4.289391e+00    4.929474e-01   2.461717e-02
  4.291601e+00    4.901957e-01   2.474410e-02
  4.293811e+00    5.594235e-01   2.664084e-02
  4.296022e+00    5.169997e-01   2.581628e-02
  4.298232e+00    5.397773e-01   2.660030e-02
  4.300443e+00    3.482917e-01   2.154348e-02
  4.302653e+00    3.977639e-01   2.322146e-02
  4.304864e+00    4.470247e-01   2.483085e-02
  4.307074e+00    5.439941e-01   2.763803e-02
  4.309285e+00    6.002171e-01   2.929508e-02
  4.311495e+00    5.565096e-01   2.847234e-02
  4.313706e+00    5.117590e-01   2.756042e-02
  4.315916e+00    4.057776e-01   2.478281e-02
  4.318126e+00    4.201181e-01   2.546599e-02
  4.320337e+00    4.276905e-01   2.595400e-02
  4.322547e+00    4.708179e-01   2.752075e-02
  4.324758e+00    4.546185e-01   2.732379e-02
  4.326968e+00    4.727777e-01   2.817804e-02
  4.329179e+00    4.841383e-01   2.882912e-02
  4.331389e+00    5.378448e-01   3.073598e-02
  4.333600e+00    5.076828e-01   3.021825e-02
  4.335810e+00    5.147095e-01   3.078941e-02
  4.338021e+00    4.707572e-01   2.982163e-02
  4.340231e+00    4.727122e-01   3.025953e-02
  4.342442e+00    4.322673e-01   2.932274e-02
  4.344652e+00    4.794085e-01   3.130086e-02
  4.346862e+00    3.570276e-01   2.738936e-02
  4.349073e+00    4.847094e-01   3.237902e-02
  4.351283e+00    3.487613e-01   2.787571e-02
  4.353494e+00    4.324630e-01   3.151869e-02
  4.355704e+00    5.280679e-01   3.539151e-02
  4.357915e+00    3.936442e-01   3.106545e-02
  4.360125e+00    4.229196e-01   3.274796e-02
  4.362336e+00    5.027419e-01   3.635541e-02
  4.364546e+00    4.778098e-01   3.609051e-02
  4.366757e+00    3.719180e-01   3.247315e-02
  4.368967e+00    4.018390e-01   3.442669e-02
  4.371177e+00    5.161888e-01   3.984907e-02
  4.373388e+00    5.770905e-01   4.307618e-02
  4.375598e+00    4.510974e-01   3.895476e-02
  4.377809e+00    3.220354e-01   3.374476e-02
  4.380019e+00    3.790479e-01   3.753290e-02
  4.382230e+00    2.126487e-01   2.889637e-02
  4.384440e+00    4.139531e-01   4.147455e-02
  4.386651e+00    4.095187e-01   4.252974e-02
  4.388861e+00    3.500516e-01   4.063379e-02
  4.391072e+00    4.130151e-01   4.569133e-02
  4.393282e+00    4.082659e-01   4.718605e-02
  4.395492e+00    3.594729e-01   4.611287e-02
  4.397703e+00    4.268209e-01   5.254668e-02
  4.399913e+00    3.700523e-01   5.140433e-02
  4.402124e+00    3.409220e-01   5.213579e-02
  4.404334e+00    4.904081e-01   6.646728e-02
  4.406545e+00    1.211411e-01   3.550241e-02
  4.408755e+00    6.232114e-01   8.730482e-02
  4.410966e+00    4.282304e-01   8.010674e-02
  4.413176e+00    3.587796e-01   8.299400e-02
  4.415387e+00   -6.714163e-01            nan
  4.417597e+00   -1.914176e+00            nan
  4.419807e+00   -3.766224e-01            nan
