# == pyFAI calibration ==
# Distance Sample to Detector: 0.216 m
# PONI: 1.166e-01, 1.308e-01 m
# Rotations: 0.000000 0.000000 0.000000 rad
# 
# == Fit2d calibration ==
# Distance Sample-beamCenter: 216.000 mm
# Center: x=1744.293, y=1555.000 pix
# Tilt: 0.000 deg  TiltPlanRot: 0.000 deg
# 
# Detector Eiger 9M	 PixelSize= 7.500e-05, 7.500e-05 m
#    Detector has a mask: True 
#    Detector has a dark current: False 
#    detector has a flat field: False 
# 
# Wavelength: 9.8e-11 m
# Mask applied: from detector
# Dark current applied: False
# Flat field applied: False
# Polarization factor: None
# Normalization factor: 1.0
# 
# Headers of the input frame:
# {
# "_array_data.header_convention": "SLS_1.0",
# "_array_data.header_contents": "# Detector: Dectris Eiger 9M, S/N E-18-0102\r\n# Pixel_size 75e-6 m x 75e-6 m\r\n# Silicon sensor, thickness 0.000450 m\r\n# Exposure_time 0.024997 s\r\n# Exposure_period 0.025000 s\r\n# Count_cutoff 62318 counts\r\n# Wavelength 0.980106 A\r\n# Detector_distance 0.215992 m\r\n# Beam_xy (1555, 1744) pixels\r\n# Start_angle 0.000000 deg.\r\n# Angle_increment 0.000000 deg.",
# "Content-Type": "application/octet-stream;",
# "conversions": "x-CBF_BYTE_OFFSET",
# "Content-Transfer-Encoding": "BINARY",
# "X-Binary-Size": "10166612",
# "X-Binary-ID": "1",
# "X-Binary-Element-Type": "signed 32-bit integer",
# "X-Binary-Element-Byte-Order": "LITTLE_ENDIAN",
# "Content-MD5": "Prbj04SxF+7BY6pW/1NfPQ==",
# "X-Binary-Number-of-Elements": "10166590",
# "X-Binary-Size-Fastest-Dimension": "3110",
# "X-Binary-Size-Second-Dimension": "3269",
# "X-Binary-Size-Padding": "4095"
# }
# --> H:/Proxima2a_2019-04-05/RAW_DATA/C5_gel17_position5/C5_mesh_1_data.cbf/C5_mesh_1_data.cbf000150.dat
#        q_A^-1              I           sigma 
  1.105228e-03    1.456844e+00   6.531208e-01
  3.315685e-03    1.380211e+00   3.864722e-01
  5.526141e-03    1.175225e+00   2.757608e-01
  7.736597e-03    1.180773e+00   2.335089e-01
  9.947054e-03    1.443401e+00   2.275989e-01
  1.215751e-02    1.463819e+00   2.072585e-01
  1.436797e-02    1.237127e+00   1.752601e-01
  1.657842e-02    1.485853e+00   1.787855e-01
  1.878888e-02    1.426477e+00   1.645493e-01
  2.099934e-02    1.556136e+00   1.626019e-01
  2.320979e-02    1.547211e+00   1.542082e-01
  2.542025e-02    1.563238e+00   1.481228e-01
  2.763070e-02    1.499246e+00   1.391319e-01
  2.984116e-02    1.477936e+00   1.329243e-01
  3.205162e-02    1.369375e+00   1.234660e-01
  3.426207e-02    1.346304e+00   1.183985e-01
  3.647253e-02    1.396796e+00   1.168843e-01
  3.868299e-02    1.249633e+00   1.073586e-01
  4.089344e-02    1.413225e+00   1.110418e-01
  4.310390e-02    1.602480e+00   1.151649e-01
  4.531436e-02    1.547530e+00   1.103787e-01
  4.752481e-02    1.302113e+00   9.886520e-02
  4.973527e-02    1.424044e+00   1.010679e-01
  5.194572e-02    1.557565e+00   1.034251e-01
  5.415618e-02    1.445240e+00   9.756829e-02
  5.636664e-02    1.477033e+00   9.668528e-02
  5.857709e-02    1.447412e+00   9.388811e-02
  6.078755e-02    1.518705e+00   9.440479e-02
  6.299801e-02    1.413922e+00   8.947654e-02
  6.520846e-02    1.386396e+00   8.708721e-02
  6.741892e-02    1.475117e+00   8.834115e-02
  6.962938e-02    1.490493e+00   8.738387e-02
  7.183983e-02    1.569678e+00   8.828304e-02
  7.405029e-02    1.568043e+00   8.690810e-02
  7.626074e-02    1.542629e+00   8.494173e-02
  7.847120e-02    1.557042e+00   8.412483e-02
  8.068166e-02    1.361556e+00   7.758112e-02
  8.289211e-02    1.385016e+00   7.719588e-02
  8.510257e-02    1.412515e+00   7.693888e-02
  8.731303e-02    1.494105e+00   7.811876e-02
  8.952348e-02    1.449356e+00   7.598625e-02
  9.173394e-02    1.570543e+00   7.813735e-02
  9.394439e-02    1.549594e+00   7.669345e-02
  9.615485e-02    1.468983e+00   7.380710e-02
  9.836531e-02    1.563993e+00   7.529389e-02
  1.005758e-01    1.565680e+00   7.450250e-02
  1.027862e-01    1.585878e+00   7.416905e-02
  1.049967e-01    1.615070e+00   7.405522e-02
  1.072071e-01    1.621855e+00   7.344068e-02
  1.094176e-01    1.684779e+00   7.409073e-02
  1.116280e-01    1.605371e+00   7.160238e-02
  1.138385e-01    1.534493e+00   6.931955e-02
  1.160490e-01    1.598818e+00   7.007959e-02
  1.182594e-01    1.550245e+00   6.835740e-02
  1.204699e-01    1.542379e+00   6.755479e-02
  1.226803e-01    1.658226e+00   6.940907e-02
  1.248908e-01    1.758566e+00   7.084202e-02
  1.271012e-01    1.632020e+00   6.764817e-02
  1.293117e-01    1.735921e+00   6.916856e-02
  1.315222e-01    1.679172e+00   6.745292e-02
  1.337326e-01    1.624082e+00   6.578543e-02
  1.359431e-01    1.648357e+00   6.631401e-02
  1.381535e-01    1.654758e+00   6.733453e-02
  1.403640e-01    1.626829e+00   6.705216e-02
  1.425744e-01    1.550431e+00   6.556334e-02
  1.447849e-01    1.561177e+00   6.580532e-02
  1.469953e-01    1.630669e+00   6.721183e-02
  1.492058e-01    1.756785e+00   6.968144e-02
  1.514163e-01    1.647459e+00   6.736642e-02
  1.536267e-01    1.610422e+00   6.647482e-02
  1.558372e-01    1.665567e+00   6.745411e-02
  1.580476e-01    1.678043e+00   6.754201e-02
  1.602581e-01    1.647360e+00   6.675168e-02
  1.624685e-01    1.666709e+00   6.695873e-02
  1.646790e-01    1.734372e+00   6.810824e-02
  1.668895e-01    1.780234e+00   6.880356e-02
  1.690999e-01    1.814091e+00   6.924617e-02
  1.713104e-01    1.806394e+00   6.888469e-02
  1.735208e-01    1.844378e+00   6.938870e-02
  1.757313e-01    1.814511e+00   6.860889e-02
  1.779417e-01    1.870961e+00   6.944071e-02
  1.801522e-01    1.851198e+00   6.885301e-02
  1.823626e-01    1.913904e+00   6.977636e-02
  1.845731e-01    1.921073e+00   6.968048e-02
  1.867836e-01    1.999799e+00   7.085396e-02
  1.889940e-01    2.038540e+00   7.130324e-02
  1.912045e-01    1.999158e+00   7.037532e-02
  1.934149e-01    1.993992e+00   7.004913e-02
  1.956254e-01    1.919903e+00   6.850869e-02
  1.978358e-01    2.041684e+00   7.040600e-02
  2.000463e-01    2.000393e+00   6.945945e-02
  2.022568e-01    1.999171e+00   6.921033e-02
  2.044672e-01    1.986976e+00   6.876254e-02
  2.066777e-01    2.011061e+00   6.894843e-02
  2.088881e-01    2.005814e+00   6.863314e-02
  2.110986e-01    2.073946e+00   6.954972e-02
  2.133090e-01    2.015541e+00   6.834054e-02
  2.155195e-01    2.022174e+00   6.822582e-02
  2.177300e-01    2.006206e+00   6.742205e-02
  2.199404e-01    2.018796e+00   6.585116e-02
  2.221509e-01    1.924008e+00   6.323104e-02
  2.243613e-01    1.901269e+00   6.205938e-02
  2.265718e-01    2.065810e+00   6.397609e-02
  2.287822e-01    2.140413e+00   6.447643e-02
  2.309927e-01    2.231468e+00   6.523390e-02
  2.332031e-01    2.218990e+00   6.449448e-02
  2.354136e-01    2.198102e+00   6.366995e-02
  2.376241e-01    2.155495e+00   6.256048e-02
  2.398345e-01    2.163027e+00   6.220587e-02
  2.420450e-01    2.190622e+00   6.215403e-02
  2.442554e-01    2.161366e+00   6.131227e-02
  2.464659e-01    2.225451e+00   6.179689e-02
  2.486763e-01    2.274337e+00   6.206131e-02
  2.508868e-01    2.161928e+00   6.012649e-02
  2.530973e-01    2.126098e+00   5.925648e-02
  2.553077e-01    2.122523e+00   5.884751e-02
  2.575182e-01    2.130652e+00   5.861124e-02
  2.597286e-01    2.193510e+00   5.912384e-02
  2.619391e-01    2.136744e+00   5.801784e-02
  2.641495e-01    2.136982e+00   5.769994e-02
  2.663600e-01    2.090920e+00   5.676084e-02
  2.685704e-01    2.092252e+00   5.647114e-02
  2.707809e-01    2.102437e+00   5.630793e-02
  2.729914e-01    2.084047e+00   5.576897e-02
  2.752018e-01    2.070777e+00   5.530180e-02
  2.774123e-01    2.054977e+00   5.480902e-02
  2.796227e-01    2.044279e+00   5.439574e-02
  2.818332e-01    2.047103e+00   5.416176e-02
  2.840436e-01    2.067997e+00   5.417357e-02
  2.862541e-01    2.161247e+00   5.511530e-02
  2.884646e-01    2.055892e+00   5.350005e-02
  2.906750e-01    2.066094e+00   5.337831e-02
  2.928855e-01    1.987208e+00   5.210682e-02
  2.950959e-01    1.973283e+00   5.168541e-02
  2.973064e-01    1.984634e+00   5.160090e-02
  2.995168e-01    1.962882e+00   5.108491e-02
  3.017273e-01    1.981736e+00   5.110336e-02
  3.039377e-01    2.003226e+00   5.115472e-02
  3.061482e-01    2.015296e+00   5.108666e-02
  3.083587e-01    1.910878e+00   4.953026e-02
  3.105691e-01    1.936785e+00   4.965188e-02
  3.127796e-01    1.913564e+00   4.914587e-02
  3.149900e-01    1.942347e+00   4.930778e-02
  3.172005e-01    1.963679e+00   4.937508e-02
  3.194109e-01    1.908784e+00   4.847910e-02
  3.216214e-01    1.901155e+00   4.818469e-02
  3.238319e-01    1.894214e+00   4.790611e-02
  3.260423e-01    1.847162e+00   4.711893e-02
  3.282528e-01    1.860638e+00   4.710222e-02
  3.304632e-01    1.896706e+00   4.737236e-02
  3.326737e-01    1.897944e+00   4.720291e-02
  3.348841e-01    1.873762e+00   4.671935e-02
  3.370946e-01    1.882870e+00   4.665657e-02
  3.393050e-01    1.902549e+00   4.672210e-02
  3.415155e-01    1.840174e+00   4.577707e-02
  3.437260e-01    1.825010e+00   4.541906e-02
  3.459364e-01    1.874958e+00   4.586612e-02
  3.481469e-01    1.914875e+00   4.618257e-02
  3.503573e-01    1.919823e+00   4.607377e-02
  3.525678e-01    1.865960e+00   4.526096e-02
  3.547782e-01    1.861028e+00   4.503773e-02
  3.569887e-01    1.861277e+00   4.488116e-02
  3.591992e-01    1.898469e+00   4.516696e-02
  3.614096e-01    1.824635e+00   4.412644e-02
  3.636201e-01    1.823370e+00   4.395609e-02
  3.658305e-01    1.855349e+00   4.418864e-02
  3.680410e-01    1.846864e+00   4.393587e-02
  3.702514e-01    1.839693e+00   4.370301e-02
  3.724619e-01    1.839200e+00   4.354835e-02
  3.746724e-01    1.842989e+00   4.344774e-02
  3.768828e-01    1.810775e+00   4.292143e-02
  3.790933e-01    1.824677e+00   4.294548e-02
  3.813037e-01    1.843267e+00   4.302246e-02
  3.835142e-01    1.829808e+00   4.272432e-02
  3.857246e-01    1.840030e+00   4.270485e-02
  3.879351e-01    1.850136e+00   4.268334e-02
  3.901455e-01    1.811383e+00   4.209952e-02
  3.923560e-01    1.786374e+00   4.167500e-02
  3.945665e-01    1.797034e+00   4.166660e-02
  3.967769e-01    1.787414e+00   4.142478e-02
  3.989874e-01    1.845993e+00   4.196665e-02
  4.011978e-01    1.827453e+00   4.162701e-02
  4.034083e-01    1.780005e+00   4.095691e-02
  4.056187e-01    1.843061e+00   4.154765e-02
  4.078292e-01    1.859352e+00   4.160459e-02
  4.100397e-01    1.862639e+00   4.151419e-02
  4.122501e-01    1.884109e+00   4.162787e-02
  4.144606e-01    1.880272e+00   4.146214e-02
  4.166710e-01    1.834270e+00   4.083003e-02
  4.188815e-01    1.841278e+00   4.078712e-02
  4.210919e-01    1.805846e+00   4.027441e-02
  4.233024e-01    1.796868e+00   4.005599e-02
  4.255128e-01    1.782665e+00   3.978204e-02
  4.277233e-01    1.784430e+00   3.968737e-02
  4.299338e-01    1.790138e+00   3.963643e-02
  4.321442e-01    1.768637e+00   3.928492e-02
  4.343547e-01    1.796852e+00   3.948508e-02
  4.365651e-01    1.766590e+00   3.903994e-02
  4.387756e-01    1.739995e+00   3.863646e-02
  4.409860e-01    1.802254e+00   3.921268e-02
  4.431965e-01    1.765912e+00   3.870799e-02
  4.454070e-01    1.809379e+00   3.907247e-02
  4.476174e-01    1.702289e+00   3.779450e-02
  4.498279e-01    1.711013e+00   3.778813e-02
  4.520383e-01    1.734408e+00   3.794118e-02
  4.542488e-01    1.746104e+00   3.796625e-02
  4.564592e-01    1.774600e+00   3.817211e-02
  4.586697e-01    1.733378e+00   3.762604e-02
  4.608801e-01    1.740453e+00   3.760174e-02
  4.630906e-01    1.758125e+00   3.769211e-02
  4.653011e-01    1.705119e+00   3.702194e-02
  4.675115e-01    1.765284e+00   3.757020e-02
  4.697220e-01    1.802375e+00   3.786350e-02
  4.719324e-01    1.775574e+00   3.748371e-02
  4.741429e-01    1.709850e+00   3.668865e-02
  4.763533e-01    1.749985e+00   3.702158e-02
  4.785638e-01    1.725331e+00   3.666492e-02
  4.807743e-01    1.739493e+00   3.672145e-02
  4.829847e-01    1.736674e+00   3.659902e-02
  4.851952e-01    1.656412e+00   3.565282e-02
  4.874056e-01    1.715750e+00   3.619430e-02
  4.896161e-01    1.722711e+00   3.617772e-02
  4.918265e-01    1.723638e+00   3.609759e-02
  4.940370e-01    1.681205e+00   3.556248e-02
  4.962475e-01    1.669670e+00   3.535274e-02
  4.984579e-01    1.727097e+00   3.586695e-02
  5.006684e-01    1.709380e+00   3.559552e-02
  5.028788e-01    1.677107e+00   3.517246e-02
  5.050893e-01    1.696039e+00   3.528439e-02
  5.072997e-01    1.692481e+00   3.516223e-02
  5.095102e-01    1.752186e+00   3.569138e-02
  5.117206e-01    1.709957e+00   3.517482e-02
  5.139311e-01    1.701162e+00   3.500122e-02
  5.161416e-01    1.725571e+00   3.516812e-02
  5.183520e-01    1.726228e+00   3.509123e-02
  5.205625e-01    1.734703e+00   3.509485e-02
  5.227729e-01    1.691297e+00   3.457218e-02
  5.249834e-01    1.698062e+00   3.456083e-02
  5.271938e-01    1.699048e+00   3.449020e-02
  5.294043e-01    1.685985e+00   3.427806e-02
  5.316148e-01    1.778792e+00   3.512822e-02
  5.338252e-01    1.819306e+00   3.544482e-02
  5.360357e-01    1.808904e+00   3.526290e-02
  5.382461e-01    1.788154e+00   3.498081e-02
  5.404566e-01    1.764603e+00   3.467060e-02
  5.426670e-01    1.768940e+00   3.463494e-02
  5.448775e-01    1.826484e+00   3.511517e-02
  5.470879e-01    1.777395e+00   3.456284e-02
  5.492984e-01    1.758589e+00   3.430303e-02
  5.515089e-01    1.777519e+00   3.441068e-02
  5.537193e-01    1.735001e+00   3.392174e-02
  5.559298e-01    1.783702e+00   3.431908e-02
  5.581402e-01    1.781583e+00   3.422376e-02
  5.603507e-01    1.787737e+00   3.420819e-02
  5.625611e-01    1.825279e+00   3.449051e-02
  5.647716e-01    1.794046e+00   3.411990e-02
  5.669821e-01    1.841479e+00   3.449348e-02
  5.691925e-01    1.786188e+00   3.389880e-02
  5.714030e-01    1.760146e+00   3.357901e-02
  5.736134e-01    1.769439e+00   3.359593e-02
  5.758239e-01    1.739776e+00   3.324205e-02
  5.780343e-01    1.705231e+00   3.284074e-02
  5.802448e-01    1.674649e+00   3.247679e-02
  5.824552e-01    1.698778e+00   3.264128e-02
  5.846657e-01    1.701774e+00   3.260196e-02
  5.868762e-01    1.676961e+00   3.229603e-02
  5.890866e-01    1.675444e+00   3.221445e-02
  5.912971e-01    1.680906e+00   3.220009e-02
  5.935075e-01    1.713244e+00   3.244120e-02
  5.957180e-01    1.676981e+00   3.203016e-02
  5.979284e-01    1.672436e+00   3.192144e-02
  6.001389e-01    1.679035e+00   3.191921e-02
  6.023494e-01    1.682621e+00   3.188841e-02
  6.045598e-01    1.665860e+00   3.166460e-02
  6.067703e-01    1.649967e+00   3.144980e-02
  6.089807e-01    1.697479e+00   3.183528e-02
  6.111912e-01    1.692092e+00   3.172124e-02
  6.134016e-01    1.750905e+00   3.220345e-02
  6.156121e-01    1.762310e+00   3.224396e-02
  6.178226e-01    1.700380e+00   3.160964e-02
  6.200330e-01    1.737658e+00   3.189120e-02
  6.222435e-01    1.713170e+00   3.160298e-02
  6.244539e-01    1.729501e+00   3.169106e-02
  6.266644e-01    1.724444e+00   3.158299e-02
  6.288748e-01    1.723267e+00   3.151074e-02
  6.310853e-01    1.763472e+00   3.181432e-02
  6.332957e-01    1.743067e+00   3.156865e-02
  6.355062e-01    1.755601e+00   3.162042e-02
  6.377167e-01    1.710382e+00   3.115064e-02
  6.399271e-01    1.712179e+00   3.110729e-02
  6.421376e-01    1.716247e+00   3.108475e-02
  6.443480e-01    1.748544e+00   3.131621e-02
  6.465585e-01    1.714590e+00   3.095191e-02
  6.487689e-01    1.701847e+00   3.077846e-02
  6.509794e-01    1.714427e+00   3.083372e-02
  6.531899e-01    1.684884e+00   3.050945e-02
  6.554003e-01    1.642968e+00   3.007089e-02
  6.576108e-01    1.644765e+00   3.003132e-02
  6.598212e-01    1.641615e+00   2.994680e-02
  6.620317e-01    1.684798e+00   3.028189e-02
  6.642421e-01    1.680048e+00   3.018322e-02
  6.664526e-01    1.707648e+00   3.037408e-02
  6.686630e-01    1.671135e+00   2.999205e-02
  6.708735e-01    1.634625e+00   2.960820e-02
  6.730840e-01    1.631649e+00   2.952729e-02
  6.752944e-01    1.648891e+00   2.962892e-02
  6.775049e-01    1.635355e+00   2.945348e-02
  6.797153e-01    1.612410e+00   2.919315e-02
  6.819258e-01    1.656906e+00   2.953985e-02
  6.841362e-01    1.625764e+00   2.920831e-02
  6.863467e-01    1.636773e+00   2.925454e-02
  6.885572e-01    1.615114e+00   2.900829e-02
  6.907676e-01    1.616315e+00   2.896705e-02
  6.929781e-01    1.644060e+00   2.916269e-02
  6.951885e-01    1.593348e+00   2.865855e-02
  6.973990e-01    1.627802e+00   2.891552e-02
  6.996094e-01    1.597674e+00   2.859630e-02
  7.018199e-01    1.631217e+00   2.884419e-02
  7.040303e-01    1.634947e+00   2.882644e-02
  7.062408e-01    1.610457e+00   2.855962e-02
  7.084513e-01    1.602826e+00   2.844233e-02
  7.106617e-01    1.597789e+00   2.834823e-02
  7.128722e-01    1.634828e+00   2.862532e-02
  7.150826e-01    1.601964e+00   2.828731e-02
  7.172931e-01    1.601844e+00   2.823748e-02
  7.195035e-01    1.598319e+00   2.815791e-02
  7.217140e-01    1.600599e+00   2.822784e-02
  7.239245e-01    1.578183e+00   2.825647e-02
  7.261349e-01    1.600248e+00   2.856279e-02
  7.283454e-01    1.634720e+00   2.894259e-02
  7.305558e-01    1.617091e+00   2.884082e-02
  7.327663e-01    1.587692e+00   2.862013e-02
  7.349767e-01    1.589766e+00   2.865526e-02
  7.371872e-01    1.593729e+00   2.867969e-02
  7.393976e-01    1.604962e+00   2.876621e-02
  7.416081e-01    1.570067e+00   2.843562e-02
  7.438186e-01    1.606454e+00   2.861745e-02
  7.460290e-01    1.613595e+00   2.838316e-02
  7.482395e-01    1.579404e+00   2.790940e-02
  7.504499e-01    1.564544e+00   2.764195e-02
  7.526604e-01    1.604037e+00   2.787103e-02
  7.548708e-01    1.569526e+00   2.748030e-02
  7.570813e-01    1.551013e+00   2.726715e-02
  7.592918e-01    1.584263e+00   2.752260e-02
  7.615022e-01    1.611203e+00   2.772143e-02
  7.637127e-01    1.603199e+00   2.761941e-02
  7.659231e-01    1.576087e+00   2.735287e-02
  7.681336e-01    1.617454e+00   2.767745e-02
  7.703440e-01    1.607362e+00   2.755945e-02
  7.725545e-01    1.620489e+00   2.764041e-02
  7.747650e-01    1.667206e+00   2.799670e-02
  7.769754e-01    1.637857e+00   2.769545e-02
  7.791859e-01    1.602854e+00   2.734398e-02
  7.813963e-01    1.602596e+00   2.728877e-02
  7.836068e-01    1.587367e+00   2.710677e-02
  7.858172e-01    1.617438e+00   2.731114e-02
  7.880277e-01    1.620563e+00   2.728553e-02
  7.902381e-01    1.624883e+00   2.727221e-02
  7.924486e-01    1.632053e+00   2.728171e-02
  7.946591e-01    1.646728e+00   2.735507e-02
  7.968695e-01    1.676049e+00   2.754819e-02
  7.990800e-01    1.629298e+00   2.711272e-02
  8.012904e-01    1.648579e+00   2.722547e-02
  8.035009e-01    1.618839e+00   2.693081e-02
  8.057113e-01    1.644906e+00   2.709979e-02
  8.079218e-01    1.674593e+00   2.729607e-02
  8.101323e-01    1.665645e+00   2.717682e-02
  8.123427e-01    1.687431e+00   2.730734e-02
  8.145532e-01    1.654189e+00   2.699078e-02
  8.167636e-01    1.686316e+00   2.720578e-02
  8.189741e-01    1.694254e+00   2.722429e-02
  8.211845e-01    1.681600e+00   2.707698e-02
  8.233950e-01    1.671967e+00   2.695540e-02
  8.256054e-01    1.667567e+00   2.687529e-02
  8.278159e-01    1.662577e+00   2.679077e-02
  8.300264e-01    1.651043e+00   2.665441e-02
  8.322368e-01    1.667741e+00   2.674535e-02
  8.344473e-01    1.684034e+00   2.683172e-02
  8.366577e-01    1.662956e+00   2.662038e-02
  8.388682e-01    1.673194e+00   2.665951e-02
  8.410786e-01    1.691035e+00   2.675855e-02
  8.432891e-01    1.646782e+00   2.636417e-02
  8.454996e-01    1.676446e+00   2.655843e-02
  8.477100e-01    1.661353e+00   2.639669e-02
  8.499205e-01    1.647624e+00   2.624608e-02
  8.521309e-01    1.681005e+00   2.646931e-02
  8.543414e-01    1.646044e+00   2.615174e-02
  8.565518e-01    1.665286e+00   2.626319e-02
  8.587623e-01    1.645201e+00   2.606370e-02
  8.609727e-01    1.663275e+00   2.616581e-02
  8.631832e-01    1.683064e+00   2.628045e-02
  8.653937e-01    1.653097e+00   2.600541e-02
  8.676041e-01    1.620770e+00   2.571103e-02
  8.698146e-01    1.633232e+00   2.577023e-02
  8.720250e-01    1.628048e+00   2.569009e-02
  8.742355e-01    1.625117e+00   2.562788e-02
  8.764459e-01    1.643898e+00   2.573623e-02
  8.786564e-01    1.624286e+00   2.554411e-02
  8.808669e-01    1.601125e+00   2.532289e-02
  8.830773e-01    1.582521e+00   2.513743e-02
  8.852878e-01    1.592319e+00   2.517733e-02
  8.874982e-01    1.607556e+00   2.526079e-02
  8.897087e-01    1.609604e+00   2.523908e-02
  8.919191e-01    1.621582e+00   2.529484e-02
  8.941296e-01    1.572196e+00   2.486971e-02
  8.963401e-01    1.586716e+00   2.494801e-02
  8.985505e-01    1.576652e+00   2.483209e-02
  9.007610e-01    1.566811e+00   2.471809e-02
  9.029714e-01    1.612415e+00   2.503926e-02
  9.051819e-01    1.595400e+00   2.486964e-02
  9.073923e-01    1.626726e+00   2.507572e-02
  9.096028e-01    1.610427e+00   2.491478e-02
  9.118132e-01    1.579083e+00   2.463513e-02
  9.140237e-01    1.631329e+00   2.500235e-02
  9.162342e-01    1.647548e+00   2.509131e-02
  9.184446e-01    1.590246e+00   2.461544e-02
  9.206551e-01    1.607808e+00   2.471530e-02
  9.228655e-01    1.600381e+00   2.462291e-02
  9.250760e-01    1.641093e+00   2.489834e-02
  9.272864e-01    1.632140e+00   2.479577e-02
  9.294969e-01    1.643955e+00   2.484908e-02
  9.317074e-01    1.602253e+00   2.449724e-02
  9.339178e-01    1.600298e+00   2.444882e-02
  9.361283e-01    1.635777e+00   2.468193e-02
  9.383387e-01    1.639813e+00   2.467875e-02
  9.405492e-01    1.628564e+00   2.455961e-02
  9.427596e-01    1.669336e+00   2.482934e-02
  9.449701e-01    1.653373e+00   2.467678e-02
  9.471805e-01    1.655704e+00   2.465918e-02
  9.493910e-01    1.678617e+00   2.479515e-02
  9.516015e-01    1.673018e+00   2.471920e-02
  9.538119e-01    1.687666e+00   2.479316e-02
  9.560224e-01    1.709173e+00   2.491551e-02
  9.582328e-01    1.777232e+00   2.537264e-02
  9.604433e-01    1.823851e+00   2.566688e-02
  9.626537e-01    1.847360e+00   2.579704e-02
  9.648642e-01    1.820135e+00   2.557118e-02
  9.670747e-01    1.835793e+00   2.564551e-02
  9.692851e-01    1.890745e+00   2.599189e-02
  9.714956e-01    2.004326e+00   2.672348e-02
  9.737060e-01    1.965601e+00   2.642934e-02
  9.759165e-01    1.864471e+00   2.570418e-02
  9.781269e-01    1.814106e+00   2.532143e-02
  9.803374e-01    1.830777e+00   2.540232e-02
  9.825478e-01    1.843900e+00   2.545958e-02
  9.847583e-01    1.856353e+00   2.551072e-02
  9.869688e-01    1.838394e+00   2.535305e-02
  9.891792e-01    1.809338e+00   2.511846e-02
  9.913897e-01    1.836777e+00   2.527404e-02
  9.936001e-01    1.824573e+00   2.515699e-02
  9.958106e-01    1.738705e+00   2.452451e-02
  9.980210e-01    1.691200e+00   2.415575e-02
  1.000231e+00    1.680143e+00   2.420856e-02
  1.002442e+00    1.659258e+00   2.418545e-02
  1.004652e+00    1.649354e+00   2.418043e-02
  1.006863e+00    1.614201e+00   2.397101e-02
  1.009073e+00    1.609425e+00   2.397213e-02
  1.011284e+00    1.624423e+00   2.411577e-02
  1.013494e+00    1.603556e+00   2.398416e-02
  1.015705e+00    1.568841e+00   2.374554e-02
  1.017915e+00    1.549066e+00   2.361166e-02
  1.020126e+00    1.564720e+00   2.374669e-02
  1.022336e+00    1.587681e+00   2.393209e-02
  1.024547e+00    1.558707e+00   2.372395e-02
  1.026757e+00    1.575581e+00   2.386046e-02
  1.028967e+00    1.544141e+00   2.362890e-02
  1.031178e+00    1.529330e+00   2.352145e-02
  1.033388e+00    1.519245e+00   2.344880e-02
  1.035599e+00    1.499839e+00   2.330195e-02
  1.037809e+00    1.506090e+00   2.335369e-02
  1.040020e+00    1.506991e+00   2.336194e-02
  1.042230e+00    1.499411e+00   2.330505e-02
  1.044441e+00    1.494572e+00   2.326719e-02
  1.046651e+00    1.503250e+00   2.333479e-02
  1.048862e+00    1.527280e+00   2.351979e-02
  1.051072e+00    1.503928e+00   2.333691e-02
  1.053282e+00    1.554570e+00   2.372560e-02
  1.055493e+00    1.532441e+00   2.355180e-02
  1.057703e+00    1.485268e+00   2.318495e-02
  1.059914e+00    1.460266e+00   2.298476e-02
  1.062124e+00    1.468659e+00   2.304668e-02
  1.064335e+00    1.516391e+00   2.341472e-02
  1.066545e+00    1.552691e+00   2.368719e-02
  1.068756e+00    1.507391e+00   2.333536e-02
  1.070966e+00    1.484706e+00   2.315251e-02
  1.073177e+00    1.495607e+00   2.323125e-02
  1.075387e+00    1.533169e+00   2.351583e-02
  1.077597e+00    1.483262e+00   2.312266e-02
  1.079808e+00    1.498466e+00   2.310654e-02
  1.082018e+00    1.596695e+00   2.365433e-02
  1.084229e+00    1.980131e+00   2.621361e-02
  1.086439e+00    2.628548e+00   3.008472e-02
  1.088650e+00    2.318329e+00   2.815850e-02
  1.090860e+00    1.725050e+00   2.421599e-02
  1.093071e+00    1.536138e+00   2.278754e-02
  1.095281e+00    1.500203e+00   2.246108e-02
  1.097492e+00    1.507601e+00   2.246031e-02
  1.099702e+00    1.515372e+00   2.246541e-02
  1.101912e+00    1.505981e+00   2.234572e-02
  1.104123e+00    1.525582e+00   2.244097e-02
  1.106333e+00    1.484970e+00   2.209506e-02
  1.108544e+00    1.452111e+00   2.180461e-02
  1.110754e+00    1.441045e+00   2.167814e-02
  1.112965e+00    1.423197e+00   2.150292e-02
  1.115175e+00    1.430441e+00   2.151623e-02
  1.117386e+00    1.461872e+00   2.171144e-02
  1.119596e+00    1.441596e+00   2.152209e-02
  1.121807e+00    1.415230e+00   2.128546e-02
  1.124017e+00    1.430614e+00   2.136389e-02
  1.126228e+00    1.391983e+00   2.103788e-02
  1.128438e+00    1.401609e+00   2.107372e-02
  1.130648e+00    1.395686e+00   2.099488e-02
  1.132859e+00    1.390610e+00   2.092236e-02
  1.135069e+00    1.421618e+00   2.111927e-02
  1.137280e+00    1.385223e+00   2.081423e-02
  1.139490e+00    1.399729e+00   2.088971e-02
  1.141701e+00    1.405125e+00   2.089658e-02
  1.143911e+00    1.403032e+00   2.084892e-02
  1.146122e+00    1.418694e+00   2.093251e-02
  1.148332e+00    1.397655e+00   2.074465e-02
  1.150543e+00    1.400363e+00   2.073364e-02
  1.152753e+00    1.402465e+00   2.071807e-02
  1.154963e+00    1.387917e+00   2.057911e-02
  1.157174e+00    1.393281e+00   2.058848e-02
  1.159384e+00    1.390858e+00   2.054049e-02
  1.161595e+00    1.401432e+00   2.058827e-02
  1.163805e+00    1.374249e+00   2.035828e-02
  1.166016e+00    1.378393e+00   2.035943e-02
  1.168226e+00    1.376817e+00   2.031870e-02
  1.170437e+00    1.386250e+00   2.035936e-02
  1.172647e+00    1.380346e+00   2.028690e-02
  1.174858e+00    1.383201e+00   2.027958e-02
  1.177068e+00    1.382299e+00   2.024452e-02
  1.179278e+00    1.378099e+00   2.018498e-02
  1.181489e+00    1.395648e+00   2.028573e-02
  1.183699e+00    1.397371e+00   2.027029e-02
  1.185910e+00    1.389041e+00   2.018169e-02
  1.188120e+00    1.401255e+00   2.024310e-02
  1.190331e+00    1.356948e+00   1.989374e-02
  1.192541e+00    1.346046e+00   1.978635e-02
  1.194752e+00    1.347268e+00   1.976834e-02
  1.196962e+00    1.353222e+00   1.978620e-02
  1.199173e+00    1.399038e+00   2.009138e-02
  1.201383e+00    1.401823e+00   2.008372e-02
  1.203593e+00    1.378113e+00   1.988807e-02
  1.205804e+00    1.363208e+00   1.975418e-02
  1.208014e+00    1.370202e+00   1.977773e-02
  1.210225e+00    1.395975e+00   1.993712e-02
  1.212435e+00    1.399552e+00   1.993740e-02
  1.214646e+00    1.423351e+00   2.007940e-02
  1.216856e+00    1.379388e+00   1.974114e-02
  1.219067e+00    1.398190e+00   1.985029e-02
  1.221277e+00    1.394213e+00   1.979664e-02
  1.223488e+00    1.387373e+00   1.972191e-02
  1.225698e+00    1.378733e+00   1.963322e-02
  1.227909e+00    1.367493e+00   1.952266e-02
  1.230119e+00    1.351242e+00   1.937445e-02
  1.232329e+00    1.361629e+00   1.941790e-02
  1.234540e+00    1.373203e+00   1.946973e-02
  1.236750e+00    1.381425e+00   1.949729e-02
  1.238961e+00    1.387159e+00   1.951038e-02
  1.241171e+00    1.439995e+00   1.985349e-02
  1.243382e+00    1.448705e+00   1.988911e-02
  1.245592e+00    1.430349e+00   1.973792e-02
  1.247803e+00    1.397408e+00   1.948522e-02
  1.250013e+00    1.382061e+00   1.935410e-02
  1.252224e+00    1.356228e+00   1.914908e-02
  1.254434e+00    1.345189e+00   1.904728e-02
  1.256644e+00    1.376947e+00   1.924735e-02
  1.258855e+00    1.384030e+00   1.927326e-02
  1.261065e+00    1.372452e+00   1.916891e-02
  1.263276e+00    1.359820e+00   1.905745e-02
  1.265486e+00    1.355879e+00   1.900690e-02
  1.267697e+00    1.350874e+00   1.894875e-02
  1.269907e+00    1.357129e+00   1.896982e-02
  1.272118e+00    1.359812e+00   1.896590e-02
  1.274328e+00    1.381949e+00   1.909666e-02
  1.276539e+00    1.375282e+00   1.902754e-02
  1.278749e+00    1.368558e+00   1.895854e-02
  1.280959e+00    1.358347e+00   1.886506e-02
  1.283170e+00    1.381661e+00   1.900359e-02
  1.285380e+00    1.392431e+00   1.905469e-02
  1.287591e+00    1.390460e+00   1.901886e-02
  1.289801e+00    1.359331e+00   1.878347e-02
  1.292012e+00    1.373859e+00   1.886631e-02
  1.294222e+00    1.387410e+00   1.894269e-02
  1.296433e+00    1.359921e+00   1.873842e-02
  1.298643e+00    1.358034e+00   1.870891e-02
  1.300854e+00    1.356338e+00   1.868075e-02
  1.303064e+00    1.349997e+00   1.861783e-02
  1.305274e+00    1.331692e+00   1.846987e-02
  1.307485e+00    1.341717e+00   1.851777e-02
  1.309695e+00    1.356765e+00   1.859904e-02
  1.311906e+00    1.349294e+00   1.852606e-02
  1.314116e+00    1.351290e+00   1.851896e-02
  1.316327e+00    1.349772e+00   1.848686e-02
  1.318537e+00    1.372549e+00   1.862012e-02
  1.320748e+00    1.350862e+00   1.845088e-02
  1.322958e+00    1.346349e+00   1.839955e-02
  1.325169e+00    1.362360e+00   1.848749e-02
  1.327379e+00    1.386822e+00   1.863064e-02
  1.329589e+00    1.390422e+00   1.863341e-02
  1.331800e+00    1.397484e+00   1.865963e-02
  1.334010e+00    1.391016e+00   1.859543e-02
  1.336221e+00    1.387734e+00   1.855141e-02
  1.338431e+00    1.392841e+00   1.856435e-02
  1.340642e+00    1.388723e+00   1.860193e-02
  1.342852e+00    1.384537e+00   1.867585e-02
  1.345063e+00    1.367383e+00   1.860959e-02
  1.347273e+00    1.375418e+00   1.869976e-02
  1.349484e+00    1.344613e+00   1.851679e-02
  1.351694e+00    1.365213e+00   1.868092e-02
  1.353905e+00    1.351360e+00   1.860391e-02
  1.356115e+00    1.342601e+00   1.855853e-02
  1.358325e+00    1.336521e+00   1.852971e-02
  1.360536e+00    1.344559e+00   1.859694e-02
  1.362746e+00    1.374720e+00   1.881402e-02
  1.364957e+00    1.355365e+00   1.868881e-02
  1.367167e+00    1.328874e+00   1.851235e-02
  1.369378e+00    1.344319e+00   1.862564e-02
  1.371588e+00    1.303328e+00   1.834454e-02
  1.373799e+00    1.320550e+00   1.846898e-02
  1.376009e+00    1.317537e+00   1.845125e-02
  1.378220e+00    1.320112e+00   1.847181e-02
  1.380430e+00    1.300004e+00   1.833326e-02
  1.382640e+00    1.316064e+00   1.844705e-02
  1.384851e+00    1.285598e+00   1.823316e-02
  1.387061e+00    1.301731e+00   1.834748e-02
  1.389272e+00    1.283658e+00   1.821990e-02
  1.391482e+00    1.291604e+00   1.827550e-02
  1.393693e+00    1.323281e+00   1.849737e-02
  1.395903e+00    1.304369e+00   1.836323e-02
  1.398114e+00    1.285433e+00   1.822806e-02
  1.400324e+00    1.283872e+00   1.821484e-02
  1.402535e+00    1.273832e+00   1.814120e-02
  1.404745e+00    1.251176e+00   1.797679e-02
  1.406955e+00    1.286827e+00   1.822838e-02
  1.409166e+00    1.268575e+00   1.809537e-02
  1.411376e+00    1.263011e+00   1.805251e-02
  1.413587e+00    1.285208e+00   1.820663e-02
  1.415797e+00    1.262581e+00   1.804214e-02
  1.418008e+00    1.250891e+00   1.791684e-02
  1.420218e+00    1.293544e+00   1.806863e-02
  1.422429e+00    1.307914e+00   1.808215e-02
  1.424639e+00    1.297662e+00   1.794575e-02
  1.426850e+00    1.278030e+00   1.775462e-02
  1.429060e+00    1.286764e+00   1.776586e-02
  1.431270e+00    1.302150e+00   1.782690e-02
  1.433481e+00    1.291367e+00   1.771164e-02
  1.435691e+00    1.286285e+00   1.763807e-02
  1.437902e+00    1.280561e+00   1.756218e-02
  1.440112e+00    1.295153e+00   1.762624e-02
  1.442323e+00    1.302602e+00   1.764342e-02
  1.444533e+00    1.292338e+00   1.754092e-02
  1.446744e+00    1.286776e+00   1.747181e-02
  1.448954e+00    1.264057e+00   1.728676e-02
  1.451165e+00    1.272094e+00   1.731183e-02
  1.453375e+00    1.286432e+00   1.738090e-02
  1.455586e+00    1.284432e+00   1.733907e-02
  1.457796e+00    1.295969e+00   1.738897e-02
  1.460006e+00    1.292764e+00   1.733997e-02
  1.462217e+00    1.284011e+00   1.725478e-02
  1.464427e+00    1.276589e+00   1.717919e-02
  1.466638e+00    1.266560e+00   1.708625e-02
  1.468848e+00    1.295639e+00   1.725569e-02
  1.471059e+00    1.283857e+00   1.715183e-02
  1.473269e+00    1.275140e+00   1.706906e-02
  1.475480e+00    1.278316e+00   1.706644e-02
  1.477690e+00    1.260827e+00   1.692555e-02
  1.479901e+00    1.281307e+00   1.703847e-02
  1.482111e+00    1.292976e+00   1.709233e-02
  1.484321e+00    1.296094e+00   1.708956e-02
  1.486532e+00    1.284266e+00   1.698891e-02
  1.488742e+00    1.266346e+00   1.684730e-02
  1.490953e+00    1.261031e+00   1.678933e-02
  1.493163e+00    1.251861e+00   1.670600e-02
  1.495374e+00    1.254101e+00   1.669950e-02
  1.497584e+00    1.280107e+00   1.684997e-02
  1.499795e+00    1.265292e+00   1.673050e-02
  1.502005e+00    1.250280e+00   1.660934e-02
  1.504216e+00    1.259910e+00   1.665215e-02
  1.506426e+00    1.260384e+00   1.663443e-02
  1.508636e+00    1.279091e+00   1.673681e-02
  1.510847e+00    1.276333e+00   1.669678e-02
  1.513057e+00    1.260931e+00   1.657059e-02
  1.515268e+00    1.274154e+00   1.663133e-02
  1.517478e+00    1.252385e+00   1.646351e-02
  1.519689e+00    1.276991e+00   1.659925e-02
  1.521899e+00    1.264288e+00   1.649329e-02
  1.524110e+00    1.279427e+00   1.657120e-02
  1.526320e+00    1.274665e+00   1.652058e-02
  1.528531e+00    1.267239e+00   1.645248e-02
  1.530741e+00    1.287577e+00   1.656455e-02
  1.532951e+00    1.273211e+00   1.645212e-02
  1.535162e+00    1.263770e+00   1.647809e-02
  1.537372e+00    1.237500e+00   1.637253e-02
  1.539583e+00    1.250577e+00   1.649307e-02
  1.541793e+00    1.249726e+00   1.649440e-02
  1.544004e+00    1.257249e+00   1.654424e-02
  1.546214e+00    1.257060e+00   1.654149e-02
  1.548425e+00    1.246622e+00   1.647293e-02
  1.550635e+00    1.237857e+00   1.642456e-02
  1.552846e+00    1.238176e+00   1.643631e-02
  1.555056e+00    1.238963e+00   1.640015e-02
  1.557266e+00    1.227526e+00   1.621458e-02
  1.559477e+00    1.245207e+00   1.627179e-02
  1.561687e+00    1.259291e+00   1.633272e-02
  1.563898e+00    1.261188e+00   1.632772e-02
  1.566108e+00    1.268380e+00   1.635813e-02
  1.568319e+00    1.255992e+00   1.626235e-02
  1.570529e+00    1.245882e+00   1.617162e-02
  1.572740e+00    1.249513e+00   1.616748e-02
  1.574950e+00    1.262391e+00   1.622408e-02
  1.577161e+00    1.242720e+00   1.607175e-02
  1.579371e+00    1.222544e+00   1.591727e-02
  1.581582e+00    1.252897e+00   1.609382e-02
  1.583792e+00    1.249899e+00   1.605649e-02
  1.586002e+00    1.272124e+00   1.618080e-02
  1.588213e+00    1.289685e+00   1.627455e-02
  1.590423e+00    1.285702e+00   1.622900e-02
  1.592634e+00    1.253021e+00   1.599972e-02
  1.594844e+00    1.243498e+00   1.591739e-02
  1.597055e+00    1.257726e+00   1.598758e-02
  1.599265e+00    1.230776e+00   1.579474e-02
  1.601476e+00    1.228187e+00   1.575790e-02
  1.603686e+00    1.231724e+00   1.576089e-02
  1.605897e+00    1.210114e+00   1.560209e-02
  1.608107e+00    1.248447e+00   1.582763e-02
  1.610317e+00    1.243089e+00   1.577428e-02
  1.612528e+00    1.240711e+00   1.573996e-02
  1.614738e+00    1.250845e+00   1.578502e-02
  1.616949e+00    1.222024e+00   1.558318e-02
  1.619159e+00    1.189159e+00   1.535373e-02
  1.621370e+00    1.210939e+00   1.547530e-02
  1.623580e+00    1.188473e+00   1.531295e-02
  1.625791e+00    1.183344e+00   1.526177e-02
  1.628001e+00    1.208190e+00   1.540288e-02
  1.630212e+00    1.190801e+00   1.527389e-02
  1.632422e+00    1.180293e+00   1.518851e-02
  1.634632e+00    1.174720e+00   1.513535e-02
  1.636843e+00    1.150470e+00   1.496098e-02
  1.639053e+00    1.148493e+00   1.493101e-02
  1.641264e+00    1.140624e+00   1.486289e-02
  1.643474e+00    1.166505e+00   1.501314e-02
  1.645685e+00    1.138514e+00   1.481541e-02
  1.647895e+00    1.140300e+00   1.481053e-02
  1.650106e+00    1.146645e+00   1.483471e-02
  1.652316e+00    1.157290e+00   1.488686e-02
  1.654527e+00    1.152804e+00   1.484126e-02
  1.656737e+00    1.138495e+00   1.473227e-02
  1.658947e+00    1.134572e+00   1.469057e-02
  1.661158e+00    1.130220e+00   1.464607e-02
  1.663368e+00    1.148261e+00   1.474629e-02
  1.665579e+00    1.166388e+00   1.484576e-02
  1.667789e+00    1.155655e+00   1.476078e-02
  1.670000e+00    1.093890e+00   1.434558e-02
  1.672210e+00    1.095274e+00   1.433883e-02
  1.674421e+00    1.109932e+00   1.441911e-02
  1.676631e+00    1.110607e+00   1.440756e-02
  1.678842e+00    1.117047e+00   1.443337e-02
  1.681052e+00    1.104916e+00   1.433932e-02
  1.683263e+00    1.102752e+00   1.431005e-02
  1.685473e+00    1.098359e+00   1.426627e-02
  1.687683e+00    1.098088e+00   1.424897e-02
  1.689894e+00    1.116210e+00   1.435005e-02
  1.692104e+00    1.154935e+00   1.458139e-02
  1.694315e+00    1.153610e+00   1.455799e-02
  1.696525e+00    1.126507e+00   1.437042e-02
  1.698736e+00    1.099869e+00   1.418443e-02
  1.700946e+00    1.099461e+00   1.416638e-02
  1.703157e+00    1.090652e+00   1.409465e-02
  1.705367e+00    1.066459e+00   1.392285e-02
  1.707578e+00    1.060529e+00   1.386944e-02
  1.709788e+00    1.051748e+00   1.379774e-02
  1.711998e+00    1.038747e+00   1.369722e-02
  1.714209e+00    1.029387e+00   1.362100e-02
  1.716419e+00    1.040054e+00   1.367706e-02
  1.718630e+00    1.062387e+00   1.380867e-02
  1.720840e+00    1.030292e+00   1.358429e-02
  1.723051e+00    1.031904e+00   1.358100e-02
  1.725261e+00    1.019575e+00   1.348495e-02
  1.727472e+00    1.032403e+00   1.355525e-02
  1.729682e+00    1.028559e+00   1.351644e-02
  1.731893e+00    1.017975e+00   1.343277e-02
  1.734103e+00    1.015296e+00   1.340124e-02
  1.736313e+00    1.022843e+00   1.343684e-02
  1.738524e+00    1.004068e+00   1.329911e-02
  1.740734e+00    1.003605e+00   1.328230e-02
  1.742945e+00    1.010116e+00   1.331177e-02
  1.745155e+00    1.011866e+00   1.330972e-02
  1.747366e+00    9.764553e-01   1.306105e-02
  1.749576e+00    9.775986e-01   1.305505e-02
  1.751787e+00    9.946576e-01   1.315504e-02
  1.753997e+00    9.919657e-01   1.312377e-02
  1.756208e+00    1.026597e+00   1.333733e-02
  1.758418e+00    1.046138e+00   1.345008e-02
  1.760628e+00    1.042681e+00   1.341400e-02
  1.762839e+00    9.834613e-01   1.301416e-02
  1.765049e+00    9.883686e-01   1.303328e-02
  1.767260e+00    9.909806e-01   1.303748e-02
  1.769470e+00    1.036481e+00   1.331989e-02
  1.771681e+00    1.028754e+00   1.325651e-02
  1.773891e+00    9.868177e-01   1.297021e-02
  1.776102e+00    9.603329e-01   1.278199e-02
  1.778312e+00    9.733739e-01   1.285557e-02
  1.780523e+00    9.599562e-01   1.275380e-02
  1.782733e+00    9.665170e-01   1.278443e-02
  1.784944e+00    9.746028e-01   1.282465e-02
  1.787154e+00    9.510508e-01   1.265611e-02
  1.789364e+00    9.503386e-01   1.263872e-02
  1.791575e+00    9.647371e-01   1.272133e-02
  1.793785e+00    9.440422e-01   1.257160e-02
  1.795996e+00    9.343059e-01   1.249400e-02
  1.798206e+00    9.236585e-01   1.241005e-02
  1.800417e+00    9.186663e-01   1.236377e-02
  1.802627e+00    9.169484e-01   1.234027e-02
  1.804838e+00    9.113339e-01   1.229030e-02
  1.807048e+00    9.005342e-01   1.220450e-02
  1.809259e+00    8.716010e-01   1.199350e-02
  1.811469e+00    8.791488e-01   1.203057e-02
  1.813679e+00    8.788547e-01   1.201377e-02
  1.815890e+00    8.944077e-01   1.210488e-02
  1.818100e+00    8.952838e-01   1.209573e-02
  1.820311e+00    8.840893e-01   1.200517e-02
  1.822521e+00    8.659096e-01   1.186646e-02
  1.824732e+00    8.878407e-01   1.200098e-02
  1.826942e+00    8.902448e-01   1.200489e-02
  1.829153e+00    8.779615e-01   1.191013e-02
  1.831363e+00    8.703092e-01   1.184617e-02
  1.833574e+00    8.862201e-01   1.194225e-02
  1.835784e+00    8.764172e-01   1.186462e-02
  1.837994e+00    8.781987e-01   1.186494e-02
  1.840205e+00    8.774343e-01   1.184859e-02
  1.842415e+00    9.020601e-01   1.200174e-02
  1.844626e+00    8.951852e-01   1.194421e-02
  1.846836e+00    8.943696e-01   1.192717e-02
  1.849047e+00    8.593431e-01   1.167973e-02
  1.851257e+00    8.436282e-01   1.156296e-02
  1.853468e+00    8.435753e-01   1.155390e-02
  1.855678e+00    8.428165e-01   1.153990e-02
  1.857889e+00    8.504953e-01   1.158389e-02
  1.860099e+00    8.664159e-01   1.168314e-02
  1.862309e+00    8.678199e-01   1.168404e-02
  1.864520e+00    8.582844e-01   1.161109e-02
  1.866730e+00    8.544064e-01   1.157544e-02
  1.868941e+00    8.511336e-01   1.154231e-02
  1.871151e+00    8.534579e-01   1.154666e-02
  1.873362e+00    8.410162e-01   1.145090e-02
  1.875572e+00    8.363763e-01   1.140842e-02
  1.877783e+00    8.339773e-01   1.138073e-02
  1.879993e+00    8.268155e-01   1.132071e-02
  1.882204e+00    8.446960e-01   1.143158e-02
  1.884414e+00    8.275793e-01   1.130419e-02
  1.886624e+00    8.533937e-01   1.146801e-02
  1.888835e+00    8.532007e-01   1.145567e-02
  1.891045e+00    8.383798e-01   1.134486e-02
  1.893256e+00    8.466284e-01   1.138938e-02
  1.895466e+00    8.550274e-01   1.143445e-02
  1.897677e+00    8.481790e-01   1.137758e-02
  1.899887e+00    8.143669e-01   1.113765e-02
  1.902098e+00    8.051175e-01   1.106352e-02
  1.904308e+00    8.107026e-01   1.109139e-02
  1.906519e+00    8.240040e-01   1.117121e-02
  1.908729e+00    8.176589e-01   1.111758e-02
  1.910940e+00    8.264779e-01   1.116624e-02
  1.913150e+00    8.334912e-01   1.120291e-02
  1.915360e+00    8.261582e-01   1.114286e-02
  1.917571e+00    8.117440e-01   1.103447e-02
  1.919781e+00    8.085861e-01   1.100233e-02
  1.921992e+00    8.285479e-01   1.112666e-02
  1.924202e+00    8.263335e-01   1.110096e-02
  1.926413e+00    8.218492e-01   1.106046e-02
  1.928623e+00    8.099144e-01   1.096935e-02
  1.930834e+00    8.198087e-01   1.102567e-02
  1.933044e+00    8.237768e-01   1.104158e-02
  1.935255e+00    8.118480e-01   1.095101e-02
  1.937465e+00    8.080276e-01   1.091480e-02
  1.939675e+00    8.254076e-01   1.102061e-02
  1.941886e+00    7.976760e-01   1.082364e-02
  1.944096e+00    8.050278e-01   1.086321e-02
  1.946307e+00    8.083879e-01   1.087549e-02
  1.948517e+00    7.900983e-01   1.074138e-02
  1.950728e+00    7.966742e-01   1.077574e-02
  1.952938e+00    7.992971e-01   1.078337e-02
  1.955149e+00    7.815055e-01   1.065256e-02
  1.957359e+00    7.783263e-01   1.062092e-02
  1.959570e+00    8.104300e-01   1.082677e-02
  1.961780e+00    7.887967e-01   1.067142e-02
  1.963990e+00    7.961897e-01   1.071115e-02
  1.966201e+00    7.956651e-01   1.069754e-02
  1.968411e+00    7.900600e-01   1.064963e-02
  1.970622e+00    7.858862e-01   1.061138e-02
  1.972832e+00    7.935263e-01   1.065282e-02
  1.975043e+00    7.894074e-01   1.061509e-02
  1.977253e+00    7.795770e-01   1.053887e-02
  1.979464e+00    7.646099e-01   1.042729e-02
  1.981674e+00    7.901831e-01   1.058992e-02
  1.983885e+00    7.795358e-01   1.050834e-02
  1.986095e+00    7.883524e-01   1.055783e-02
  1.988305e+00    7.769821e-01   1.047156e-02
  1.990516e+00    7.723294e-01   1.043026e-02
  1.992726e+00    7.826953e-01   1.049032e-02
  1.994937e+00    7.856518e-01   1.049994e-02
  1.997147e+00    7.854392e-01   1.048873e-02
  1.999358e+00    7.766627e-01   1.042010e-02
  2.001568e+00    7.896017e-01   1.049560e-02
  2.003779e+00    7.932742e-01   1.050791e-02
  2.005989e+00    7.979278e-01   1.052648e-02
  2.008200e+00    7.785988e-01   1.038660e-02
  2.010410e+00    7.849142e-01   1.041677e-02
  2.012621e+00    7.842200e-01   1.040034e-02
  2.014831e+00    7.809100e-01   1.036680e-02
  2.017041e+00    7.741511e-01   1.031141e-02
  2.019252e+00    7.699121e-01   1.027315e-02
  2.021462e+00    7.682004e-01   1.025221e-02
  2.023673e+00    7.633424e-01   1.021034e-02
  2.025883e+00    7.691038e-01   1.023925e-02
  2.028094e+00    7.617714e-01   1.018068e-02
  2.030304e+00    7.680804e-01   1.021318e-02
  2.032515e+00    7.747188e-01   1.024784e-02
  2.034725e+00    7.681133e-01   1.019456e-02
  2.036936e+00    7.583298e-01   1.012009e-02
  2.039146e+00    7.677439e-01   1.017307e-02
  2.041356e+00    7.704449e-01   1.018122e-02
  2.043567e+00    7.653171e-01   1.013793e-02
  2.045777e+00    7.721809e-01   1.017391e-02
  2.047988e+00    7.764137e-01   1.019229e-02
  2.050198e+00    7.612157e-01   1.008355e-02
  2.052409e+00    7.733260e-01   1.015569e-02
  2.054619e+00    7.477301e-01   9.978856e-03
  2.056830e+00    7.472881e-01   9.968730e-03
  2.059040e+00    7.716739e-01   1.012247e-02
  2.061251e+00    7.547980e-01   1.000391e-02
  2.063461e+00    7.711547e-01   1.010399e-02
  2.065671e+00    7.702172e-01   1.008903e-02
  2.067882e+00    7.614402e-01   1.002229e-02
  2.070092e+00    7.518334e-01   9.949656e-03
  2.072303e+00    7.415958e-01   9.872565e-03
  2.074513e+00    7.319356e-01   9.798818e-03
  2.076724e+00    7.296319e-01   9.774010e-03
  2.078934e+00    7.416250e-01   9.845020e-03
  2.081145e+00    7.589490e-01   9.950167e-03
  2.083355e+00    7.356721e-01   9.787267e-03
  2.085566e+00    7.413442e-01   9.815988e-03
  2.087776e+00    7.566376e-01   9.907112e-03
  2.089986e+00    7.723674e-01   1.000059e-02
  2.092197e+00    7.577361e-01   9.896330e-03
  2.094407e+00    7.672373e-01   9.948764e-03
  2.096618e+00    7.519465e-01   9.840132e-03
  2.098828e+00    7.546391e-01   9.848294e-03
  2.101039e+00    7.516019e-01   9.819371e-03
  2.103249e+00    7.338387e-01   9.693952e-03
  2.105460e+00    7.322189e-01   9.674218e-03
  2.107670e+00    7.299936e-01   9.650760e-03
  2.109881e+00    7.297272e-01   9.639823e-03
  2.112091e+00    7.308087e-01   9.637936e-03
  2.114301e+00    7.281719e-01   9.611746e-03
  2.116512e+00    7.343332e-01   9.643435e-03
  2.118722e+00    7.472286e-01   9.718788e-03
  2.120933e+00    7.354996e-01   9.633250e-03
  2.123143e+00    7.347763e-01   9.619508e-03
  2.125354e+00    7.257478e-01   9.551655e-03
  2.127564e+00    7.066683e-01   9.416583e-03
  2.129775e+00    7.154582e-01   9.466243e-03
  2.131985e+00    7.156274e-01   9.458294e-03
  2.134196e+00    6.985886e-01   9.336533e-03
  2.136406e+00    7.004329e-01   9.340162e-03
  2.138617e+00    6.956651e-01   9.299953e-03
  2.140827e+00    7.128178e-01   9.430005e-03
  2.143037e+00    7.014689e-01   9.399939e-03
  2.145248e+00    7.158020e-01   9.517641e-03
  2.147458e+00    7.141190e-01   9.521689e-03
  2.149669e+00    7.168948e-01   9.552147e-03
  2.151879e+00    6.974888e-01   9.431169e-03
  2.154090e+00    6.952797e-01   9.423505e-03
  2.156300e+00    6.922612e-01   9.409592e-03
  2.158511e+00    6.962571e-01   9.441989e-03
  2.160721e+00    7.101225e-01   9.540411e-03
  2.162932e+00    7.099900e-01   9.543278e-03
  2.165142e+00    7.174036e-01   9.596064e-03
  2.167352e+00    6.974580e-01   9.464631e-03
  2.169563e+00    6.908060e-01   9.421328e-03
  2.171773e+00    6.905430e-01   9.421987e-03
  2.173984e+00    6.807441e-01   9.356304e-03
  2.176194e+00    6.600730e-01   9.214317e-03
  2.178405e+00    6.733832e-01   9.307426e-03
  2.180615e+00    6.958730e-01   9.462266e-03
  2.182826e+00    7.064048e-01   9.534292e-03
  2.185036e+00    7.175626e-01   9.609343e-03
  2.187247e+00    7.116961e-01   9.569961e-03
  2.189457e+00    6.774787e-01   9.336644e-03
  2.191667e+00    6.896550e-01   9.419992e-03
  2.193878e+00    6.889923e-01   9.414911e-03
  2.196088e+00    6.828591e-01   9.372219e-03
  2.198299e+00    6.814091e-01   9.361184e-03
  2.200509e+00    6.883776e-01   9.407862e-03
  2.202720e+00    6.877913e-01   9.402695e-03
  2.204930e+00    6.999159e-01   9.483960e-03
  2.207141e+00    6.869743e-01   9.394763e-03
  2.209351e+00    6.821814e-01   9.360019e-03
  2.211562e+00    6.900201e-01   9.412032e-03
  2.213772e+00    6.837792e-01   9.313587e-03
  2.215982e+00    6.984344e-01   9.367930e-03
  2.218193e+00    6.943305e-01   9.310344e-03
  2.220403e+00    6.809164e-01   9.195266e-03
  2.222614e+00    6.740876e-01   9.128087e-03
  2.224824e+00    6.656938e-01   9.051808e-03
  2.227035e+00    6.665934e-01   9.040560e-03
  2.229245e+00    6.615431e-01   8.989394e-03
  2.231456e+00    6.866866e-01   9.142852e-03
  2.233666e+00    6.805062e-01   9.086411e-03
  2.235877e+00    6.840789e-01   9.095821e-03
  2.238087e+00    6.719921e-01   9.001613e-03
  2.240298e+00    6.749693e-01   9.007696e-03
  2.242508e+00    6.892169e-01   9.086907e-03
  2.244718e+00    6.899639e-01   9.075783e-03
  2.246929e+00    6.732578e-01   8.950767e-03
  2.249139e+00    6.788920e-01   8.975640e-03
  2.251350e+00    6.748782e-01   8.937302e-03
  2.253560e+00    6.636100e-01   8.850827e-03
  2.255771e+00    6.704937e-01   8.885173e-03
  2.257981e+00    6.617658e-01   8.815994e-03
  2.260192e+00    6.722820e-01   8.874595e-03
  2.262402e+00    6.635603e-01   8.805999e-03
  2.264613e+00    6.575760e-01   8.755411e-03
  2.266823e+00    6.726857e-01   8.844954e-03
  2.269033e+00    6.814389e-01   8.891781e-03
  2.271244e+00    6.785606e-01   8.862490e-03
  2.273454e+00    6.647222e-01   8.761367e-03
  2.275665e+00    6.800911e-01   8.851613e-03
  2.277875e+00    6.692634e-01   8.770905e-03
  2.280086e+00    6.599497e-01   8.699611e-03
  2.282296e+00    6.606333e-01   8.694690e-03
  2.284507e+00    6.623352e-01   8.695731e-03
  2.286717e+00    6.597714e-01   8.669407e-03
  2.288928e+00    6.556789e-01   8.632622e-03
  2.291138e+00    6.511982e-01   8.593686e-03
  2.293348e+00    6.628733e-01   8.660787e-03
  2.295559e+00    6.631144e-01   8.652997e-03
  2.297769e+00    6.466498e-01   8.535721e-03
  2.299980e+00    6.418647e-01   8.494810e-03
  2.302190e+00    6.574292e-01   8.588036e-03
  2.304401e+00    6.590933e-01   8.589528e-03
  2.306611e+00    6.504354e-01   8.523753e-03
  2.308822e+00    6.476029e-01   8.496788e-03
  2.311032e+00    6.666232e-01   8.614146e-03
  2.313243e+00    6.606153e-01   8.568911e-03
  2.315453e+00    6.515315e-01   8.502217e-03
  2.317663e+00    6.530223e-01   8.502768e-03
  2.319874e+00    6.393349e-01   8.404512e-03
  2.322084e+00    6.384804e-01   8.389962e-03
  2.324295e+00    6.512424e-01   8.465149e-03
  2.326505e+00    6.480044e-01   8.434997e-03
  2.328716e+00    6.510730e-01   8.446345e-03
  2.330926e+00    6.396850e-01   8.363382e-03
  2.333137e+00    6.460747e-01   8.396637e-03
  2.335347e+00    6.596177e-01   8.475192e-03
  2.337558e+00    6.515866e-01   8.415155e-03
  2.339768e+00    6.373323e-01   8.314030e-03
  2.341979e+00    6.442283e-01   8.350483e-03
  2.344189e+00    6.353167e-01   8.284163e-03
  2.346399e+00    6.346849e-01   8.271540e-03
  2.348610e+00    6.385447e-01   8.288184e-03
  2.350820e+00    6.421675e-01   8.303431e-03
  2.353031e+00    6.438792e-01   8.306147e-03
  2.355241e+00    6.455081e-01   8.308512e-03
  2.357452e+00    6.292189e-01   8.194621e-03
  2.359662e+00    6.311798e-01   8.199147e-03
  2.361873e+00    6.313479e-01   8.192003e-03
  2.364083e+00    6.356902e-01   8.212095e-03
  2.366294e+00    6.493458e-01   8.291580e-03
  2.368504e+00    6.313642e-01   8.167895e-03
  2.370714e+00    6.148782e-01   8.052531e-03
  2.372925e+00    6.185210e-01   8.068355e-03
  2.375135e+00    6.253744e-01   8.104845e-03
  2.377346e+00    6.388776e-01   8.183863e-03
  2.379556e+00    6.138687e-01   8.014250e-03
  2.381767e+00    6.123017e-01   7.996177e-03
  2.383977e+00    6.325673e-01   8.119441e-03
  2.386188e+00    6.248376e-01   8.061724e-03
  2.388398e+00    6.195654e-01   8.019683e-03
  2.390609e+00    6.251795e-01   8.048153e-03
  2.392819e+00    6.287301e-01   8.063124e-03
  2.395029e+00    6.317635e-01   8.074792e-03
  2.397240e+00    6.253381e-01   8.025693e-03
  2.399450e+00    6.133097e-01   7.940318e-03
  2.401661e+00    6.222847e-01   7.990470e-03
  2.403871e+00    6.002122e-01   7.839790e-03
  2.406082e+00    5.904031e-01   7.768149e-03
  2.408292e+00    5.800402e-01   7.692065e-03
  2.410503e+00    6.067663e-01   7.859789e-03
  2.412713e+00    6.020825e-01   7.821649e-03
  2.414924e+00    6.122483e-01   7.879877e-03
  2.417134e+00    6.061046e-01   7.832593e-03
  2.419344e+00    6.081137e-01   7.838141e-03
  2.421555e+00    6.029992e-01   7.797575e-03
  2.423765e+00    6.158727e-01   7.872883e-03
  2.425976e+00    6.001086e-01   7.763661e-03
  2.428186e+00    6.128722e-01   7.838480e-03
  2.430397e+00    6.027134e-01   7.765746e-03
  2.432607e+00    5.979050e-01   7.727391e-03
  2.434818e+00    6.134861e-01   7.819792e-03
  2.437028e+00    5.926365e-01   7.678622e-03
  2.439239e+00    5.952334e-01   7.687757e-03
  2.441449e+00    5.966163e-01   7.689464e-03
  2.443659e+00    5.778803e-01   7.560496e-03
  2.445870e+00    5.849903e-01   7.619047e-03
  2.448080e+00    5.865210e-01   7.663936e-03
  2.450291e+00    5.872570e-01   7.685485e-03
  2.452501e+00    5.781651e-01   7.636944e-03
  2.454712e+00    5.819699e-01   7.670531e-03
  2.456922e+00    5.787896e-01   7.656210e-03
  2.459133e+00    5.618596e-01   7.548800e-03
  2.461343e+00    5.567147e-01   7.518486e-03
  2.463554e+00    5.554516e-01   7.513380e-03
  2.465764e+00    5.625726e-01   7.564520e-03
  2.467975e+00    5.701278e-01   7.617451e-03
  2.470185e+00    5.633205e-01   7.574130e-03
  2.472395e+00    5.561263e-01   7.526801e-03
  2.474606e+00    5.559247e-01   7.527014e-03
  2.476816e+00    5.562010e-01   7.529622e-03
  2.479027e+00    5.451989e-01   7.455625e-03
  2.481237e+00    5.472304e-01   7.469781e-03
  2.483448e+00    5.344804e-01   7.382545e-03
  2.485658e+00    5.385972e-01   7.410779e-03
  2.487869e+00    5.565485e-01   7.533302e-03
  2.490079e+00    5.478120e-01   7.473427e-03
  2.492290e+00    5.387710e-01   7.411068e-03
  2.494500e+00    5.341778e-01   7.378672e-03
  2.496710e+00    5.343164e-01   7.378944e-03
  2.498921e+00    5.408471e-01   7.422886e-03
  2.501131e+00    5.426167e-01   7.434081e-03
  2.503342e+00    5.279753e-01   7.331842e-03
  2.505552e+00    5.298566e-01   7.343754e-03
  2.507763e+00    5.210057e-01   7.280758e-03
  2.509973e+00    5.259373e-01   7.313741e-03
  2.512184e+00    5.203671e-01   7.273306e-03
  2.514394e+00    5.168084e-01   7.239121e-03
  2.516605e+00    5.293216e-01   7.279051e-03
  2.518815e+00    5.206516e-01   7.191011e-03
  2.521025e+00    5.305253e-01   7.237803e-03
  2.523236e+00    5.329931e-01   7.236524e-03
  2.525446e+00    5.269142e-01   7.179503e-03
  2.527657e+00    5.302900e-01   7.187792e-03
  2.529867e+00    5.240474e-01   7.131196e-03
  2.532078e+00    5.410019e-01   7.230359e-03
  2.534288e+00    5.235716e-01   7.099085e-03
  2.536499e+00    5.288265e-01   7.122606e-03
  2.538709e+00    5.252582e-01   7.087556e-03
  2.540920e+00    5.264108e-01   7.084637e-03
  2.543130e+00    5.383310e-01   7.153917e-03
  2.545340e+00    5.342520e-01   7.116579e-03
  2.547551e+00    5.302922e-01   7.080165e-03
  2.549761e+00    5.237867e-01   7.026993e-03
  2.551972e+00    5.184562e-01   6.981837e-03
  2.554182e+00    5.144641e-01   6.945774e-03
  2.556393e+00    5.174105e-01   6.956573e-03
  2.558603e+00    5.237036e-01   6.989645e-03
  2.560814e+00    5.270059e-01   7.002892e-03
  2.563024e+00    5.332198e-01   7.035357e-03
  2.565235e+00    5.175683e-01   6.921853e-03
  2.567445e+00    5.188054e-01   6.920557e-03
  2.569656e+00    5.208978e-01   6.924734e-03
  2.571866e+00    5.143439e-01   6.871708e-03
  2.574076e+00    5.237626e-01   6.924986e-03
  2.576287e+00    5.330376e-01   6.977601e-03
  2.578497e+00    5.149848e-01   6.850578e-03
  2.580708e+00    5.214136e-01   6.885072e-03
  2.582918e+00    5.128345e-01   6.820452e-03
  2.585129e+00    5.016497e-01   6.738007e-03
  2.587339e+00    5.128555e-01   6.805186e-03
  2.589550e+00    5.003901e-01   6.714507e-03
  2.591760e+00    5.134889e-01   6.794082e-03
  2.593971e+00    5.056888e-01   6.734795e-03
  2.596181e+00    5.058244e-01   6.729511e-03
  2.598391e+00    5.095583e-01   6.749125e-03
  2.600602e+00    5.030628e-01   6.700093e-03
  2.602812e+00    5.147496e-01   6.769884e-03
  2.605023e+00    5.131106e-01   6.751901e-03
  2.607233e+00    5.202677e-01   6.791622e-03
  2.609444e+00    5.065717e-01   6.694391e-03
  2.611654e+00    5.093924e-01   6.705668e-03
  2.613865e+00    5.039797e-01   6.662932e-03
  2.616075e+00    5.121919e-01   6.709801e-03
  2.618286e+00    5.061628e-01   6.663206e-03
  2.620496e+00    5.055578e-01   6.652521e-03
  2.622706e+00    5.036072e-01   6.633937e-03
  2.624917e+00    5.053529e-01   6.639566e-03
  2.627127e+00    5.068856e-01   6.643882e-03
  2.629338e+00    5.109015e-01   6.664116e-03
  2.631548e+00    4.989930e-01   6.579867e-03
  2.633759e+00    4.993788e-01   6.575264e-03
  2.635969e+00    5.038587e-01   6.597998e-03
  2.638180e+00    5.167089e-01   6.674514e-03
  2.640390e+00    5.076903e-01   6.609377e-03
  2.642601e+00    5.096658e-01   6.615486e-03
  2.644811e+00    5.012214e-01   6.553375e-03
  2.647021e+00    5.033481e-01   6.560680e-03
  2.649232e+00    5.052170e-01   6.566080e-03
  2.651442e+00    5.036156e-01   6.549145e-03
  2.653653e+00    4.995823e-01   6.516074e-03
  2.655863e+00    5.044183e-01   6.540795e-03
  2.658074e+00    5.188942e-01   6.627247e-03
  2.660284e+00    5.049601e-01   6.531259e-03
  2.662495e+00    5.129434e-01   6.575828e-03
  2.664705e+00    5.047661e-01   6.516568e-03
  2.666916e+00    5.130726e-01   6.563416e-03
  2.669126e+00    5.001695e-01   6.473867e-03
  2.671337e+00    5.017576e-01   6.477517e-03
  2.673547e+00    4.973957e-01   6.442901e-03
  2.675757e+00    4.992520e-01   6.448429e-03
  2.677968e+00    5.053111e-01   6.480853e-03
  2.680178e+00    5.013166e-01   6.448738e-03
  2.682389e+00    5.041755e-01   6.460625e-03
  2.684599e+00    5.003048e-01   6.429566e-03
  2.686810e+00    4.856759e-01   6.328284e-03
  2.689020e+00    4.916953e-01   6.361088e-03
  2.691231e+00    5.042074e-01   6.435150e-03
  2.693441e+00    4.924108e-01   6.353269e-03
  2.695652e+00    4.950753e-01   6.363877e-03
  2.697862e+00    5.077872e-01   6.438608e-03
  2.700072e+00    4.914120e-01   6.327866e-03
  2.702283e+00    4.894521e-01   6.308996e-03
  2.704493e+00    4.961779e-01   6.345870e-03
  2.706704e+00    4.876992e-01   6.285023e-03
  2.708914e+00    4.827254e-01   6.246940e-03
  2.711125e+00    4.961404e-01   6.326860e-03
  2.713335e+00    4.894125e-01   6.277709e-03
  2.715546e+00    5.006973e-01   6.343128e-03
  2.717756e+00    4.798448e-01   6.203796e-03
  2.719967e+00    4.756560e-01   6.170496e-03
  2.722177e+00    4.938879e-01   6.281462e-03
  2.724387e+00    4.973033e-01   6.296985e-03
  2.726598e+00    4.914819e-01   6.253912e-03
  2.728808e+00    4.787997e-01   6.166603e-03
  2.731019e+00    4.879475e-01   6.219071e-03
  2.733229e+00    4.793944e-01   6.158554e-03
  2.735440e+00    4.715326e-01   6.101671e-03
  2.737650e+00    4.843495e-01   6.177995e-03
  2.739861e+00    4.818139e-01   6.155755e-03
  2.742071e+00    4.841071e-01   6.164641e-03
  2.744282e+00    4.831495e-01   6.152285e-03
  2.746492e+00    4.829039e-01   6.144687e-03
  2.748702e+00    4.731103e-01   6.076217e-03
  2.750913e+00    4.784568e-01   6.104648e-03
  2.753123e+00    4.912261e-01   6.179427e-03
  2.755334e+00    4.885687e-01   6.156555e-03
  2.757544e+00    4.867871e-01   6.139549e-03
  2.759755e+00    4.839070e-01   6.115450e-03
  2.761965e+00    4.842097e-01   6.111363e-03
  2.764176e+00    4.783640e-01   6.068369e-03
  2.766386e+00    4.844505e-01   6.101054e-03
  2.768597e+00    4.847878e-01   6.097266e-03
  2.770807e+00    4.768910e-01   6.041554e-03
  2.773017e+00    4.673321e-01   5.974791e-03
  2.775228e+00    4.878073e-01   6.098417e-03
  2.777438e+00    5.041179e-01   6.193608e-03
  2.779649e+00    4.916957e-01   6.110837e-03
  2.781859e+00    4.862968e-01   6.071386e-03
  2.784070e+00    4.735941e-01   5.985714e-03
  2.786280e+00    4.842266e-01   6.046731e-03
  2.788491e+00    4.800462e-01   6.014715e-03
  2.790701e+00    4.903530e-01   6.073205e-03
  2.792912e+00    4.919268e-01   6.076895e-03
  2.795122e+00    4.777731e-01   5.983089e-03
  2.797333e+00    4.766413e-01   5.970426e-03
  2.799543e+00    4.777940e-01   5.971771e-03
  2.801753e+00    4.671417e-01   5.899028e-03
  2.803964e+00    4.681455e-01   5.899727e-03
  2.806174e+00    4.799842e-01   5.967685e-03
  2.808385e+00    4.705203e-01   5.901807e-03
  2.810595e+00    4.724633e-01   5.907115e-03
  2.812806e+00    4.706869e-01   5.889419e-03
  2.815016e+00    4.769662e-01   5.923813e-03
  2.817227e+00    4.854182e-01   6.002313e-03
  2.819437e+00    4.746957e-01   5.946746e-03
  2.821648e+00    4.711632e-01   5.926849e-03
  2.823858e+00    4.795200e-01   5.984566e-03
  2.826068e+00    4.704613e-01   5.932726e-03
  2.828279e+00    4.675364e-01   5.918273e-03
  2.830489e+00    4.633386e-01   5.894960e-03
  2.832700e+00    4.565349e-01   5.854022e-03
  2.834910e+00    4.749545e-01   5.973011e-03
  2.837121e+00    4.688787e-01   5.936416e-03
  2.839331e+00    4.720531e-01   5.957684e-03
  2.841542e+00    4.756503e-01   5.981379e-03
  2.843752e+00    4.751126e-01   5.978784e-03
  2.845963e+00    4.627544e-01   5.900902e-03
  2.848173e+00    4.792940e-01   6.005509e-03
  2.850383e+00    4.884534e-01   6.062942e-03
  2.852594e+00    4.705242e-01   5.950541e-03
  2.854804e+00    4.730626e-01   5.966058e-03
  2.857015e+00    4.753585e-01   5.980085e-03
  2.859225e+00    4.749105e-01   5.977010e-03
  2.861436e+00    4.770770e-01   5.989968e-03
  2.863646e+00    4.717733e-01   5.956627e-03
  2.865857e+00    4.606793e-01   5.886510e-03
  2.868067e+00    4.532919e-01   5.839331e-03
  2.870278e+00    4.623361e-01   5.896942e-03
  2.872488e+00    4.649975e-01   5.912736e-03
  2.874698e+00    4.707388e-01   5.948072e-03
  2.876909e+00    4.623141e-01   5.893291e-03
  2.879119e+00    4.589596e-01   5.870235e-03
  2.881330e+00    4.705919e-01   5.942693e-03
  2.883540e+00    4.605796e-01   5.877743e-03
  2.885751e+00    4.676966e-01   5.921317e-03
  2.887961e+00    4.782923e-01   5.986105e-03
  2.890172e+00    4.706614e-01   5.936550e-03
  2.892382e+00    4.699445e-01   5.930211e-03
  2.894593e+00    4.635513e-01   5.887897e-03
  2.896803e+00    4.639055e-01   5.888162e-03
  2.899014e+00    4.592256e-01   5.856468e-03
  2.901224e+00    4.597847e-01   5.858070e-03
  2.903434e+00    4.612560e-01   5.865459e-03
  2.905645e+00    4.715177e-01   5.928101e-03
  2.907855e+00    4.699186e-01   5.915917e-03
  2.910066e+00    4.631920e-01   5.871350e-03
  2.912276e+00    4.647833e-01   5.879271e-03
  2.914487e+00    4.673692e-01   5.893132e-03
  2.916697e+00    4.656208e-01   5.879866e-03
  2.918908e+00    4.684754e-01   5.895825e-03
  2.921118e+00    4.724289e-01   5.917928e-03
  2.923329e+00    4.558202e-01   5.810643e-03
  2.925539e+00    4.583562e-01   5.824521e-03
  2.927749e+00    4.673312e-01   5.878908e-03
  2.929960e+00    4.723381e-01   5.907510e-03
  2.932170e+00    4.638652e-01   5.851946e-03
  2.934381e+00    4.664893e-01   5.866001e-03
  2.936591e+00    4.611545e-01   5.829775e-03
  2.938802e+00    4.567172e-01   5.798940e-03
  2.941012e+00    4.490910e-01   5.748011e-03
  2.943223e+00    4.485804e-01   5.742059e-03
  2.945433e+00    4.609728e-01   5.817075e-03
  2.947644e+00    4.602554e-01   5.808395e-03
  2.949854e+00    4.571947e-01   5.784777e-03
  2.952064e+00    4.534922e-01   5.757089e-03
  2.954275e+00    4.585969e-01   5.784960e-03
  2.956485e+00    4.521253e-01   5.739850e-03
  2.958696e+00    4.378978e-01   5.644495e-03
  2.960906e+00    4.611330e-01   5.788123e-03
  2.963117e+00    4.419422e-01   5.661963e-03
  2.965327e+00    4.510447e-01   5.716104e-03
  2.967538e+00    4.506887e-01   5.710935e-03
  2.969748e+00    4.450756e-01   5.672472e-03
  2.971959e+00    4.676448e-01   5.811332e-03
  2.974169e+00    4.570709e-01   5.742682e-03
  2.976379e+00    4.506821e-01   5.699482e-03
  2.978590e+00    4.581925e-01   5.743644e-03
  2.980800e+00    4.493296e-01   5.685017e-03
  2.983011e+00    4.664863e-01   5.789708e-03
  2.985221e+00    4.633705e-01   5.767163e-03
  2.987432e+00    4.491693e-01   5.675005e-03
  2.989642e+00    4.538684e-01   5.701978e-03
  2.991853e+00    4.613578e-01   5.745530e-03
  2.994063e+00    4.467884e-01   5.651211e-03
  2.996274e+00    4.418279e-01   5.616587e-03
  2.998484e+00    4.504741e-01   5.668598e-03
  3.000694e+00    4.527483e-01   5.679441e-03
  3.002905e+00    4.512552e-01   5.667132e-03
  3.005115e+00    4.579776e-01   5.706198e-03
  3.007326e+00    4.571885e-01   5.698110e-03
  3.009536e+00    4.612711e-01   5.720204e-03
  3.011747e+00    4.709485e-01   5.776942e-03
  3.013957e+00    4.592654e-01   5.701630e-03
  3.016168e+00    4.569062e-01   5.683693e-03
  3.018378e+00    4.607944e-01   5.704755e-03
  3.020589e+00    4.691519e-01   5.752987e-03
  3.022799e+00    4.487045e-01   5.623078e-03
  3.025010e+00    4.599924e-01   5.690095e-03
  3.027220e+00    4.553203e-01   5.658003e-03
  3.029430e+00    4.656082e-01   5.718274e-03
  3.031641e+00    4.535474e-01   5.640599e-03
  3.033851e+00    4.617108e-01   5.687559e-03
  3.036062e+00    4.480887e-01   5.600272e-03
  3.038272e+00    4.592215e-01   5.665798e-03
  3.040483e+00    4.613527e-01   5.675682e-03
  3.042693e+00    4.490335e-01   5.596144e-03
  3.044904e+00    4.650834e-01   5.691173e-03
  3.047114e+00    4.503407e-01   5.595455e-03
  3.049325e+00    4.538557e-01   5.612840e-03
  3.051535e+00    4.536437e-01   5.607111e-03
  3.053745e+00    4.606490e-01   5.645444e-03
  3.055956e+00    4.594388e-01   5.633408e-03
  3.058166e+00    4.601988e-01   5.633749e-03
  3.060377e+00    4.637913e-01   5.650860e-03
  3.062587e+00    4.512688e-01   5.569429e-03
  3.064798e+00    4.533090e-01   5.577707e-03
  3.067008e+00    4.524022e-01   5.567399e-03
  3.069219e+00    4.611698e-01   5.616512e-03
  3.071429e+00    4.567570e-01   5.586044e-03
  3.073640e+00    4.598741e-01   5.601692e-03
  3.075850e+00    4.540834e-01   5.562725e-03
  3.078060e+00    4.574350e-01   5.580067e-03
  3.080271e+00    4.657312e-01   5.626911e-03
  3.082481e+00    4.484065e-01   5.517829e-03
  3.084692e+00    4.349461e-01   5.431027e-03
  3.086902e+00    4.688106e-01   5.635171e-03
  3.089113e+00    4.648329e-01   5.607605e-03
  3.091323e+00    4.563472e-01   5.552759e-03
  3.093534e+00    4.407822e-01   5.453920e-03
  3.095744e+00    4.435915e-01   5.467880e-03
  3.097955e+00    4.540265e-01   5.528265e-03
  3.100165e+00    4.570803e-01   5.543444e-03
  3.102375e+00    4.555247e-01   5.530570e-03
  3.104586e+00    4.436748e-01   5.454669e-03
  3.106796e+00    4.494301e-01   5.486395e-03
  3.109007e+00    4.533167e-01   5.506828e-03
  3.111217e+00    4.568593e-01   5.524575e-03
  3.113428e+00    4.518601e-01   5.490816e-03
  3.115638e+00    4.432257e-01   5.434886e-03
  3.117849e+00    4.511578e-01   5.479550e-03
  3.120059e+00    4.469650e-01   5.450560e-03
  3.122270e+00    4.396862e-01   5.402756e-03
  3.124480e+00    4.457651e-01   5.436284e-03
  3.126691e+00    4.576033e-01   5.504385e-03
  3.128901e+00    4.422428e-01   5.408104e-03
  3.131111e+00    4.402867e-01   5.392303e-03
  3.133322e+00    4.520346e-01   5.460287e-03
  3.135532e+00    4.421593e-01   5.396933e-03
  3.137743e+00    4.443262e-01   5.406651e-03
  3.139953e+00    4.515703e-01   5.446831e-03
  3.142164e+00    4.580874e-01   5.498206e-03
  3.144374e+00    4.511380e-01   5.485047e-03
  3.146585e+00    4.477833e-01   5.479255e-03
  3.148795e+00    4.412001e-01   5.449600e-03
  3.151006e+00    4.395543e-01   5.447936e-03
  3.153216e+00    4.373385e-01   5.441302e-03
  3.155426e+00    4.405708e-01   5.467669e-03
  3.157637e+00    4.482088e-01   5.520421e-03
  3.159847e+00    4.572480e-01   5.580789e-03
  3.162058e+00    4.508503e-01   5.546098e-03
  3.164268e+00    4.461051e-01   5.520925e-03
  3.166479e+00    4.467346e-01   5.528492e-03
  3.168689e+00    4.433354e-01   5.510814e-03
  3.170900e+00    4.372433e-01   5.475959e-03
  3.173110e+00    4.382765e-01   5.485324e-03
  3.175321e+00    4.346830e-01   5.465249e-03
  3.177531e+00    4.506270e-01   5.567359e-03
  3.179741e+00    4.512396e-01   5.573255e-03
  3.181952e+00    4.507168e-01   5.572165e-03
  3.184162e+00    4.539972e-01   5.594647e-03
  3.186373e+00    4.435359e-01   5.531419e-03
  3.188583e+00    4.432114e-01   5.531204e-03
  3.190794e+00    4.317244e-01   5.460777e-03
  3.193004e+00    4.563171e-01   5.615435e-03
  3.195215e+00    4.435186e-01   5.537658e-03
  3.197425e+00    4.473975e-01   5.563032e-03
  3.199636e+00    4.428914e-01   5.534183e-03
  3.201846e+00    4.468504e-01   5.558241e-03
  3.204056e+00    4.498327e-01   5.577671e-03
  3.206267e+00    4.461175e-01   5.555446e-03
  3.208477e+00    4.337237e-01   5.478655e-03
  3.210688e+00    4.349747e-01   5.487392e-03
  3.212898e+00    4.456054e-01   5.554630e-03
  3.215109e+00    4.442794e-01   5.547119e-03
  3.217319e+00    4.325166e-01   5.473833e-03
  3.219530e+00    4.499226e-01   5.583291e-03
  3.221740e+00    4.339891e-01   5.484108e-03
  3.223951e+00    4.290436e-01   5.453239e-03
  3.226161e+00    4.190922e-01   5.389803e-03
  3.228372e+00    4.427052e-01   5.540090e-03
  3.230582e+00    4.396144e-01   5.520872e-03
  3.232792e+00    4.347518e-01   5.490490e-03
  3.235003e+00    4.349960e-01   5.492262e-03
  3.237213e+00    4.415410e-01   5.533531e-03
  3.239424e+00    4.439098e-01   5.548360e-03
  3.241634e+00    4.292524e-01   5.456130e-03
  3.243845e+00    4.214354e-01   5.406269e-03
  3.246055e+00    4.241978e-01   5.423701e-03
  3.248266e+00    4.294154e-01   5.457141e-03
  3.250476e+00    4.419872e-01   5.536121e-03
  3.252687e+00    4.380572e-01   5.511434e-03
  3.254897e+00    4.192537e-01   5.391682e-03
  3.257107e+00    4.253167e-01   5.430227e-03
  3.259318e+00    4.260672e-01   5.434786e-03
  3.261528e+00    4.306519e-01   5.463796e-03
  3.263739e+00    4.320797e-01   5.472291e-03
  3.265949e+00    4.331127e-01   5.478714e-03
  3.268160e+00    4.395441e-01   5.518803e-03
  3.270370e+00    4.305123e-01   5.461304e-03
  3.272581e+00    4.338129e-01   5.481914e-03
  3.274791e+00    4.373728e-01   5.503839e-03
  3.277002e+00    4.216900e-01   5.403696e-03
  3.279212e+00    4.204349e-01   5.395260e-03
  3.281422e+00    4.281415e-01   5.443918e-03
  3.283633e+00    4.377673e-01   5.504068e-03
  3.285843e+00    4.327415e-01   5.472052e-03
  3.288054e+00    4.336043e-01   5.476560e-03
  3.290264e+00    4.217671e-01   5.400984e-03
  3.292475e+00    4.236083e-01   5.411903e-03
  3.294685e+00    4.323014e-01   5.466510e-03
  3.296896e+00    4.382466e-01   5.503218e-03
  3.299106e+00    4.285810e-01   5.441617e-03
  3.301317e+00    4.347404e-01   5.479560e-03
  3.303527e+00    4.217564e-01   5.396647e-03
  3.305737e+00    4.331563e-01   5.468022e-03
  3.307948e+00    4.288327e-01   5.440001e-03
  3.310158e+00    4.300586e-01   5.446901e-03
  3.312369e+00    4.368995e-01   5.489172e-03
  3.314579e+00    4.354132e-01   5.478877e-03
  3.316790e+00    4.366280e-01   5.485828e-03
  3.319000e+00    4.212072e-01   5.386884e-03
  3.321211e+00    4.147379e-01   5.344765e-03
  3.323421e+00    4.304601e-01   5.443882e-03
  3.325632e+00    4.296972e-01   5.438196e-03
  3.327842e+00    4.284785e-01   5.429541e-03
  3.330052e+00    4.275191e-01   5.422382e-03
  3.332263e+00    4.264240e-01   5.414399e-03
  3.334473e+00    4.339646e-01   5.461162e-03
  3.336684e+00    4.150976e-01   5.339867e-03
  3.338894e+00    4.101412e-01   5.307058e-03
  3.341105e+00    4.240639e-01   5.395170e-03
  3.343315e+00    4.218626e-01   5.380004e-03
  3.345526e+00    4.123214e-01   5.317924e-03
  3.347736e+00    4.215887e-01   5.375945e-03
  3.349947e+00    4.306887e-01   5.432711e-03
  3.352157e+00    4.144469e-01   5.328136e-03
  3.354368e+00    4.151900e-01   5.331608e-03
  3.356578e+00    4.237520e-01   5.385271e-03
  3.358788e+00    4.216755e-01   5.370744e-03
  3.360999e+00    4.128084e-01   5.312732e-03
  3.363209e+00    4.083666e-01   5.283074e-03
  3.365420e+00    4.108716e-01   5.297721e-03
  3.367630e+00    4.310527e-01   5.425256e-03
  3.369841e+00    4.187493e-01   5.345854e-03
  3.372051e+00    4.182281e-01   5.340508e-03
  3.374262e+00    4.237879e-01   5.373458e-03
  3.376472e+00    4.277560e-01   5.396081e-03
  3.378683e+00    4.074373e-01   5.263886e-03
  3.380893e+00    4.221495e-01   5.355697e-03
  3.383103e+00    4.303098e-01   5.404478e-03
  3.385314e+00    4.214314e-01   5.346194e-03
  3.387524e+00    4.235841e-01   5.357072e-03
  3.389735e+00    4.120754e-01   5.281171e-03
  3.391945e+00    4.069287e-01   5.244425e-03
  3.394156e+00    4.163138e-01   5.300334e-03
  3.396366e+00    4.067728e-01   5.235848e-03
  3.398577e+00    4.123928e-01   5.268854e-03
  3.400787e+00    4.034992e-01   5.223540e-03
  3.402998e+00    4.023230e-01   5.253591e-03
  3.405208e+00    4.169017e-01   5.368929e-03
  3.407418e+00    3.935391e-01   5.231932e-03
  3.409629e+00    4.020848e-01   5.302422e-03
  3.411839e+00    3.964559e-01   5.276906e-03
  3.414050e+00    3.862500e-01   5.219409e-03
  3.416260e+00    3.713804e-01   5.127281e-03
  3.418471e+00    3.924690e-01   5.280239e-03
  3.420681e+00    3.989581e-01   5.332303e-03
  3.422892e+00    3.841118e-01   5.240090e-03
  3.425102e+00    3.916239e-01   5.298892e-03
  3.427313e+00    3.813213e-01   5.235850e-03
  3.429523e+00    3.901362e-01   5.303128e-03
  3.431733e+00    3.716880e-01   5.182758e-03
  3.433944e+00    3.798400e-01   5.245739e-03
  3.436154e+00    3.787655e-01   5.244512e-03
  3.438365e+00    3.795590e-01   5.255909e-03
  3.440575e+00    3.797916e-01   5.263443e-03
  3.442786e+00    3.946245e-01   5.370956e-03
  3.444996e+00    3.808199e-01   5.281730e-03
  3.447207e+00    3.629241e-01   5.161346e-03
  3.449417e+00    3.784237e-01   5.311555e-03
  3.451628e+00    3.668676e-01   5.259221e-03
  3.453838e+00    3.571611e-01   5.210035e-03
  3.456049e+00    3.836482e-01   5.424169e-03
  3.458259e+00    3.862734e-01   5.465274e-03
  3.460469e+00    3.811399e-01   5.448975e-03
  3.462680e+00    3.630520e-01   5.337125e-03
  3.464890e+00    3.512228e-01   5.266834e-03
  3.467101e+00    3.800260e-01   5.496329e-03
  3.469311e+00    3.763355e-01   5.486247e-03
  3.471522e+00    3.824953e-01   5.547533e-03
  3.473732e+00    3.960074e-01   5.660970e-03
  3.475943e+00    3.850886e-01   5.598148e-03
  3.478153e+00    4.010228e-01   5.728464e-03
  3.480364e+00    4.209791e-01   5.884971e-03
  3.482574e+00    4.129045e-01   5.843767e-03
  3.484784e+00    4.119390e-01   5.851803e-03
  3.486995e+00    4.454137e-01   6.100556e-03
  3.489205e+00    4.400010e-01   6.078361e-03
  3.491416e+00    4.271093e-01   6.003547e-03
  3.493626e+00    4.436331e-01   6.133299e-03
  3.495837e+00    4.542828e-01   6.221495e-03
  3.498047e+00    4.427391e-01   6.156392e-03
  3.500258e+00    4.466155e-01   6.197758e-03
  3.502468e+00    4.718108e-01   6.384890e-03
  3.504679e+00    4.926209e-01   6.539145e-03
  3.506889e+00    4.935823e-01   6.560423e-03
  3.509099e+00    4.767120e-01   6.461734e-03
  3.511310e+00    4.969166e-01   6.612051e-03
  3.513520e+00    5.041045e-01   6.674425e-03
  3.515731e+00    5.109969e-01   6.734674e-03
  3.517941e+00    4.935354e-01   6.633005e-03
  3.520152e+00    5.063747e-01   6.733174e-03
  3.522362e+00    5.323465e-01   6.918666e-03
  3.524573e+00    5.239782e-01   6.878590e-03
  3.526783e+00    5.220177e-01   6.879210e-03
  3.528994e+00    5.317483e-01   6.955442e-03
  3.531204e+00    5.215342e-01   6.900793e-03
  3.533414e+00    5.387979e-01   7.026276e-03
  3.535625e+00    5.393879e-01   7.042636e-03
  3.537835e+00    5.320136e-01   7.006442e-03
  3.540046e+00    5.521556e-01   7.146925e-03
  3.542256e+00    5.320800e-01   7.023289e-03
  3.544467e+00    5.361550e-01   7.057765e-03
  3.546677e+00    5.585196e-01   7.211163e-03
  3.548888e+00    5.377328e-01   7.083256e-03
  3.551098e+00    5.360497e-01   7.079443e-03
  3.553309e+00    5.171154e-01   6.961269e-03
  3.555519e+00    5.471422e-01   7.171967e-03
  3.557729e+00    5.300907e-01   7.070982e-03
  3.559940e+00    5.416443e-01   7.159233e-03
  3.562150e+00    5.468175e-01   7.205153e-03
  3.564361e+00    5.531909e-01   7.260543e-03
  3.566571e+00    5.484329e-01   7.243300e-03
  3.568782e+00    5.421541e-01   7.215871e-03
  3.570992e+00    5.357437e-01   7.186843e-03
  3.573203e+00    5.334628e-01   7.185654e-03
  3.575413e+00    5.411913e-01   7.251326e-03
  3.577624e+00    5.368159e-01   7.236136e-03
  3.579834e+00    5.336645e-01   7.228665e-03
  3.582045e+00    5.444208e-01   7.315317e-03
  3.584255e+00    5.363751e-01   7.275146e-03
  3.586465e+00    5.350260e-01   7.279864e-03
  3.588676e+00    5.519278e-01   7.408365e-03
  3.590886e+00    5.583964e-01   7.465681e-03
  3.593097e+00    5.418373e-01   7.368710e-03
  3.595307e+00    5.474487e-01   7.420842e-03
  3.597518e+00    5.388479e-01   7.376587e-03
  3.599728e+00    5.468779e-01   7.445579e-03
  3.601939e+00    5.520354e-01   7.494908e-03
  3.604149e+00    5.490471e-01   7.489167e-03
  3.606360e+00    5.450670e-01   7.476247e-03
  3.608570e+00    5.453529e-01   7.492486e-03
  3.610780e+00    5.491014e-01   7.529429e-03
  3.612991e+00    5.441949e-01   7.505780e-03
  3.615201e+00    5.562424e-01   7.598412e-03
  3.617412e+00    5.432472e-01   7.516448e-03
  3.619622e+00    5.487232e-01   7.560309e-03
  3.621833e+00    5.459263e-01   7.547764e-03
  3.624043e+00    5.460669e-01   7.558354e-03
  3.626254e+00    5.307640e-01   7.461377e-03
  3.628464e+00    5.308729e-01   7.473071e-03
  3.630675e+00    5.413451e-01   7.560621e-03
  3.632885e+00    5.379978e-01   7.551739e-03
  3.635095e+00    5.446296e-01   7.612682e-03
  3.637306e+00    5.295401e-01   7.520777e-03
  3.639516e+00    5.465648e-01   7.655445e-03
  3.641727e+00    5.472925e-01   7.675287e-03
  3.643937e+00    5.483232e-01   7.697256e-03
  3.646148e+00    5.774923e-01   7.914550e-03
  3.648358e+00    5.593570e-01   7.804543e-03
  3.650569e+00    5.517517e-01   7.766255e-03
  3.652779e+00    5.438545e-01   7.725440e-03
  3.654990e+00    5.500870e-01   7.784663e-03
  3.657200e+00    5.514823e-01   7.809718e-03
  3.659410e+00    5.311327e-01   7.679243e-03
  3.661621e+00    5.562160e-01   7.873903e-03
  3.663831e+00    5.402136e-01   7.775077e-03
  3.666042e+00    5.683360e-01   7.990479e-03
  3.668252e+00    5.436032e-01   7.830211e-03
  3.670463e+00    5.441602e-01   7.849582e-03
  3.672673e+00    5.219468e-01   7.703012e-03
  3.674884e+00    5.317255e-01   7.790194e-03
  3.677094e+00    5.578560e-01   7.995262e-03
  3.679305e+00    5.446154e-01   7.915590e-03
  3.681515e+00    5.594423e-01   8.038598e-03
  3.683726e+00    5.501035e-01   7.987395e-03
  3.685936e+00    5.560496e-01   8.046520e-03
  3.688146e+00    5.450671e-01   7.982685e-03
  3.690357e+00    5.296375e-01   7.884867e-03
  3.692567e+00    5.273234e-01   7.883774e-03
  3.694778e+00    5.264174e-01   7.893005e-03
  3.696988e+00    5.239852e-01   7.890704e-03
  3.699199e+00    5.362989e-01   7.999311e-03
  3.701409e+00    5.272376e-01   7.947848e-03
  3.703620e+00    5.358366e-01   8.028864e-03
  3.705830e+00    5.346732e-01   8.036735e-03
  3.708041e+00    5.310035e-01   8.025778e-03
  3.710251e+00    5.398273e-01   8.109190e-03
  3.712461e+00    5.283914e-01   8.039615e-03
  3.714672e+00    5.449746e-01   8.181942e-03
  3.716882e+00    5.326543e-01   8.105831e-03
  3.719093e+00    5.144480e-01   7.983128e-03
  3.721303e+00    5.209702e-01   8.050536e-03
  3.723514e+00    5.221556e-01   8.077035e-03
  3.725724e+00    5.170002e-01   8.054159e-03
  3.727935e+00    5.161111e-01   8.064708e-03
  3.730145e+00    5.085982e-01   8.022960e-03
  3.732356e+00    4.951158e-01   7.933039e-03
  3.734566e+00    5.239298e-01   8.178317e-03
  3.736776e+00    5.329766e-01   8.266716e-03
  3.738987e+00    5.172372e-01   8.161540e-03
  3.741197e+00    5.193477e-01   8.196223e-03
  3.743408e+00    5.329121e-01   8.321020e-03
  3.745618e+00    5.157804e-01   8.204543e-03
  3.747829e+00    5.134997e-01   8.204489e-03
  3.750039e+00    5.120184e-01   8.211043e-03
  3.752250e+00    4.931250e-01   8.076287e-03
  3.754460e+00    5.110031e-01   8.239884e-03
  3.756671e+00    5.325553e-01   8.431111e-03
  3.758881e+00    5.354604e-01   8.473201e-03
  3.761091e+00    5.203373e-01   8.372074e-03
  3.763302e+00    5.204692e-01   8.392401e-03
  3.765512e+00    5.117111e-01   8.340868e-03
  3.767723e+00    4.966453e-01   8.236283e-03
  3.769933e+00    4.991704e-01   8.276411e-03
  3.772144e+00    5.130486e-01   8.410345e-03
  3.774354e+00    5.126615e-01   8.427194e-03
  3.776565e+00    5.007226e-01   8.348245e-03
  3.778775e+00    5.154910e-01   8.490620e-03
  3.780986e+00    4.925795e-01   8.319889e-03
  3.783196e+00    4.886931e-01   8.306933e-03
  3.785407e+00    5.075724e-01   8.486371e-03
  3.787617e+00    5.207693e-01   8.617075e-03
  3.789827e+00    5.062637e-01   8.516935e-03
  3.792038e+00    5.148492e-01   8.609856e-03
  3.794248e+00    5.079197e-01   8.573063e-03
  3.796459e+00    4.815910e-01   8.368841e-03
  3.798669e+00    4.746568e-01   8.329165e-03
  3.800880e+00    5.032710e-01   8.598087e-03
  3.803090e+00    4.904610e-01   8.509493e-03
  3.805301e+00    5.049246e-01   8.656300e-03
  3.807511e+00    5.118194e-01   8.737431e-03
  3.809722e+00    5.175281e-01   8.808705e-03
  3.811932e+00    5.190237e-01   8.844011e-03
  3.814142e+00    5.141525e-01   8.825683e-03
  3.816353e+00    5.172639e-01   8.875583e-03
  3.818563e+00    4.915325e-01   8.674957e-03
  3.820774e+00    4.976467e-01   8.751848e-03
  3.822984e+00    5.238416e-01   9.003188e-03
  3.825195e+00    5.175428e-01   8.973160e-03
  3.827405e+00    5.029335e-01   8.869592e-03
  3.829616e+00    4.860190e-01   8.742966e-03
  3.831826e+00    5.130852e-01   9.007620e-03
  3.834037e+00    5.010784e-01   8.926229e-03
  3.836247e+00    5.203211e-01   9.121247e-03
  3.838457e+00    5.054156e-01   9.014935e-03
  3.840668e+00    4.982393e-01   8.975972e-03
  3.842878e+00    4.965573e-01   8.986285e-03
  3.845089e+00    5.024070e-01   9.064807e-03
  3.847299e+00    4.881530e-01   8.960935e-03
  3.849510e+00    4.971972e-01   9.069433e-03
  3.851720e+00    5.163880e-01   9.264683e-03
  3.853931e+00    5.106393e-01   9.232271e-03
  3.856141e+00    5.056610e-01   9.206361e-03
  3.858352e+00    5.148423e-01   9.309288e-03
  3.860562e+00    5.005936e-01   9.198915e-03
  3.862772e+00    5.204123e-01   9.399373e-03
  3.864983e+00    4.819057e-01   9.064398e-03
  3.867193e+00    5.149560e-01   9.390254e-03
  3.869404e+00    4.927148e-01   9.205049e-03
  3.871614e+00    4.886525e-01   9.186860e-03
  3.873825e+00    4.932732e-01   9.250526e-03
  3.876035e+00    5.157443e-01   9.479952e-03
  3.878246e+00    5.053878e-01   9.410385e-03
  3.880456e+00    4.966623e-01   9.357936e-03
  3.882667e+00    4.916989e-01   9.340359e-03
  3.884877e+00    4.836854e-01   9.293440e-03
  3.887087e+00    4.691385e-01   9.181825e-03
  3.889298e+00    4.968031e-01   9.479268e-03
  3.891508e+00    5.052636e-01   9.590554e-03
  3.893719e+00    4.962872e-01   9.536195e-03
  3.895929e+00    5.116014e-01   9.714282e-03
  3.898140e+00    5.029625e-01   9.664050e-03
  3.900350e+00    5.035863e-01   9.702580e-03
  3.902561e+00    4.892886e-01   9.596123e-03
  3.904771e+00    5.170479e-01   9.898340e-03
  3.906982e+00    5.156475e-01   9.919014e-03
  3.909192e+00    5.220965e-01   1.001539e-02
  3.911403e+00    5.071600e-01   9.905795e-03
  3.913613e+00    4.918607e-01   9.789487e-03
  3.915823e+00    5.143452e-01   1.004655e-02
  3.918034e+00    4.931742e-01   9.873028e-03
  3.920244e+00    4.758201e-01   9.733027e-03
  3.922455e+00    4.793547e-01   9.804874e-03
  3.924665e+00    4.884556e-01   9.933919e-03
  3.926876e+00    4.887615e-01   9.974207e-03
  3.929086e+00    5.132528e-01   1.025933e-02
  3.931297e+00    5.125418e-01   1.028803e-02
  3.933507e+00    4.799496e-01   9.984138e-03
  3.935718e+00    5.013943e-01   1.023391e-02
  3.937928e+00    5.101464e-01   1.035302e-02
  3.940138e+00    4.948589e-01   1.022633e-02
  3.942349e+00    4.738765e-01   1.003655e-02
  3.944559e+00    5.152782e-01   1.049671e-02
  3.946770e+00    5.131137e-01   1.050559e-02
  3.948980e+00    5.087216e-01   1.049197e-02
  3.951191e+00    5.071074e-01   1.050683e-02
  3.953401e+00    4.466715e-01   9.890876e-03
  3.955612e+00    4.729566e-01   1.020901e-02
  3.957822e+00    4.793288e-01   1.030896e-02
  3.960033e+00    4.944146e-01   1.050281e-02
  3.962243e+00    5.101422e-01   1.070234e-02
  3.964453e+00    4.794370e-01   1.040802e-02
  3.966664e+00    4.493716e-01   1.010862e-02
  3.968874e+00    4.886227e-01   1.056932e-02
  3.971085e+00    4.531856e-01   1.019995e-02
  3.973295e+00    4.995749e-01   1.073107e-02
  3.975506e+00    5.075983e-01   1.083904e-02
  3.977716e+00    4.962732e-01   1.073969e-02
  3.979927e+00    4.928676e-01   1.072505e-02
  3.982137e+00    4.969876e-01   1.079234e-02
  3.984348e+00    4.986587e-01   1.083334e-02
  3.986558e+00    4.903507e-01   1.076513e-02
  3.988768e+00    4.821905e-01   1.069821e-02
  3.990979e+00    4.627094e-01   1.050203e-02
  3.993189e+00    4.881568e-01   1.081004e-02
  3.995400e+00    4.774669e-01   1.071442e-02
  3.997610e+00    4.818002e-01   1.079261e-02
  3.999821e+00    5.400186e-01   1.146570e-02
  4.002031e+00    5.031311e-01   1.110644e-02
  4.004242e+00    4.681248e-01   1.075079e-02
  4.006452e+00    4.936948e-01   1.108026e-02
  4.008663e+00    4.871420e-01   1.104649e-02
  4.010873e+00    5.082322e-01   1.132417e-02
  4.013084e+00    5.005328e-01   1.127962e-02
  4.015294e+00    4.753339e-01   1.103263e-02
  4.017504e+00    4.814358e-01   1.114490e-02
  4.019715e+00    4.838433e-01   1.121522e-02
  4.021925e+00    4.925087e-01   1.135858e-02
  4.024136e+00    4.947307e-01   1.142832e-02
  4.026346e+00    5.242747e-01   1.181054e-02
  4.028557e+00    5.018013e-01   1.159984e-02
  4.030767e+00    4.700652e-01   1.127204e-02
  4.032978e+00    5.110311e-01   1.180048e-02
  4.035188e+00    4.707696e-01   1.137167e-02
  4.037399e+00    4.786647e-01   1.151389e-02
  4.039609e+00    5.411874e-01   1.229340e-02
  4.041819e+00    4.617873e-01   1.140352e-02
  4.044030e+00    4.545967e-01   1.136273e-02
  4.046240e+00    4.631269e-01   1.151768e-02
  4.048451e+00    4.762513e-01   1.173025e-02
  4.050661e+00    4.768560e-01   1.178886e-02
  4.052872e+00    5.151632e-01   1.230769e-02
  4.055082e+00    4.891707e-01   1.204722e-02
  4.057293e+00    4.558456e-01   1.168161e-02
  4.059503e+00    4.426309e-01   1.156352e-02
  4.061714e+00    4.519622e-01   1.173942e-02
  4.063924e+00    4.850448e-01   1.221836e-02
  4.066134e+00    5.110691e-01   1.260099e-02
  4.068345e+00    4.740178e-01   1.219420e-02
  4.070555e+00    4.675018e-01   1.216837e-02
  4.072766e+00    4.825395e-01   1.242336e-02
  4.074976e+00    4.844119e-01   1.250972e-02
  4.077187e+00    4.915264e-01   1.266368e-02
  4.079397e+00    4.852170e-01   1.264650e-02
  4.081608e+00    4.675507e-01   1.247867e-02
  4.083818e+00    4.380663e-01   1.214170e-02
  4.086029e+00    4.791805e-01   1.276551e-02
  4.088239e+00    4.715328e-01   1.273156e-02
  4.090449e+00    4.683749e-01   1.275747e-02
  4.092660e+00    5.018896e-01   1.327888e-02
  4.094870e+00    4.622963e-01   1.281520e-02
  4.097081e+00    4.486064e-01   1.269309e-02
  4.099291e+00    4.689116e-01   1.303087e-02
  4.101502e+00    4.650740e-01   1.302594e-02
  4.103712e+00    4.915894e-01   1.344207e-02
  4.105923e+00    4.516594e-01   1.293439e-02
  4.108133e+00    4.797470e-01   1.338175e-02
  4.110344e+00    4.977194e-01   1.368252e-02
  4.112554e+00    4.395420e-01   1.290864e-02
  4.114764e+00    4.859547e-01   1.362748e-02
  4.116975e+00    5.092912e-01   1.400611e-02
  4.119185e+00    5.050458e-01   1.400408e-02
  4.121396e+00    5.146448e-01   1.419513e-02
  4.123606e+00    4.453576e-01   1.325912e-02
  4.125817e+00    4.749019e-01   1.374914e-02
  4.128027e+00    5.369672e-01   1.468167e-02
  4.130238e+00    5.133070e-01   1.441602e-02
  4.132448e+00    4.998880e-01   1.428813e-02
  4.134659e+00    5.258449e-01   1.471758e-02
  4.136869e+00    4.858761e-01   1.421015e-02
  4.139080e+00    4.627633e-01   1.393058e-02
  4.141290e+00    4.891986e-01   1.438637e-02
  4.143500e+00    4.752237e-01   1.424482e-02
  4.145711e+00    4.999449e-01   1.467896e-02
  4.147921e+00    5.118013e-01   1.491995e-02
  4.150132e+00    5.065875e-01   1.491482e-02
  4.152342e+00    4.661820e-01   1.437684e-02
  4.154553e+00    4.967538e-01   1.491132e-02
  4.156763e+00    5.396196e-01   1.561833e-02
  4.158974e+00    5.193893e-01   1.539970e-02
  4.161184e+00    5.160136e-01   1.542588e-02
  4.163395e+00    4.608923e-01   1.465311e-02
  4.165605e+00    4.623668e-01   1.475291e-02
  4.167815e+00    4.820808e-01   1.514253e-02
  4.170026e+00    4.871367e-01   1.530202e-02
  4.172236e+00    5.023791e-01   1.562364e-02
  4.174447e+00    4.375622e-01   1.466031e-02
  4.176657e+00    4.276529e-01   1.457263e-02
  4.178868e+00    4.714577e-01   1.538718e-02
  4.181078e+00    4.998336e-01   1.593272e-02
  4.183289e+00    5.187146e-01   1.632400e-02
  4.185499e+00    4.544675e-01   1.536972e-02
  4.187710e+00    5.067723e-01   1.632497e-02
  4.189920e+00    5.447018e-01   1.702698e-02
  4.192130e+00    4.895245e-01   1.624026e-02
  4.194341e+00    5.034643e-01   1.657099e-02
  4.196551e+00    4.500667e-01   1.576665e-02
  4.198762e+00    4.491041e-01   1.584959e-02
  4.200972e+00    4.770856e-01   1.644180e-02
  4.203183e+00    4.563933e-01   1.618736e-02
  4.205393e+00    3.997149e-01   1.524959e-02
  4.207604e+00    4.592240e-01   1.645685e-02
  4.209814e+00    4.693837e-01   1.675222e-02
  4.212025e+00    5.019458e-01   1.744619e-02
  4.214235e+00    5.075715e-01   1.766809e-02
  4.216445e+00    5.029516e-01   1.771480e-02
  4.218656e+00    4.192391e-01   1.629451e-02
  4.220866e+00    4.968826e-01   1.787064e-02
  4.223077e+00    5.266440e-01   1.853986e-02
  4.225287e+00    5.250791e-01   1.865775e-02
  4.227498e+00    4.986761e-01   1.832527e-02
  4.229708e+00    4.772325e-01   1.807261e-02
  4.231919e+00    4.861955e-01   1.839246e-02
  4.234129e+00    4.789123e-01   1.840736e-02
  4.236340e+00    4.592952e-01   1.818072e-02
  4.238550e+00    4.748766e-01   1.864941e-02
  4.240761e+00    4.993421e-01   1.929311e-02
  4.242971e+00    4.792573e-01   1.907386e-02
  4.245181e+00    5.091882e-01   1.984539e-02
  4.247392e+00    4.860775e-01   1.957127e-02
  4.249602e+00    4.785442e-01   1.961155e-02
  4.251813e+00    4.397890e-01   1.898617e-02
  4.254023e+00    4.142432e-01   1.861210e-02
  4.256234e+00    4.821215e-01   2.029323e-02
  4.258444e+00    4.849544e-01   2.056638e-02
  4.260655e+00    4.678827e-01   2.042305e-02
  4.262865e+00    4.877805e-01   2.108933e-02
  4.265076e+00    4.633343e-01   2.078801e-02
  4.267286e+00    4.602200e-01   2.096352e-02
  4.269496e+00    4.455918e-01   2.087909e-02
  4.271707e+00    5.821504e-01   2.416030e-02
  4.273917e+00    4.754547e-01   2.211658e-02
  4.276128e+00    4.995746e-01   2.297144e-02
  4.278338e+00    5.406603e-01   2.421662e-02
  4.280549e+00    4.845378e-01   2.325450e-02
  4.282759e+00    4.519918e-01   2.278232e-02
  4.284970e+00    4.452684e-01   2.294657e-02
  4.287180e+00    4.934028e-01   2.444542e-02
  4.289391e+00    4.786083e-01   2.425622e-02
  4.291601e+00    4.242133e-01   2.301936e-02
  4.293811e+00    4.979064e-01   2.513266e-02
  4.296022e+00    5.049971e-01   2.551471e-02
  4.298232e+00    4.861308e-01   2.524327e-02
  4.300443e+00    4.794837e-01   2.527758e-02
  4.302653e+00    4.148671e-01   2.371584e-02
  4.304864e+00    4.079863e-01   2.372196e-02
  4.307074e+00    4.811937e-01   2.599387e-02
  4.309285e+00    4.759755e-01   2.608795e-02
  4.311495e+00    3.986080e-01   2.409683e-02
  4.313706e+00    4.414448e-01   2.559662e-02
  4.315916e+00    4.837817e-01   2.705977e-02
  4.318126e+00    5.484921e-01   2.909786e-02
  4.320337e+00    3.934857e-01   2.489545e-02
  4.322547e+00    4.363686e-01   2.649419e-02
  4.324758e+00    4.274360e-01   2.649468e-02
  4.326968e+00    4.701932e-01   2.810056e-02
  4.329179e+00    4.899418e-01   2.900144e-02
  4.331389e+00    5.179202e-01   3.016166e-02
  4.333600e+00    4.818810e-01   2.944074e-02
  4.335810e+00    4.273161e-01   2.805394e-02
  4.338021e+00    4.244254e-01   2.831504e-02
  4.340231e+00    5.662124e-01   3.311662e-02
  4.342442e+00    4.671521e-01   3.048405e-02
  4.344652e+00    4.243348e-01   2.944800e-02
  4.346862e+00    3.816866e-01   2.831973e-02
  4.349073e+00    4.500657e-01   3.119925e-02
  4.351283e+00    4.295579e-01   3.093615e-02
  4.353494e+00    4.604277e-01   3.252259e-02
  4.355704e+00    4.114960e-01   3.124166e-02
  4.357915e+00    3.768891e-01   3.039608e-02
  4.360125e+00    5.290275e-01   3.662773e-02
  4.362336e+00    4.221847e-01   3.331655e-02
  4.364546e+00    4.614892e-01   3.546702e-02
  4.366757e+00    3.955871e-01   3.349049e-02
  4.368967e+00    4.531523e-01   3.655929e-02
  4.371177e+00    5.028828e-01   3.933252e-02
  4.373388e+00    4.017801e-01   3.594268e-02
  4.375598e+00    5.359647e-01   4.246074e-02
  4.377809e+00    3.167375e-01   3.346726e-02
  4.380019e+00    3.255064e-01   3.477949e-02
  4.382230e+00    2.206663e-01   2.943621e-02
  4.384440e+00    4.158448e-01   4.157131e-02
  4.386651e+00    3.839976e-01   4.117992e-02
  4.388861e+00    3.751421e-01   4.206603e-02
  4.391072e+00    4.473066e-01   4.754920e-02
  4.393282e+00    5.261308e-01   5.356548e-02
  4.395492e+00    4.857470e-01   5.360548e-02
  4.397703e+00    4.208601e-01   5.217766e-02
  4.399913e+00    3.636231e-01   5.095753e-02
  4.402124e+00    3.491758e-01   5.275906e-02
  4.404334e+00    3.938321e-01   5.956705e-02
  4.406545e+00    2.124494e-01   4.700555e-02
  4.408755e+00    3.966783e-01   6.965629e-02
  4.410966e+00    5.645548e-01   9.197070e-02
  4.413176e+00    6.368865e-01   1.105745e-01
  4.415387e+00   -5.498098e-01            nan
  4.417597e+00   -1.755185e+00            nan
  4.419807e+00   -1.824666e-01            nan
