# == pyFAI calibration ==
# Distance Sample to Detector: 0.216 m
# PONI: 1.166e-01, 1.308e-01 m
# Rotations: 0.000000 0.000000 0.000000 rad
# 
# == Fit2d calibration ==
# Distance Sample-beamCenter: 216.000 mm
# Center: x=1744.293, y=1555.000 pix
# Tilt: 0.000 deg  TiltPlanRot: 0.000 deg
# 
# Detector Eiger 9M	 PixelSize= 7.500e-05, 7.500e-05 m
#    Detector has a mask: True 
#    Detector has a dark current: False 
#    detector has a flat field: False 
# 
# Wavelength: 9.8e-11 m
# Mask applied: from detector
# Dark current applied: False
# Flat field applied: False
# Polarization factor: None
# Normalization factor: 1.0
# 
# Headers of the input frame:
# {
# "_array_data.header_convention": "SLS_1.0",
# "_array_data.header_contents": "# Detector: Dectris Eiger 9M, S/N E-18-0102\r\n# Pixel_size 75e-6 m x 75e-6 m\r\n# Silicon sensor, thickness 0.000450 m\r\n# Exposure_time 0.024997 s\r\n# Exposure_period 0.025000 s\r\n# Count_cutoff 62318 counts\r\n# Wavelength 0.980106 A\r\n# Detector_distance 0.215992 m\r\n# Beam_xy (1555, 1744) pixels\r\n# Start_angle 0.000000 deg.\r\n# Angle_increment 0.000000 deg.",
# "Content-Type": "application/octet-stream;",
# "conversions": "x-CBF_BYTE_OFFSET",
# "Content-Transfer-Encoding": "BINARY",
# "X-Binary-Size": "10166590",
# "X-Binary-ID": "1",
# "X-Binary-Element-Type": "signed 32-bit integer",
# "X-Binary-Element-Byte-Order": "LITTLE_ENDIAN",
# "Content-MD5": "L22LgmaotnAVSggHDR4keg==",
# "X-Binary-Number-of-Elements": "10166590",
# "X-Binary-Size-Fastest-Dimension": "3110",
# "X-Binary-Size-Second-Dimension": "3269",
# "X-Binary-Size-Padding": "4095"
# }
# --> H:/Proxima2a_2019-04-05/RAW_DATA/C5_gel17_position5/C5_mesh_1_data.cbf/C5_mesh_1_data.cbf000025.dat
#        q_A^-1              I           sigma 
  1.105228e-03    1.289979e+00   6.145798e-01
  3.315685e-03    1.359824e+00   3.836072e-01
  5.526141e-03    1.528427e+00   3.144810e-01
  7.736597e-03    1.178319e+00   2.332661e-01
  9.947054e-03    1.407999e+00   2.247903e-01
  1.215751e-02    1.305262e+00   1.957120e-01
  1.436797e-02    1.451720e+00   1.898529e-01
  1.657842e-02    1.445321e+00   1.763301e-01
  1.878888e-02    1.358752e+00   1.605956e-01
  2.099934e-02    1.310174e+00   1.491992e-01
  2.320979e-02    1.203675e+00   1.360152e-01
  2.542025e-02    1.025711e+00   1.199836e-01
  2.763070e-02    1.145680e+00   1.216247e-01
  2.984116e-02    1.461753e+00   1.321945e-01
  3.205162e-02    1.372336e+00   1.235994e-01
  3.426207e-02    1.344837e+00   1.183340e-01
  3.647253e-02    1.507805e+00   1.214402e-01
  3.868299e-02    1.578337e+00   1.206551e-01
  4.089344e-02    1.539569e+00   1.158992e-01
  4.310390e-02    1.460126e+00   1.099307e-01
  4.531436e-02    1.369938e+00   1.038524e-01
  4.752481e-02    1.390634e+00   1.021705e-01
  4.973527e-02    1.391996e+00   9.992423e-02
  5.194572e-02    1.493084e+00   1.012617e-01
  5.415618e-02    1.377944e+00   9.526966e-02
  5.636664e-02    1.379278e+00   9.343102e-02
  5.857709e-02    1.268840e+00   8.790590e-02
  6.078755e-02    1.319124e+00   8.798328e-02
  6.299801e-02    1.359251e+00   8.772963e-02
  6.520846e-02    1.400856e+00   8.754020e-02
  6.741892e-02    1.464118e+00   8.801117e-02
  6.962938e-02    1.488545e+00   8.732677e-02
  7.183983e-02    1.468950e+00   8.540349e-02
  7.405029e-02    1.398051e+00   8.206211e-02
  7.626074e-02    1.478228e+00   8.314976e-02
  7.847120e-02    1.524023e+00   8.322805e-02
  8.068166e-02    1.470357e+00   8.062128e-02
  8.289211e-02    1.408270e+00   7.784123e-02
  8.510257e-02    1.482607e+00   7.882471e-02
  8.731303e-02    1.479959e+00   7.774808e-02
  8.952348e-02    1.487935e+00   7.699091e-02
  9.173394e-02    1.509498e+00   7.660379e-02
  9.394439e-02    1.412591e+00   7.322469e-02
  9.615485e-02    1.463992e+00   7.368160e-02
  9.836531e-02    1.373766e+00   7.056653e-02
  1.005758e-01    1.384469e+00   7.005852e-02
  1.027862e-01    1.363676e+00   6.877704e-02
  1.049967e-01    1.344465e+00   6.756701e-02
  1.072071e-01    1.470587e+00   6.993202e-02
  1.094176e-01    1.388419e+00   6.725937e-02
  1.116280e-01    1.340487e+00   6.542909e-02
  1.138385e-01    1.317844e+00   6.423996e-02
  1.160490e-01    1.407654e+00   6.575669e-02
  1.182594e-01    1.508437e+00   6.742934e-02
  1.204699e-01    1.487203e+00   6.633547e-02
  1.226803e-01    1.514500e+00   6.633291e-02
  1.248908e-01    1.535786e+00   6.620287e-02
  1.271012e-01    1.534686e+00   6.559988e-02
  1.293117e-01    1.585407e+00   6.610195e-02
  1.315222e-01    1.603475e+00   6.591500e-02
  1.337326e-01    1.527466e+00   6.379866e-02
  1.359431e-01    1.493156e+00   6.311496e-02
  1.381535e-01    1.567955e+00   6.554466e-02
  1.403640e-01    1.533639e+00   6.510335e-02
  1.425744e-01    1.521614e+00   6.495119e-02
  1.447849e-01    1.516511e+00   6.485711e-02
  1.469953e-01    1.566342e+00   6.587279e-02
  1.492058e-01    1.564847e+00   6.576485e-02
  1.514163e-01    1.507736e+00   6.444642e-02
  1.536267e-01    1.570179e+00   6.563900e-02
  1.558372e-01    1.475623e+00   6.349145e-02
  1.580476e-01    1.437158e+00   6.250643e-02
  1.602581e-01    1.501917e+00   6.373687e-02
  1.624685e-01    1.679379e+00   6.721275e-02
  1.646790e-01    1.711910e+00   6.766576e-02
  1.668895e-01    1.642918e+00   6.609680e-02
  1.690999e-01    1.689834e+00   6.683257e-02
  1.713104e-01    1.790345e+00   6.857800e-02
  1.735208e-01    1.732336e+00   6.724808e-02
  1.757313e-01    1.661469e+00   6.565179e-02
  1.779417e-01    1.791753e+00   6.795491e-02
  1.801522e-01    1.886783e+00   6.951161e-02
  1.823626e-01    1.895507e+00   6.944022e-02
  1.845731e-01    1.881865e+00   6.896573e-02
  1.867836e-01    1.876279e+00   6.863092e-02
  1.889940e-01    1.828826e+00   6.753608e-02
  1.912045e-01    1.885802e+00   6.835098e-02
  1.934149e-01    1.962377e+00   6.949157e-02
  1.956254e-01    1.892566e+00   6.801923e-02
  1.978358e-01    1.943809e+00   6.869769e-02
  2.000463e-01    1.875059e+00   6.724829e-02
  2.022568e-01    1.932666e+00   6.804939e-02
  2.044672e-01    1.886942e+00   6.700929e-02
  2.066777e-01    1.887164e+00   6.679079e-02
  2.088881e-01    1.849841e+00   6.591066e-02
  2.110986e-01    1.874260e+00   6.611677e-02
  2.133090e-01    1.870555e+00   6.583665e-02
  2.155195e-01    1.873942e+00   6.567765e-02
  2.177300e-01    1.955376e+00   6.656246e-02
  2.199404e-01    1.885166e+00   6.363441e-02
  2.221509e-01    1.882180e+00   6.253990e-02
  2.243613e-01    1.860195e+00   6.138540e-02
  2.265718e-01    1.891353e+00   6.121511e-02
  2.287822e-01    1.946861e+00   6.149217e-02
  2.309927e-01    1.948149e+00   6.095215e-02
  2.332031e-01    2.058133e+00   6.211286e-02
  2.354136e-01    2.048532e+00   6.146561e-02
  2.376241e-01    1.964208e+00   5.972007e-02
  2.398345e-01    2.073426e+00   6.090384e-02
  2.420450e-01    2.129369e+00   6.127889e-02
  2.442554e-01    2.098122e+00   6.040861e-02
  2.464659e-01    2.122730e+00   6.035384e-02
  2.486763e-01    2.121537e+00   5.994029e-02
  2.508868e-01    1.974485e+00   5.746087e-02
  2.530973e-01    1.950711e+00   5.675977e-02
  2.553077e-01    2.047950e+00   5.780448e-02
  2.575182e-01    1.966337e+00   5.630589e-02
  2.597286e-01    1.986068e+00   5.625871e-02
  2.619391e-01    2.054318e+00   5.688779e-02
  2.641495e-01    2.003355e+00   5.586681e-02
  2.663600e-01    1.957069e+00   5.491401e-02
  2.685704e-01    1.975325e+00   5.487047e-02
  2.707809e-01    1.964256e+00   5.442610e-02
  2.729914e-01    2.011806e+00   5.479386e-02
  2.752018e-01    1.977473e+00   5.404156e-02
  2.774123e-01    2.016037e+00   5.428723e-02
  2.796227e-01    1.962489e+00   5.329650e-02
  2.818332e-01    1.921133e+00   5.246886e-02
  2.840436e-01    1.950839e+00   5.261669e-02
  2.862541e-01    1.868859e+00   5.125169e-02
  2.884646e-01    1.903830e+00   5.148350e-02
  2.906750e-01    1.882433e+00   5.095064e-02
  2.928855e-01    1.898696e+00   5.093314e-02
  2.950959e-01    1.924496e+00   5.104248e-02
  2.973064e-01    1.916561e+00   5.070822e-02
  2.995168e-01    1.876827e+00   4.995257e-02
  3.017273e-01    1.816177e+00   4.892217e-02
  3.039377e-01    1.870463e+00   4.943053e-02
  3.061482e-01    1.864265e+00   4.913510e-02
  3.083587e-01    1.890011e+00   4.925906e-02
  3.105691e-01    1.857186e+00   4.862090e-02
  3.127796e-01    1.842744e+00   4.822784e-02
  3.149900e-01    1.876489e+00   4.846464e-02
  3.172005e-01    1.855208e+00   4.799202e-02
  3.194109e-01    1.823654e+00   4.738569e-02
  3.216214e-01    1.835591e+00   4.734654e-02
  3.238319e-01    1.833382e+00   4.713059e-02
  3.260423e-01    1.847566e+00   4.712409e-02
  3.282528e-01    1.843584e+00   4.688587e-02
  3.304632e-01    1.839950e+00   4.665821e-02
  3.326737e-01    1.789226e+00   4.583103e-02
  3.348841e-01    1.821817e+00   4.606723e-02
  3.370946e-01    1.905514e+00   4.693628e-02
  3.393050e-01    1.813878e+00   4.562034e-02
  3.415155e-01    1.780152e+00   4.502429e-02
  3.437260e-01    1.825061e+00   4.541972e-02
  3.459364e-01    1.748351e+00   4.429050e-02
  3.481469e-01    1.738774e+00   4.400781e-02
  3.503573e-01    1.755198e+00   4.405406e-02
  3.525678e-01    1.772701e+00   4.411543e-02
  3.547782e-01    1.754133e+00   4.372515e-02
  3.569887e-01    1.727964e+00   4.324402e-02
  3.591992e-01    1.697877e+00   4.271420e-02
  3.614096e-01    1.719744e+00   4.283933e-02
  3.636201e-01    1.717474e+00   4.266059e-02
  3.658305e-01    1.747706e+00   4.288763e-02
  3.680410e-01    1.789624e+00   4.324964e-02
  3.702514e-01    1.722932e+00   4.229343e-02
  3.724619e-01    1.735431e+00   4.230199e-02
  3.746724e-01    1.737832e+00   4.219001e-02
  3.768828e-01    1.772690e+00   4.246766e-02
  3.790933e-01    1.738242e+00   4.191598e-02
  3.813037e-01    1.739009e+00   4.178804e-02
  3.835142e-01    1.758057e+00   4.187829e-02
  3.857246e-01    1.705617e+00   4.111549e-02
  3.879351e-01    1.727775e+00   4.124774e-02
  3.901455e-01    1.784639e+00   4.178755e-02
  3.923560e-01    1.803942e+00   4.187942e-02
  3.945665e-01    1.754937e+00   4.117567e-02
  3.967769e-01    1.750721e+00   4.099738e-02
  3.989874e-01    1.785589e+00   4.127435e-02
  4.011978e-01    1.754254e+00   4.078479e-02
  4.034083e-01    1.772880e+00   4.087485e-02
  4.056187e-01    1.743370e+00   4.040838e-02
  4.078292e-01    1.763798e+00   4.052144e-02
  4.100397e-01    1.763296e+00   4.039197e-02
  4.122501e-01    1.725092e+00   3.983247e-02
  4.144606e-01    1.747227e+00   3.996833e-02
  4.166710e-01    1.724486e+00   3.958932e-02
  4.188815e-01    1.752604e+00   3.979287e-02
  4.210919e-01    1.772608e+00   3.990204e-02
  4.233024e-01    1.765500e+00   3.970482e-02
  4.255128e-01    1.778752e+00   3.973835e-02
  4.277233e-01    1.766590e+00   3.948848e-02
  4.299338e-01    1.736773e+00   3.904115e-02
  4.321442e-01    1.785347e+00   3.947007e-02
  4.343547e-01    1.730861e+00   3.875325e-02
  4.365651e-01    1.654556e+00   3.778174e-02
  4.387756e-01    1.675882e+00   3.791796e-02
  4.409860e-01    1.690678e+00   3.797949e-02
  4.431965e-01    1.722234e+00   3.822627e-02
  4.454070e-01    1.760133e+00   3.853710e-02
  4.476174e-01    1.660304e+00   3.732552e-02
  4.498279e-01    1.651142e+00   3.712111e-02
  4.520383e-01    1.646384e+00   3.696587e-02
  4.542488e-01    1.633649e+00   3.672332e-02
  4.564592e-01    1.644462e+00   3.674582e-02
  4.586697e-01    1.677774e+00   3.701761e-02
  4.608801e-01    1.649923e+00   3.661077e-02
  4.630906e-01    1.646606e+00   3.647708e-02
  4.653011e-01    1.637829e+00   3.628410e-02
  4.675115e-01    1.669806e+00   3.654005e-02
  4.697220e-01    1.685178e+00   3.661180e-02
  4.719324e-01    1.700403e+00   3.668166e-02
  4.741429e-01    1.696376e+00   3.654381e-02
  4.763533e-01    1.658996e+00   3.604630e-02
  4.785638e-01    1.602546e+00   3.533620e-02
  4.807743e-01    1.634518e+00   3.559618e-02
  4.829847e-01    1.658311e+00   3.576376e-02
  4.851952e-01    1.684216e+00   3.595080e-02
  4.874056e-01    1.679286e+00   3.580765e-02
  4.896161e-01    1.679207e+00   3.571799e-02
  4.918265e-01    1.681314e+00   3.565166e-02
  4.940370e-01    1.642014e+00   3.514552e-02
  4.962475e-01    1.608126e+00   3.469508e-02
  4.984579e-01    1.619986e+00   3.473695e-02
  5.006684e-01    1.637961e+00   3.484398e-02
  5.028788e-01    1.673006e+00   3.512942e-02
  5.050893e-01    1.602324e+00   3.429575e-02
  5.072997e-01    1.580267e+00   3.397658e-02
  5.095102e-01    1.619242e+00   3.431066e-02
  5.117206e-01    1.667665e+00   3.473711e-02
  5.139311e-01    1.678635e+00   3.476869e-02
  5.161416e-01    1.657712e+00   3.446971e-02
  5.183520e-01    1.575447e+00   3.352365e-02
  5.205625e-01    1.605207e+00   3.375953e-02
  5.227729e-01    1.562113e+00   3.322562e-02
  5.249834e-01    1.606605e+00   3.361722e-02
  5.271938e-01    1.653515e+00   3.402489e-02
  5.294043e-01    1.679514e+00   3.421222e-02
  5.316148e-01    1.703384e+00   3.437557e-02
  5.338252e-01    1.747204e+00   3.473536e-02
  5.360357e-01    1.713623e+00   3.432162e-02
  5.382461e-01    1.683863e+00   3.394538e-02
  5.404566e-01    1.734300e+00   3.437161e-02
  5.426670e-01    1.682073e+00   3.377387e-02
  5.448775e-01    1.657910e+00   3.345547e-02
  5.470879e-01    1.709963e+00   3.390084e-02
  5.492984e-01    1.726771e+00   3.399131e-02
  5.515089e-01    1.706127e+00   3.371257e-02
  5.537193e-01    1.724892e+00   3.382277e-02
  5.559298e-01    1.738974e+00   3.388606e-02
  5.581402e-01    1.741671e+00   3.383825e-02
  5.603507e-01    1.717201e+00   3.352657e-02
  5.625611e-01    1.764190e+00   3.390842e-02
  5.647716e-01    1.769908e+00   3.388960e-02
  5.669821e-01    1.742716e+00   3.355576e-02
  5.691925e-01    1.743899e+00   3.349510e-02
  5.714030e-01    1.660190e+00   3.261163e-02
  5.736134e-01    1.730700e+00   3.322611e-02
  5.758239e-01    1.713748e+00   3.299246e-02
  5.780343e-01    1.672265e+00   3.252175e-02
  5.802448e-01    1.653691e+00   3.227294e-02
  5.824552e-01    1.565813e+00   3.133785e-02
  5.846657e-01    1.564466e+00   3.125905e-02
  5.868762e-01    1.577044e+00   3.131912e-02
  5.890866e-01    1.613673e+00   3.161501e-02
  5.912971e-01    1.609252e+00   3.150633e-02
  5.935075e-01    1.592111e+00   3.127331e-02
  5.957180e-01    1.557635e+00   3.086939e-02
  5.979284e-01    1.580531e+00   3.103195e-02
  6.001389e-01    1.571331e+00   3.087851e-02
  6.023494e-01    1.603054e+00   3.112531e-02
  6.045598e-01    1.643270e+00   3.144916e-02
  6.067703e-01    1.627902e+00   3.123881e-02
  6.089807e-01    1.615548e+00   3.105750e-02
  6.111912e-01    1.591152e+00   3.076056e-02
  6.134016e-01    1.612514e+00   3.090458e-02
  6.156121e-01    1.610711e+00   3.082592e-02
  6.178226e-01    1.627510e+00   3.092488e-02
  6.200330e-01    1.625294e+00   3.084287e-02
  6.222435e-01    1.654347e+00   3.105567e-02
  6.244539e-01    1.660972e+00   3.105685e-02
  6.266644e-01    1.698570e+00   3.134515e-02
  6.288748e-01    1.649679e+00   3.083061e-02
  6.310853e-01    1.680761e+00   3.105927e-02
  6.332957e-01    1.695637e+00   3.113620e-02
  6.355062e-01    1.657214e+00   3.072160e-02
  6.377167e-01    1.654126e+00   3.063407e-02
  6.399271e-01    1.666137e+00   3.068618e-02
  6.421376e-01    1.676475e+00   3.072250e-02
  6.443480e-01    1.633335e+00   3.026693e-02
  6.465585e-01    1.617947e+00   3.006697e-02
  6.487689e-01    1.620498e+00   3.003382e-02
  6.509794e-01    1.647027e+00   3.022156e-02
  6.531899e-01    1.587581e+00   2.961537e-02
  6.554003e-01    1.543680e+00   2.914812e-02
  6.576108e-01    1.555064e+00   2.920092e-02
  6.598212e-01    1.541863e+00   2.902269e-02
  6.620317e-01    1.558788e+00   2.912745e-02
  6.642421e-01    1.516999e+00   2.868122e-02
  6.664526e-01    1.547566e+00   2.891534e-02
  6.686630e-01    1.560830e+00   2.898533e-02
  6.708735e-01    1.519247e+00   2.854414e-02
  6.730840e-01    1.574904e+00   2.900931e-02
  6.752944e-01    1.549290e+00   2.872011e-02
  6.775049e-01    1.551020e+00   2.868397e-02
  6.797153e-01    1.547068e+00   2.859553e-02
  6.819258e-01    1.509535e+00   2.819557e-02
  6.841362e-01    1.569466e+00   2.869813e-02
  6.863467e-01    1.533370e+00   2.831542e-02
  6.885572e-01    1.545661e+00   2.837770e-02
  6.907676e-01    1.557077e+00   2.843130e-02
  6.929781e-01    1.551916e+00   2.833366e-02
  6.951885e-01    1.585707e+00   2.858976e-02
  6.973990e-01    1.553116e+00   2.824441e-02
  6.996094e-01    1.550264e+00   2.816880e-02
  7.018199e-01    1.553572e+00   2.814936e-02
  7.040303e-01    1.559181e+00   2.815058e-02
  7.062408e-01    1.557935e+00   2.809006e-02
  7.084513e-01    1.520782e+00   2.770482e-02
  7.106617e-01    1.522857e+00   2.767553e-02
  7.128722e-01    1.549806e+00   2.787103e-02
  7.150826e-01    1.546308e+00   2.779158e-02
  7.172931e-01    1.534715e+00   2.763947e-02
  7.195035e-01    1.515633e+00   2.741988e-02
  7.217140e-01    1.502021e+00   2.734478e-02
  7.239245e-01    1.502953e+00   2.757476e-02
  7.261349e-01    1.552880e+00   2.813688e-02
  7.283454e-01    1.548040e+00   2.816480e-02
  7.305558e-01    1.527164e+00   2.802744e-02
  7.327663e-01    1.506052e+00   2.787457e-02
  7.349767e-01    1.521479e+00   2.803308e-02
  7.371872e-01    1.520052e+00   2.800894e-02
  7.393976e-01    1.530375e+00   2.808982e-02
  7.416081e-01    1.524621e+00   2.802107e-02
  7.438186e-01    1.517246e+00   2.781153e-02
  7.460290e-01    1.541250e+00   2.773957e-02
  7.482395e-01    1.520385e+00   2.738298e-02
  7.504499e-01    1.519003e+00   2.723668e-02
  7.526604e-01    1.496512e+00   2.692068e-02
  7.548708e-01    1.473602e+00   2.662731e-02
  7.570813e-01    1.528460e+00   2.706818e-02
  7.592918e-01    1.532318e+00   2.706763e-02
  7.615022e-01    1.522181e+00   2.694472e-02
  7.637127e-01    1.557362e+00   2.722169e-02
  7.659231e-01    1.536882e+00   2.701055e-02
  7.681336e-01    1.487094e+00   2.653870e-02
  7.703440e-01    1.498563e+00   2.661038e-02
  7.725545e-01    1.499777e+00   2.659101e-02
  7.747650e-01    1.540555e+00   2.691230e-02
  7.769754e-01    1.542788e+00   2.687964e-02
  7.791859e-01    1.522704e+00   2.665154e-02
  7.813963e-01    1.577249e+00   2.707208e-02
  7.836068e-01    1.576285e+00   2.701200e-02
  7.858172e-01    1.515220e+00   2.643407e-02
  7.880277e-01    1.555605e+00   2.673307e-02
  7.902381e-01    1.558359e+00   2.670812e-02
  7.924486e-01    1.596349e+00   2.698162e-02
  7.946591e-01    1.640382e+00   2.730233e-02
  7.968695e-01    1.573395e+00   2.669124e-02
  7.990800e-01    1.560088e+00   2.653060e-02
  8.012904e-01    1.587120e+00   2.671319e-02
  8.035009e-01    1.565187e+00   2.648077e-02
  8.057113e-01    1.579626e+00   2.655661e-02
  8.079218e-01    1.589600e+00   2.659436e-02
  8.101323e-01    1.580961e+00   2.647696e-02
  8.123427e-01    1.599099e+00   2.658300e-02
  8.145532e-01    1.590922e+00   2.646961e-02
  8.167636e-01    1.592789e+00   2.644056e-02
  8.189741e-01    1.638371e+00   2.677155e-02
  8.211845e-01    1.650363e+00   2.682431e-02
  8.233950e-01    1.651072e+00   2.678643e-02
  8.256054e-01    1.668881e+00   2.688590e-02
  8.278159e-01    1.653311e+00   2.671600e-02
  8.300264e-01    1.689500e+00   2.696305e-02
  8.322368e-01    1.680475e+00   2.684729e-02
  8.344473e-01    1.623424e+00   2.634445e-02
  8.366577e-01    1.632211e+00   2.637315e-02
  8.388682e-01    1.621554e+00   2.624490e-02
  8.410786e-01    1.611752e+00   2.612374e-02
  8.432891e-01    1.609527e+00   2.606425e-02
  8.454996e-01    1.609350e+00   2.602155e-02
  8.477100e-01    1.599865e+00   2.590358e-02
  8.499205e-01    1.614151e+00   2.597813e-02
  8.521309e-01    1.578866e+00   2.565255e-02
  8.543414e-01    1.601114e+00   2.579234e-02
  8.565518e-01    1.595083e+00   2.570366e-02
  8.587623e-01    1.624352e+00   2.589800e-02
  8.609727e-01    1.611582e+00   2.575603e-02
  8.631832e-01    1.592273e+00   2.556179e-02
  8.653937e-01    1.594339e+00   2.553906e-02
  8.676041e-01    1.545160e+00   2.510417e-02
  8.698146e-01    1.546196e+00   2.507417e-02
  8.720250e-01    1.518682e+00   2.481222e-02
  8.742355e-01    1.547027e+00   2.500456e-02
  8.764459e-01    1.542927e+00   2.493332e-02
  8.786564e-01    1.544466e+00   2.490856e-02
  8.808669e-01    1.551938e+00   2.493089e-02
  8.830773e-01    1.534795e+00   2.475548e-02
  8.852878e-01    1.554491e+00   2.487646e-02
  8.874982e-01    1.550648e+00   2.480964e-02
  8.897087e-01    1.552961e+00   2.479103e-02
  8.919191e-01    1.542657e+00   2.467158e-02
  8.941296e-01    1.544872e+00   2.465266e-02
  8.963401e-01    1.524581e+00   2.445465e-02
  8.985505e-01    1.568022e+00   2.476402e-02
  9.007610e-01    1.561258e+00   2.467427e-02
  9.029714e-01    1.560701e+00   2.463445e-02
  9.051819e-01    1.550724e+00   2.451896e-02
  9.073923e-01    1.559152e+00   2.454937e-02
  9.096028e-01    1.596345e+00   2.480559e-02
  9.118132e-01    1.610600e+00   2.487977e-02
  9.140237e-01    1.587951e+00   2.466772e-02
  9.162342e-01    1.583488e+00   2.459867e-02
  9.184446e-01    1.548504e+00   2.429023e-02
  9.206551e-01    1.567847e+00   2.440623e-02
  9.228655e-01    1.593904e+00   2.457302e-02
  9.250760e-01    1.604210e+00   2.461699e-02
  9.272864e-01    1.576517e+00   2.436959e-02
  9.294969e-01    1.582081e+00   2.437697e-02
  9.317074e-01    1.568240e+00   2.423582e-02
  9.339178e-01    1.575156e+00   2.425600e-02
  9.361283e-01    1.583813e+00   2.428674e-02
  9.383387e-01    1.588377e+00   2.428861e-02
  9.405492e-01    1.606431e+00   2.439214e-02
  9.427596e-01    1.597365e+00   2.428822e-02
  9.449701e-01    1.609967e+00   2.435068e-02
  9.471805e-01    1.652950e+00   2.463866e-02
  9.493910e-01    1.653026e+00   2.460541e-02
  9.516015e-01    1.653446e+00   2.457420e-02
  9.538119e-01    1.647605e+00   2.449712e-02
  9.560224e-01    1.649864e+00   2.447941e-02
  9.582328e-01    1.683676e+00   2.469580e-02
  9.604433e-01    1.702979e+00   2.480180e-02
  9.626537e-01    1.710466e+00   2.482282e-02
  9.648642e-01    1.759210e+00   2.513956e-02
  9.670747e-01    1.764641e+00   2.514361e-02
  9.692851e-01    1.774508e+00   2.518030e-02
  9.714956e-01    1.776144e+00   2.515639e-02
  9.737060e-01    1.736930e+00   2.484446e-02
  9.759165e-01    1.783857e+00   2.514231e-02
  9.781269e-01    1.773921e+00   2.503942e-02
  9.803374e-01    1.800505e+00   2.519143e-02
  9.825478e-01    1.784547e+00   2.504649e-02
  9.847583e-01    1.791198e+00   2.505902e-02
  9.869688e-01    1.813102e+00   2.517803e-02
  9.891792e-01    1.796881e+00   2.503185e-02
  9.913897e-01    1.801537e+00   2.503042e-02
  9.936001e-01    1.739656e+00   2.456460e-02
  9.958106e-01    1.670889e+00   2.404148e-02
  9.980210e-01    1.662494e+00   2.394986e-02
  1.000231e+00    1.630817e+00   2.385056e-02
  1.002442e+00    1.585620e+00   2.364267e-02
  1.004652e+00    1.590453e+00   2.374475e-02
  1.006863e+00    1.575807e+00   2.368420e-02
  1.009073e+00    1.562512e+00   2.362016e-02
  1.011284e+00    1.612521e+00   2.402726e-02
  1.013494e+00    1.570321e+00   2.373431e-02
  1.015705e+00    1.545122e+00   2.356534e-02
  1.017915e+00    1.521286e+00   2.339899e-02
  1.020126e+00    1.498973e+00   2.324244e-02
  1.022336e+00    1.488694e+00   2.317405e-02
  1.024547e+00    1.485950e+00   2.316365e-02
  1.026757e+00    1.466242e+00   2.301767e-02
  1.028967e+00    1.486062e+00   2.318025e-02
  1.031178e+00    1.466507e+00   2.303328e-02
  1.033388e+00    1.459279e+00   2.298135e-02
  1.035599e+00    1.525904e+00   2.350354e-02
  1.037809e+00    1.487405e+00   2.320841e-02
  1.040020e+00    1.455441e+00   2.295887e-02
  1.042230e+00    1.473273e+00   2.310102e-02
  1.044441e+00    1.449283e+00   2.291196e-02
  1.046651e+00    1.459053e+00   2.298922e-02
  1.048862e+00    1.443471e+00   2.286535e-02
  1.051072e+00    1.436567e+00   2.280831e-02
  1.053282e+00    1.413517e+00   2.262365e-02
  1.055493e+00    1.445860e+00   2.287678e-02
  1.057703e+00    1.453205e+00   2.293332e-02
  1.059914e+00    1.482112e+00   2.315605e-02
  1.062124e+00    1.484834e+00   2.317325e-02
  1.064335e+00    1.519833e+00   2.344129e-02
  1.066545e+00    1.498909e+00   2.327335e-02
  1.068756e+00    1.470763e+00   2.305008e-02
  1.070966e+00    1.445978e+00   2.284857e-02
  1.073177e+00    1.440814e+00   2.280173e-02
  1.075387e+00    1.468617e+00   2.301545e-02
  1.077597e+00    1.478521e+00   2.308565e-02
  1.079808e+00    1.499992e+00   2.311831e-02
  1.082018e+00    1.497639e+00   2.290889e-02
  1.084229e+00    1.486903e+00   2.271557e-02
  1.086439e+00    1.495328e+00   2.269122e-02
  1.088650e+00    1.450721e+00   2.227464e-02
  1.090860e+00    1.435183e+00   2.208785e-02
  1.093071e+00    1.407311e+00   2.181106e-02
  1.095281e+00    1.395488e+00   2.166301e-02
  1.097492e+00    1.401780e+00   2.165771e-02
  1.099702e+00    1.385201e+00   2.147886e-02
  1.101912e+00    1.413267e+00   2.164695e-02
  1.104123e+00    1.439052e+00   2.179526e-02
  1.106333e+00    1.418181e+00   2.159244e-02
  1.108544e+00    1.398009e+00   2.139458e-02
  1.110754e+00    1.369573e+00   2.113372e-02
  1.112965e+00    1.346649e+00   2.091664e-02
  1.115175e+00    1.372902e+00   2.107906e-02
  1.117386e+00    1.380210e+00   2.109631e-02
  1.119596e+00    1.355674e+00   2.087086e-02
  1.121807e+00    1.335269e+00   2.067541e-02
  1.124017e+00    1.352765e+00   2.077448e-02
  1.126228e+00    1.359652e+00   2.079213e-02
  1.128438e+00    1.335897e+00   2.057379e-02
  1.130648e+00    1.351068e+00   2.065655e-02
  1.132859e+00    1.352684e+00   2.063509e-02
  1.135069e+00    1.334526e+00   2.046215e-02
  1.137280e+00    1.334174e+00   2.042708e-02
  1.139490e+00    1.358600e+00   2.058052e-02
  1.141701e+00    1.352988e+00   2.050523e-02
  1.143911e+00    1.351469e+00   2.046223e-02
  1.146122e+00    1.360794e+00   2.050092e-02
  1.148332e+00    1.351309e+00   2.039781e-02
  1.150543e+00    1.335592e+00   2.024847e-02
  1.152753e+00    1.348972e+00   2.031910e-02
  1.154963e+00    1.353424e+00   2.032178e-02
  1.157174e+00    1.373139e+00   2.043911e-02
  1.159384e+00    1.338502e+00   2.015021e-02
  1.161595e+00    1.329652e+00   2.005407e-02
  1.163805e+00    1.335035e+00   2.006572e-02
  1.166016e+00    1.356824e+00   2.019950e-02
  1.168226e+00    1.338536e+00   2.003425e-02
  1.170437e+00    1.321838e+00   1.988073e-02
  1.172647e+00    1.313629e+00   1.979056e-02
  1.174858e+00    1.350166e+00   2.003595e-02
  1.177068e+00    1.326364e+00   1.983069e-02
  1.179278e+00    1.339259e+00   1.989851e-02
  1.181489e+00    1.323100e+00   1.975146e-02
  1.183699e+00    1.331375e+00   1.978583e-02
  1.185910e+00    1.315279e+00   1.963854e-02
  1.188120e+00    1.339873e+00   1.979475e-02
  1.190331e+00    1.391951e+00   2.014865e-02
  1.192541e+00    1.410727e+00   2.025618e-02
  1.194752e+00    1.379580e+00   2.000400e-02
  1.196962e+00    1.336130e+00   1.966087e-02
  1.199173e+00    1.323267e+00   1.953977e-02
  1.201383e+00    1.321158e+00   1.949731e-02
  1.203593e+00    1.342915e+00   1.963244e-02
  1.205804e+00    1.332413e+00   1.952979e-02
  1.208014e+00    1.299938e+00   1.926397e-02
  1.210225e+00    1.315403e+00   1.935320e-02
  1.212435e+00    1.316645e+00   1.933787e-02
  1.214646e+00    1.312645e+00   1.928272e-02
  1.216856e+00    1.341384e+00   1.946727e-02
  1.219067e+00    1.334063e+00   1.938976e-02
  1.221277e+00    1.320429e+00   1.926568e-02
  1.223488e+00    1.318350e+00   1.922506e-02
  1.225698e+00    1.292335e+00   1.900811e-02
  1.227909e+00    1.289559e+00   1.895820e-02
  1.230119e+00    1.309097e+00   1.906990e-02
  1.232329e+00    1.314092e+00   1.907595e-02
  1.234540e+00    1.309199e+00   1.901056e-02
  1.236750e+00    1.346018e+00   1.924582e-02
  1.238961e+00    1.301709e+00   1.889992e-02
  1.241171e+00    1.314225e+00   1.896668e-02
  1.243382e+00    1.314205e+00   1.894336e-02
  1.245592e+00    1.319478e+00   1.895749e-02
  1.247803e+00    1.309337e+00   1.886122e-02
  1.250013e+00    1.268943e+00   1.854517e-02
  1.252224e+00    1.296099e+00   1.871974e-02
  1.254434e+00    1.337925e+00   1.899578e-02
  1.256644e+00    1.334384e+00   1.894754e-02
  1.258855e+00    1.358356e+00   1.909366e-02
  1.261065e+00    1.342549e+00   1.895893e-02
  1.263276e+00    1.329284e+00   1.884227e-02
  1.265486e+00    1.325452e+00   1.879242e-02
  1.267697e+00    1.306520e+00   1.863510e-02
  1.269907e+00    1.296799e+00   1.854337e-02
  1.272118e+00    1.319841e+00   1.868508e-02
  1.274328e+00    1.315072e+00   1.862885e-02
  1.276539e+00    1.316614e+00   1.861728e-02
  1.278749e+00    1.319241e+00   1.861379e-02
  1.280959e+00    1.338707e+00   1.872820e-02
  1.283170e+00    1.329343e+00   1.864032e-02
  1.285380e+00    1.346097e+00   1.873498e-02
  1.287591e+00    1.365305e+00   1.884603e-02
  1.289801e+00    1.349837e+00   1.871775e-02
  1.292012e+00    1.343416e+00   1.865613e-02
  1.294222e+00    1.321637e+00   1.848822e-02
  1.296433e+00    1.313740e+00   1.841750e-02
  1.298643e+00    1.314132e+00   1.840400e-02
  1.300854e+00    1.344951e+00   1.860218e-02
  1.303064e+00    1.320801e+00   1.841540e-02
  1.305274e+00    1.361020e+00   1.867213e-02
  1.307485e+00    1.365945e+00   1.868423e-02
  1.309695e+00    1.368351e+00   1.867827e-02
  1.311906e+00    1.407966e+00   1.892456e-02
  1.314116e+00    1.377991e+00   1.870104e-02
  1.316327e+00    1.381898e+00   1.870556e-02
  1.318537e+00    1.409631e+00   1.886997e-02
  1.320748e+00    1.418541e+00   1.890742e-02
  1.322958e+00    1.412647e+00   1.884711e-02
  1.325169e+00    1.420980e+00   1.888106e-02
  1.327379e+00    1.419027e+00   1.884571e-02
  1.329589e+00    1.389737e+00   1.862885e-02
  1.331800e+00    1.371020e+00   1.848209e-02
  1.334010e+00    1.394169e+00   1.861649e-02
  1.336221e+00    1.375756e+00   1.847119e-02
  1.338431e+00    1.366667e+00   1.838908e-02
  1.340642e+00    1.349631e+00   1.833826e-02
  1.342852e+00    1.345367e+00   1.840976e-02
  1.345063e+00    1.331364e+00   1.836286e-02
  1.347273e+00    1.335174e+00   1.842415e-02
  1.349484e+00    1.340198e+00   1.848637e-02
  1.351694e+00    1.330670e+00   1.844306e-02
  1.353905e+00    1.341314e+00   1.853464e-02
  1.356115e+00    1.316621e+00   1.837810e-02
  1.358325e+00    1.322555e+00   1.843263e-02
  1.360536e+00    1.319737e+00   1.842450e-02
  1.362746e+00    1.297938e+00   1.828106e-02
  1.364957e+00    1.298595e+00   1.829321e-02
  1.367167e+00    1.306125e+00   1.835321e-02
  1.369378e+00    1.304613e+00   1.834851e-02
  1.371588e+00    1.306399e+00   1.836614e-02
  1.373799e+00    1.307948e+00   1.838065e-02
  1.376009e+00    1.311895e+00   1.841170e-02
  1.378220e+00    1.303097e+00   1.835238e-02
  1.380430e+00    1.297650e+00   1.831665e-02
  1.382640e+00    1.288813e+00   1.825507e-02
  1.384851e+00    1.256014e+00   1.802215e-02
  1.387061e+00    1.249954e+00   1.797890e-02
  1.389272e+00    1.242993e+00   1.792898e-02
  1.391482e+00    1.240097e+00   1.790740e-02
  1.393693e+00    1.283613e+00   1.821801e-02
  1.395903e+00    1.272362e+00   1.813653e-02
  1.398114e+00    1.253519e+00   1.800035e-02
  1.400324e+00    1.251054e+00   1.798055e-02
  1.402535e+00    1.238905e+00   1.789075e-02
  1.404745e+00    1.267717e+00   1.809521e-02
  1.406955e+00    1.275225e+00   1.814605e-02
  1.409166e+00    1.253187e+00   1.798527e-02
  1.411376e+00    1.251426e+00   1.796954e-02
  1.413587e+00    1.237639e+00   1.786653e-02
  1.415797e+00    1.243215e+00   1.790321e-02
  1.418008e+00    1.256653e+00   1.795807e-02
  1.420218e+00    1.255128e+00   1.779831e-02
  1.422429e+00    1.234934e+00   1.757043e-02
  1.424639e+00    1.242290e+00   1.755869e-02
  1.426850e+00    1.234646e+00   1.745066e-02
  1.429060e+00    1.246259e+00   1.748400e-02
  1.431270e+00    1.276637e+00   1.765138e-02
  1.433481e+00    1.292554e+00   1.771978e-02
  1.435691e+00    1.272155e+00   1.754094e-02
  1.437902e+00    1.270511e+00   1.749312e-02
  1.440112e+00    1.270435e+00   1.745724e-02
  1.442323e+00    1.277892e+00   1.747526e-02
  1.444533e+00    1.255592e+00   1.728977e-02
  1.446744e+00    1.246543e+00   1.719647e-02
  1.448954e+00    1.265483e+00   1.729649e-02
  1.451165e+00    1.261661e+00   1.724071e-02
  1.453375e+00    1.258773e+00   1.719304e-02
  1.455586e+00    1.261204e+00   1.718157e-02
  1.457796e+00    1.240892e+00   1.701546e-02
  1.460006e+00    1.248794e+00   1.704251e-02
  1.462217e+00    1.239683e+00   1.695435e-02
  1.464427e+00    1.216758e+00   1.677177e-02
  1.466638e+00    1.226866e+00   1.681639e-02
  1.468848e+00    1.238407e+00   1.687026e-02
  1.471059e+00    1.252834e+00   1.694333e-02
  1.473269e+00    1.230486e+00   1.676754e-02
  1.475480e+00    1.230720e+00   1.674571e-02
  1.477690e+00    1.253829e+00   1.687850e-02
  1.479901e+00    1.247928e+00   1.681508e-02
  1.482111e+00    1.243082e+00   1.675931e-02
  1.484321e+00    1.237969e+00   1.670196e-02
  1.486532e+00    1.227947e+00   1.661222e-02
  1.488742e+00    1.224764e+00   1.656839e-02
  1.490953e+00    1.211511e+00   1.645638e-02
  1.493163e+00    1.248887e+00   1.668613e-02
  1.495374e+00    1.260807e+00   1.674411e-02
  1.497584e+00    1.248794e+00   1.664262e-02
  1.499795e+00    1.242210e+00   1.657719e-02
  1.502005e+00    1.231820e+00   1.648629e-02
  1.504216e+00    1.208120e+00   1.630630e-02
  1.506426e+00    1.237945e+00   1.648569e-02
  1.508636e+00    1.235758e+00   1.645088e-02
  1.510847e+00    1.225047e+00   1.635787e-02
  1.513057e+00    1.230848e+00   1.637172e-02
  1.515268e+00    1.245474e+00   1.644309e-02
  1.517478e+00    1.226363e+00   1.629157e-02
  1.519689e+00    1.227834e+00   1.627663e-02
  1.521899e+00    1.237802e+00   1.631962e-02
  1.524110e+00    1.249777e+00   1.637805e-02
  1.526320e+00    1.257959e+00   1.641195e-02
  1.528531e+00    1.253503e+00   1.636307e-02
  1.530741e+00    1.217870e+00   1.610994e-02
  1.532951e+00    1.222170e+00   1.611896e-02
  1.535162e+00    1.226226e+00   1.623149e-02
  1.537372e+00    1.220861e+00   1.626208e-02
  1.539583e+00    1.204868e+00   1.618886e-02
  1.541793e+00    1.196731e+00   1.614088e-02
  1.544004e+00    1.211372e+00   1.623958e-02
  1.546214e+00    1.216335e+00   1.627134e-02
  1.548425e+00    1.212835e+00   1.624816e-02
  1.550635e+00    1.224334e+00   1.633459e-02
  1.552846e+00    1.250453e+00   1.651759e-02
  1.555056e+00    1.224796e+00   1.630614e-02
  1.557266e+00    1.211069e+00   1.610552e-02
  1.559477e+00    1.221066e+00   1.611329e-02
  1.561687e+00    1.236135e+00   1.618186e-02
  1.563898e+00    1.218679e+00   1.605021e-02
  1.566108e+00    1.232165e+00   1.612289e-02
  1.568319e+00    1.216857e+00   1.600699e-02
  1.570529e+00    1.229863e+00   1.606730e-02
  1.572740e+00    1.217472e+00   1.595886e-02
  1.574950e+00    1.220663e+00   1.595370e-02
  1.577161e+00    1.219221e+00   1.591904e-02
  1.579371e+00    1.258298e+00   1.614834e-02
  1.581582e+00    1.260291e+00   1.614125e-02
  1.583792e+00    1.246956e+00   1.603759e-02
  1.586002e+00    1.207930e+00   1.576727e-02
  1.588213e+00    1.231639e+00   1.590409e-02
  1.590423e+00    1.225967e+00   1.584751e-02
  1.592634e+00    1.222270e+00   1.580216e-02
  1.594844e+00    1.237260e+00   1.587741e-02
  1.597055e+00    1.243571e+00   1.589736e-02
  1.599265e+00    1.258880e+00   1.597404e-02
  1.601476e+00    1.264885e+00   1.599160e-02
  1.603686e+00    1.310786e+00   1.625882e-02
  1.605897e+00    1.340648e+00   1.642205e-02
  1.608107e+00    1.305457e+00   1.618499e-02
  1.610317e+00    1.262608e+00   1.589764e-02
  1.612528e+00    1.259061e+00   1.585594e-02
  1.614738e+00    1.258430e+00   1.583280e-02
  1.616949e+00    1.281082e+00   1.595526e-02
  1.619159e+00    1.287765e+00   1.597764e-02
  1.621370e+00    1.252968e+00   1.574156e-02
  1.623580e+00    1.210674e+00   1.545532e-02
  1.625791e+00    1.193619e+00   1.532791e-02
  1.628001e+00    1.202035e+00   1.536358e-02
  1.630212e+00    1.214762e+00   1.542680e-02
  1.632422e+00    1.184712e+00   1.521692e-02
  1.634632e+00    1.173438e+00   1.512709e-02
  1.636843e+00    1.167811e+00   1.507331e-02
  1.639053e+00    1.160294e+00   1.500753e-02
  1.641264e+00    1.149470e+00   1.492041e-02
  1.643474e+00    1.155988e+00   1.494531e-02
  1.645685e+00    1.142253e+00   1.483971e-02
  1.647895e+00    1.149200e+00   1.486822e-02
  1.650106e+00    1.134655e+00   1.475695e-02
  1.652316e+00    1.137038e+00   1.475605e-02
  1.654527e+00    1.109880e+00   1.456232e-02
  1.656737e+00    1.127118e+00   1.465847e-02
  1.658947e+00    1.095002e+00   1.443213e-02
  1.661158e+00    1.080911e+00   1.432302e-02
  1.663368e+00    1.088142e+00   1.435507e-02
  1.665579e+00    1.089242e+00   1.434640e-02
  1.667789e+00    1.101391e+00   1.441005e-02
  1.670000e+00    1.097275e+00   1.436774e-02
  1.672210e+00    1.080923e+00   1.424460e-02
  1.674421e+00    1.065812e+00   1.412962e-02
  1.676631e+00    1.092527e+00   1.428979e-02
  1.678842e+00    1.089775e+00   1.425610e-02
  1.681052e+00    1.069354e+00   1.410668e-02
  1.683263e+00    1.064370e+00   1.405879e-02
  1.685473e+00    1.082581e+00   1.416344e-02
  1.687683e+00    1.070281e+00   1.406741e-02
  1.689894e+00    1.084864e+00   1.414712e-02
  1.692104e+00    1.048736e+00   1.389485e-02
  1.694315e+00    1.062200e+00   1.396930e-02
  1.696525e+00    1.056966e+00   1.391981e-02
  1.698736e+00    1.043883e+00   1.381869e-02
  1.700946e+00    1.058378e+00   1.389919e-02
  1.703157e+00    1.042187e+00   1.377792e-02
  1.705367e+00    1.040816e+00   1.375446e-02
  1.707578e+00    1.013201e+00   1.355644e-02
  1.709788e+00    1.009244e+00   1.351608e-02
  1.711998e+00    9.969382e-01   1.341873e-02
  1.714209e+00    1.023581e+00   1.358252e-02
  1.716419e+00    1.009014e+00   1.347145e-02
  1.718630e+00    1.005859e+00   1.343628e-02
  1.720840e+00    9.989682e-01   1.337619e-02
  1.723051e+00    9.679108e-01   1.315315e-02
  1.725261e+00    9.926375e-01   1.330561e-02
  1.727472e+00    1.004162e+00   1.336856e-02
  1.729682e+00    9.998062e-01   1.332618e-02
  1.731893e+00    9.840994e-01   1.320737e-02
  1.734103e+00    9.891317e-01   1.322745e-02
  1.736313e+00    9.648682e-01   1.305048e-02
  1.738524e+00    9.595273e-01   1.300078e-02
  1.740734e+00    9.716429e-01   1.306908e-02
  1.742945e+00    9.810371e-01   1.311877e-02
  1.745155e+00    9.856532e-01   1.313619e-02
  1.747366e+00    9.812517e-01   1.309307e-02
  1.749576e+00    9.721692e-01   1.301876e-02
  1.751787e+00    9.681102e-01   1.297831e-02
  1.753997e+00    9.532059e-01   1.286483e-02
  1.756208e+00    9.523724e-01   1.284615e-02
  1.758418e+00    9.397066e-01   1.274755e-02
  1.760628e+00    9.188621e-01   1.259239e-02
  1.762839e+00    9.056050e-01   1.248838e-02
  1.765049e+00    9.365827e-01   1.268724e-02
  1.767260e+00    9.361992e-01   1.267200e-02
  1.769470e+00    9.609262e-01   1.282523e-02
  1.771681e+00    9.651181e-01   1.283994e-02
  1.773891e+00    9.992049e-01   1.305133e-02
  1.776102e+00    9.962083e-01   1.301856e-02
  1.778312e+00    9.801908e-01   1.290051e-02
  1.780523e+00    9.392297e-01   1.261538e-02
  1.782733e+00    9.455026e-01   1.264467e-02
  1.784944e+00    9.672598e-01   1.277626e-02
  1.787154e+00    9.305713e-01   1.251909e-02
  1.789364e+00    9.464331e-01   1.261274e-02
  1.791575e+00    9.475074e-01   1.260722e-02
  1.793785e+00    9.436321e-01   1.256887e-02
  1.795996e+00    9.498718e-01   1.259765e-02
  1.798206e+00    9.248056e-01   1.241778e-02
  1.800417e+00    9.105899e-01   1.230928e-02
  1.802627e+00    9.501387e-01   1.256161e-02
  1.804838e+00    9.359937e-01   1.245548e-02
  1.807048e+00    9.002841e-01   1.220281e-02
  1.809259e+00    8.935097e-01   1.214330e-02
  1.811469e+00    8.948748e-01   1.213769e-02
  1.813679e+00    8.767977e-01   1.199971e-02
  1.815890e+00    8.858946e-01   1.204715e-02
  1.818100e+00    8.503069e-01   1.178800e-02
  1.820311e+00    8.286202e-01   1.162247e-02
  1.822521e+00    8.566527e-01   1.180284e-02
  1.824732e+00    8.824108e-01   1.196425e-02
  1.826942e+00    8.707724e-01   1.187286e-02
  1.829153e+00    8.657356e-01   1.182692e-02
  1.831363e+00    8.762729e-01   1.188667e-02
  1.833574e+00    8.705605e-01   1.183628e-02
  1.835784e+00    8.617166e-01   1.176470e-02
  1.837994e+00    8.508265e-01   1.167858e-02
  1.840205e+00    8.437672e-01   1.161905e-02
  1.842415e+00    8.181201e-01   1.142972e-02
  1.844626e+00    8.388983e-01   1.156260e-02
  1.846836e+00    8.397295e-01   1.155708e-02
  1.849047e+00    8.469566e-01   1.159523e-02
  1.851257e+00    8.600810e-01   1.167517e-02
  1.853468e+00    8.493391e-01   1.159331e-02
  1.855678e+00    8.519622e-01   1.160236e-02
  1.857889e+00    8.299187e-01   1.144291e-02
  1.860099e+00    8.463525e-01   1.154708e-02
  1.862309e+00    8.295838e-01   1.142374e-02
  1.864520e+00    8.264047e-01   1.139341e-02
  1.866730e+00    8.215920e-01   1.135097e-02
  1.868941e+00    8.351429e-01   1.143337e-02
  1.871151e+00    8.217133e-01   1.132989e-02
  1.873362e+00    8.032959e-01   1.119116e-02
  1.875572e+00    8.324238e-01   1.138143e-02
  1.877783e+00    8.512210e-01   1.149775e-02
  1.879993e+00    8.412898e-01   1.141939e-02
  1.882204e+00    8.282362e-01   1.131965e-02
  1.884414e+00    8.332907e-01   1.134313e-02
  1.886624e+00    8.115876e-01   1.118360e-02
  1.888835e+00    8.338315e-01   1.132488e-02
  1.891045e+00    8.266926e-01   1.126551e-02
  1.893256e+00    8.214371e-01   1.121867e-02
  1.895466e+00    8.164472e-01   1.117351e-02
  1.897677e+00    8.188088e-01   1.117884e-02
  1.899887e+00    8.386998e-01   1.130280e-02
  1.902098e+00    8.287061e-01   1.122444e-02
  1.904308e+00    8.423815e-01   1.130600e-02
  1.906519e+00    8.641277e-01   1.143995e-02
  1.908729e+00    8.699972e-01   1.146789e-02
  1.910940e+00    8.394293e-01   1.125341e-02
  1.913150e+00    8.277072e-01   1.116396e-02
  1.915360e+00    8.273146e-01   1.115067e-02
  1.917571e+00    8.111758e-01   1.103059e-02
  1.919781e+00    8.001268e-01   1.094465e-02
  1.921992e+00    7.974474e-01   1.091584e-02
  1.924202e+00    7.924847e-01   1.087122e-02
  1.926413e+00    7.868800e-01   1.082259e-02
  1.928623e+00    7.954084e-01   1.087067e-02
  1.930834e+00    7.959613e-01   1.086413e-02
  1.933044e+00    7.954043e-01   1.084976e-02
  1.935255e+00    7.877348e-01   1.078715e-02
  1.937465e+00    7.854868e-01   1.076149e-02
  1.939675e+00    7.889751e-01   1.077462e-02
  1.941886e+00    8.022633e-01   1.085473e-02
  1.944096e+00    7.908478e-01   1.076713e-02
  1.946307e+00    7.710969e-01   1.062168e-02
  1.948517e+00    7.661752e-01   1.057750e-02
  1.950728e+00    7.802712e-01   1.066424e-02
  1.952938e+00    7.869217e-01   1.069957e-02
  1.955149e+00    7.762960e-01   1.061697e-02
  1.957359e+00    7.876345e-01   1.068425e-02
  1.959570e+00    7.833768e-01   1.064453e-02
  1.961780e+00    7.774549e-01   1.059442e-02
  1.963990e+00    7.862074e-01   1.064378e-02
  1.966201e+00    8.090852e-01   1.078738e-02
  1.968411e+00    7.937592e-01   1.067453e-02
  1.970622e+00    7.875157e-01   1.062239e-02
  1.972832e+00    7.817408e-01   1.057342e-02
  1.975043e+00    7.848204e-01   1.058420e-02
  1.977253e+00    7.729614e-01   1.049406e-02
  1.979464e+00    7.770277e-01   1.051163e-02
  1.981674e+00    7.780683e-01   1.050842e-02
  1.983885e+00    7.991640e-01   1.063980e-02
  1.986095e+00    7.930906e-01   1.058953e-02
  1.988305e+00    7.836123e-01   1.051613e-02
  1.990516e+00    7.800589e-01   1.048233e-02
  1.992726e+00    7.725080e-01   1.042183e-02
  1.994937e+00    7.697868e-01   1.039338e-02
  1.997147e+00    7.754458e-01   1.042178e-02
  1.999358e+00    7.812036e-01   1.045051e-02
  2.001568e+00    7.652538e-01   1.033253e-02
  2.003779e+00    7.570406e-01   1.026513e-02
  2.005989e+00    7.556478e-01   1.024378e-02
  2.008200e+00    7.608821e-01   1.026776e-02
  2.010410e+00    7.621127e-01   1.026436e-02
  2.012621e+00    7.584565e-01   1.022808e-02
  2.014831e+00    7.460065e-01   1.013247e-02
  2.017041e+00    7.663189e-01   1.025912e-02
  2.019252e+00    7.525855e-01   1.015690e-02
  2.021462e+00    7.584360e-01   1.018683e-02
  2.023673e+00    7.642561e-01   1.021646e-02
  2.025883e+00    7.480411e-01   1.009807e-02
  2.028094e+00    7.617472e-01   1.018052e-02
  2.030304e+00    7.541293e-01   1.012001e-02
  2.032515e+00    7.527823e-01   1.010170e-02
  2.034725e+00    7.548836e-01   1.010640e-02
  2.036936e+00    7.482269e-01   1.005245e-02
  2.039146e+00    7.561423e-01   1.009591e-02
  2.041356e+00    7.591841e-01   1.010654e-02
  2.043567e+00    7.731864e-01   1.018990e-02
  2.045777e+00    7.795139e-01   1.022212e-02
  2.047988e+00    7.525723e-01   1.003458e-02
  2.050198e+00    7.483258e-01   9.997811e-03
  2.052409e+00    7.440687e-01   9.961721e-03
  2.054619e+00    7.591439e-01   1.005471e-02
  2.056830e+00    7.554443e-01   1.002300e-02
  2.059040e+00    7.536923e-01   1.000384e-02
  2.061251e+00    7.521629e-01   9.986424e-03
  2.063461e+00    7.615510e-01   1.004089e-02
  2.065671e+00    7.513540e-01   9.964720e-03
  2.067882e+00    7.353051e-01   9.848798e-03
  2.070092e+00    7.156888e-01   9.707539e-03
  2.072303e+00    7.414249e-01   9.871410e-03
  2.074513e+00    7.379309e-01   9.838880e-03
  2.076724e+00    7.404745e-01   9.846360e-03
  2.078934e+00    7.399014e-01   9.833582e-03
  2.081145e+00    7.259256e-01   9.731282e-03
  2.083355e+00    7.332396e-01   9.771065e-03
  2.085566e+00    7.437067e-01   9.831625e-03
  2.087776e+00    7.395534e-01   9.794649e-03
  2.089986e+00    7.257256e-01   9.693921e-03
  2.092197e+00    7.347777e-01   9.745254e-03
  2.094407e+00    7.135886e-01   9.594643e-03
  2.096618e+00    7.100795e-01   9.562256e-03
  2.098828e+00    7.216015e-01   9.630305e-03
  2.101039e+00    7.259699e-01   9.650478e-03
  2.103249e+00    7.144951e-01   9.565329e-03
  2.105460e+00    7.186146e-01   9.583929e-03
  2.107670e+00    7.198220e-01   9.583282e-03
  2.109881e+00    7.115184e-01   9.518796e-03
  2.112091e+00    7.199734e-01   9.566222e-03
  2.114301e+00    7.252551e-01   9.592471e-03
  2.116512e+00    7.146236e-01   9.513161e-03
  2.118722e+00    7.006961e-01   9.411306e-03
  2.120933e+00    7.295286e-01   9.594058e-03
  2.123143e+00    7.252520e-01   9.556957e-03
  2.125354e+00    7.091077e-01   9.441522e-03
  2.127564e+00    6.996209e-01   9.369510e-03
  2.129775e+00    7.024438e-01   9.379751e-03
  2.131985e+00    7.004777e-01   9.357654e-03
  2.134196e+00    6.894509e-01   9.275255e-03
  2.136406e+00    6.988657e-01   9.329705e-03
  2.138617e+00    6.923783e-01   9.277959e-03
  2.140827e+00    7.037688e-01   9.369954e-03
  2.143037e+00    7.056257e-01   9.427764e-03
  2.145248e+00    6.876799e-01   9.328808e-03
  2.147458e+00    6.980055e-01   9.413647e-03
  2.149669e+00    6.859180e-01   9.343502e-03
  2.151879e+00    6.787866e-01   9.303870e-03
  2.154090e+00    6.717585e-01   9.262728e-03
  2.156300e+00    7.061419e-01   9.503445e-03
  2.158511e+00    7.046727e-01   9.498903e-03
  2.160721e+00    6.861852e-01   9.378235e-03
  2.162932e+00    6.737934e-01   9.296847e-03
  2.165142e+00    6.817869e-01   9.354809e-03
  2.167352e+00    6.829772e-01   9.365844e-03
  2.169563e+00    6.984532e-01   9.473350e-03
  2.171773e+00    6.746926e-01   9.313219e-03
  2.173984e+00    6.826761e-01   9.369555e-03
  2.176194e+00    6.758705e-01   9.323931e-03
  2.178405e+00    6.817118e-01   9.364819e-03
  2.180615e+00    6.720161e-01   9.298660e-03
  2.182826e+00    6.690564e-01   9.278834e-03
  2.185036e+00    6.813374e-01   9.363646e-03
  2.187247e+00    6.740137e-01   9.313148e-03
  2.189457e+00    6.640196e-01   9.243437e-03
  2.191667e+00    6.638629e-01   9.242167e-03
  2.193878e+00    6.855240e-01   9.391172e-03
  2.196088e+00    6.702492e-01   9.285296e-03
  2.198299e+00    6.767367e-01   9.329020e-03
  2.200509e+00    6.706993e-01   9.286287e-03
  2.202720e+00    6.652475e-01   9.247317e-03
  2.204930e+00    6.909893e-01   9.423274e-03
  2.207141e+00    6.833830e-01   9.370178e-03
  2.209351e+00    6.770443e-01   9.324710e-03
  2.211562e+00    6.709197e-01   9.280863e-03
  2.213772e+00    6.639824e-01   9.177771e-03
  2.215982e+00    6.691934e-01   9.169740e-03
  2.218193e+00    6.682101e-01   9.133522e-03
  2.220403e+00    6.659212e-01   9.093464e-03
  2.222614e+00    6.577179e-01   9.016567e-03
  2.224824e+00    6.642489e-01   9.041969e-03
  2.227035e+00    6.741614e-01   9.091727e-03
  2.229245e+00    6.735494e-01   9.070622e-03
  2.231456e+00    6.482570e-01   8.883335e-03
  2.233666e+00    6.583047e-01   8.936955e-03
  2.235877e+00    6.700178e-01   9.001855e-03
  2.238087e+00    6.606262e-01   8.925165e-03
  2.240298e+00    6.506836e-01   8.844168e-03
  2.242508e+00    6.657668e-01   8.930979e-03
  2.244718e+00    6.572117e-01   8.857756e-03
  2.246929e+00    6.541729e-01   8.822980e-03
  2.249139e+00    6.535410e-01   8.806471e-03
  2.251350e+00    6.400892e-01   8.703898e-03
  2.253560e+00    6.450562e-01   8.726220e-03
  2.255771e+00    6.606805e-01   8.819909e-03
  2.257981e+00    6.353814e-01   8.638473e-03
  2.260192e+00    6.363659e-01   8.634275e-03
  2.262402e+00    6.423274e-01   8.663959e-03
  2.264613e+00    6.575391e-01   8.755158e-03
  2.266823e+00    6.472957e-01   8.676440e-03
  2.269033e+00    6.392533e-01   8.612159e-03
  2.271244e+00    6.447190e-01   8.638657e-03
  2.273454e+00    6.499476e-01   8.663442e-03
  2.275665e+00    6.532226e-01   8.675014e-03
  2.277875e+00    6.579265e-01   8.696282e-03
  2.280086e+00    6.582416e-01   8.688350e-03
  2.282296e+00    6.433737e-01   8.580363e-03
  2.284507e+00    6.451463e-01   8.582147e-03
  2.286717e+00    6.472881e-01   8.586997e-03
  2.288928e+00    6.489826e-01   8.588430e-03
  2.291138e+00    6.571909e-01   8.633125e-03
  2.293348e+00    6.574417e-01   8.625253e-03
  2.295559e+00    6.363324e-01   8.476445e-03
  2.297769e+00    6.395985e-01   8.489061e-03
  2.299980e+00    6.257567e-01   8.387547e-03
  2.302190e+00    6.231261e-01   8.360984e-03
  2.304401e+00    6.341729e-01   8.425578e-03
  2.306611e+00    6.210703e-01   8.329118e-03
  2.308822e+00    6.319065e-01   8.393189e-03
  2.311032e+00    6.377016e-01   8.425204e-03
  2.313243e+00    6.345086e-01   8.397901e-03
  2.315453e+00    6.217592e-01   8.305676e-03
  2.317663e+00    6.496862e-01   8.481006e-03
  2.319874e+00    6.341151e-01   8.370147e-03
  2.322084e+00    6.196195e-01   8.265117e-03
  2.324295e+00    6.387276e-01   8.383415e-03
  2.326505e+00    6.308463e-01   8.322573e-03
  2.328716e+00    6.371255e-01   8.355384e-03
  2.330926e+00    6.313175e-01   8.308508e-03
  2.333137e+00    6.199771e-01   8.225305e-03
  2.335347e+00    6.265212e-01   8.259832e-03
  2.337558e+00    6.470057e-01   8.385506e-03
  2.339768e+00    6.327141e-01   8.283860e-03
  2.341979e+00    6.255106e-01   8.228287e-03
  2.344189e+00    6.274609e-01   8.232777e-03
  2.346399e+00    6.174440e-01   8.158434e-03
  2.348610e+00    6.277597e-01   8.217883e-03
  2.350820e+00    6.194971e-01   8.155550e-03
  2.353031e+00    6.357417e-01   8.253486e-03
  2.355241e+00    6.301405e-01   8.209017e-03
  2.357452e+00    6.280433e-01   8.186964e-03
  2.359662e+00    6.222143e-01   8.140703e-03
  2.361873e+00    6.279544e-01   8.169964e-03
  2.364083e+00    6.140276e-01   8.070961e-03
  2.366294e+00    6.354084e-01   8.202117e-03
  2.368504e+00    6.299372e-01   8.158641e-03
  2.370714e+00    6.175820e-01   8.070227e-03
  2.372925e+00    6.085349e-01   8.002957e-03
  2.375135e+00    6.031256e-01   7.959381e-03
  2.377346e+00    6.036904e-01   7.955297e-03
  2.379556e+00    6.107019e-01   7.993521e-03
  2.381767e+00    6.183138e-01   8.035363e-03
  2.383977e+00    5.964465e-01   7.884216e-03
  2.386188e+00    6.068875e-01   7.945081e-03
  2.388398e+00    6.013160e-01   7.900686e-03
  2.390609e+00    5.995368e-01   7.881383e-03
  2.392819e+00    5.970261e-01   7.857193e-03
  2.395029e+00    6.014644e-01   7.878784e-03
  2.397240e+00    6.009561e-01   7.867674e-03
  2.399450e+00    6.056920e-01   7.890844e-03
  2.401661e+00    5.983071e-01   7.835020e-03
  2.403871e+00    6.012219e-01   7.846372e-03
  2.406082e+00    6.008366e-01   7.836482e-03
  2.408292e+00    5.842623e-01   7.720023e-03
  2.410503e+00    5.839860e-01   7.710842e-03
  2.412713e+00    5.902858e-01   7.744636e-03
  2.414924e+00    5.900510e-01   7.735723e-03
  2.417134e+00    5.795136e-01   7.658853e-03
  2.419344e+00    5.784072e-01   7.644286e-03
  2.421555e+00    5.806699e-01   7.651844e-03
  2.423765e+00    5.835194e-01   7.663304e-03
  2.425976e+00    5.775970e-01   7.616649e-03
  2.428186e+00    5.801023e-01   7.626049e-03
  2.430397e+00    5.744585e-01   7.581518e-03
  2.432607e+00    5.873180e-01   7.658681e-03
  2.434818e+00    5.870098e-01   7.649189e-03
  2.437028e+00    5.810308e-01   7.603068e-03
  2.439239e+00    5.824654e-01   7.604859e-03
  2.441449e+00    5.783497e-01   7.570835e-03
  2.443659e+00    5.630397e-01   7.462792e-03
  2.445870e+00    5.559452e-01   7.427505e-03
  2.448080e+00    5.550404e-01   7.455413e-03
  2.450291e+00    5.630574e-01   7.525464e-03
  2.452501e+00    5.774294e-01   7.632092e-03
  2.454712e+00    5.614691e-01   7.534210e-03
  2.456922e+00    5.590619e-01   7.524601e-03
  2.459133e+00    5.490496e-01   7.462260e-03
  2.461343e+00    5.425336e-01   7.422095e-03
  2.463554e+00    5.559441e-01   7.516705e-03
  2.465764e+00    5.460619e-01   7.452712e-03
  2.467975e+00    5.354772e-01   7.382340e-03
  2.470185e+00    5.475280e-01   7.467180e-03
  2.472395e+00    5.471764e-01   7.466007e-03
  2.474606e+00    5.319644e-01   7.363020e-03
  2.476816e+00    5.488183e-01   7.479477e-03
  2.479027e+00    5.325574e-01   7.368693e-03
  2.481237e+00    5.361481e-01   7.393746e-03
  2.483448e+00    5.141854e-01   7.241041e-03
  2.485658e+00    5.244552e-01   7.312831e-03
  2.487869e+00    5.198179e-01   7.280475e-03
  2.490079e+00    5.238931e-01   7.308443e-03
  2.492290e+00    5.305798e-01   7.354504e-03
  2.494500e+00    5.251212e-01   7.315867e-03
  2.496710e+00    5.291565e-01   7.343218e-03
  2.498921e+00    5.256029e-01   7.317545e-03
  2.501131e+00    5.178490e-01   7.262432e-03
  2.503342e+00    5.107434e-01   7.211194e-03
  2.505552e+00    5.142691e-01   7.234929e-03
  2.507763e+00    5.243671e-01   7.304200e-03
  2.509973e+00    5.169806e-01   7.251197e-03
  2.512184e+00    5.246674e-01   7.303302e-03
  2.514394e+00    5.144401e-01   7.222527e-03
  2.516605e+00    5.143262e-01   7.175196e-03
  2.518815e+00    5.129458e-01   7.137598e-03
  2.521025e+00    5.244358e-01   7.196146e-03
  2.523236e+00    5.179780e-01   7.133857e-03
  2.525446e+00    5.239903e-01   7.159557e-03
  2.527657e+00    5.288488e-01   7.178019e-03
  2.529867e+00    5.252514e-01   7.139387e-03
  2.532078e+00    5.267171e-01   7.134268e-03
  2.534288e+00    5.284517e-01   7.132073e-03
  2.536499e+00    5.271898e-01   7.111594e-03
  2.538709e+00    5.267589e-01   7.097663e-03
  2.540920e+00    5.221964e-01   7.056224e-03
  2.543130e+00    5.336339e-01   7.122634e-03
  2.545340e+00    5.167537e-01   6.999078e-03
  2.547551e+00    5.290847e-01   7.072079e-03
  2.549761e+00    5.223997e-01   7.017698e-03
  2.551972e+00    5.041023e-01   6.884503e-03
  2.554182e+00    5.102077e-01   6.916974e-03
  2.556393e+00    5.148705e-01   6.939477e-03
  2.558603e+00    5.166270e-01   6.942276e-03
  2.560814e+00    4.981319e-01   6.808340e-03
  2.563024e+00    5.107611e-01   6.885603e-03
  2.565235e+00    5.175493e-01   6.921725e-03
  2.567445e+00    5.035731e-01   6.818214e-03
  2.569656e+00    5.028167e-01   6.803481e-03
  2.571866e+00    5.083034e-01   6.831233e-03
  2.574076e+00    5.051947e-01   6.801140e-03
  2.576287e+00    5.060712e-01   6.798813e-03
  2.578497e+00    4.971400e-01   6.730836e-03
  2.580708e+00    5.090840e-01   6.803185e-03
  2.582918e+00    5.019136e-01   6.747439e-03
  2.585129e+00    4.945755e-01   6.690335e-03
  2.587339e+00    4.924755e-01   6.668596e-03
  2.589550e+00    4.901678e-01   6.645571e-03
  2.591760e+00    4.948291e-01   6.669487e-03
  2.593971e+00    5.036069e-01   6.720913e-03
  2.596181e+00    4.893065e-01   6.618733e-03
  2.598391e+00    4.956751e-01   6.656535e-03
  2.600602e+00    4.995904e-01   6.676931e-03
  2.602812e+00    4.894591e-01   6.601490e-03
  2.605023e+00    5.004483e-01   6.668076e-03
  2.607233e+00    5.049927e-01   6.691161e-03
  2.609444e+00    4.989526e-01   6.643862e-03
  2.611654e+00    5.054660e-01   6.679773e-03
  2.613865e+00    4.945620e-01   6.600388e-03
  2.616075e+00    4.877202e-01   6.547554e-03
  2.618286e+00    4.929326e-01   6.575541e-03
  2.620496e+00    4.961582e-01   6.590384e-03
  2.622706e+00    4.903039e-01   6.545732e-03
  2.624917e+00    4.989990e-01   6.597694e-03
  2.627127e+00    5.004719e-01   6.601713e-03
  2.629338e+00    4.817894e-01   6.471483e-03
  2.631548e+00    4.851336e-01   6.487820e-03
  2.633759e+00    4.905567e-01   6.516934e-03
  2.635969e+00    4.838469e-01   6.465646e-03
  2.638180e+00    4.929731e-01   6.519407e-03
  2.640390e+00    4.863857e-01   6.469209e-03
  2.642601e+00    4.842219e-01   6.448235e-03
  2.644811e+00    5.046942e-01   6.576033e-03
  2.647021e+00    4.971628e-01   6.520242e-03
  2.649232e+00    4.990446e-01   6.525865e-03
  2.651442e+00    4.994588e-01   6.522045e-03
  2.653653e+00    4.914537e-01   6.462858e-03
  2.655863e+00    4.888575e-01   6.439125e-03
  2.658074e+00    4.875053e-01   6.423658e-03
  2.660284e+00    5.040912e-01   6.525645e-03
  2.662495e+00    4.907553e-01   6.432021e-03
  2.664705e+00    5.162072e-01   6.590014e-03
  2.666916e+00    4.972115e-01   6.461176e-03
  2.669126e+00    4.862784e-01   6.383329e-03
  2.671337e+00    4.863349e-01   6.377190e-03
  2.673547e+00    4.925290e-01   6.411299e-03
  2.675757e+00    4.928022e-01   6.406643e-03
  2.677968e+00    4.904825e-01   6.385063e-03
  2.680178e+00    4.764658e-01   6.286862e-03
  2.682389e+00    4.901221e-01   6.369955e-03
  2.684599e+00    4.752741e-01   6.266658e-03
  2.686810e+00    4.787076e-01   6.282726e-03
  2.689020e+00    4.809602e-01   6.291259e-03
  2.691231e+00    4.939741e-01   6.369512e-03
  2.693441e+00    4.761836e-01   6.247714e-03
  2.695652e+00    4.766468e-01   6.244313e-03
  2.697862e+00    4.869415e-01   6.305060e-03
  2.700072e+00    4.882311e-01   6.307346e-03
  2.702283e+00    4.740185e-01   6.208744e-03
  2.704493e+00    4.653695e-01   6.145698e-03
  2.706704e+00    4.796176e-01   6.232716e-03
  2.708914e+00    4.864227e-01   6.270831e-03
  2.711125e+00    4.868641e-01   6.267427e-03
  2.713335e+00    4.929478e-01   6.300348e-03
  2.715546e+00    4.831563e-01   6.231031e-03
  2.717756e+00    4.755882e-01   6.176202e-03
  2.719967e+00    4.773148e-01   6.181268e-03
  2.722177e+00    4.725134e-01   6.144029e-03
  2.724387e+00    4.675706e-01   6.105848e-03
  2.726598e+00    4.712077e-01   6.123554e-03
  2.728808e+00    4.767793e-01   6.153571e-03
  2.731019e+00    4.751096e-01   6.136724e-03
  2.733229e+00    4.692563e-01   6.093083e-03
  2.735440e+00    4.699042e-01   6.091116e-03
  2.737650e+00    4.604321e-01   6.023535e-03
  2.739861e+00    4.679340e-01   6.066444e-03
  2.742071e+00    4.612576e-01   6.017396e-03
  2.744282e+00    4.743561e-01   6.096030e-03
  2.746492e+00    4.722813e-01   6.076735e-03
  2.748702e+00    4.832495e-01   6.140962e-03
  2.750913e+00    4.715170e-01   6.060243e-03
  2.753123e+00    4.802497e-01   6.109979e-03
  2.755334e+00    4.814802e-01   6.111750e-03
  2.757544e+00    4.689896e-01   6.026250e-03
  2.759755e+00    4.783015e-01   6.079928e-03
  2.761965e+00    4.737723e-01   6.045139e-03
  2.764176e+00    4.684585e-01   6.005220e-03
  2.766386e+00    4.611351e-01   5.952416e-03
  2.768597e+00    4.800068e-01   6.067125e-03
  2.770807e+00    4.734881e-01   6.019960e-03
  2.773017e+00    4.695865e-01   5.989192e-03
  2.775228e+00    4.623139e-01   5.936937e-03
  2.777438e+00    4.718841e-01   5.992314e-03
  2.779649e+00    4.644404e-01   5.939056e-03
  2.781859e+00    4.737023e-01   5.992232e-03
  2.784070e+00    4.789157e-01   6.019254e-03
  2.786280e+00    4.692643e-01   5.952582e-03
  2.788491e+00    4.763340e-01   5.991409e-03
  2.790701e+00    4.632458e-01   5.902972e-03
  2.792912e+00    4.566387e-01   5.854869e-03
  2.795122e+00    4.670233e-01   5.915397e-03
  2.797333e+00    4.555626e-01   5.836918e-03
  2.799543e+00    4.673445e-01   5.906105e-03
  2.801753e+00    4.639104e-01   5.878583e-03
  2.803964e+00    4.625407e-01   5.864310e-03
  2.806174e+00    4.738991e-01   5.929735e-03
  2.808385e+00    4.653122e-01   5.869054e-03
  2.810595e+00    4.572557e-01   5.811275e-03
  2.812806e+00    4.568413e-01   5.802154e-03
  2.815016e+00    4.671811e-01   5.862739e-03
  2.817227e+00    4.567508e-01   5.822376e-03
  2.819437e+00    4.711510e-01   5.924482e-03
  2.821648e+00    4.747340e-01   5.949286e-03
  2.823858e+00    4.675013e-01   5.909074e-03
  2.826068e+00    4.612107e-01   5.874124e-03
  2.828279e+00    4.645633e-01   5.899419e-03
  2.830489e+00    4.645917e-01   5.902922e-03
  2.832700e+00    4.639481e-01   5.901360e-03
  2.834910e+00    4.702769e-01   5.943535e-03
  2.837121e+00    4.679967e-01   5.930825e-03
  2.839331e+00    4.708229e-01   5.949917e-03
  2.841542e+00    4.727544e-01   5.963139e-03
  2.843752e+00    4.685514e-01   5.937354e-03
  2.845963e+00    4.664918e-01   5.924695e-03
  2.848173e+00    4.525458e-01   5.835534e-03
  2.850383e+00    4.605937e-01   5.887486e-03
  2.852594e+00    4.550520e-01   5.851889e-03
  2.854804e+00    4.597182e-01   5.881305e-03
  2.857015e+00    4.753528e-01   5.980047e-03
  2.859225e+00    4.679602e-01   5.933118e-03
  2.861436e+00    4.609242e-01   5.887691e-03
  2.863646e+00    4.547813e-01   5.848367e-03
  2.865857e+00    4.682967e-01   5.934968e-03
  2.868067e+00    4.580878e-01   5.870148e-03
  2.870278e+00    4.552984e-01   5.851888e-03
  2.872488e+00    4.691661e-01   5.939178e-03
  2.874698e+00    4.577546e-01   5.865477e-03
  2.876909e+00    4.541977e-01   5.841318e-03
  2.879119e+00    4.593055e-01   5.872453e-03
  2.881330e+00    4.488808e-01   5.803993e-03
  2.883540e+00    4.529776e-01   5.829027e-03
  2.885751e+00    4.517517e-01   5.819524e-03
  2.887961e+00    4.528227e-01   5.824535e-03
  2.890172e+00    4.538643e-01   5.829654e-03
  2.892382e+00    4.630418e-01   5.886470e-03
  2.894593e+00    4.713618e-01   5.937304e-03
  2.896803e+00    4.554489e-01   5.834260e-03
  2.899014e+00    4.575004e-01   5.845463e-03
  2.901224e+00    4.550157e-01   5.827597e-03
  2.903434e+00    4.570000e-01   5.838346e-03
  2.905645e+00    4.452773e-01   5.760791e-03
  2.907855e+00    4.509286e-01   5.795151e-03
  2.910066e+00    4.605971e-01   5.854864e-03
  2.912276e+00    4.529646e-01   5.804054e-03
  2.914487e+00    4.491198e-01   5.776933e-03
  2.916697e+00    4.431210e-01   5.736041e-03
  2.918908e+00    4.502597e-01   5.780062e-03
  2.921118e+00    4.588197e-01   5.832057e-03
  2.923329e+00    4.480397e-01   5.760851e-03
  2.925539e+00    4.575573e-01   5.819438e-03
  2.927749e+00    4.524003e-01   5.784233e-03
  2.929960e+00    4.601702e-01   5.830927e-03
  2.932170e+00    4.499683e-01   5.763610e-03
  2.934381e+00    4.533543e-01   5.782831e-03
  2.936591e+00    4.407448e-01   5.699308e-03
  2.938802e+00    4.431637e-01   5.712245e-03
  2.941012e+00    4.441459e-01   5.716267e-03
  2.943223e+00    4.489659e-01   5.744535e-03
  2.945433e+00    4.522263e-01   5.761626e-03
  2.947644e+00    4.548461e-01   5.774165e-03
  2.949854e+00    4.551133e-01   5.771582e-03
  2.952064e+00    4.551606e-01   5.767673e-03
  2.954275e+00    4.439881e-01   5.692090e-03
  2.956485e+00    4.357159e-01   5.634701e-03
  2.958696e+00    4.462816e-01   5.698292e-03
  2.960906e+00    4.390409e-01   5.647764e-03
  2.963117e+00    4.477153e-01   5.698826e-03
  2.965327e+00    4.444118e-01   5.673915e-03
  2.967538e+00    4.406191e-01   5.646783e-03
  2.969748e+00    4.427924e-01   5.657916e-03
  2.971959e+00    4.381162e-01   5.624860e-03
  2.974169e+00    4.534156e-01   5.719657e-03
  2.976379e+00    4.632238e-01   5.778252e-03
  2.978590e+00    4.469856e-01   5.672961e-03
  2.980800e+00    4.562388e-01   5.728574e-03
  2.983011e+00    4.449623e-01   5.654560e-03
  2.985221e+00    4.550914e-01   5.715399e-03
  2.987432e+00    4.629413e-01   5.761357e-03
  2.989642e+00    4.427985e-01   5.632016e-03
  2.991853e+00    4.479310e-01   5.661303e-03
  2.994063e+00    4.468145e-01   5.651364e-03
  2.996274e+00    4.480534e-01   5.656028e-03
  2.998484e+00    4.341321e-01   5.564835e-03
  3.000694e+00    4.432605e-01   5.619608e-03
  3.002905e+00    4.550342e-01   5.690807e-03
  3.005115e+00    4.526790e-01   5.673108e-03
  3.007326e+00    4.468232e-01   5.633141e-03
  3.009536e+00    4.538192e-01   5.673818e-03
  3.011747e+00    4.522405e-01   5.661034e-03
  3.013957e+00    4.397807e-01   5.579375e-03
  3.016168e+00    4.295832e-01   5.511133e-03
  3.018378e+00    4.449341e-01   5.605710e-03
  3.020589e+00    4.430830e-01   5.590855e-03
  3.022799e+00    4.638263e-01   5.717042e-03
  3.025010e+00    4.500288e-01   5.628137e-03
  3.027220e+00    4.547933e-01   5.654734e-03
  3.029430e+00    4.494349e-01   5.618084e-03
  3.031641e+00    4.500284e-01   5.618668e-03
  3.033851e+00    4.464836e-01   5.592991e-03
  3.036062e+00    4.478047e-01   5.598502e-03
  3.038272e+00    4.479593e-01   5.595888e-03
  3.040483e+00    4.501829e-01   5.606559e-03
  3.042693e+00    4.415194e-01   5.549114e-03
  3.044904e+00    4.532887e-01   5.618550e-03
  3.047114e+00    4.571267e-01   5.637445e-03
  3.049325e+00    4.586260e-01   5.642267e-03
  3.051535e+00    4.540851e-01   5.609848e-03
  3.053745e+00    4.445915e-01   5.546174e-03
  3.055956e+00    4.389976e-01   5.506652e-03
  3.058166e+00    4.456929e-01   5.544262e-03
  3.060377e+00    4.440210e-01   5.529104e-03
  3.062587e+00    4.484916e-01   5.552252e-03
  3.064798e+00    4.385567e-01   5.486219e-03
  3.067008e+00    4.453644e-01   5.523900e-03
  3.069219e+00    4.544728e-01   5.575606e-03
  3.071429e+00    4.287658e-01   5.412171e-03
  3.073640e+00    4.422880e-01   5.493545e-03
  3.075850e+00    4.250618e-01   5.382027e-03
  3.078060e+00    4.397239e-01   5.470967e-03
  3.080271e+00    4.557526e-01   5.566301e-03
  3.082481e+00    4.440981e-01   5.491248e-03
  3.084692e+00    4.336450e-01   5.422910e-03
  3.086902e+00    4.459265e-01   5.495925e-03
  3.089113e+00    4.462773e-01   5.494531e-03
  3.091323e+00    4.434852e-01   5.473952e-03
  3.093534e+00    4.508735e-01   5.515983e-03
  3.095744e+00    4.298464e-01   5.382529e-03
  3.097955e+00    4.192605e-01   5.312373e-03
  3.100165e+00    4.418314e-01   5.450196e-03
  3.102375e+00    4.416043e-01   5.445397e-03
  3.104586e+00    4.339437e-01   5.394533e-03
  3.106796e+00    4.259422e-01   5.341103e-03
  3.109007e+00    4.471593e-01   5.469296e-03
  3.111217e+00    4.389943e-01   5.415478e-03
  3.113428e+00    4.456213e-01   5.452785e-03
  3.115638e+00    4.414887e-01   5.424230e-03
  3.117849e+00    4.385653e-01   5.402534e-03
  3.120059e+00    4.430599e-01   5.426683e-03
  3.122270e+00    4.478110e-01   5.452450e-03
  3.124480e+00    4.397605e-01   5.399561e-03
  3.126691e+00    4.254173e-01   5.307258e-03
  3.128901e+00    4.408192e-01   5.399396e-03
  3.131111e+00    4.316107e-01   5.338915e-03
  3.133322e+00    4.329206e-01   5.343594e-03
  3.135532e+00    4.501863e-01   5.445690e-03
  3.137743e+00    4.503284e-01   5.443048e-03
  3.139953e+00    4.469092e-01   5.418653e-03
  3.142164e+00    4.449084e-01   5.418556e-03
  3.144374e+00    4.271595e-01   5.337282e-03
  3.146585e+00    4.362599e-01   5.408283e-03
  3.148795e+00    4.363678e-01   5.419684e-03
  3.151006e+00    4.215439e-01   5.335146e-03
  3.153216e+00    4.365483e-01   5.436376e-03
  3.155426e+00    4.309460e-01   5.407618e-03
  3.157637e+00    4.255789e-01   5.379277e-03
  3.159847e+00    4.222890e-01   5.363197e-03
  3.162058e+00    4.179490e-01   5.339907e-03
  3.164268e+00    4.237156e-01   5.380578e-03
  3.166479e+00    4.364961e-01   5.464785e-03
  3.168689e+00    4.258941e-01   5.401297e-03
  3.170900e+00    4.335386e-01   5.452732e-03
  3.173110e+00    4.427501e-01   5.513230e-03
  3.175321e+00    4.319679e-01   5.448174e-03
  3.177531e+00    4.223983e-01   5.390170e-03
  3.179741e+00    4.210897e-01   5.383836e-03
  3.181952e+00    4.372770e-01   5.488461e-03
  3.184162e+00    4.262051e-01   5.420697e-03
  3.186373e+00    4.345006e-01   5.474785e-03
  3.188583e+00    4.251613e-01   5.417390e-03
  3.190794e+00    4.215516e-01   5.396081e-03
  3.193004e+00    4.124911e-01   5.338974e-03
  3.195215e+00    4.274581e-01   5.436447e-03
  3.197425e+00    4.298713e-01   5.452992e-03
  3.199636e+00    4.240355e-01   5.415079e-03
  3.201846e+00    4.230520e-01   5.408220e-03
  3.204056e+00    4.235326e-01   5.412148e-03
  3.206267e+00    4.244733e-01   5.419005e-03
  3.208477e+00    4.200926e-01   5.391874e-03
  3.210688e+00    4.218650e-01   5.404069e-03
  3.212898e+00    4.335683e-01   5.479092e-03
  3.215109e+00    4.193930e-01   5.389530e-03
  3.217319e+00    4.238298e-01   5.418586e-03
  3.219530e+00    4.168851e-01   5.374398e-03
  3.221740e+00    4.268568e-01   5.438842e-03
  3.223951e+00    4.157631e-01   5.368190e-03
  3.226161e+00    4.090467e-01   5.324799e-03
  3.228372e+00    4.298948e-01   5.459358e-03
  3.230582e+00    4.201865e-01   5.397505e-03
  3.232792e+00    4.285765e-01   5.451345e-03
  3.235003e+00    4.268799e-01   5.440786e-03
  3.237213e+00    4.213677e-01   5.405653e-03
  3.239424e+00    4.168711e-01   5.376727e-03
  3.241634e+00    4.275339e-01   5.445177e-03
  3.243845e+00    4.210412e-01   5.403753e-03
  3.246055e+00    4.051699e-01   5.300658e-03
  3.248266e+00    4.219589e-01   5.409561e-03
  3.250476e+00    4.134145e-01   5.354205e-03
  3.252687e+00    4.091286e-01   5.326317e-03
  3.254897e+00    4.276179e-01   5.445196e-03
  3.257107e+00    4.199939e-01   5.396155e-03
  3.259318e+00    4.151589e-01   5.364752e-03
  3.261528e+00    4.224628e-01   5.411623e-03
  3.263739e+00    4.200621e-01   5.395643e-03
  3.265949e+00    4.166383e-01   5.373512e-03
  3.268160e+00    4.070238e-01   5.310721e-03
  3.270370e+00    4.223754e-01   5.409444e-03
  3.272581e+00    4.198282e-01   5.392835e-03
  3.274791e+00    4.160168e-01   5.367789e-03
  3.277002e+00    4.155033e-01   5.363900e-03
  3.279212e+00    4.070890e-01   5.308950e-03
  3.281422e+00    4.212812e-01   5.400113e-03
  3.283633e+00    4.186473e-01   5.382538e-03
  3.285843e+00    4.075741e-01   5.310563e-03
  3.288054e+00    4.139045e-01   5.350684e-03
  3.290264e+00    4.235532e-01   5.412389e-03
  3.292475e+00    4.209093e-01   5.394653e-03
  3.294685e+00    4.276424e-01   5.436985e-03
  3.296896e+00    4.152503e-01   5.356879e-03
  3.299106e+00    4.074155e-01   5.305576e-03
  3.301317e+00    4.042653e-01   5.283983e-03
  3.303527e+00    4.204082e-01   5.388020e-03
  3.305737e+00    3.992146e-01   5.249418e-03
  3.307948e+00    4.126398e-01   5.336295e-03
  3.310158e+00    4.118852e-01   5.330585e-03
  3.312369e+00    4.041719e-01   5.279578e-03
  3.314579e+00    3.984016e-01   5.240843e-03
  3.316790e+00    4.143470e-01   5.344018e-03
  3.319000e+00    4.138647e-01   5.339722e-03
  3.321211e+00    4.210771e-01   5.385442e-03
  3.323421e+00    4.236473e-01   5.400652e-03
  3.325632e+00    4.117835e-01   5.323619e-03
  3.327842e+00    4.323751e-01   5.454164e-03
  3.330052e+00    4.330604e-01   5.457417e-03
  3.332263e+00    4.133992e-01   5.331098e-03
  3.334473e+00    4.172172e-01   5.354743e-03
  3.336684e+00    4.064749e-01   5.284110e-03
  3.338894e+00    4.013656e-01   5.249978e-03
  3.341105e+00    4.056553e-01   5.276765e-03
  3.343315e+00    4.176101e-01   5.352803e-03
  3.345526e+00    4.228773e-01   5.385572e-03
  3.347736e+00    4.198453e-01   5.364826e-03
  3.349947e+00    4.065979e-01   5.278596e-03
  3.352157e+00    4.050554e-01   5.267403e-03
  3.354368e+00    4.144538e-01   5.326879e-03
  3.356578e+00    4.190723e-01   5.355472e-03
  3.358788e+00    4.149409e-01   5.327662e-03
  3.360999e+00    4.181509e-01   5.346997e-03
  3.363209e+00    4.045367e-01   5.258246e-03
  3.365420e+00    3.912423e-01   5.169644e-03
  3.367630e+00    4.084788e-01   5.281271e-03
  3.369841e+00    3.964982e-01   5.201887e-03
  3.372051e+00    4.161770e-01   5.327399e-03
  3.374262e+00    4.200257e-01   5.349551e-03
  3.376472e+00    4.147792e-01   5.313607e-03
  3.378683e+00    3.930404e-01   5.170040e-03
  3.380893e+00    3.974014e-01   5.196357e-03
  3.383103e+00    3.943929e-01   5.174000e-03
  3.385314e+00    4.095333e-01   5.270187e-03
  3.387524e+00    4.014524e-01   5.215247e-03
  3.389735e+00    3.923577e-01   5.153272e-03
  3.391945e+00    3.930984e-01   5.154531e-03
  3.394156e+00    3.992886e-01   5.190820e-03
  3.396366e+00    4.016949e-01   5.203051e-03
  3.398577e+00    4.182134e-01   5.305924e-03
  3.400787e+00    3.934104e-01   5.157818e-03
  3.402998e+00    4.015827e-01   5.248761e-03
  3.405208e+00    3.967626e-01   5.237633e-03
  3.407418e+00    3.913068e-01   5.217086e-03
  3.409629e+00    3.848837e-01   5.187759e-03
  3.411839e+00    3.875827e-01   5.217515e-03
  3.414050e+00    3.816966e-01   5.188541e-03
  3.416260e+00    3.842545e-01   5.215400e-03
  3.418471e+00    3.856630e-01   5.234270e-03
  3.420681e+00    3.835163e-01   5.228082e-03
  3.422892e+00    3.708786e-01   5.149040e-03
  3.425102e+00    3.758675e-01   5.191179e-03
  3.427313e+00    3.825855e-01   5.244554e-03
  3.429523e+00    3.740220e-01   5.192436e-03
  3.431733e+00    3.770137e-01   5.219747e-03
  3.433944e+00    3.740316e-01   5.205490e-03
  3.436154e+00    3.724590e-01   5.200652e-03
  3.438365e+00    3.721723e-01   5.204524e-03
  3.440575e+00    3.755928e-01   5.234281e-03
  3.442786e+00    3.723972e-01   5.217503e-03
  3.444996e+00    3.775497e-01   5.258993e-03
  3.447207e+00    3.530727e-01   5.090815e-03
  3.449417e+00    3.568515e-01   5.157967e-03
  3.451628e+00    3.424679e-01   5.081294e-03
  3.453838e+00    3.677657e-01   5.286804e-03
  3.456049e+00    3.595034e-01   5.250741e-03
  3.458259e+00    3.624456e-01   5.294012e-03
  3.460469e+00    3.370799e-01   5.124359e-03
  3.462680e+00    3.565918e-01   5.289389e-03
  3.464890e+00    3.627097e-01   5.352297e-03
  3.467101e+00    3.676386e-01   5.405995e-03
  3.469311e+00    3.740760e-01   5.469752e-03
  3.471522e+00    3.827814e-01   5.549622e-03
  3.473732e+00    3.770571e-01   5.523861e-03
  3.475943e+00    3.828421e-01   5.581791e-03
  3.478153e+00    3.889253e-01   5.641405e-03
  3.480364e+00    3.983354e-01   5.724515e-03
  3.482574e+00    4.039076e-01   5.779726e-03
  3.484784e+00    4.162927e-01   5.882666e-03
  3.486995e+00    4.153978e-01   5.891430e-03
  3.489205e+00    4.383723e-01   6.067068e-03
  3.491416e+00    4.267120e-01   6.000774e-03
  3.493626e+00    4.412202e-01   6.116593e-03
  3.495837e+00    4.433734e-01   6.146336e-03
  3.498047e+00    4.422654e-01   6.153085e-03
  3.500258e+00    4.622980e-01   6.305629e-03
  3.502468e+00    4.562618e-01   6.278813e-03
  3.504679e+00    4.661172e-01   6.360813e-03
  3.506889e+00    4.615977e-01   6.344290e-03
  3.509099e+00    4.530284e-01   6.299194e-03
  3.511310e+00    4.684497e-01   6.419865e-03
  3.513520e+00    4.677529e-01   6.429282e-03
  3.515731e+00    4.915498e-01   6.605241e-03
  3.517941e+00    4.987572e-01   6.668009e-03
  3.520152e+00    5.018857e-01   6.703301e-03
  3.522362e+00    5.062555e-01   6.746955e-03
  3.524573e+00    5.080446e-01   6.773215e-03
  3.526783e+00    5.052114e-01   6.767564e-03
  3.528994e+00    5.247404e-01   6.909429e-03
  3.531204e+00    5.258787e-01   6.929481e-03
  3.533414e+00    5.397021e-01   7.032193e-03
  3.535625e+00    5.239308e-01   6.941007e-03
  3.537835e+00    5.230491e-01   6.947160e-03
  3.540046e+00    5.163141e-01   6.911075e-03
  3.542256e+00    5.233995e-01   6.965735e-03
  3.544467e+00    5.294877e-01   7.013758e-03
  3.546677e+00    5.353617e-01   7.060106e-03
  3.548888e+00    5.146386e-01   6.929448e-03
  3.551098e+00    5.250945e-01   7.006715e-03
  3.553309e+00    5.306536e-01   7.051836e-03
  3.555519e+00    5.329412e-01   7.078281e-03
  3.557729e+00    5.191614e-01   6.997702e-03
  3.559940e+00    5.243796e-01   7.044197e-03
  3.562150e+00    5.242502e-01   7.054935e-03
  3.564361e+00    5.145478e-01   7.002376e-03
  3.566571e+00    5.457717e-01   7.225656e-03
  3.568782e+00    5.370756e-01   7.182000e-03
  3.570992e+00    5.439714e-01   7.241830e-03
  3.573203e+00    5.297259e-01   7.160421e-03
  3.575413e+00    5.380728e-01   7.230434e-03
  3.577624e+00    5.391365e-01   7.251714e-03
  3.579834e+00    5.386286e-01   7.262243e-03
  3.582045e+00    5.272756e-01   7.199199e-03
  3.584255e+00    5.333725e-01   7.254743e-03
  3.586465e+00    5.315487e-01   7.256181e-03
  3.588676e+00    5.336113e-01   7.284399e-03
  3.590886e+00    5.357861e-01   7.312969e-03
  3.593097e+00    5.167312e-01   7.195971e-03
  3.595307e+00    5.336295e-01   7.326578e-03
  3.597518e+00    5.202169e-01   7.247937e-03
  3.599728e+00    5.365460e-01   7.374912e-03
  3.601939e+00    5.261129e-01   7.316837e-03
  3.604149e+00    5.430648e-01   7.448234e-03
  3.606360e+00    5.320172e-01   7.386206e-03
  3.608570e+00    5.371403e-01   7.435883e-03
  3.610780e+00    5.287924e-01   7.388864e-03
  3.612991e+00    5.218956e-01   7.350387e-03
  3.615201e+00    5.301131e-01   7.417816e-03
  3.617412e+00    5.289266e-01   7.416716e-03
  3.619622e+00    5.232122e-01   7.382466e-03
  3.621833e+00    5.355123e-01   7.475404e-03
  3.624043e+00    5.463482e-01   7.560317e-03
  3.626254e+00    5.194816e-01   7.381648e-03
  3.628464e+00    5.272279e-01   7.447345e-03
  3.630675e+00    5.435034e-01   7.575697e-03
  3.632885e+00    5.330269e-01   7.516773e-03
  3.635095e+00    5.389934e-01   7.573183e-03
  3.637306e+00    5.298055e-01   7.522670e-03
  3.639516e+00    5.267431e-01   7.515347e-03
  3.641727e+00    5.283422e-01   7.541229e-03
  3.643937e+00    5.464303e-01   7.683978e-03
  3.646148e+00    5.325729e-01   7.600525e-03
  3.648358e+00    5.411955e-01   7.676780e-03
  3.650569e+00    5.235811e-01   7.565408e-03
  3.652779e+00    5.131118e-01   7.503902e-03
  3.654990e+00    5.096503e-01   7.493109e-03
  3.657200e+00    5.210502e-01   7.591158e-03
  3.659410e+00    5.291539e-01   7.664889e-03
  3.661621e+00    5.526857e-01   7.848876e-03
  3.663831e+00    5.257937e-01   7.670593e-03
  3.666042e+00    5.275149e-01   7.698257e-03
  3.668252e+00    5.047708e-01   7.545298e-03
  3.670463e+00    5.307456e-01   7.752210e-03
  3.672673e+00    5.406750e-01   7.839984e-03
  3.674884e+00    5.032305e-01   7.578623e-03
  3.677094e+00    5.283806e-01   7.781144e-03
  3.679305e+00    5.422732e-01   7.898550e-03
  3.681515e+00    5.234008e-01   7.775389e-03
  3.683726e+00    5.202152e-01   7.767344e-03
  3.685936e+00    5.265239e-01   7.829968e-03
  3.688146e+00    5.250974e-01   7.835117e-03
  3.690357e+00    5.150422e-01   7.775459e-03
  3.692567e+00    5.175073e-01   7.810030e-03
  3.694778e+00    5.232536e-01   7.869265e-03
  3.696988e+00    5.260018e-01   7.905862e-03
  3.699199e+00    5.245678e-01   7.911345e-03
  3.701409e+00    5.151110e-01   7.855942e-03
  3.703620e+00    5.104654e-01   7.836438e-03
  3.705830e+00    5.233310e-01   7.951041e-03
  3.708041e+00    5.155486e-01   7.908138e-03
  3.710251e+00    5.175922e-01   7.940416e-03
  3.712461e+00    5.076775e-01   7.880464e-03
  3.714672e+00    5.288987e-01   8.060373e-03
  3.716882e+00    4.965594e-01   7.826356e-03
  3.719093e+00    5.003651e-01   7.873081e-03
  3.721303e+00    5.150958e-01   8.005033e-03
  3.723514e+00    5.157286e-01   8.027148e-03
  3.725724e+00    4.957878e-01   7.887255e-03
  3.727935e+00    5.096865e-01   8.014286e-03
  3.730145e+00    5.059860e-01   8.002331e-03
  3.732356e+00    5.254272e-01   8.172307e-03
  3.734566e+00    4.868395e-01   7.883542e-03
  3.736776e+00    4.956947e-01   7.972335e-03
  3.738987e+00    5.151400e-01   8.144943e-03
  3.741197e+00    5.159343e-01   8.169291e-03
  3.743408e+00    5.147392e-01   8.177882e-03
  3.745618e+00    5.077046e-01   8.140069e-03
  3.747829e+00    4.973254e-01   8.074232e-03
  3.750039e+00    4.964538e-01   8.085283e-03
  3.752250e+00    4.917344e-01   8.064880e-03
  3.754460e+00    5.077477e-01   8.213606e-03
  3.756671e+00    5.026575e-01   8.191057e-03
  3.758881e+00    4.874136e-01   8.084091e-03
  3.761091e+00    4.915405e-01   8.137118e-03
  3.763302e+00    4.923624e-01   8.162674e-03
  3.765512e+00    4.901852e-01   8.163516e-03
  3.767723e+00    5.115157e-01   8.358668e-03
  3.769933e+00    5.031623e-01   8.309439e-03
  3.772144e+00    4.900884e-01   8.220005e-03
  3.774354e+00    4.954059e-01   8.284166e-03
  3.776565e+00    4.958003e-01   8.307110e-03
  3.778775e+00    4.852016e-01   8.237426e-03
  3.780986e+00    4.946674e-01   8.337459e-03
  3.783196e+00    5.255288e-01   8.614294e-03
  3.785407e+00    4.990686e-01   8.414996e-03
  3.787617e+00    5.132421e-01   8.554628e-03
  3.789827e+00    4.908083e-01   8.385883e-03
  3.792038e+00    4.766714e-01   8.284505e-03
  3.794248e+00    4.961211e-01   8.472880e-03
  3.796459e+00    4.827072e-01   8.378529e-03
  3.798669e+00    5.216758e-01   8.731953e-03
  3.800880e+00    5.052187e-01   8.614684e-03
  3.803090e+00    4.993974e-01   8.586733e-03
  3.805301e+00    5.122133e-01   8.718511e-03
  3.807511e+00    5.086977e-01   8.710799e-03
  3.809722e+00    4.890055e-01   8.562520e-03
  3.811932e+00    4.904006e-01   8.596725e-03
  3.814142e+00    4.803452e-01   8.530566e-03
  3.816353e+00    4.970841e-01   8.700714e-03
  3.818563e+00    4.811159e-01   8.582527e-03
  3.820774e+00    4.944631e-01   8.723812e-03
  3.822984e+00    4.901794e-01   8.709165e-03
  3.825195e+00    5.159270e-01   8.959092e-03
  3.827405e+00    4.900109e-01   8.754935e-03
  3.829616e+00    4.708473e-01   8.605400e-03
  3.831826e+00    4.674431e-01   8.597642e-03
  3.834037e+00    4.935248e-01   8.858725e-03
  3.836247e+00    4.618168e-01   8.593169e-03
  3.838457e+00    4.904940e-01   8.880821e-03
  3.840668e+00    4.951383e-01   8.947981e-03
  3.842878e+00    5.000708e-01   9.017996e-03
  3.845089e+00    4.985856e-01   9.030287e-03
  3.847299e+00    4.954346e-01   9.027534e-03
  3.849510e+00    4.790411e-01   8.902270e-03
  3.851720e+00    4.824434e-01   8.955037e-03
  3.853931e+00    4.948993e-01   9.088845e-03
  3.856141e+00    4.935518e-01   9.095505e-03
  3.858352e+00    5.038200e-01   9.209026e-03
  3.860562e+00    4.926791e-01   9.125956e-03
  3.862772e+00    4.934900e-01   9.153011e-03
  3.864983e+00    5.150972e-01   9.371306e-03
  3.867193e+00    4.772441e-01   9.039926e-03
  3.869404e+00    5.022097e-01   9.293292e-03
  3.871614e+00    4.659513e-01   8.970989e-03
  3.873825e+00    4.703653e-01   9.033185e-03
  3.876035e+00    4.778532e-01   9.125051e-03
  3.878246e+00    4.774348e-01   9.146434e-03
  3.880456e+00    4.662622e-01   9.067003e-03
  3.882667e+00    4.981588e-01   9.401470e-03
  3.884877e+00    5.136533e-01   9.576999e-03
  3.887087e+00    4.848885e-01   9.334753e-03
  3.889298e+00    4.863072e-01   9.378572e-03
  3.891508e+00    5.275046e-01   9.799351e-03
  3.893719e+00    5.059590e-01   9.628720e-03
  3.895929e+00    4.797978e-01   9.407488e-03
  3.898140e+00    4.935866e-01   9.573553e-03
  3.900350e+00    4.788862e-01   9.461643e-03
  3.902561e+00    4.629138e-01   9.333930e-03
  3.904771e+00    5.026519e-01   9.759561e-03
  3.906982e+00    5.137874e-01   9.901037e-03
  3.909192e+00    4.884695e-01   9.687545e-03
  3.911403e+00    4.912480e-01   9.749066e-03
  3.913613e+00    4.908375e-01   9.779381e-03
  3.915823e+00    4.971927e-01   9.877605e-03
  3.918034e+00    4.830016e-01   9.770628e-03
  3.920244e+00    4.940406e-01   9.917650e-03
  3.922455e+00    4.761791e-01   9.772391e-03
  3.924665e+00    4.832769e-01   9.881023e-03
  3.926876e+00    4.976678e-01   1.006471e-02
  3.929086e+00    4.771783e-01   9.892252e-03
  3.931297e+00    4.780476e-01   9.935706e-03
  3.933507e+00    4.744731e-01   9.927116e-03
  3.935718e+00    4.778537e-01   9.990803e-03
  3.937928e+00    4.800137e-01   1.004260e-02
  3.940138e+00    4.692047e-01   9.957712e-03
  3.942349e+00    4.723984e-01   1.002083e-02
  3.944559e+00    4.872958e-01   1.020776e-02
  3.946770e+00    4.865511e-01   1.023004e-02
  3.948980e+00    4.988485e-01   1.038967e-02
  3.951191e+00    4.610021e-01   1.001780e-02
  3.953401e+00    4.825463e-01   1.028040e-02
  3.955612e+00    4.782269e-01   1.026568e-02
  3.957822e+00    5.019426e-01   1.054933e-02
  3.960033e+00    4.781183e-01   1.032838e-02
  3.962243e+00    4.712562e-01   1.028625e-02
  3.964453e+00    4.646880e-01   1.024677e-02
  3.966664e+00    4.743114e-01   1.038525e-02
  3.968874e+00    5.109208e-01   1.080776e-02
  3.971085e+00    4.748698e-01   1.044118e-02
  3.973295e+00    4.773872e-01   1.049010e-02
  3.975506e+00    4.635647e-01   1.035830e-02
  3.977716e+00    4.551085e-01   1.028462e-02
  3.979927e+00    4.698237e-01   1.047126e-02
  3.982137e+00    4.688233e-01   1.048217e-02
  3.984348e+00    4.735604e-01   1.055714e-02
  3.986558e+00    4.581333e-01   1.040556e-02
  3.988768e+00    4.682475e-01   1.054227e-02
  3.990979e+00    4.652339e-01   1.053069e-02
  3.993189e+00    4.750157e-01   1.066357e-02
  3.995400e+00    4.843493e-01   1.079134e-02
  3.997610e+00    5.102217e-01   1.110641e-02
  3.999821e+00    4.767450e-01   1.077314e-02
  4.002031e+00    5.045660e-01   1.112212e-02
  4.004242e+00    4.942667e-01   1.104695e-02
  4.006452e+00    4.850225e-01   1.098254e-02
  4.008663e+00    4.951484e-01   1.113689e-02
  4.010873e+00    4.751056e-01   1.094893e-02
  4.013084e+00    4.503922e-01   1.069978e-02
  4.015294e+00    4.666520e-01   1.093130e-02
  4.017504e+00    4.870568e-01   1.120986e-02
  4.019715e+00    4.804485e-01   1.117580e-02
  4.021925e+00    4.751930e-01   1.115708e-02
  4.024136e+00    5.116108e-01   1.162170e-02
  4.026346e+00    4.736032e-01   1.122536e-02
  4.028557e+00    4.968320e-01   1.154215e-02
  4.030767e+00    4.793334e-01   1.138257e-02
  4.032978e+00    4.582216e-01   1.117418e-02
  4.035188e+00    4.806461e-01   1.149031e-02
  4.037399e+00    4.872009e-01   1.161607e-02
  4.039609e+00    5.054541e-01   1.188071e-02
  4.041819e+00    4.828425e-01   1.166048e-02
  4.044030e+00    4.978407e-01   1.189089e-02
  4.046240e+00    4.929427e-01   1.188264e-02
  4.048451e+00    5.069836e-01   1.210285e-02
  4.050661e+00    4.756100e-01   1.177344e-02
  4.052872e+00    5.035208e-01   1.216781e-02
  4.055082e+00    4.673352e-01   1.177526e-02
  4.057293e+00    4.532889e-01   1.164881e-02
  4.059503e+00    4.838756e-01   1.209025e-02
  4.061714e+00    4.823563e-01   1.212779e-02
  4.063924e+00    4.365065e-01   1.159099e-02
  4.066134e+00    4.763653e-01   1.216553e-02
  4.068345e+00    4.953774e-01   1.246591e-02
  4.070555e+00    4.618773e-01   1.209496e-02
  4.072766e+00    4.817487e-01   1.241329e-02
  4.074976e+00    4.549478e-01   1.212323e-02
  4.077187e+00    4.626833e-01   1.228657e-02
  4.079397e+00    4.783068e-01   1.255612e-02
  4.081608e+00    4.815255e-01   1.266368e-02
  4.083818e+00    5.189543e-01   1.321519e-02
  4.086029e+00    4.748729e-01   1.270810e-02
  4.088239e+00    4.914919e-01   1.299814e-02
  4.090449e+00    5.130603e-01   1.335235e-02
  4.092660e+00    4.825097e-01   1.302000e-02
  4.094870e+00    4.489202e-01   1.262839e-02
  4.097081e+00    4.557675e-01   1.279395e-02
  4.099291e+00    4.557925e-01   1.284739e-02
  4.101502e+00    4.828284e-01   1.327226e-02
  4.103712e+00    4.634469e-01   1.305151e-02
  4.105923e+00    4.877979e-01   1.344191e-02
  4.108133e+00    4.920188e-01   1.355190e-02
  4.110344e+00    5.029326e-01   1.375387e-02
  4.112554e+00    5.093035e-01   1.389536e-02
  4.114764e+00    5.065252e-01   1.391311e-02
  4.116975e+00    4.635552e-01   1.336243e-02
  4.119185e+00    4.660858e-01   1.345312e-02
  4.121396e+00    4.182483e-01   1.279673e-02
  4.123606e+00    4.736502e-01   1.367370e-02
  4.125817e+00    4.975253e-01   1.407284e-02
  4.128027e+00    5.074648e-01   1.427273e-02
  4.130238e+00    4.470070e-01   1.345295e-02
  4.132448e+00    4.767222e-01   1.395318e-02
  4.134659e+00    4.581589e-01   1.373758e-02
  4.136869e+00    5.059650e-01   1.450091e-02
  4.139080e+00    4.701842e-01   1.404206e-02
  4.141290e+00    5.241193e-01   1.489082e-02
  4.143500e+00    4.799773e-01   1.431600e-02
  4.145711e+00    4.867030e-01   1.448322e-02
  4.147921e+00    4.585021e-01   1.412189e-02
  4.150132e+00    4.252071e-01   1.366423e-02
  4.152342e+00    4.754557e-01   1.451913e-02
  4.154553e+00    4.582460e-01   1.432183e-02
  4.156763e+00    4.540000e-01   1.432571e-02
  4.158974e+00    4.795904e-01   1.479796e-02
  4.161184e+00    4.662215e-01   1.466277e-02
  4.163395e+00    4.816570e-01   1.497957e-02
  4.165605e+00    4.544990e-01   1.462676e-02
  4.167815e+00    4.134139e-01   1.402286e-02
  4.170026e+00    4.588214e-01   1.485059e-02
  4.172236e+00    5.103156e-01   1.574645e-02
  4.174447e+00    5.219641e-01   1.601195e-02
  4.176657e+00    4.257532e-01   1.454020e-02
  4.178868e+00    5.068204e-01   1.595389e-02
  4.181078e+00    4.585845e-01   1.526136e-02
  4.183289e+00    4.564759e-01   1.531298e-02
  4.185499e+00    5.052971e-01   1.620653e-02
  4.187710e+00    5.202925e-01   1.654145e-02
  4.189920e+00    4.795306e-01   1.597616e-02
  4.192130e+00    4.418816e-01   1.542958e-02
  4.194341e+00    4.801167e-01   1.618204e-02
  4.196551e+00    4.996867e-01   1.661294e-02
  4.198762e+00    5.098807e-01   1.688829e-02
  4.200972e+00    4.766299e-01   1.643402e-02
  4.203183e+00    4.177521e-01   1.548686e-02
  4.205393e+00    4.451817e-01   1.609358e-02
  4.207604e+00    5.099077e-01   1.734135e-02
  4.209814e+00    4.777325e-01   1.690045e-02
  4.212025e+00    4.801146e-01   1.706291e-02
  4.214235e+00    4.581906e-01   1.678641e-02
  4.216445e+00    5.588304e-01   1.867259e-02
  4.218656e+00    4.631112e-01   1.712636e-02
  4.220866e+00    4.518656e-01   1.704199e-02
  4.223077e+00    4.614449e-01   1.735431e-02
  4.225287e+00    4.255405e-01   1.679657e-02
  4.227498e+00    5.061553e-01   1.846180e-02
  4.229708e+00    4.994687e-01   1.848900e-02
  4.231919e+00    4.773822e-01   1.822529e-02
  4.234129e+00    5.078499e-01   1.895496e-02
  4.236340e+00    5.093383e-01   1.914567e-02
  4.238550e+00    4.344406e-01   1.783821e-02
  4.240761e+00    4.411165e-01   1.813314e-02
  4.242971e+00    4.351150e-01   1.817458e-02
  4.245181e+00    4.133551e-01   1.788061e-02
  4.247392e+00    4.358558e-01   1.853210e-02
  4.249602e+00    5.149553e-01   2.034428e-02
  4.251813e+00    5.588472e-01   2.140184e-02
  4.254023e+00    5.086682e-01   2.062498e-02
  4.256234e+00    4.881173e-01   2.041914e-02
  4.258444e+00    5.346768e-01   2.159489e-02
  4.260655e+00    4.775320e-01   2.063284e-02
  4.262865e+00    4.382480e-01   1.999003e-02
  4.265076e+00    4.490433e-01   2.046432e-02
  4.267286e+00    5.094097e-01   2.205570e-02
  4.269496e+00    4.083879e-01   1.998863e-02
  4.271707e+00    4.987892e-01   2.236352e-02
  4.273917e+00    4.581088e-01   2.170937e-02
  4.276128e+00    4.312293e-01   2.134246e-02
  4.278338e+00    5.155307e-01   2.364738e-02
  4.280549e+00    4.364163e-01   2.206907e-02
  4.282759e+00    4.953319e-01   2.384966e-02
  4.284970e+00    3.998878e-01   2.174675e-02
  4.287180e+00    4.043342e-01   2.212858e-02
  4.289391e+00    4.425519e-01   2.332475e-02
  4.291601e+00    5.109107e-01   2.526195e-02
  4.293811e+00    4.636381e-01   2.425246e-02
  4.296022e+00    4.620055e-01   2.440514e-02
  4.298232e+00    4.364127e-01   2.391733e-02
  4.300443e+00    4.977404e-01   2.575373e-02
  4.302653e+00    4.476144e-01   2.463442e-02
  4.304864e+00    4.507068e-01   2.493299e-02
  4.307074e+00    4.280018e-01   2.451535e-02
  4.309285e+00    4.909123e-01   2.649389e-02
  4.311495e+00    4.711763e-01   2.619809e-02
  4.313706e+00    5.259258e-01   2.793922e-02
  4.315916e+00    4.761563e-01   2.684553e-02
  4.318126e+00    4.658083e-01   2.681486e-02
  4.320337e+00    6.154768e-01   3.113495e-02
  4.322547e+00    5.719659e-01   3.033293e-02
  4.324758e+00    4.057099e-01   2.581308e-02
  4.326968e+00    4.329386e-01   2.696451e-02
  4.329179e+00    4.585231e-01   2.805601e-02
  4.331389e+00    4.175277e-01   2.708123e-02
  4.333600e+00    3.633358e-01   2.556406e-02
  4.335810e+00    4.136471e-01   2.760076e-02
  4.338021e+00    4.813024e-01   3.015345e-02
  4.340231e+00    5.215946e-01   3.178569e-02
  4.342442e+00    4.029400e-01   2.831146e-02
  4.344652e+00    4.287000e-01   2.959844e-02
  4.346862e+00    4.442076e-01   3.055201e-02
  4.349073e+00    4.282601e-01   3.043441e-02
  4.351283e+00    5.432006e-01   3.478736e-02
  4.353494e+00    5.284651e-01   3.484317e-02
  4.355704e+00    6.432133e-01   3.905938e-02
  4.357915e+00    4.671493e-01   3.384103e-02
  4.360125e+00    4.259016e-01   3.286492e-02
  4.362336e+00    5.545895e-01   3.818436e-02
  4.364546e+00    5.084464e-01   3.722870e-02
  4.366757e+00    4.477679e-01   3.563181e-02
  4.368967e+00    4.891799e-01   3.798342e-02
  4.371177e+00    5.372674e-01   4.065541e-02
  4.373388e+00    6.652155e-01   4.624768e-02
  4.375598e+00    4.775974e-01   4.008378e-02
  4.377809e+00    3.944255e-01   3.734519e-02
  4.380019e+00    4.808978e-01   4.227547e-02
  4.382230e+00    4.100444e-01   4.012460e-02
  4.384440e+00    4.989179e-01   4.553643e-02
  4.386651e+00    3.476827e-01   3.918246e-02
  4.388861e+00    4.712197e-01   4.714803e-02
  4.391072e+00    4.414503e-01   4.723717e-02
  4.393282e+00    4.675078e-01   5.049376e-02
  4.395492e+00    5.105879e-01   5.495650e-02
  4.397703e+00    4.890334e-01   5.625034e-02
  4.399913e+00    1.745914e-01   3.530885e-02
  4.402124e+00    3.077948e-01   4.954025e-02
  4.404334e+00    2.441486e-01   4.689948e-02
  4.406545e+00    3.059635e-01   5.640292e-02
  4.408755e+00    5.326442e-01   8.071967e-02
  4.410966e+00    4.738564e-01   8.426632e-02
  4.413176e+00   -8.096679e-02            nan
  4.415387e+00   -8.132207e-01            nan
  4.417597e+00   -1.868353e+00            nan
  4.419807e+00   -1.824666e-01            nan
