# == pyFAI calibration ==
# Distance Sample to Detector: 0.216 m
# PONI: 1.166e-01, 1.308e-01 m
# Rotations: 0.000000 0.000000 0.000000 rad
# 
# == Fit2d calibration ==
# Distance Sample-beamCenter: 216.000 mm
# Center: x=1744.293, y=1555.000 pix
# Tilt: 0.000 deg  TiltPlanRot: 0.000 deg
# 
# Detector Eiger 9M	 PixelSize= 7.500e-05, 7.500e-05 m
#    Detector has a mask: True 
#    Detector has a dark current: False 
#    detector has a flat field: False 
# 
# Wavelength: 9.8e-11 m
# Mask applied: from detector
# Dark current applied: False
# Flat field applied: False
# Polarization factor: None
# Normalization factor: 1.0
# 
# Headers of the input frame:
# {
# "_array_data.header_convention": "SLS_1.0",
# "_array_data.header_contents": "# Detector: Dectris Eiger 9M, S/N E-18-0102\r\n# Pixel_size 75e-6 m x 75e-6 m\r\n# Silicon sensor, thickness 0.000450 m\r\n# Exposure_time 0.024997 s\r\n# Exposure_period 0.025000 s\r\n# Count_cutoff 62318 counts\r\n# Wavelength 0.980106 A\r\n# Detector_distance 0.215992 m\r\n# Beam_xy (1555, 1744) pixels\r\n# Start_angle 0.000000 deg.\r\n# Angle_increment 0.000000 deg.",
# "Content-Type": "application/octet-stream;",
# "conversions": "x-CBF_BYTE_OFFSET",
# "Content-Transfer-Encoding": "BINARY",
# "X-Binary-Size": "10166590",
# "X-Binary-ID": "1",
# "X-Binary-Element-Type": "signed 32-bit integer",
# "X-Binary-Element-Byte-Order": "LITTLE_ENDIAN",
# "Content-MD5": "2N+URJRljIJSHFf89NDmXg==",
# "X-Binary-Number-of-Elements": "10166590",
# "X-Binary-Size-Fastest-Dimension": "3110",
# "X-Binary-Size-Second-Dimension": "3269",
# "X-Binary-Size-Padding": "4095"
# }
# --> H:/Proxima2a_2019-04-05/RAW_DATA/C5_gel17_position5/C5_mesh_1_data.cbf/C5_mesh_1_data.cbf000195.dat
#        q_A^-1              I           sigma 
  1.105228e-03    1.586992e+00   6.816703e-01
  3.315685e-03    1.052080e+00   3.374192e-01
  5.526141e-03    1.398365e+00   3.008032e-01
  7.736597e-03    1.317111e+00   2.466217e-01
  9.947054e-03    1.343043e+00   2.195439e-01
  1.215751e-02    1.385137e+00   2.016113e-01
  1.436797e-02    1.258795e+00   1.767882e-01
  1.657842e-02    1.435487e+00   1.757292e-01
  1.878888e-02    1.521176e+00   1.699234e-01
  2.099934e-02    1.689699e+00   1.694364e-01
  2.320979e-02    1.386667e+00   1.459886e-01
  2.542025e-02    1.431900e+00   1.417639e-01
  2.763070e-02    1.447538e+00   1.367116e-01
  2.984116e-02    1.196492e+00   1.196001e-01
  3.205162e-02    1.278281e+00   1.192887e-01
  3.426207e-02    1.429683e+00   1.220098e-01
  3.647253e-02    1.411514e+00   1.174985e-01
  3.868299e-02    1.425864e+00   1.146792e-01
  4.089344e-02    1.444426e+00   1.122609e-01
  4.310390e-02    1.388738e+00   1.072097e-01
  4.531436e-02    1.425811e+00   1.059490e-01
  4.752481e-02    1.363298e+00   1.011613e-01
  4.973527e-02    1.510200e+00   1.040804e-01
  5.194572e-02    1.448366e+00   9.973377e-02
  5.415618e-02    1.216693e+00   8.952188e-02
  5.636664e-02    1.363610e+00   9.289882e-02
  5.857709e-02    1.457632e+00   9.421901e-02
  6.078755e-02    1.584377e+00   9.642433e-02
  6.299801e-02    1.610035e+00   9.548037e-02
  6.520846e-02    1.526123e+00   9.137040e-02
  6.741892e-02    1.489490e+00   8.877051e-02
  6.962938e-02    1.464839e+00   8.662859e-02
  7.183983e-02    1.438216e+00   8.450536e-02
  7.405029e-02    1.404862e+00   8.226175e-02
  7.626074e-02    1.452343e+00   8.241855e-02
  7.847120e-02    1.447839e+00   8.112115e-02
  8.068166e-02    1.414736e+00   7.908171e-02
  8.289211e-02    1.403432e+00   7.770740e-02
  8.510257e-02    1.405283e+00   7.674168e-02
  8.731303e-02    1.426241e+00   7.632399e-02
  8.952348e-02    1.410677e+00   7.496550e-02
  9.173394e-02    1.534539e+00   7.723653e-02
  9.394439e-02    1.550401e+00   7.671342e-02
  9.615485e-02    1.518306e+00   7.503593e-02
  9.836531e-02    1.566341e+00   7.535040e-02
  1.005758e-01    1.571117e+00   7.463176e-02
  1.027862e-01    1.598713e+00   7.446860e-02
  1.049967e-01    1.587265e+00   7.341499e-02
  1.072071e-01    1.548149e+00   7.175252e-02
  1.094176e-01    1.495180e+00   6.979739e-02
  1.116280e-01    1.462580e+00   6.834385e-02
  1.138385e-01    1.530664e+00   6.923302e-02
  1.160490e-01    1.560754e+00   6.924035e-02
  1.182594e-01    1.668764e+00   7.092230e-02
  1.204699e-01    1.631373e+00   6.947640e-02
  1.226803e-01    1.517090e+00   6.638962e-02
  1.248908e-01    1.548373e+00   6.647361e-02
  1.271012e-01    1.541684e+00   6.574927e-02
  1.293117e-01    1.601693e+00   6.644058e-02
  1.315222e-01    1.682980e+00   6.752937e-02
  1.337326e-01    1.640994e+00   6.612705e-02
  1.359431e-01    1.648707e+00   6.632108e-02
  1.381535e-01    1.633658e+00   6.690385e-02
  1.403640e-01    1.583338e+00   6.614981e-02
  1.425744e-01    1.641165e+00   6.745451e-02
  1.447849e-01    1.587584e+00   6.635953e-02
  1.469953e-01    1.605448e+00   6.669005e-02
  1.492058e-01    1.485080e+00   6.406678e-02
  1.514163e-01    1.594521e+00   6.627519e-02
  1.536267e-01    1.661073e+00   6.751212e-02
  1.558372e-01    1.674649e+00   6.763779e-02
  1.580476e-01    1.604527e+00   6.604592e-02
  1.602581e-01    1.597804e+00   6.573998e-02
  1.624685e-01    1.748953e+00   6.859088e-02
  1.646790e-01    1.643167e+00   6.629325e-02
  1.668895e-01    1.674077e+00   6.672061e-02
  1.690999e-01    1.772294e+00   6.844380e-02
  1.713104e-01    1.787046e+00   6.851479e-02
  1.735208e-01    1.801730e+00   6.858175e-02
  1.757313e-01    1.866130e+00   6.957794e-02
  1.779417e-01    1.912678e+00   7.021061e-02
  1.801522e-01    1.926506e+00   7.023953e-02
  1.823626e-01    1.960415e+00   7.061913e-02
  1.845731e-01    1.994656e+00   7.100243e-02
  1.867836e-01    1.912585e+00   6.929176e-02
  1.889940e-01    1.935942e+00   6.948573e-02
  1.912045e-01    2.033681e+00   7.098036e-02
  1.934149e-01    2.063149e+00   7.125352e-02
  1.956254e-01    2.035591e+00   7.054257e-02
  1.978358e-01    2.111868e+00   7.160589e-02
  2.000463e-01    2.069316e+00   7.064594e-02
  2.022568e-01    2.062017e+00   7.028975e-02
  2.044672e-01    2.020905e+00   6.934715e-02
  2.066777e-01    2.060464e+00   6.979016e-02
  2.088881e-01    1.972453e+00   6.806000e-02
  2.110986e-01    1.984758e+00   6.803783e-02
  2.133090e-01    1.976772e+00   6.768008e-02
  2.155195e-01    1.959391e+00   6.715836e-02
  2.177300e-01    1.928075e+00   6.609616e-02
  2.199404e-01    2.005993e+00   6.564201e-02
  2.221509e-01    1.944707e+00   6.357024e-02
  2.243613e-01    1.974255e+00   6.323935e-02
  2.265718e-01    2.027580e+00   6.338133e-02
  2.287822e-01    2.060142e+00   6.325588e-02
  2.309927e-01    2.106224e+00   6.337679e-02
  2.332031e-01    2.130639e+00   6.319747e-02
  2.354136e-01    2.148229e+00   6.294350e-02
  2.376241e-01    2.146821e+00   6.243449e-02
  2.398345e-01    2.129117e+00   6.171633e-02
  2.420450e-01    2.180486e+00   6.201006e-02
  2.442554e-01    2.213665e+00   6.204963e-02
  2.464659e-01    2.143716e+00   6.065147e-02
  2.486763e-01    2.167896e+00   6.059164e-02
  2.508868e-01    2.172889e+00   6.027870e-02
  2.530973e-01    2.167320e+00   5.982819e-02
  2.553077e-01    2.089565e+00   5.838883e-02
  2.575182e-01    2.173949e+00   5.920376e-02
  2.597286e-01    2.144415e+00   5.845846e-02
  2.619391e-01    2.057664e+00   5.693411e-02
  2.641495e-01    2.008487e+00   5.593833e-02
  2.663600e-01    2.032307e+00   5.595960e-02
  2.685704e-01    2.029485e+00   5.561761e-02
  2.707809e-01    2.075218e+00   5.594225e-02
  2.729914e-01    2.035735e+00   5.511879e-02
  2.752018e-01    1.985278e+00   5.414810e-02
  2.774123e-01    1.988740e+00   5.391846e-02
  2.796227e-01    2.044434e+00   5.439780e-02
  2.818332e-01    2.046204e+00   5.414988e-02
  2.840436e-01    2.022122e+00   5.356933e-02
  2.862541e-01    2.022158e+00   5.331232e-02
  2.884646e-01    2.015417e+00   5.297077e-02
  2.906750e-01    1.982766e+00   5.229086e-02
  2.928855e-01    1.871457e+00   5.056649e-02
  2.950959e-01    2.017007e+00   5.225488e-02
  2.973064e-01    2.007494e+00   5.189723e-02
  2.995168e-01    1.958256e+00   5.102469e-02
  3.017273e-01    1.917447e+00   5.026763e-02
  3.039377e-01    1.927319e+00   5.017617e-02
  3.061482e-01    1.922485e+00   4.989643e-02
  3.083587e-01    1.930835e+00   4.978822e-02
  3.105691e-01    1.941453e+00   4.971168e-02
  3.127796e-01    1.934383e+00   4.941247e-02
  3.149900e-01    1.918751e+00   4.900737e-02
  3.172005e-01    1.887175e+00   4.840372e-02
  3.194109e-01    1.884146e+00   4.816520e-02
  3.216214e-01    1.865423e+00   4.772973e-02
  3.238319e-01    1.846962e+00   4.730482e-02
  3.260423e-01    1.848710e+00   4.713866e-02
  3.282528e-01    1.864277e+00   4.714830e-02
  3.304632e-01    1.785950e+00   4.596841e-02
  3.326737e-01    1.872227e+00   4.688202e-02
  3.348841e-01    1.884973e+00   4.685892e-02
  3.370946e-01    1.866856e+00   4.645773e-02
  3.393050e-01    1.823145e+00   4.573673e-02
  3.415155e-01    1.868010e+00   4.612197e-02
  3.437260e-01    1.846116e+00   4.568098e-02
  3.459364e-01    1.856186e+00   4.563592e-02
  3.481469e-01    1.865451e+00   4.558269e-02
  3.503573e-01    1.860572e+00   4.535721e-02
  3.525678e-01    1.868167e+00   4.528771e-02
  3.547782e-01    1.949414e+00   4.609482e-02
  3.569887e-01    1.924733e+00   4.563981e-02
  3.591992e-01    1.856090e+00   4.466001e-02
  3.614096e-01    1.780067e+00   4.358418e-02
  3.636201e-01    1.845899e+00   4.422682e-02
  3.658305e-01    1.813022e+00   4.368170e-02
  3.680410e-01    1.839326e+00   4.384610e-02
  3.702514e-01    1.784362e+00   4.304079e-02
  3.724619e-01    1.773064e+00   4.275819e-02
  3.746724e-01    1.791445e+00   4.283586e-02
  3.768828e-01    1.775222e+00   4.249798e-02
  3.790933e-01    1.818843e+00   4.287677e-02
  3.813037e-01    1.801941e+00   4.253747e-02
  3.835142e-01    1.817192e+00   4.257677e-02
  3.857246e-01    1.810741e+00   4.236361e-02
  3.879351e-01    1.776736e+00   4.182810e-02
  3.901455e-01    1.834127e+00   4.236298e-02
  3.923560e-01    1.813140e+00   4.198605e-02
  3.945665e-01    1.842710e+00   4.219281e-02
  3.967769e-01    1.788721e+00   4.143995e-02
  3.989874e-01    1.779529e+00   4.120425e-02
  4.011978e-01    1.822868e+00   4.157474e-02
  4.034083e-01    1.791898e+00   4.109352e-02
  4.056187e-01    1.786012e+00   4.089958e-02
  4.078292e-01    1.845884e+00   4.145363e-02
  4.100397e-01    1.745344e+00   4.018584e-02
  4.122501e-01    1.746731e+00   4.008152e-02
  4.144606e-01    1.806422e+00   4.063972e-02
  4.166710e-01    1.818589e+00   4.065514e-02
  4.188815e-01    1.755936e+00   3.983068e-02
  4.210919e-01    1.732574e+00   3.944886e-02
  4.233024e-01    1.821466e+00   4.032921e-02
  4.255128e-01    1.859082e+00   4.062577e-02
  4.277233e-01    1.812587e+00   3.999926e-02
  4.299338e-01    1.810641e+00   3.986276e-02
  4.321442e-01    1.806675e+00   3.970513e-02
  4.343547e-01    1.770509e+00   3.919458e-02
  4.365651e-01    1.739815e+00   3.874294e-02
  4.387756e-01    1.764229e+00   3.890460e-02
  4.409860e-01    1.791796e+00   3.909874e-02
  4.431965e-01    1.805452e+00   3.913893e-02
  4.454070e-01    1.820915e+00   3.919683e-02
  4.476174e-01    1.759684e+00   3.842637e-02
  4.498279e-01    1.723589e+00   3.792675e-02
  4.520383e-01    1.751804e+00   3.813099e-02
  4.542488e-01    1.777560e+00   3.830669e-02
  4.564592e-01    1.815522e+00   3.860973e-02
  4.586697e-01    1.748411e+00   3.778886e-02
  4.608801e-01    1.698621e+00   3.714712e-02
  4.630906e-01    1.699989e+00   3.706367e-02
  4.653011e-01    1.803778e+00   3.807792e-02
  4.675115e-01    1.777956e+00   3.770486e-02
  4.697220e-01    1.725937e+00   3.705190e-02
  4.719324e-01    1.742129e+00   3.712901e-02
  4.741429e-01    1.747459e+00   3.708995e-02
  4.763533e-01    1.709813e+00   3.659420e-02
  4.785638e-01    1.703572e+00   3.643300e-02
  4.807743e-01    1.702439e+00   3.632823e-02
  4.829847e-01    1.749918e+00   3.673829e-02
  4.851952e-01    1.759659e+00   3.674718e-02
  4.874056e-01    1.763986e+00   3.669957e-02
  4.896161e-01    1.709982e+00   3.604383e-02
  4.918265e-01    1.735955e+00   3.622632e-02
  4.940370e-01    1.758222e+00   3.636793e-02
  4.962475e-01    1.714370e+00   3.582286e-02
  4.984579e-01    1.696352e+00   3.554628e-02
  5.006684e-01    1.673974e+00   3.522494e-02
  5.028788e-01    1.658324e+00   3.497495e-02
  5.050893e-01    1.686480e+00   3.518481e-02
  5.072997e-01    1.730343e+00   3.555337e-02
  5.095102e-01    1.696619e+00   3.512088e-02
  5.117206e-01    1.658885e+00   3.464555e-02
  5.139311e-01    1.674778e+00   3.472872e-02
  5.161416e-01    1.650160e+00   3.439109e-02
  5.183520e-01    1.680109e+00   3.461929e-02
  5.205625e-01    1.629948e+00   3.401871e-02
  5.227729e-01    1.665480e+00   3.430728e-02
  5.249834e-01    1.678712e+00   3.436336e-02
  5.271938e-01    1.695788e+00   3.445708e-02
  5.294043e-01    1.750741e+00   3.493014e-02
  5.316148e-01    1.763846e+00   3.498034e-02
  5.338252e-01    1.817579e+00   3.542799e-02
  5.360357e-01    1.799855e+00   3.517459e-02
  5.382461e-01    1.705613e+00   3.416392e-02
  5.404566e-01    1.703811e+00   3.406814e-02
  5.426670e-01    1.750826e+00   3.445715e-02
  5.448775e-01    1.763395e+00   3.450340e-02
  5.470879e-01    1.729252e+00   3.409152e-02
  5.492984e-01    1.744121e+00   3.416163e-02
  5.515089e-01    1.745059e+00   3.409504e-02
  5.537193e-01    1.800269e+00   3.455388e-02
  5.559298e-01    1.828838e+00   3.475059e-02
  5.581402e-01    1.813166e+00   3.452577e-02
  5.603507e-01    1.816871e+00   3.448583e-02
  5.625611e-01    1.763619e+00   3.390294e-02
  5.647716e-01    1.767511e+00   3.386663e-02
  5.669821e-01    1.772334e+00   3.383970e-02
  5.691925e-01    1.776870e+00   3.381024e-02
  5.714030e-01    1.792918e+00   3.389019e-02
  5.736134e-01    1.739507e+00   3.331056e-02
  5.758239e-01    1.762706e+00   3.346038e-02
  5.780343e-01    1.762780e+00   3.339030e-02
  5.802448e-01    1.740643e+00   3.311053e-02
  5.824552e-01    1.684034e+00   3.249934e-02
  5.846657e-01    1.608145e+00   3.169242e-02
  5.868762e-01    1.638094e+00   3.191957e-02
  5.890866e-01    1.648400e+00   3.195340e-02
  5.912971e-01    1.647219e+00   3.187581e-02
  5.935075e-01    1.660705e+00   3.193988e-02
  5.957180e-01    1.642805e+00   3.170212e-02
  5.979284e-01    1.636603e+00   3.157761e-02
  6.001389e-01    1.653245e+00   3.167313e-02
  6.023494e-01    1.617455e+00   3.126481e-02
  6.045598e-01    1.672322e+00   3.172593e-02
  6.067703e-01    1.679369e+00   3.172878e-02
  6.089807e-01    1.720417e+00   3.204964e-02
  6.111912e-01    1.675776e+00   3.156796e-02
  6.134016e-01    1.658627e+00   3.134336e-02
  6.156121e-01    1.692875e+00   3.160236e-02
  6.178226e-01    1.722936e+00   3.181859e-02
  6.200330e-01    1.729066e+00   3.181226e-02
  6.222435e-01    1.728322e+00   3.174243e-02
  6.244539e-01    1.751896e+00   3.189558e-02
  6.266644e-01    1.758682e+00   3.189498e-02
  6.288748e-01    1.699396e+00   3.129174e-02
  6.310853e-01    1.744672e+00   3.164428e-02
  6.332957e-01    1.752766e+00   3.165636e-02
  6.355062e-01    1.750725e+00   3.157648e-02
  6.377167e-01    1.731598e+00   3.134324e-02
  6.399271e-01    1.749863e+00   3.144775e-02
  6.421376e-01    1.728589e+00   3.119634e-02
  6.443480e-01    1.751870e+00   3.134596e-02
  6.465585e-01    1.730184e+00   3.109235e-02
  6.487689e-01    1.711724e+00   3.086763e-02
  6.509794e-01    1.701478e+00   3.071707e-02
  6.531899e-01    1.697775e+00   3.062592e-02
  6.554003e-01    1.668329e+00   3.030212e-02
  6.576108e-01    1.613025e+00   2.974013e-02
  6.598212e-01    1.646666e+00   2.999283e-02
  6.620317e-01    1.647487e+00   2.994470e-02
  6.642421e-01    1.621208e+00   2.964997e-02
  6.664526e-01    1.628631e+00   2.966302e-02
  6.686630e-01    1.602017e+00   2.936527e-02
  6.708735e-01    1.579753e+00   2.910699e-02
  6.730840e-01    1.632374e+00   2.953385e-02
  6.752944e-01    1.583723e+00   2.903753e-02
  6.775049e-01    1.574679e+00   2.890191e-02
  6.797153e-01    1.588912e+00   2.897966e-02
  6.819258e-01    1.646400e+00   2.944604e-02
  6.841362e-01    1.613667e+00   2.909947e-02
  6.863467e-01    1.597291e+00   2.889955e-02
  6.885572e-01    1.627972e+00   2.912351e-02
  6.907676e-01    1.635055e+00   2.913449e-02
  6.929781e-01    1.650058e+00   2.921585e-02
  6.951885e-01    1.593061e+00   2.865598e-02
  6.973990e-01    1.603129e+00   2.869555e-02
  6.996094e-01    1.582201e+00   2.845750e-02
  7.018199e-01    1.546652e+00   2.808659e-02
  7.040303e-01    1.575336e+00   2.829605e-02
  7.062408e-01    1.598673e+00   2.845493e-02
  7.084513e-01    1.625487e+00   2.864268e-02
  7.106617e-01    1.592680e+00   2.830288e-02
  7.128722e-01    1.587778e+00   2.821041e-02
  7.150826e-01    1.604045e+00   2.830567e-02
  7.172931e-01    1.602571e+00   2.824390e-02
  7.195035e-01    1.606994e+00   2.823420e-02
  7.217140e-01    1.609779e+00   2.830868e-02
  7.239245e-01    1.530095e+00   2.782265e-02
  7.261349e-01    1.562059e+00   2.821991e-02
  7.283454e-01    1.586503e+00   2.851255e-02
  7.305558e-01    1.581545e+00   2.852207e-02
  7.327663e-01    1.597654e+00   2.870976e-02
  7.349767e-01    1.616185e+00   2.889239e-02
  7.371872e-01    1.598293e+00   2.872073e-02
  7.393976e-01    1.594431e+00   2.867168e-02
  7.416081e-01    1.571386e+00   2.844757e-02
  7.438186e-01    1.592530e+00   2.849317e-02
  7.460290e-01    1.597740e+00   2.824335e-02
  7.482395e-01    1.586606e+00   2.797297e-02
  7.504499e-01    1.582181e+00   2.779733e-02
  7.526604e-01    1.571041e+00   2.758287e-02
  7.548708e-01    1.547773e+00   2.728921e-02
  7.570813e-01    1.559480e+00   2.734147e-02
  7.592918e-01    1.563402e+00   2.734078e-02
  7.615022e-01    1.592332e+00   2.755860e-02
  7.637127e-01    1.611116e+00   2.768752e-02
  7.659231e-01    1.602752e+00   2.758329e-02
  7.681336e-01    1.593592e+00   2.747254e-02
  7.703440e-01    1.611591e+00   2.759567e-02
  7.725545e-01    1.579055e+00   2.728477e-02
  7.747650e-01    1.630225e+00   2.768444e-02
  7.769754e-01    1.612073e+00   2.747660e-02
  7.791859e-01    1.585087e+00   2.719200e-02
  7.813963e-01    1.592689e+00   2.720429e-02
  7.836068e-01    1.547972e+00   2.676831e-02
  7.858172e-01    1.575321e+00   2.695320e-02
  7.880277e-01    1.628339e+00   2.735091e-02
  7.902381e-01    1.634678e+00   2.735429e-02
  7.924486e-01    1.638005e+00   2.733141e-02
  7.946591e-01    1.612265e+00   2.706734e-02
  7.968695e-01    1.625100e+00   2.712622e-02
  7.990800e-01    1.663075e+00   2.739231e-02
  8.012904e-01    1.652990e+00   2.726188e-02
  8.035009e-01    1.674635e+00   2.739098e-02
  8.057113e-01    1.622959e+00   2.691842e-02
  8.079218e-01    1.639965e+00   2.701237e-02
  8.101323e-01    1.673815e+00   2.724340e-02
  8.123427e-01    1.668040e+00   2.715000e-02
  8.145532e-01    1.654190e+00   2.699079e-02
  8.167636e-01    1.663997e+00   2.702515e-02
  8.189741e-01    1.664055e+00   2.698057e-02
  8.211845e-01    1.636432e+00   2.671086e-02
  8.233950e-01    1.649993e+00   2.677768e-02
  8.256054e-01    1.682528e+00   2.699560e-02
  8.278159e-01    1.659965e+00   2.676970e-02
  8.300264e-01    1.700029e+00   2.704693e-02
  8.322368e-01    1.691786e+00   2.693748e-02
  8.344473e-01    1.646844e+00   2.653380e-02
  8.366577e-01    1.648693e+00   2.650597e-02
  8.388682e-01    1.647515e+00   2.645414e-02
  8.410786e-01    1.655667e+00   2.647725e-02
  8.432891e-01    1.638772e+00   2.629996e-02
  8.454996e-01    1.638780e+00   2.625841e-02
  8.477100e-01    1.646929e+00   2.628182e-02
  8.499205e-01    1.680394e+00   2.650583e-02
  8.521309e-01    1.665775e+00   2.634911e-02
  8.543414e-01    1.691098e+00   2.650722e-02
  8.565518e-01    1.663779e+00   2.625132e-02
  8.587623e-01    1.648234e+00   2.608770e-02
  8.609727e-01    1.683392e+00   2.632359e-02
  8.631832e-01    1.638516e+00   2.593033e-02
  8.653937e-01    1.619013e+00   2.573592e-02
  8.676041e-01    1.597273e+00   2.552397e-02
  8.698146e-01    1.655650e+00   2.594647e-02
  8.720250e-01    1.643183e+00   2.580924e-02
  8.742355e-01    1.610357e+00   2.551123e-02
  8.764459e-01    1.605147e+00   2.543109e-02
  8.786564e-01    1.593819e+00   2.530341e-02
  8.808669e-01    1.601646e+00   2.532700e-02
  8.830773e-01    1.604916e+00   2.531468e-02
  8.852878e-01    1.606621e+00   2.529015e-02
  8.874982e-01    1.602709e+00   2.522268e-02
  8.897087e-01    1.593022e+00   2.510875e-02
  8.919191e-01    1.605496e+00   2.516905e-02
  8.941296e-01    1.618078e+00   2.522998e-02
  8.963401e-01    1.601845e+00   2.506667e-02
  8.985505e-01    1.602125e+00   2.503188e-02
  9.007610e-01    1.592721e+00   2.492164e-02
  9.029714e-01    1.577562e+00   2.476716e-02
  9.051819e-01    1.613980e+00   2.501403e-02
  9.073923e-01    1.622120e+00   2.504020e-02
  9.096028e-01    1.619736e+00   2.498667e-02
  9.118132e-01    1.605765e+00   2.484240e-02
  9.140237e-01    1.588162e+00   2.466935e-02
  9.162342e-01    1.611073e+00   2.481199e-02
  9.184446e-01    1.606266e+00   2.473911e-02
  9.206551e-01    1.623955e+00   2.483911e-02
  9.228655e-01    1.599014e+00   2.461240e-02
  9.250760e-01    1.578072e+00   2.441560e-02
  9.272864e-01    1.598203e+00   2.453663e-02
  9.294969e-01    1.617494e+00   2.464828e-02
  9.317074e-01    1.638371e+00   2.477178e-02
  9.339178e-01    1.612851e+00   2.454455e-02
  9.361283e-01    1.602849e+00   2.443223e-02
  9.383387e-01    1.625778e+00   2.457292e-02
  9.405492e-01    1.631295e+00   2.458019e-02
  9.427596e-01    1.655426e+00   2.472568e-02
  9.449701e-01    1.653796e+00   2.467994e-02
  9.471805e-01    1.653910e+00   2.464581e-02
  9.493910e-01    1.667098e+00   2.470992e-02
  9.516015e-01    1.647935e+00   2.453321e-02
  9.538119e-01    1.703281e+00   2.490757e-02
  9.560224e-01    1.744300e+00   2.517025e-02
  9.582328e-01    1.730876e+00   2.503957e-02
  9.604433e-01    1.734214e+00   2.502822e-02
  9.626537e-01    1.746536e+00   2.508319e-02
  9.648642e-01    1.760011e+00   2.514529e-02
  9.670747e-01    1.769194e+00   2.517603e-02
  9.692851e-01    1.772923e+00   2.516905e-02
  9.714956e-01    1.799309e+00   2.531989e-02
  9.737060e-01    1.837850e+00   2.555602e-02
  9.759165e-01    1.837978e+00   2.552087e-02
  9.781269e-01    1.851745e+00   2.558278e-02
  9.803374e-01    1.829081e+00   2.539055e-02
  9.825478e-01    1.815347e+00   2.526171e-02
  9.847583e-01    1.775136e+00   2.494642e-02
  9.869688e-01    1.789765e+00   2.501546e-02
  9.891792e-01    1.770572e+00   2.484793e-02
  9.913897e-01    1.728478e+00   2.451764e-02
  9.936001e-01    1.698704e+00   2.427375e-02
  9.958106e-01    1.682632e+00   2.412580e-02
  9.980210e-01    1.671818e+00   2.401693e-02
  1.000231e+00    1.638514e+00   2.390677e-02
  1.002442e+00    1.609714e+00   2.382163e-02
  1.004652e+00    1.610966e+00   2.389738e-02
  1.006863e+00    1.586164e+00   2.376191e-02
  1.009073e+00    1.615318e+00   2.401598e-02
  1.011284e+00    1.585543e+00   2.382544e-02
  1.013494e+00    1.585406e+00   2.384802e-02
  1.015705e+00    1.578657e+00   2.381971e-02
  1.017915e+00    1.577878e+00   2.383023e-02
  1.020126e+00    1.553689e+00   2.366286e-02
  1.022336e+00    1.516325e+00   2.338810e-02
  1.024547e+00    1.548582e+00   2.364677e-02
  1.026757e+00    1.542527e+00   2.360886e-02
  1.028967e+00    1.562193e+00   2.376658e-02
  1.031178e+00    1.609676e+00   2.413140e-02
  1.033388e+00    1.619456e+00   2.420980e-02
  1.035599e+00    1.588326e+00   2.397950e-02
  1.037809e+00    1.529162e+00   2.353190e-02
  1.040020e+00    1.510253e+00   2.338722e-02
  1.042230e+00    1.538117e+00   2.360390e-02
  1.044441e+00    1.572706e+00   2.386762e-02
  1.046651e+00    1.569335e+00   2.384221e-02
  1.048862e+00    1.587454e+00   2.397864e-02
  1.051072e+00    1.531938e+00   2.355326e-02
  1.053282e+00    1.519473e+00   2.345624e-02
  1.055493e+00    1.520490e+00   2.345978e-02
  1.057703e+00    1.505250e+00   2.334038e-02
  1.059914e+00    1.491009e+00   2.322545e-02
  1.062124e+00    1.519679e+00   2.344356e-02
  1.064335e+00    1.531329e+00   2.352980e-02
  1.066545e+00    1.525669e+00   2.348015e-02
  1.068756e+00    1.509547e+00   2.335203e-02
  1.070966e+00    1.498925e+00   2.326311e-02
  1.073177e+00    1.503958e+00   2.329602e-02
  1.075387e+00    1.485347e+00   2.314620e-02
  1.077597e+00    1.474175e+00   2.305170e-02
  1.079808e+00    1.440061e+00   2.265179e-02
  1.082018e+00    1.413009e+00   2.225219e-02
  1.084229e+00    1.409517e+00   2.211656e-02
  1.086439e+00    1.433712e+00   2.221879e-02
  1.088650e+00    1.437675e+00   2.217425e-02
  1.090860e+00    1.418426e+00   2.195852e-02
  1.093071e+00    1.441412e+00   2.207372e-02
  1.095281e+00    1.467641e+00   2.221599e-02
  1.097492e+00    1.437641e+00   2.193300e-02
  1.099702e+00    1.415887e+00   2.171546e-02
  1.101912e+00    1.423516e+00   2.172532e-02
  1.104123e+00    1.417218e+00   2.162928e-02
  1.106333e+00    1.428282e+00   2.166921e-02
  1.108544e+00    1.436246e+00   2.168517e-02
  1.110754e+00    1.426320e+00   2.156709e-02
  1.112965e+00    1.436986e+00   2.160683e-02
  1.115175e+00    1.419563e+00   2.143429e-02
  1.117386e+00    1.419497e+00   2.139445e-02
  1.119596e+00    1.411574e+00   2.129680e-02
  1.121807e+00    1.395022e+00   2.113296e-02
  1.124017e+00    1.376945e+00   2.095933e-02
  1.126228e+00    1.412201e+00   2.119010e-02
  1.128438e+00    1.402694e+00   2.108188e-02
  1.130648e+00    1.410699e+00   2.110749e-02
  1.132859e+00    1.398748e+00   2.098350e-02
  1.135069e+00    1.385799e+00   2.085152e-02
  1.137280e+00    1.396002e+00   2.089504e-02
  1.139490e+00    1.376832e+00   2.071818e-02
  1.141701e+00    1.349226e+00   2.047669e-02
  1.143911e+00    1.383758e+00   2.070523e-02
  1.146122e+00    1.381410e+00   2.065564e-02
  1.148332e+00    1.376124e+00   2.058423e-02
  1.150543e+00    1.365321e+00   2.047259e-02
  1.152753e+00    1.368099e+00   2.046265e-02
  1.154963e+00    1.364872e+00   2.040756e-02
  1.157174e+00    1.359810e+00   2.033966e-02
  1.159384e+00    1.387775e+00   2.051772e-02
  1.161595e+00    1.396031e+00   2.054855e-02
  1.163805e+00    1.393172e+00   2.049797e-02
  1.166016e+00    1.380109e+00   2.037209e-02
  1.168226e+00    1.378002e+00   2.032745e-02
  1.170437e+00    1.391649e+00   2.039896e-02
  1.172647e+00    1.380127e+00   2.028530e-02
  1.174858e+00    1.380854e+00   2.026237e-02
  1.177068e+00    1.361693e+00   2.009306e-02
  1.179278e+00    1.382770e+00   2.021917e-02
  1.181489e+00    1.364261e+00   2.005633e-02
  1.183699e+00    1.384435e+00   2.017626e-02
  1.185910e+00    1.364881e+00   2.000540e-02
  1.188120e+00    1.363891e+00   1.997141e-02
  1.190331e+00    1.352959e+00   1.986445e-02
  1.192541e+00    1.359035e+00   1.988160e-02
  1.194752e+00    1.360953e+00   1.986848e-02
  1.196962e+00    1.340451e+00   1.969263e-02
  1.199173e+00    1.344003e+00   1.969226e-02
  1.201383e+00    1.373519e+00   1.987991e-02
  1.203593e+00    1.380824e+00   1.990762e-02
  1.205804e+00    1.387072e+00   1.992634e-02
  1.208014e+00    1.364016e+00   1.973305e-02
  1.210225e+00    1.336475e+00   1.950761e-02
  1.212435e+00    1.343972e+00   1.953751e-02
  1.214646e+00    1.341655e+00   1.949464e-02
  1.216856e+00    1.348848e+00   1.952136e-02
  1.219067e+00    1.344662e+00   1.946664e-02
  1.221277e+00    1.366856e+00   1.960143e-02
  1.223488e+00    1.350013e+00   1.945456e-02
  1.225698e+00    1.339745e+00   1.935364e-02
  1.227909e+00    1.307273e+00   1.908795e-02
  1.230119e+00    1.342752e+00   1.931348e-02
  1.232329e+00    1.319162e+00   1.911270e-02
  1.234540e+00    1.340150e+00   1.923397e-02
  1.236750e+00    1.341035e+00   1.921016e-02
  1.238961e+00    1.358757e+00   1.930960e-02
  1.241171e+00    1.361249e+00   1.930305e-02
  1.243382e+00    1.333879e+00   1.908461e-02
  1.245592e+00    1.352006e+00   1.918975e-02
  1.247803e+00    1.354259e+00   1.918202e-02
  1.250013e+00    1.373756e+00   1.929587e-02
  1.252224e+00    1.373739e+00   1.927229e-02
  1.254434e+00    1.374339e+00   1.925256e-02
  1.256644e+00    1.344903e+00   1.902209e-02
  1.258855e+00    1.365225e+00   1.914187e-02
  1.261065e+00    1.383302e+00   1.924451e-02
  1.263276e+00    1.358638e+00   1.904919e-02
  1.265486e+00    1.365520e+00   1.907434e-02
  1.267697e+00    1.383305e+00   1.917487e-02
  1.269907e+00    1.364706e+00   1.902271e-02
  1.272118e+00    1.372792e+00   1.905621e-02
  1.274328e+00    1.349470e+00   1.887092e-02
  1.276539e+00    1.364802e+00   1.895490e-02
  1.278749e+00    1.362454e+00   1.891619e-02
  1.280959e+00    1.388690e+00   1.907461e-02
  1.283170e+00    1.386164e+00   1.903454e-02
  1.285380e+00    1.348231e+00   1.874983e-02
  1.287591e+00    1.332958e+00   1.862146e-02
  1.289801e+00    1.315114e+00   1.847541e-02
  1.292012e+00    1.371788e+00   1.885208e-02
  1.294222e+00    1.367586e+00   1.880687e-02
  1.296433e+00    1.340189e+00   1.860198e-02
  1.298643e+00    1.366572e+00   1.876761e-02
  1.300854e+00    1.361120e+00   1.871366e-02
  1.303064e+00    1.361294e+00   1.869556e-02
  1.305274e+00    1.389246e+00   1.886475e-02
  1.307485e+00    1.391065e+00   1.885526e-02
  1.309695e+00    1.347466e+00   1.853520e-02
  1.311906e+00    1.364243e+00   1.862839e-02
  1.314116e+00    1.367402e+00   1.862904e-02
  1.316327e+00    1.349311e+00   1.848370e-02
  1.318537e+00    1.388612e+00   1.872875e-02
  1.320748e+00    1.398910e+00   1.877615e-02
  1.322958e+00    1.372808e+00   1.857946e-02
  1.325169e+00    1.381429e+00   1.861643e-02
  1.327379e+00    1.368687e+00   1.850842e-02
  1.329589e+00    1.376500e+00   1.853990e-02
  1.331800e+00    1.382761e+00   1.856107e-02
  1.334010e+00    1.348690e+00   1.831034e-02
  1.336221e+00    1.340380e+00   1.823215e-02
  1.338431e+00    1.359500e+00   1.834079e-02
  1.340642e+00    1.361619e+00   1.841952e-02
  1.342852e+00    1.359826e+00   1.850843e-02
  1.345063e+00    1.370311e+00   1.862949e-02
  1.347273e+00    1.369106e+00   1.865682e-02
  1.349484e+00    1.341808e+00   1.849745e-02
  1.351694e+00    1.364318e+00   1.867481e-02
  1.353905e+00    1.359590e+00   1.866047e-02
  1.356115e+00    1.358586e+00   1.866868e-02
  1.358325e+00    1.347997e+00   1.860909e-02
  1.360536e+00    1.363964e+00   1.873067e-02
  1.362746e+00    1.324871e+00   1.846977e-02
  1.364957e+00    1.310061e+00   1.837380e-02
  1.367167e+00    1.337714e+00   1.857381e-02
  1.369378e+00    1.345569e+00   1.863430e-02
  1.371588e+00    1.335202e+00   1.856750e-02
  1.373799e+00    1.324702e+00   1.849799e-02
  1.376009e+00    1.338653e+00   1.859853e-02
  1.378220e+00    1.360162e+00   1.874991e-02
  1.380430e+00    1.334208e+00   1.857287e-02
  1.382640e+00    1.335175e+00   1.858051e-02
  1.384851e+00    1.316350e+00   1.844994e-02
  1.387061e+00    1.314012e+00   1.843382e-02
  1.389272e+00    1.337493e+00   1.859801e-02
  1.391482e+00    1.325380e+00   1.851295e-02
  1.393693e+00    1.300926e+00   1.834047e-02
  1.395903e+00    1.289838e+00   1.826065e-02
  1.398114e+00    1.306623e+00   1.837768e-02
  1.400324e+00    1.292638e+00   1.827694e-02
  1.402535e+00    1.286590e+00   1.823179e-02
  1.404745e+00    1.279316e+00   1.817782e-02
  1.406955e+00    1.302641e+00   1.834005e-02
  1.409166e+00    1.290522e+00   1.825123e-02
  1.411376e+00    1.264482e+00   1.806302e-02
  1.413587e+00    1.297179e+00   1.829123e-02
  1.415797e+00    1.269174e+00   1.808916e-02
  1.418008e+00    1.292323e+00   1.821114e-02
  1.420218e+00    1.291500e+00   1.805437e-02
  1.422429e+00    1.257079e+00   1.772727e-02
  1.424639e+00    1.278244e+00   1.781098e-02
  1.426850e+00    1.276877e+00   1.774660e-02
  1.429060e+00    1.271312e+00   1.765889e-02
  1.431270e+00    1.262684e+00   1.755467e-02
  1.433481e+00    1.275668e+00   1.760365e-02
  1.435691e+00    1.282973e+00   1.761535e-02
  1.437902e+00    1.294440e+00   1.765710e-02
  1.440112e+00    1.294685e+00   1.762308e-02
  1.442323e+00    1.273833e+00   1.744748e-02
  1.444533e+00    1.269865e+00   1.738775e-02
  1.446744e+00    1.266585e+00   1.733418e-02
  1.448954e+00    1.267725e+00   1.731182e-02
  1.451165e+00    1.285238e+00   1.740105e-02
  1.453375e+00    1.264067e+00   1.722917e-02
  1.455586e+00    1.251873e+00   1.711789e-02
  1.457796e+00    1.236665e+00   1.698645e-02
  1.460006e+00    1.263387e+00   1.714180e-02
  1.462217e+00    1.269287e+00   1.715558e-02
  1.464427e+00    1.275609e+00   1.717257e-02
  1.466638e+00    1.255301e+00   1.701016e-02
  1.468848e+00    1.270040e+00   1.708437e-02
  1.471059e+00    1.278676e+00   1.711718e-02
  1.473269e+00    1.265360e+00   1.700349e-02
  1.475480e+00    1.272204e+00   1.702560e-02
  1.477690e+00    1.277711e+00   1.703849e-02
  1.479901e+00    1.270416e+00   1.696592e-02
  1.482111e+00    1.297809e+00   1.712424e-02
  1.484321e+00    1.292473e+00   1.706567e-02
  1.486532e+00    1.345615e+00   1.738993e-02
  1.488742e+00    1.370457e+00   1.752615e-02
  1.490953e+00    1.355107e+00   1.740435e-02
  1.493163e+00    1.310861e+00   1.709515e-02
  1.495374e+00    1.319009e+00   1.712622e-02
  1.497584e+00    1.275749e+00   1.682127e-02
  1.499795e+00    1.260101e+00   1.669615e-02
  1.502005e+00    1.268620e+00   1.673071e-02
  1.504216e+00    1.285052e+00   1.681748e-02
  1.506426e+00    1.274946e+00   1.673026e-02
  1.508636e+00    1.283349e+00   1.676464e-02
  1.510847e+00    1.290184e+00   1.678712e-02
  1.513057e+00    1.299828e+00   1.682422e-02
  1.515268e+00    1.310068e+00   1.686409e-02
  1.517478e+00    1.271641e+00   1.658962e-02
  1.519689e+00    1.239132e+00   1.635135e-02
  1.521899e+00    1.274610e+00   1.656047e-02
  1.524110e+00    1.291678e+00   1.665036e-02
  1.526320e+00    1.272545e+00   1.650682e-02
  1.528531e+00    1.291531e+00   1.660943e-02
  1.530741e+00    1.262594e+00   1.640307e-02
  1.532951e+00    1.259613e+00   1.636402e-02
  1.535162e+00    1.255870e+00   1.642651e-02
  1.537372e+00    1.231171e+00   1.633060e-02
  1.539583e+00    1.248879e+00   1.648186e-02
  1.541793e+00    1.255836e+00   1.653468e-02
  1.544004e+00    1.253280e+00   1.651811e-02
  1.546214e+00    1.249041e+00   1.648863e-02
  1.548425e+00    1.290664e+00   1.676137e-02
  1.550635e+00    1.308211e+00   1.688486e-02
  1.552846e+00    1.294943e+00   1.680889e-02
  1.555056e+00    1.279726e+00   1.666775e-02
  1.557266e+00    1.276430e+00   1.653442e-02
  1.559477e+00    1.266859e+00   1.641267e-02
  1.561687e+00    1.259458e+00   1.633379e-02
  1.563898e+00    1.271577e+00   1.639486e-02
  1.566108e+00    1.271565e+00   1.637864e-02
  1.568319e+00    1.261439e+00   1.629757e-02
  1.570529e+00    1.284487e+00   1.642024e-02
  1.572740e+00    1.281572e+00   1.637359e-02
  1.574950e+00    1.259341e+00   1.620448e-02
  1.577161e+00    1.246926e+00   1.609890e-02
  1.579371e+00    1.251665e+00   1.610573e-02
  1.581582e+00    1.248278e+00   1.606413e-02
  1.583792e+00    1.249557e+00   1.605430e-02
  1.586002e+00    1.263778e+00   1.612763e-02
  1.588213e+00    1.279796e+00   1.621204e-02
  1.590423e+00    1.258428e+00   1.605594e-02
  1.592634e+00    1.274876e+00   1.613864e-02
  1.594844e+00    1.251982e+00   1.597161e-02
  1.597055e+00    1.241332e+00   1.588305e-02
  1.599265e+00    1.221815e+00   1.573712e-02
  1.601476e+00    1.251295e+00   1.590545e-02
  1.603686e+00    1.239236e+00   1.580887e-02
  1.605897e+00    1.236835e+00   1.577341e-02
  1.608107e+00    1.250766e+00   1.584232e-02
  1.610317e+00    1.245988e+00   1.579266e-02
  1.612528e+00    1.233503e+00   1.569419e-02
  1.614738e+00    1.226611e+00   1.563136e-02
  1.616949e+00    1.204602e+00   1.547169e-02
  1.619159e+00    1.188281e+00   1.534806e-02
  1.621370e+00    1.189752e+00   1.533931e-02
  1.623580e+00    1.161514e+00   1.513827e-02
  1.625791e+00    1.183672e+00   1.526389e-02
  1.628001e+00    1.181157e+00   1.522959e-02
  1.630212e+00    1.177805e+00   1.519032e-02
  1.632422e+00    1.159548e+00   1.505443e-02
  1.634632e+00    1.187465e+00   1.521722e-02
  1.636843e+00    1.212584e+00   1.535955e-02
  1.639053e+00    1.165949e+00   1.504405e-02
  1.641264e+00    1.165430e+00   1.502364e-02
  1.643474e+00    1.153388e+00   1.492848e-02
  1.645685e+00    1.181255e+00   1.509093e-02
  1.647895e+00    1.157337e+00   1.492079e-02
  1.650106e+00    1.138109e+00   1.477939e-02
  1.652316e+00    1.141277e+00   1.478351e-02
  1.654527e+00    1.128203e+00   1.468203e-02
  1.656737e+00    1.158876e+00   1.486354e-02
  1.658947e+00    1.125423e+00   1.463123e-02
  1.661158e+00    1.116001e+00   1.455366e-02
  1.663368e+00    1.104319e+00   1.446139e-02
  1.665579e+00    1.098675e+00   1.440839e-02
  1.667789e+00    1.104063e+00   1.442753e-02
  1.670000e+00    1.085573e+00   1.429092e-02
  1.672210e+00    1.078152e+00   1.422633e-02
  1.674421e+00    1.073247e+00   1.417881e-02
  1.676631e+00    1.087778e+00   1.425872e-02
  1.678842e+00    1.081017e+00   1.419869e-02
  1.681052e+00    1.078141e+00   1.416451e-02
  1.683263e+00    1.080554e+00   1.416528e-02
  1.685473e+00    1.083662e+00   1.417051e-02
  1.687683e+00    1.092321e+00   1.421151e-02
  1.689894e+00    1.088087e+00   1.416813e-02
  1.692104e+00    1.061560e+00   1.397955e-02
  1.694315e+00    1.042098e+00   1.383649e-02
  1.696525e+00    1.053717e+00   1.389838e-02
  1.698736e+00    1.047058e+00   1.383970e-02
  1.700946e+00    1.033402e+00   1.373421e-02
  1.703157e+00    1.045587e+00   1.380037e-02
  1.705367e+00    1.035767e+00   1.372106e-02
  1.707578e+00    1.017239e+00   1.358342e-02
  1.709788e+00    1.025127e+00   1.362201e-02
  1.711998e+00    1.019965e+00   1.357282e-02
  1.714209e+00    1.023343e+00   1.358095e-02
  1.716419e+00    1.008770e+00   1.346981e-02
  1.718630e+00    1.017660e+00   1.351486e-02
  1.720840e+00    1.028496e+00   1.357243e-02
  1.723051e+00    1.022610e+00   1.351970e-02
  1.725261e+00    1.002695e+00   1.337286e-02
  1.727472e+00    1.006588e+00   1.338470e-02
  1.729682e+00    9.985786e-01   1.331800e-02
  1.731893e+00    9.829038e-01   1.319935e-02
  1.734103e+00    9.896140e-01   1.323066e-02
  1.736313e+00    1.009426e+00   1.334840e-02
  1.738524e+00    9.995719e-01   1.326931e-02
  1.740734e+00    9.906679e-01   1.319641e-02
  1.742945e+00    9.866194e-01   1.315605e-02
  1.745155e+00    9.632551e-01   1.298607e-02
  1.747366e+00    9.818456e-01   1.309703e-02
  1.749576e+00    9.768192e-01   1.304986e-02
  1.751787e+00    9.581237e-01   1.291119e-02
  1.753997e+00    9.552717e-01   1.287877e-02
  1.756208e+00    9.563234e-01   1.287275e-02
  1.758418e+00    9.517071e-01   1.282870e-02
  1.760628e+00    9.478949e-01   1.278975e-02
  1.762839e+00    9.613721e-01   1.286717e-02
  1.765049e+00    9.581091e-01   1.283222e-02
  1.767260e+00    9.627002e-01   1.285010e-02
  1.769470e+00    9.857437e-01   1.298978e-02
  1.771681e+00    9.868451e-01   1.298369e-02
  1.773891e+00    9.500934e-01   1.272656e-02
  1.776102e+00    9.314467e-01   1.258829e-02
  1.778312e+00    9.248894e-01   1.253131e-02
  1.780523e+00    9.329248e-01   1.257294e-02
  1.782733e+00    9.400623e-01   1.260826e-02
  1.784944e+00    9.449534e-01   1.262807e-02
  1.787154e+00    9.214231e-01   1.245741e-02
  1.789364e+00    9.207596e-01   1.244048e-02
  1.791575e+00    9.276292e-01   1.247428e-02
  1.793785e+00    9.622638e-01   1.269231e-02
  1.795996e+00    1.010441e+00   1.299308e-02
  1.798206e+00    1.040048e+00   1.316874e-02
  1.800417e+00    1.032254e+00   1.310587e-02
  1.802627e+00    9.978956e-01   1.287343e-02
  1.804838e+00    9.490387e-01   1.254200e-02
  1.807048e+00    9.346210e-01   1.243332e-02
  1.809259e+00    9.242781e-01   1.235062e-02
  1.811469e+00    9.018435e-01   1.218488e-02
  1.813679e+00    8.761361e-01   1.199516e-02
  1.815890e+00    9.097298e-01   1.220815e-02
  1.818100e+00    8.868980e-01   1.203894e-02
  1.820311e+00    8.911505e-01   1.205303e-02
  1.822521e+00    8.832754e-01   1.198486e-02
  1.824732e+00    8.887951e-01   1.200744e-02
  1.826942e+00    8.824270e-01   1.195205e-02
  1.829153e+00    8.787935e-01   1.191578e-02
  1.831363e+00    8.761385e-01   1.188578e-02
  1.833574e+00    8.709579e-01   1.183897e-02
  1.835784e+00    8.803260e-01   1.189104e-02
  1.837994e+00    8.662018e-01   1.178363e-02
  1.840205e+00    8.824691e-01   1.188253e-02
  1.842415e+00    8.851154e-01   1.188850e-02
  1.844626e+00    8.654689e-01   1.174428e-02
  1.846836e+00    8.698201e-01   1.176232e-02
  1.849047e+00    8.669493e-01   1.173129e-02
  1.851257e+00    8.725994e-01   1.175982e-02
  1.853468e+00    8.654517e-01   1.170277e-02
  1.855678e+00    8.421853e-01   1.153559e-02
  1.857889e+00    8.578070e-01   1.163357e-02
  1.860099e+00    8.731650e-01   1.172855e-02
  1.862309e+00    8.867212e-01   1.181058e-02
  1.864520e+00    8.934723e-01   1.184671e-02
  1.866730e+00    8.674369e-01   1.166338e-02
  1.868941e+00    8.691869e-01   1.166408e-02
  1.871151e+00    8.632168e-01   1.161250e-02
  1.873362e+00    8.387409e-01   1.143541e-02
  1.875572e+00    8.469949e-01   1.148059e-02
  1.877783e+00    8.840281e-01   1.171725e-02
  1.879993e+00    8.562288e-01   1.152033e-02
  1.882204e+00    8.585255e-01   1.152477e-02
  1.884414e+00    8.544559e-01   1.148629e-02
  1.886624e+00    8.293784e-01   1.130551e-02
  1.888835e+00    8.294541e-01   1.129511e-02
  1.891045e+00    8.355830e-01   1.132591e-02
  1.893256e+00    8.433641e-01   1.136741e-02
  1.895466e+00    8.546516e-01   1.143195e-02
  1.897677e+00    8.450603e-01   1.135664e-02
  1.899887e+00    8.432708e-01   1.133355e-02
  1.902098e+00    8.295939e-01   1.123046e-02
  1.904308e+00    8.221713e-01   1.116956e-02
  1.906519e+00    8.442941e-01   1.130790e-02
  1.908729e+00    8.225916e-01   1.115108e-02
  1.910940e+00    8.016409e-01   1.099720e-02
  1.913150e+00    8.027312e-01   1.099421e-02
  1.915360e+00    8.240662e-01   1.112877e-02
  1.917571e+00    8.067024e-01   1.100012e-02
  1.919781e+00    7.991315e-01   1.093784e-02
  1.921992e+00    8.067541e-01   1.097935e-02
  1.924202e+00    8.032592e-01   1.094488e-02
  1.926413e+00    8.027588e-01   1.093124e-02
  1.928623e+00    8.314700e-01   1.111435e-02
  1.930834e+00    8.271689e-01   1.107506e-02
  1.933044e+00    8.238330e-01   1.104195e-02
  1.935255e+00    8.125170e-01   1.095551e-02
  1.937465e+00    8.142025e-01   1.095644e-02
  1.939675e+00    8.095483e-01   1.091421e-02
  1.941886e+00    7.913882e-01   1.078091e-02
  1.944096e+00    7.942920e-01   1.079054e-02
  1.946307e+00    8.002263e-01   1.082045e-02
  1.948517e+00    7.911111e-01   1.074825e-02
  1.950728e+00    8.033863e-01   1.082105e-02
  1.952938e+00    7.971240e-01   1.076869e-02
  1.955149e+00    8.067261e-01   1.082308e-02
  1.957359e+00    7.915821e-01   1.071098e-02
  1.959570e+00    7.771332e-01   1.060203e-02
  1.961780e+00    7.938228e-01   1.070535e-02
  1.963990e+00    7.835412e-01   1.062575e-02
  1.966201e+00    7.785450e-01   1.058181e-02
  1.968411e+00    7.872176e-01   1.063047e-02
  1.970622e+00    7.683959e-01   1.049264e-02
  1.972832e+00    7.648939e-01   1.045887e-02
  1.975043e+00    7.717391e-01   1.049562e-02
  1.977253e+00    7.683580e-01   1.046275e-02
  1.979464e+00    7.972507e-01   1.064754e-02
  1.981674e+00    7.816709e-01   1.053273e-02
  1.983885e+00    7.718779e-01   1.045660e-02
  1.986095e+00    7.746303e-01   1.046555e-02
  1.988305e+00    7.608639e-01   1.036237e-02
  1.990516e+00    7.677130e-01   1.039903e-02
  1.992726e+00    7.828588e-01   1.049143e-02
  1.994937e+00    7.628087e-01   1.034617e-02
  1.997147e+00    7.826648e-01   1.047017e-02
  1.999358e+00    7.781392e-01   1.043001e-02
  2.001568e+00    7.733605e-01   1.038712e-02
  2.003779e+00    7.654597e-01   1.032205e-02
  2.005989e+00    7.640331e-01   1.030047e-02
  2.008200e+00    7.675058e-01   1.031233e-02
  2.010410e+00    7.815340e-01   1.039433e-02
  2.012621e+00    7.850647e-01   1.040594e-02
  2.014831e+00    7.876820e-01   1.041165e-02
  2.017041e+00    7.744715e-01   1.031355e-02
  2.019252e+00    7.818151e-01   1.035223e-02
  2.021462e+00    8.132026e-01   1.054823e-02
  2.023673e+00    7.848089e-01   1.035292e-02
  2.025883e+00    7.588493e-01   1.017077e-02
  2.028094e+00    7.649901e-01   1.020217e-02
  2.030304e+00    7.644992e-01   1.018933e-02
  2.032515e+00    7.706669e-01   1.022101e-02
  2.034725e+00    7.569707e-01   1.012035e-02
  2.036936e+00    7.609028e-01   1.013724e-02
  2.039146e+00    7.599723e-01   1.012145e-02
  2.041356e+00    7.725956e-01   1.019542e-02
  2.043567e+00    7.683458e-01   1.015795e-02
  2.045777e+00    7.656415e-01   1.013077e-02
  2.047988e+00    7.457229e-01   9.988803e-03
  2.050198e+00    7.540132e-01   1.003572e-02
  2.052409e+00    7.659303e-01   1.010700e-02
  2.054619e+00    7.670223e-01   1.010677e-02
  2.056830e+00    7.569203e-01   1.003278e-02
  2.059040e+00    7.579464e-01   1.003203e-02
  2.061251e+00    7.542461e-01   1.000025e-02
  2.063461e+00    7.421922e-01   9.912451e-03
  2.065671e+00    7.526316e-01   9.973184e-03
  2.067882e+00    7.545399e-01   9.976777e-03
  2.070092e+00    7.402971e-01   9.873023e-03
  2.072303e+00    7.410694e-01   9.869050e-03
  2.074513e+00    7.435172e-01   9.876041e-03
  2.076724e+00    7.459878e-01   9.882951e-03
  2.078934e+00    7.457869e-01   9.872613e-03
  2.081145e+00    7.342388e-01   9.786845e-03
  2.083355e+00    7.404420e-01   9.818936e-03
  2.085566e+00    7.252273e-01   9.708722e-03
  2.087776e+00    7.237112e-01   9.689159e-03
  2.089986e+00    7.287246e-01   9.713937e-03
  2.092197e+00    7.164552e-01   9.622980e-03
  2.094407e+00    7.405004e-01   9.773868e-03
  2.096618e+00    7.348325e-01   9.727514e-03
  2.098828e+00    7.143548e-01   9.581837e-03
  2.101039e+00    7.241327e-01   9.638233e-03
  2.103249e+00    7.346266e-01   9.699163e-03
  2.105460e+00    7.132407e-01   9.548031e-03
  2.107670e+00    7.081045e-01   9.504968e-03
  2.109881e+00    6.991487e-01   9.435683e-03
  2.112091e+00    7.078260e-01   9.485193e-03
  2.114301e+00    7.160758e-01   9.531557e-03
  2.116512e+00    7.195401e-01   9.545833e-03
  2.118722e+00    7.224303e-01   9.556148e-03
  2.120933e+00    7.097878e-01   9.463373e-03
  2.123143e+00    7.093479e-01   9.451593e-03
  2.125354e+00    7.059502e-01   9.420463e-03
  2.127564e+00    6.982833e-01   9.360559e-03
  2.129775e+00    7.048495e-01   9.395789e-03
  2.131985e+00    7.156734e-01   9.458599e-03
  2.134196e+00    7.052258e-01   9.380771e-03
  2.136406e+00    7.155074e-01   9.440138e-03
  2.138617e+00    7.131764e-01   9.416270e-03
  2.140827e+00    7.320825e-01   9.556588e-03
  2.143037e+00    7.217771e-01   9.535041e-03
  2.145248e+00    7.128008e-01   9.497675e-03
  2.147458e+00    7.128392e-01   9.513156e-03
  2.149669e+00    7.142581e-01   9.534563e-03
  2.151879e+00    7.226220e-01   9.599572e-03
  2.154090e+00    7.324171e-01   9.671914e-03
  2.156300e+00    6.826607e-01   9.344123e-03
  2.158511e+00    7.093362e-01   9.530258e-03
  2.160721e+00    7.091700e-01   9.534008e-03
  2.162932e+00    6.950315e-01   9.442233e-03
  2.165142e+00    7.036238e-01   9.503436e-03
  2.167352e+00    6.914997e-01   9.424116e-03
  2.169563e+00    6.857949e-01   9.387110e-03
  2.171773e+00    6.756079e-01   9.319528e-03
  2.173984e+00    7.033704e-01   9.510499e-03
  2.176194e+00    6.974896e-01   9.471886e-03
  2.178405e+00    6.946175e-01   9.453047e-03
  2.180615e+00    6.876239e-01   9.406028e-03
  2.182826e+00    6.726103e-01   9.303441e-03
  2.185036e+00    6.978906e-01   9.476705e-03
  2.187247e+00    6.873100e-01   9.404570e-03
  2.189457e+00    6.786044e-01   9.344384e-03
  2.191667e+00    6.984458e-01   9.479841e-03
  2.193878e+00    6.947238e-01   9.453994e-03
  2.196088e+00    6.974257e-01   9.471659e-03
  2.198299e+00    6.984346e-01   9.477409e-03
  2.200509e+00    6.871857e-01   9.399718e-03
  2.202720e+00    6.809304e-01   9.355690e-03
  2.204930e+00    6.836439e-01   9.373063e-03
  2.207141e+00    6.873594e-01   9.397386e-03
  2.209351e+00    6.847724e-01   9.377795e-03
  2.211562e+00    6.705959e-01   9.278601e-03
  2.213772e+00    6.919018e-01   9.368752e-03
  2.215982e+00    6.755607e-01   9.213264e-03
  2.218193e+00    6.746035e-01   9.177126e-03
  2.220403e+00    6.676294e-01   9.105099e-03
  2.222614e+00    6.872301e-01   9.216647e-03
  2.224824e+00    6.705344e-01   9.084654e-03
  2.227035e+00    6.734263e-01   9.086773e-03
  2.229245e+00    6.700534e-01   9.047037e-03
  2.231456e+00    6.760402e-01   9.071698e-03
  2.233666e+00    6.772769e-01   9.064828e-03
  2.235877e+00    6.662525e-01   8.976527e-03
  2.238087e+00    6.617713e-01   8.932890e-03
  2.240298e+00    6.654395e-01   8.943880e-03
  2.242508e+00    6.639026e-01   8.918485e-03
  2.244718e+00    6.671731e-01   8.924621e-03
  2.246929e+00    6.571699e-01   8.843174e-03
  2.249139e+00    6.573225e-01   8.831902e-03
  2.251350e+00    6.624758e-01   8.854800e-03
  2.253560e+00    6.672154e-01   8.874832e-03
  2.255771e+00    6.692013e-01   8.876606e-03
  2.257981e+00    6.579346e-01   8.790446e-03
  2.260192e+00    6.660666e-01   8.833463e-03
  2.262402e+00    6.840885e-01   8.941170e-03
  2.264613e+00    6.683636e-01   8.826948e-03
  2.266823e+00    6.484545e-01   8.684197e-03
  2.269033e+00    6.654890e-01   8.787096e-03
  2.271244e+00    6.758531e-01   8.844789e-03
  2.273454e+00    6.739780e-01   8.822151e-03
  2.275665e+00    6.635395e-01   8.743248e-03
  2.277875e+00    6.671034e-01   8.756734e-03
  2.280086e+00    6.585128e-01   8.690121e-03
  2.282296e+00    6.640126e-01   8.716912e-03
  2.284507e+00    6.438316e-01   8.573416e-03
  2.286717e+00    6.371392e-01   8.519407e-03
  2.288928e+00    6.488827e-01   8.587764e-03
  2.291138e+00    6.454406e-01   8.555598e-03
  2.293348e+00    6.758770e-01   8.745342e-03
  2.295559e+00    6.597150e-01   8.630775e-03
  2.297769e+00    6.759477e-01   8.726943e-03
  2.299980e+00    6.476209e-01   8.532823e-03
  2.302190e+00    6.480877e-01   8.526810e-03
  2.304401e+00    6.427869e-01   8.482607e-03
  2.306611e+00    6.625169e-01   8.602542e-03
  2.308822e+00    6.385087e-01   8.436929e-03
  2.311032e+00    6.456774e-01   8.477732e-03
  2.313243e+00    6.517450e-01   8.511184e-03
  2.315453e+00    6.594883e-01   8.553970e-03
  2.317663e+00    6.492537e-01   8.478203e-03
  2.319874e+00    6.423838e-01   8.424523e-03
  2.322084e+00    6.361869e-01   8.374892e-03
  2.324295e+00    6.514085e-01   8.466220e-03
  2.326505e+00    6.445810e-01   8.412691e-03
  2.328716e+00    6.478078e-01   8.425137e-03
  2.330926e+00    6.569563e-01   8.475532e-03
  2.333137e+00    6.540025e-01   8.447994e-03
  2.335347e+00    6.495362e-01   8.410201e-03
  2.337558e+00    6.342300e-01   8.302302e-03
  2.339768e+00    6.457087e-01   8.368487e-03
  2.341979e+00    6.328527e-01   8.276443e-03
  2.344189e+00    6.404302e-01   8.317416e-03
  2.346399e+00    6.370033e-01   8.286648e-03
  2.348610e+00    6.272720e-01   8.214697e-03
  2.350820e+00    6.192915e-01   8.154202e-03
  2.353031e+00    6.294722e-01   8.212680e-03
  2.355241e+00    6.315380e-01   8.218121e-03
  2.357452e+00    6.203706e-01   8.136798e-03
  2.359662e+00    6.215294e-01   8.136220e-03
  2.361873e+00    6.350066e-01   8.215706e-03
  2.364083e+00    6.299196e-01   8.174746e-03
  2.366294e+00    6.190836e-01   8.096067e-03
  2.368504e+00    6.202352e-01   8.095561e-03
  2.370714e+00    6.241999e-01   8.113350e-03
  2.372925e+00    6.142378e-01   8.040373e-03
  2.375135e+00    6.074693e-01   7.987984e-03
  2.377346e+00    6.230563e-01   8.081889e-03
  2.379556e+00    6.352668e-01   8.152710e-03
  2.381767e+00    6.163938e-01   8.022873e-03
  2.383977e+00    6.298110e-01   8.101724e-03
  2.386188e+00    6.234698e-01   8.052909e-03
  2.388398e+00    6.164441e-01   7.999447e-03
  2.390609e+00    6.181657e-01   8.002877e-03
  2.392819e+00    6.241247e-01   8.033540e-03
  2.395029e+00    6.248258e-01   8.030334e-03
  2.397240e+00    6.089370e-01   7.919752e-03
  2.399450e+00    6.077853e-01   7.904471e-03
  2.401661e+00    6.247702e-01   8.006403e-03
  2.403871e+00    6.257890e-01   8.005077e-03
  2.406082e+00    6.244035e-01   7.988695e-03
  2.408292e+00    6.012667e-01   7.831558e-03
  2.410503e+00    5.963129e-01   7.791798e-03
  2.412713e+00    6.113063e-01   7.881325e-03
  2.414924e+00    5.989202e-01   7.793645e-03
  2.417134e+00    5.956999e-01   7.765071e-03
  2.419344e+00    6.088694e-01   7.842994e-03
  2.421555e+00    5.994341e-01   7.774513e-03
  2.423765e+00    5.745710e-01   7.604316e-03
  2.425976e+00    5.847764e-01   7.663832e-03
  2.428186e+00    5.938257e-01   7.715723e-03
  2.430397e+00    5.923697e-01   7.698807e-03
  2.432607e+00    5.939294e-01   7.701671e-03
  2.434818e+00    5.942855e-01   7.696453e-03
  2.437028e+00    5.824472e-01   7.612319e-03
  2.439239e+00    5.935590e-01   7.676933e-03
  2.441449e+00    5.849835e-01   7.614133e-03
  2.443659e+00    5.827414e-01   7.592219e-03
  2.445870e+00    5.795019e-01   7.583240e-03
  2.448080e+00    5.713897e-01   7.564429e-03
  2.450291e+00    5.709096e-01   7.577757e-03
  2.452501e+00    5.645924e-01   7.546779e-03
  2.454712e+00    5.568507e-01   7.503157e-03
  2.456922e+00    5.599473e-01   7.530557e-03
  2.459133e+00    5.622816e-01   7.551618e-03
  2.461343e+00    5.693806e-01   7.603542e-03
  2.463554e+00    5.444951e-01   7.438909e-03
  2.465764e+00    5.560894e-01   7.520807e-03
  2.467975e+00    5.632983e-01   7.571693e-03
  2.470185e+00    5.667246e-01   7.596965e-03
  2.472395e+00    5.556108e-01   7.523333e-03
  2.474606e+00    5.348359e-01   7.382871e-03
  2.476816e+00    5.278518e-01   7.335221e-03
  2.479027e+00    5.400149e-01   7.420077e-03
  2.481237e+00    5.493270e-01   7.484075e-03
  2.483448e+00    5.484798e-01   7.478603e-03
  2.485658e+00    5.549637e-01   7.522535e-03
  2.487869e+00    5.322011e-01   7.366686e-03
  2.490079e+00    5.308692e-01   7.356951e-03
  2.492290e+00    5.205361e-01   7.284572e-03
  2.494500e+00    5.334600e-01   7.373696e-03
  2.496710e+00    5.349118e-01   7.383058e-03
  2.498921e+00    5.236141e-01   7.303696e-03
  2.501131e+00    5.232256e-01   7.300009e-03
  2.503342e+00    5.264334e-01   7.321133e-03
  2.505552e+00    5.245621e-01   7.306971e-03
  2.507763e+00    5.265182e-01   7.319159e-03
  2.509973e+00    5.337639e-01   7.367967e-03
  2.512184e+00    5.219644e-01   7.284472e-03
  2.514394e+00    5.156917e-01   7.231291e-03
  2.516605e+00    5.224842e-01   7.231879e-03
  2.518815e+00    5.295768e-01   7.252374e-03
  2.521025e+00    5.355166e-01   7.271784e-03
  2.523236e+00    5.228469e-01   7.167305e-03
  2.525446e+00    5.226640e-01   7.150493e-03
  2.527657e+00    5.227595e-01   7.136587e-03
  2.529867e+00    5.120517e-01   7.049096e-03
  2.532078e+00    5.210007e-01   7.095452e-03
  2.534288e+00    5.227171e-01   7.093276e-03
  2.536499e+00    5.248220e-01   7.095603e-03
  2.538709e+00    5.164622e-01   7.027944e-03
  2.540920e+00    5.230545e-01   7.062028e-03
  2.543130e+00    5.129677e-01   6.983352e-03
  2.545340e+00    5.099575e-01   6.952901e-03
  2.547551e+00    5.161014e-01   6.984767e-03
  2.549761e+00    5.330526e-01   7.088868e-03
  2.551972e+00    5.310509e-01   7.066126e-03
  2.554182e+00    5.480739e-01   7.169061e-03
  2.556393e+00    5.512710e-01   7.180597e-03
  2.558603e+00    5.469033e-01   7.142792e-03
  2.560814e+00    5.319396e-01   7.035602e-03
  2.563024e+00    5.260501e-01   6.987902e-03
  2.565235e+00    5.266357e-01   6.982214e-03
  2.567445e+00    5.316303e-01   7.005577e-03
  2.569656e+00    5.211187e-01   6.926197e-03
  2.571866e+00    5.187024e-01   6.900764e-03
  2.574076e+00    5.053008e-01   6.801871e-03
  2.576287e+00    5.109733e-01   6.831634e-03
  2.578497e+00    5.260940e-01   6.924071e-03
  2.580708e+00    5.176027e-01   6.859878e-03
  2.582918e+00    5.191558e-01   6.862351e-03
  2.585129e+00    5.176497e-01   6.844623e-03
  2.587339e+00    5.145624e-01   6.816501e-03
  2.589550e+00    5.080107e-01   6.765445e-03
  2.591760e+00    5.030887e-01   6.724927e-03
  2.593971e+00    4.923040e-01   6.645068e-03
  2.596181e+00    5.055720e-01   6.727827e-03
  2.598391e+00    5.001132e-01   6.686285e-03
  2.600602e+00    4.977448e-01   6.664567e-03
  2.602812e+00    5.252252e-01   6.838437e-03
  2.605023e+00    5.166035e-01   6.774851e-03
  2.607233e+00    5.152465e-01   6.758756e-03
  2.609444e+00    5.046134e-01   6.681451e-03
  2.611654e+00    5.050568e-01   6.677062e-03
  2.613865e+00    5.066631e-01   6.680650e-03
  2.616075e+00    5.025511e-01   6.646353e-03
  2.618286e+00    5.116687e-01   6.699342e-03
  2.620496e+00    5.170711e-01   6.727843e-03
  2.622706e+00    5.137604e-01   6.700478e-03
  2.624917e+00    5.086305e-01   6.661077e-03
  2.627127e+00    5.032139e-01   6.619771e-03
  2.629338e+00    4.950126e-01   6.559677e-03
  2.631548e+00    4.983459e-01   6.575593e-03
  2.633759e+00    4.837753e-01   6.471740e-03
  2.635969e+00    4.952858e-01   6.541607e-03
  2.638180e+00    5.044634e-01   6.594962e-03
  2.640390e+00    5.008283e-01   6.564545e-03
  2.642601e+00    4.944090e-01   6.515722e-03
  2.644811e+00    5.023261e-01   6.560592e-03
  2.647021e+00    4.940901e-01   6.500064e-03
  2.649232e+00    4.988825e-01   6.524794e-03
  2.651442e+00    5.060230e-01   6.564765e-03
  2.653653e+00    4.962782e-01   6.494503e-03
  2.655863e+00    4.836428e-01   6.404692e-03
  2.658074e+00    4.841060e-01   6.401225e-03
  2.660284e+00    4.989081e-01   6.492002e-03
  2.662495e+00    4.990866e-01   6.486396e-03
  2.664705e+00    5.099216e-01   6.549765e-03
  2.666916e+00    5.008600e-01   6.484832e-03
  2.669126e+00    4.920743e-01   6.421259e-03
  2.671337e+00    5.005387e-01   6.469643e-03
  2.673547e+00    4.915519e-01   6.404946e-03
  2.675757e+00    4.882546e-01   6.377020e-03
  2.677968e+00    4.836793e-01   6.340608e-03
  2.680178e+00    4.948812e-01   6.407209e-03
  2.682389e+00    4.942845e-01   6.396948e-03
  2.684599e+00    4.777400e-01   6.282882e-03
  2.686810e+00    5.007411e-01   6.425685e-03
  2.689020e+00    4.892353e-01   6.345166e-03
  2.691231e+00    5.070454e-01   6.453228e-03
  2.693441e+00    5.072210e-01   6.448099e-03
  2.695652e+00    4.976290e-01   6.380286e-03
  2.697862e+00    4.884020e-01   6.314519e-03
  2.700072e+00    4.830196e-01   6.273586e-03
  2.702283e+00    4.934951e-01   6.334999e-03
  2.704493e+00    4.869490e-01   6.286589e-03
  2.706704e+00    4.763390e-01   6.211376e-03
  2.708914e+00    4.801701e-01   6.230400e-03
  2.711125e+00    4.890114e-01   6.281232e-03
  2.713335e+00    4.903684e-01   6.283836e-03
  2.715546e+00    4.900725e-01   6.275469e-03
  2.717756e+00    4.830463e-01   6.224446e-03
  2.719967e+00    4.948828e-01   6.293971e-03
  2.722177e+00    4.940583e-01   6.282563e-03
  2.724387e+00    4.862776e-01   6.226784e-03
  2.726598e+00    4.873544e-01   6.227599e-03
  2.728808e+00    4.944820e-01   6.266762e-03
  2.731019e+00    4.835388e-01   6.190924e-03
  2.733229e+00    4.802334e-01   6.163932e-03
  2.735440e+00    4.887324e-01   6.211951e-03
  2.737650e+00    4.752760e-01   6.119865e-03
  2.739861e+00    4.963935e-01   6.248189e-03
  2.742071e+00    4.902433e-01   6.203588e-03
  2.744282e+00    4.939003e-01   6.220360e-03
  2.746492e+00    4.757500e-01   6.099005e-03
  2.748702e+00    4.714251e-01   6.065375e-03
  2.750913e+00    4.802934e-01   6.116373e-03
  2.753123e+00    4.787794e-01   6.100627e-03
  2.755334e+00    4.923342e-01   6.180232e-03
  2.757544e+00    4.798937e-01   6.095930e-03
  2.759755e+00    4.741369e-01   6.053394e-03
  2.761965e+00    4.858311e-01   6.121586e-03
  2.764176e+00    4.832738e-01   6.099435e-03
  2.766386e+00    4.789895e-01   6.066558e-03
  2.768597e+00    4.774550e-01   6.050989e-03
  2.770807e+00    4.837223e-01   6.084661e-03
  2.773017e+00    4.804460e-01   6.058040e-03
  2.775228e+00    4.900335e-01   6.112330e-03
  2.777438e+00    4.724448e-01   5.995892e-03
  2.779649e+00    4.779994e-01   6.025119e-03
  2.781859e+00    4.803860e-01   6.034358e-03
  2.784070e+00    4.822150e-01   6.039957e-03
  2.786280e+00    4.788308e-01   6.012949e-03
  2.788491e+00    4.763718e-01   5.991653e-03
  2.790701e+00    4.708001e-01   5.950902e-03
  2.792912e+00    4.683717e-01   5.929602e-03
  2.795122e+00    4.912957e-01   6.067166e-03
  2.797333e+00    4.833151e-01   6.012088e-03
  2.799543e+00    4.639259e-01   5.884471e-03
  2.801753e+00    4.736013e-01   5.939656e-03
  2.803964e+00    4.660146e-01   5.886299e-03
  2.806174e+00    4.632869e-01   5.862968e-03
  2.808385e+00    4.814090e-01   5.969689e-03
  2.810595e+00    4.752686e-01   5.924627e-03
  2.812806e+00    4.724961e-01   5.900737e-03
  2.815016e+00    4.875312e-01   5.989063e-03
  2.817227e+00    4.795351e-01   5.965829e-03
  2.819437e+00    4.621108e-01   5.867389e-03
  2.821648e+00    4.773436e-01   5.965587e-03
  2.823858e+00    4.757005e-01   5.960687e-03
  2.826068e+00    4.773372e-01   5.975919e-03
  2.828279e+00    4.693721e-01   5.929900e-03
  2.830489e+00    4.679368e-01   5.924118e-03
  2.832700e+00    4.754084e-01   5.973808e-03
  2.834910e+00    4.719580e-01   5.954155e-03
  2.837121e+00    4.537765e-01   5.840030e-03
  2.839331e+00    4.625665e-01   5.897508e-03
  2.841542e+00    4.802799e-01   6.010411e-03
  2.843752e+00    4.759071e-01   5.983783e-03
  2.845963e+00    4.650391e-01   5.915464e-03
  2.848173e+00    4.646569e-01   5.913094e-03
  2.850383e+00    4.700957e-01   5.947915e-03
  2.852594e+00    4.627660e-01   5.901273e-03
  2.854804e+00    4.809648e-01   6.015680e-03
  2.857015e+00    4.755471e-01   5.981276e-03
  2.859225e+00    4.602352e-01   5.883950e-03
  2.861436e+00    4.653019e-01   5.915577e-03
  2.863646e+00    4.635518e-01   5.904494e-03
  2.865857e+00    4.634279e-01   5.904031e-03
  2.868067e+00    4.799178e-01   6.008381e-03
  2.870278e+00    4.774361e-01   5.992476e-03
  2.872488e+00    4.852522e-01   6.040134e-03
  2.874698e+00    4.634266e-01   5.901711e-03
  2.876909e+00    4.488771e-01   5.807016e-03
  2.879119e+00    4.677150e-01   5.925947e-03
  2.881330e+00    4.693647e-01   5.934954e-03
  2.883540e+00    4.530646e-01   5.829596e-03
  2.885751e+00    4.610794e-01   5.879276e-03
  2.887961e+00    4.797077e-01   5.994952e-03
  2.890172e+00    4.707993e-01   5.937422e-03
  2.892382e+00    4.717995e-01   5.941894e-03
  2.894593e+00    4.643800e-01   5.893147e-03
  2.896803e+00    4.721805e-01   5.940464e-03
  2.899014e+00    4.642834e-01   5.888632e-03
  2.901224e+00    4.625783e-01   5.875836e-03
  2.903434e+00    4.519713e-01   5.806133e-03
  2.905645e+00    4.573497e-01   5.838370e-03
  2.907855e+00    4.553934e-01   5.823766e-03
  2.910066e+00    4.548201e-01   5.818034e-03
  2.912276e+00    4.587229e-01   5.840832e-03
  2.914487e+00    4.518886e-01   5.794712e-03
  2.916697e+00    4.548930e-01   5.811729e-03
  2.918908e+00    4.536384e-01   5.801707e-03
  2.921118e+00    4.664761e-01   5.880521e-03
  2.923329e+00    4.618540e-01   5.848983e-03
  2.925539e+00    4.628995e-01   5.853303e-03
  2.927749e+00    4.653972e-01   5.866748e-03
  2.929960e+00    4.589939e-01   5.823463e-03
  2.932170e+00    4.576149e-01   5.812384e-03
  2.934381e+00    4.592459e-01   5.820275e-03
  2.936591e+00    4.529051e-01   5.777400e-03
  2.938802e+00    4.458921e-01   5.729803e-03
  2.941012e+00    4.660031e-01   5.855225e-03
  2.943223e+00    4.629192e-01   5.833130e-03
  2.945433e+00    4.423179e-01   5.698161e-03
  2.947644e+00    4.596195e-01   5.804379e-03
  2.949854e+00    4.585764e-01   5.793501e-03
  2.952064e+00    4.454821e-01   5.706017e-03
  2.954275e+00    4.505745e-01   5.734151e-03
  2.956485e+00    4.555566e-01   5.761561e-03
  2.958696e+00    4.485815e-01   5.712966e-03
  2.960906e+00    4.513403e-01   5.726316e-03
  2.963117e+00    4.549634e-01   5.744769e-03
  2.965327e+00    4.756621e-01   5.870002e-03
  2.967538e+00    4.662968e-01   5.809000e-03
  2.969748e+00    4.537334e-01   5.727384e-03
  2.971959e+00    4.621382e-01   5.777023e-03
  2.974169e+00    4.484700e-01   5.688386e-03
  2.976379e+00    4.493917e-01   5.691322e-03
  2.978590e+00    4.603824e-01   5.757336e-03
  2.980800e+00    4.646420e-01   5.781082e-03
  2.983011e+00    4.610599e-01   5.755945e-03
  2.985221e+00    4.559143e-01   5.720567e-03
  2.987432e+00    4.434356e-01   5.638677e-03
  2.989642e+00    4.470018e-01   5.658675e-03
  2.991853e+00    4.602840e-01   5.738841e-03
  2.994063e+00    4.564539e-01   5.712001e-03
  2.996274e+00    4.521632e-01   5.681906e-03
  2.998484e+00    4.539767e-01   5.690598e-03
  3.000694e+00    4.495750e-01   5.659498e-03
  3.002905e+00    4.563968e-01   5.699334e-03
  3.005115e+00    4.469327e-01   5.636960e-03
  3.007326e+00    4.586626e-01   5.707291e-03
  3.009536e+00    4.638038e-01   5.735894e-03
  3.011747e+00    4.564479e-01   5.687315e-03
  3.013957e+00    4.453539e-01   5.614614e-03
  3.016168e+00    4.424239e-01   5.592882e-03
  3.018378e+00    4.528047e-01   5.655081e-03
  3.020589e+00    4.537867e-01   5.658003e-03
  3.022799e+00    4.416020e-01   5.578383e-03
  3.025010e+00    4.600871e-01   5.690686e-03
  3.027220e+00    4.456427e-01   5.597562e-03
  3.029430e+00    4.493410e-01   5.617487e-03
  3.031641e+00    4.619058e-01   5.692324e-03
  3.033851e+00    4.571309e-01   5.659298e-03
  3.036062e+00    4.439351e-01   5.574252e-03
  3.038272e+00    4.569407e-01   5.651712e-03
  3.040483e+00    4.273049e-01   5.462245e-03
  3.042693e+00    4.291857e-01   5.471057e-03
  3.044904e+00    4.525209e-01   5.613777e-03
  3.047114e+00    4.542531e-01   5.619720e-03
  3.049325e+00    4.457927e-01   5.562745e-03
  3.051535e+00    4.486815e-01   5.576366e-03
  3.053745e+00    4.485742e-01   5.570965e-03
  3.055956e+00    4.480447e-01   5.563106e-03
  3.058166e+00    4.536201e-01   5.593342e-03
  3.060377e+00    4.456533e-01   5.539258e-03
  3.062587e+00    4.606943e-01   5.627274e-03
  3.064798e+00    4.606780e-01   5.622885e-03
  3.067008e+00    4.569539e-01   5.595325e-03
  3.069219e+00    4.635138e-01   5.630765e-03
  3.071429e+00    4.739229e-01   5.690031e-03
  3.073640e+00    4.554269e-01   5.574560e-03
  3.075850e+00    4.568770e-01   5.579802e-03
  3.078060e+00    4.482782e-01   5.523945e-03
  3.080271e+00    4.499902e-01   5.530998e-03
  3.082481e+00    4.554454e-01   5.560949e-03
  3.084692e+00    4.599378e-01   5.584894e-03
  3.086902e+00    4.562376e-01   5.559106e-03
  3.089113e+00    4.476581e-01   5.503032e-03
  3.091323e+00    4.476323e-01   5.499477e-03
  3.093534e+00    4.538074e-01   5.533894e-03
  3.095744e+00    4.536871e-01   5.529774e-03
  3.097955e+00    4.497466e-01   5.502139e-03
  3.100165e+00    4.430005e-01   5.457413e-03
  3.102375e+00    4.412542e-01   5.443235e-03
  3.104586e+00    4.440560e-01   5.457006e-03
  3.106796e+00    4.425468e-01   5.444236e-03
  3.109007e+00    4.384217e-01   5.415603e-03
  3.111217e+00    4.528227e-01   5.500100e-03
  3.113428e+00    4.516112e-01   5.489308e-03
  3.115638e+00    4.554193e-01   5.509135e-03
  3.117849e+00    4.493133e-01   5.468340e-03
  3.120059e+00    4.517577e-01   5.479698e-03
  3.122270e+00    4.364839e-01   5.383058e-03
  3.124480e+00    4.455062e-01   5.434703e-03
  3.126691e+00    4.453565e-01   5.430236e-03
  3.128901e+00    4.401045e-01   5.394998e-03
  3.131111e+00    4.566859e-01   5.491806e-03
  3.133322e+00    4.509800e-01   5.453927e-03
  3.135532e+00    4.434565e-01   5.404838e-03
  3.137743e+00    4.506796e-01   5.445168e-03
  3.139953e+00    4.393627e-01   5.372705e-03
  3.142164e+00    4.440176e-01   5.413122e-03
  3.144374e+00    4.544457e-01   5.505102e-03
  3.146585e+00    4.501925e-01   5.493992e-03
  3.148795e+00    4.402320e-01   5.443609e-03
  3.151006e+00    4.308543e-01   5.393759e-03
  3.153216e+00    4.374125e-01   5.441751e-03
  3.155426e+00    4.298272e-01   5.400608e-03
  3.157637e+00    4.309953e-01   5.413376e-03
  3.159847e+00    4.282387e-01   5.400853e-03
  3.162058e+00    4.461933e-01   5.517377e-03
  3.164268e+00    4.364511e-01   5.460849e-03
  3.166479e+00    4.451336e-01   5.518573e-03
  3.168689e+00    4.341075e-01   5.453165e-03
  3.170900e+00    4.199089e-01   5.366329e-03
  3.173110e+00    4.432441e-01   5.516292e-03
  3.175321e+00    4.414172e-01   5.507437e-03
  3.177531e+00    4.455358e-01   5.535822e-03
  3.179741e+00    4.386579e-01   5.495013e-03
  3.181952e+00    4.285592e-01   5.433474e-03
  3.184162e+00    4.369201e-01   5.488413e-03
  3.186373e+00    4.434761e-01   5.531034e-03
  3.188583e+00    4.426839e-01   5.527903e-03
  3.190794e+00    4.368555e-01   5.493158e-03
  3.193004e+00    4.289147e-01   5.444215e-03
  3.195215e+00    4.390871e-01   5.509923e-03
  3.197425e+00    4.319545e-01   5.466181e-03
  3.199636e+00    4.306638e-01   5.457236e-03
  3.201846e+00    4.486643e-01   5.569513e-03
  3.204056e+00    4.347604e-01   5.483425e-03
  3.206267e+00    4.363457e-01   5.494272e-03
  3.208477e+00    4.249614e-01   5.423036e-03
  3.210688e+00    4.308076e-01   5.461038e-03
  3.212898e+00    4.265255e-01   5.434413e-03
  3.215109e+00    4.316731e-01   5.467843e-03
  3.217319e+00    4.492545e-01   5.578747e-03
  3.219530e+00    4.348620e-01   5.489055e-03
  3.221740e+00    4.305760e-01   5.462494e-03
  3.223951e+00    4.348945e-01   5.490300e-03
  3.226161e+00    4.252628e-01   5.429328e-03
  3.228372e+00    4.253623e-01   5.430519e-03
  3.230582e+00    4.298989e-01   5.459521e-03
  3.232792e+00    4.356178e-01   5.495936e-03
  3.235003e+00    4.376517e-01   5.508998e-03
  3.237213e+00    4.370069e-01   5.505062e-03
  3.239424e+00    4.238824e-01   5.421757e-03
  3.241634e+00    4.212394e-01   5.404953e-03
  3.243845e+00    4.286384e-01   5.452266e-03
  3.246055e+00    4.286246e-01   5.451929e-03
  3.248266e+00    4.246101e-01   5.426529e-03
  3.250476e+00    4.271583e-01   5.442476e-03
  3.252687e+00    4.201643e-01   5.397668e-03
  3.254897e+00    4.386316e-01   5.514882e-03
  3.257107e+00    4.218201e-01   5.407879e-03
  3.259318e+00    4.175510e-01   5.380183e-03
  3.261528e+00    4.257310e-01   5.432498e-03
  3.263739e+00    4.285623e-01   5.449981e-03
  3.265949e+00    4.239678e-01   5.420550e-03
  3.268160e+00    4.268530e-01   5.438555e-03
  3.270370e+00    4.290257e-01   5.451865e-03
  3.272581e+00    4.250641e-01   5.426359e-03
  3.274791e+00    4.251755e-01   5.426546e-03
  3.277002e+00    4.166679e-01   5.371429e-03
  3.279212e+00    4.231719e-01   5.412785e-03
  3.281422e+00    4.191010e-01   5.386138e-03
  3.283633e+00    4.221388e-01   5.404921e-03
  3.285843e+00    4.324193e-01   5.470022e-03
  3.288054e+00    4.380578e-01   5.504606e-03
  3.290264e+00    4.053704e-01   5.294962e-03
  3.292475e+00    4.121727e-01   5.338354e-03
  3.294685e+00    4.248048e-01   5.418906e-03
  3.296896e+00    4.275990e-01   5.435958e-03
  3.299106e+00    4.131134e-01   5.342534e-03
  3.301317e+00    4.137003e-01   5.345302e-03
  3.303527e+00    4.234631e-01   5.407554e-03
  3.305737e+00    4.226668e-01   5.401410e-03
  3.307948e+00    4.337430e-01   5.471047e-03
  3.310158e+00    4.224877e-01   5.398755e-03
  3.312369e+00    4.195959e-01   5.379363e-03
  3.314579e+00    4.226956e-01   5.398280e-03
  3.316790e+00    4.313147e-01   5.452342e-03
  3.319000e+00    4.282243e-01   5.431566e-03
  3.321211e+00    4.257220e-01   5.415061e-03
  3.323421e+00    4.224785e-01   5.393201e-03
  3.325632e+00    4.221806e-01   5.390402e-03
  3.327842e+00    4.333926e-01   5.460582e-03
  3.330052e+00    4.374650e-01   5.485094e-03
  3.332263e+00    4.323457e-01   5.451880e-03
  3.334473e+00    4.283743e-01   5.425875e-03
  3.336684e+00    4.209736e-01   5.377519e-03
  3.338894e+00    4.251068e-01   5.403006e-03
  3.341105e+00    4.239424e-01   5.394405e-03
  3.343315e+00    4.096128e-01   5.301318e-03
  3.345526e+00    4.174117e-01   5.350638e-03
  3.347736e+00    4.309971e-01   5.435606e-03
  3.349947e+00    4.169299e-01   5.345237e-03
  3.352157e+00    4.214639e-01   5.373038e-03
  3.354368e+00    4.272327e-01   5.408389e-03
  3.356578e+00    4.181398e-01   5.349489e-03
  3.358788e+00    4.147024e-01   5.326153e-03
  3.360999e+00    4.121918e-01   5.308748e-03
  3.363209e+00    4.271698e-01   5.403335e-03
  3.365420e+00    3.969540e-01   5.207253e-03
  3.367630e+00    3.981448e-01   5.214043e-03
  3.369841e+00    4.027778e-01   5.242897e-03
  3.372051e+00    4.333537e-01   5.436241e-03
  3.374262e+00    4.259673e-01   5.387248e-03
  3.376472e+00    4.169425e-01   5.327451e-03
  3.378683e+00    4.076083e-01   5.264973e-03
  3.380893e+00    4.138613e-01   5.302875e-03
  3.383103e+00    4.171728e-01   5.321342e-03
  3.385314e+00    4.221834e-01   5.350953e-03
  3.387524e+00    4.156354e-01   5.306581e-03
  3.389735e+00    4.122233e-01   5.282102e-03
  3.391945e+00    4.158549e-01   5.301639e-03
  3.394156e+00    4.277601e-01   5.372688e-03
  3.396366e+00    4.241864e-01   5.346770e-03
  3.398577e+00    4.104959e-01   5.256706e-03
  3.400787e+00    4.108936e-01   5.271184e-03
  3.402998e+00    4.033805e-01   5.260519e-03
  3.405208e+00    4.089327e-01   5.317340e-03
  3.407418e+00    3.947427e-01   5.239938e-03
  3.409629e+00    4.103591e-01   5.356684e-03
  3.411839e+00    4.067101e-01   5.344735e-03
  3.414050e+00    3.944682e-01   5.274612e-03
  3.416260e+00    3.977553e-01   5.306235e-03
  3.418471e+00    3.979999e-01   5.317339e-03
  3.420681e+00    3.952035e-01   5.307134e-03
  3.422892e+00    3.963773e-01   5.323089e-03
  3.425102e+00    3.913000e-01   5.296706e-03
  3.427313e+00    3.788832e-01   5.219108e-03
  3.429523e+00    3.751826e-01   5.200481e-03
  3.431733e+00    4.021822e-01   5.391164e-03
  3.433944e+00    3.970564e-01   5.363285e-03
  3.436154e+00    3.925615e-01   5.339188e-03
  3.438365e+00    3.775529e-01   5.242005e-03
  3.440575e+00    3.711386e-01   5.203137e-03
  3.442786e+00    3.774151e-01   5.252545e-03
  3.444996e+00    3.774506e-01   5.258313e-03
  3.447207e+00    3.543292e-01   5.099847e-03
  3.449417e+00    3.600589e-01   5.181075e-03
  3.451628e+00    3.705828e-01   5.285788e-03
  3.453838e+00    3.726803e-01   5.322006e-03
  3.456049e+00    3.712266e-01   5.335668e-03
  3.458259e+00    3.745469e-01   5.381650e-03
  3.460469e+00    3.677003e-01   5.352074e-03
  3.462680e+00    3.638578e-01   5.343009e-03
  3.464890e+00    3.686856e-01   5.396196e-03
  3.467101e+00    3.718052e-01   5.436555e-03
  3.469311e+00    3.934516e-01   5.609600e-03
  3.471522e+00    3.925344e-01   5.619876e-03
  3.473732e+00    3.943684e-01   5.649247e-03
  3.475943e+00    3.913077e-01   5.643158e-03
  3.478153e+00    3.965994e-01   5.696811e-03
  3.480364e+00    4.017125e-01   5.748719e-03
  3.482574e+00    4.040372e-01   5.780652e-03
  3.484784e+00    4.402454e-01   6.049527e-03
  3.486995e+00    4.407429e-01   6.068516e-03
  3.489205e+00    4.366652e-01   6.055246e-03
  3.491416e+00    4.406334e-01   6.097851e-03
  3.493626e+00    4.411711e-01   6.116285e-03
  3.495837e+00    4.475290e-01   6.175051e-03
  3.498047e+00    4.548517e-01   6.240015e-03
  3.500258e+00    4.614255e-01   6.299694e-03
  3.502468e+00    4.770662e-01   6.420363e-03
  3.504679e+00    4.733079e-01   6.409694e-03
  3.506889e+00    4.719527e-01   6.415048e-03
  3.509099e+00    4.869573e-01   6.530813e-03
  3.511310e+00    4.974825e-01   6.615797e-03
  3.513520e+00    5.110776e-01   6.720459e-03
  3.515731e+00    4.884256e-01   6.584241e-03
  3.517941e+00    4.974754e-01   6.659409e-03
  3.520152e+00    5.245579e-01   6.853030e-03
  3.522362e+00    5.101603e-01   6.772968e-03
  3.524573e+00    5.055145e-01   6.756313e-03
  3.526783e+00    5.010601e-01   6.739702e-03
  3.528994e+00    5.146562e-01   6.842733e-03
  3.531204e+00    5.292870e-01   6.951875e-03
  3.533414e+00    5.315920e-01   6.979156e-03
  3.535625e+00    5.494230e-01   7.107839e-03
  3.537835e+00    5.660657e-01   7.227184e-03
  3.540046e+00    5.503376e-01   7.135160e-03
  3.542256e+00    5.380459e-01   7.062551e-03
  3.544467e+00    5.490739e-01   7.142272e-03
  3.546677e+00    5.428684e-01   7.109445e-03
  3.548888e+00    5.445222e-01   7.127807e-03
  3.551098e+00    5.369341e-01   7.085262e-03
  3.553309e+00    5.503510e-01   7.181535e-03
  3.555519e+00    5.483821e-01   7.180053e-03
  3.557729e+00    5.412019e-01   7.144721e-03
  3.559940e+00    5.227140e-01   7.033027e-03
  3.562150e+00    5.352914e-01   7.128799e-03
  3.564361e+00    5.424166e-01   7.189503e-03
  3.566571e+00    5.462090e-01   7.228584e-03
  3.568782e+00    5.247221e-01   7.098932e-03
  3.570992e+00    5.507154e-01   7.286545e-03
  3.573203e+00    5.334278e-01   7.185415e-03
  3.575413e+00    5.500863e-01   7.310693e-03
  3.577624e+00    5.467966e-01   7.303065e-03
  3.579834e+00    5.512488e-01   7.346802e-03
  3.582045e+00    5.280244e-01   7.204344e-03
  3.584255e+00    5.349954e-01   7.265730e-03
  3.586465e+00    5.491003e-01   7.375014e-03
  3.588676e+00    5.462405e-01   7.370126e-03
  3.590886e+00    5.402369e-01   7.343277e-03
  3.593097e+00    5.373493e-01   7.338108e-03
  3.595307e+00    5.377668e-01   7.354941e-03
  3.597518e+00    5.200479e-01   7.246774e-03
  3.599728e+00    5.447147e-01   7.430817e-03
  3.601939e+00    5.432028e-01   7.434724e-03
  3.604149e+00    5.261202e-01   7.331117e-03
  3.606360e+00    5.511326e-01   7.517731e-03
  3.608570e+00    5.425767e-01   7.473404e-03
  3.610780e+00    5.323856e-01   7.413914e-03
  3.612991e+00    5.442203e-01   7.505973e-03
  3.615201e+00    5.432256e-01   7.509002e-03
  3.617412e+00    5.247358e-01   7.387273e-03
  3.619622e+00    5.428300e-01   7.519573e-03
  3.621833e+00    5.396479e-01   7.504230e-03
  3.624043e+00    5.467957e-01   7.563399e-03
  3.626254e+00    5.416870e-01   7.537771e-03
  3.628464e+00    5.327113e-01   7.485995e-03
  3.630675e+00    5.231272e-01   7.432323e-03
  3.632885e+00    5.272532e-01   7.475952e-03
  3.635095e+00    5.232459e-01   7.461714e-03
  3.637306e+00    5.273451e-01   7.505205e-03
  3.639516e+00    5.611960e-01   7.757202e-03
  3.641727e+00    5.398467e-01   7.622938e-03
  3.643937e+00    5.164404e-01   7.470114e-03
  3.646148e+00    5.383474e-01   7.641638e-03
  3.648358e+00    5.359276e-01   7.639289e-03
  3.650569e+00    5.624023e-01   7.840870e-03
  3.652779e+00    5.351012e-01   7.663004e-03
  3.654990e+00    5.251852e-01   7.606448e-03
  3.657200e+00    5.330496e-01   7.678092e-03
  3.659410e+00    5.290124e-01   7.663897e-03
  3.661621e+00    5.262209e-01   7.658629e-03
  3.663831e+00    5.316060e-01   7.712889e-03
  3.666042e+00    5.194218e-01   7.638930e-03
  3.668252e+00    5.367426e-01   7.780573e-03
  3.670463e+00    5.431217e-01   7.842099e-03
  3.672673e+00    5.259804e-01   7.732726e-03
  3.674884e+00    5.122820e-01   7.646470e-03
  3.677094e+00    5.196348e-01   7.716489e-03
  3.679305e+00    5.382329e-01   7.869041e-03
  3.681515e+00    5.269515e-01   7.801724e-03
  3.683726e+00    5.329334e-01   7.861731e-03
  3.685936e+00    5.245667e-01   7.815404e-03
  3.688146e+00    5.331833e-01   7.895171e-03
  3.690357e+00    5.229739e-01   7.835132e-03
  3.692567e+00    5.162542e-01   7.800568e-03
  3.694778e+00    5.269256e-01   7.896813e-03
  3.696988e+00    5.231803e-01   7.884670e-03
  3.699199e+00    5.348151e-01   7.988196e-03
  3.701409e+00    5.341690e-01   7.999942e-03
  3.703620e+00    5.285227e-01   7.973884e-03
  3.705830e+00    5.305258e-01   8.005461e-03
  3.708041e+00    5.239632e-01   7.972447e-03
  3.710251e+00    5.290728e-01   8.027960e-03
  3.712461e+00    5.380105e-01   8.112480e-03
  3.714672e+00    5.451351e-01   8.183147e-03
  3.716882e+00    5.237206e-01   8.037588e-03
  3.719093e+00    5.295846e-01   8.099688e-03
  3.721303e+00    5.310610e-01   8.128142e-03
  3.723514e+00    5.269051e-01   8.113696e-03
  3.725724e+00    4.955770e-01   7.885548e-03
  3.727935e+00    5.163814e-01   8.066755e-03
  3.730145e+00    5.322565e-01   8.207434e-03
  3.732356e+00    5.327605e-01   8.229122e-03
  3.734566e+00    5.281343e-01   8.211100e-03
  3.736776e+00    5.224616e-01   8.184752e-03
  3.738987e+00    5.190855e-01   8.176100e-03
  3.741197e+00    4.928141e-01   7.984163e-03
  3.743408e+00    4.949597e-01   8.019222e-03
  3.745618e+00    5.165399e-01   8.210530e-03
  3.747829e+00    5.300151e-01   8.335399e-03
  3.750039e+00    5.248539e-01   8.313333e-03
  3.752250e+00    5.243679e-01   8.328174e-03
  3.754460e+00    5.039879e-01   8.183170e-03
  3.756671e+00    5.185995e-01   8.319934e-03
  3.758881e+00    5.096451e-01   8.266414e-03
  3.761091e+00    5.084138e-01   8.275595e-03
  3.763302e+00    5.023210e-01   8.244769e-03
  3.765512e+00    5.145996e-01   8.364352e-03
  3.767723e+00    5.018179e-01   8.279102e-03
  3.769933e+00    5.051987e-01   8.326186e-03
  3.772144e+00    5.184720e-01   8.454746e-03
  3.774354e+00    4.994642e-01   8.317981e-03
  3.776565e+00    4.909451e-01   8.266342e-03
  3.778775e+00    4.963766e-01   8.331718e-03
  3.780986e+00    5.107033e-01   8.471518e-03
  3.783196e+00    5.317395e-01   8.665094e-03
  3.785407e+00    5.140272e-01   8.540170e-03
  3.787617e+00    5.274491e-01   8.672194e-03
  3.789827e+00    5.173034e-01   8.609240e-03
  3.792038e+00    5.234499e-01   8.681500e-03
  3.794248e+00    5.300305e-01   8.757667e-03
  3.796459e+00    5.076694e-01   8.592435e-03
  3.798669e+00    5.111721e-01   8.643644e-03
  3.800880e+00    5.176171e-01   8.719713e-03
  3.803090e+00    5.396697e-01   8.926212e-03
  3.805301e+00    5.044762e-01   8.652485e-03
  3.807511e+00    5.046424e-01   8.675947e-03
  3.809722e+00    5.087516e-01   8.733699e-03
  3.811932e+00    5.045568e-01   8.719881e-03
  3.814142e+00    5.143341e-01   8.827226e-03
  3.816353e+00    5.204847e-01   8.903179e-03
  3.818563e+00    4.932851e-01   8.690375e-03
  3.820774e+00    5.407072e-01   9.122646e-03
  3.822984e+00    4.911184e-01   8.717539e-03
  3.825195e+00    4.907071e-01   8.737380e-03
  3.827405e+00    5.129732e-01   8.957664e-03
  3.829616e+00    4.942443e-01   8.816621e-03
  3.831826e+00    5.174988e-01   9.046312e-03
  3.834037e+00    4.898880e-01   8.825982e-03
  3.836247e+00    4.963824e-01   8.908998e-03
  3.838457e+00    5.029994e-01   8.993265e-03
  3.840668e+00    5.399248e-01   9.343937e-03
  3.842878e+00    5.050645e-01   9.062942e-03
  3.845089e+00    4.833286e-01   8.891055e-03
  3.847299e+00    5.022194e-01   9.089116e-03
  3.849510e+00    4.967908e-01   9.065702e-03
  3.851720e+00    4.955928e-01   9.076291e-03
  3.853931e+00    5.175787e-01   9.294709e-03
  3.856141e+00    5.124951e-01   9.268447e-03
  3.858352e+00    4.846339e-01   9.032002e-03
  3.860562e+00    4.816841e-01   9.023537e-03
  3.862772e+00    4.975268e-01   9.190319e-03
  3.864983e+00    5.011502e-01   9.243634e-03
  3.867193e+00    4.959514e-01   9.215355e-03
  3.869404e+00    5.049112e-01   9.318223e-03
  3.871614e+00    5.075030e-01   9.362433e-03
  3.873825e+00    5.071939e-01   9.380151e-03
  3.876035e+00    5.375212e-01   9.678006e-03
  3.878246e+00    4.693484e-01   9.068762e-03
  3.880456e+00    4.799821e-01   9.199372e-03
  3.882667e+00    4.835389e-01   9.262526e-03
  3.884877e+00    5.009573e-01   9.457855e-03
  3.887087e+00    5.170774e-01   9.639614e-03
  3.889298e+00    5.051097e-01   9.558167e-03
  3.891508e+00    5.003979e-01   9.544285e-03
  3.893719e+00    4.899068e-01   9.474695e-03
  3.895929e+00    4.915297e-01   9.521823e-03
  3.898140e+00    4.797528e-01   9.438477e-03
  3.900350e+00    4.988253e-01   9.656519e-03
  3.902561e+00    5.047113e-01   9.746289e-03
  3.904771e+00    4.596471e-01   9.332726e-03
  3.906982e+00    4.705462e-01   9.475283e-03
  3.909192e+00    4.857764e-01   9.660730e-03
  3.911403e+00    4.775375e-01   9.612097e-03
  3.913613e+00    4.996846e-01   9.867065e-03
  3.915823e+00    4.911865e-01   9.817767e-03
  3.918034e+00    4.919405e-01   9.860683e-03
  3.920244e+00    4.996489e-01   9.973696e-03
  3.922455e+00    4.969181e-01   9.982926e-03
  3.924665e+00    4.759029e-01   9.805452e-03
  3.926876e+00    5.046594e-01   1.013510e-02
  3.929086e+00    4.743593e-01   9.863042e-03
  3.931297e+00    4.897178e-01   1.005625e-02
  3.933507e+00    4.846491e-01   1.003295e-02
  3.935718e+00    4.660963e-01   9.867173e-03
  3.937928e+00    4.901780e-01   1.014836e-02
  3.940138e+00    4.981491e-01   1.026021e-02
  3.942349e+00    5.022226e-01   1.033239e-02
  3.944559e+00    5.022047e-01   1.036272e-02
  3.946770e+00    4.861467e-01   1.022581e-02
  3.948980e+00    4.869851e-01   1.026539e-02
  3.951191e+00    4.890901e-01   1.031847e-02
  3.953401e+00    4.870403e-01   1.032816e-02
  3.955612e+00    5.025970e-01   1.052399e-02
  3.957822e+00    4.757125e-01   1.027006e-02
  3.960033e+00    5.013999e-01   1.057676e-02
  3.962243e+00    4.781111e-01   1.036084e-02
  3.964453e+00    4.876007e-01   1.049635e-02
  3.966664e+00    4.972386e-01   1.063330e-02
  3.968874e+00    5.205981e-01   1.090967e-02
  3.971085e+00    4.616967e-01   1.029535e-02
  3.973295e+00    4.800780e-01   1.051962e-02
  3.975506e+00    4.854484e-01   1.059991e-02
  3.977716e+00    4.801700e-01   1.056396e-02
  3.979927e+00    4.626808e-01   1.039146e-02
  3.982137e+00    4.717024e-01   1.051420e-02
  3.984348e+00    4.753784e-01   1.057746e-02
  3.986558e+00    4.756930e-01   1.060295e-02
  3.988768e+00    5.030129e-01   1.092677e-02
  3.990979e+00    4.408055e-01   1.025044e-02
  3.993189e+00    4.898275e-01   1.082855e-02
  3.995400e+00    4.586699e-01   1.050145e-02
  3.997610e+00    4.960459e-01   1.095095e-02
  3.999821e+00    5.009226e-01   1.104293e-02
  4.002031e+00    4.993571e-01   1.106462e-02
  4.004242e+00    5.086764e-01   1.120676e-02
  4.006452e+00    5.013413e-01   1.116575e-02
  4.008663e+00    4.788171e-01   1.095173e-02
  4.010873e+00    4.862767e-01   1.107686e-02
  4.013084e+00    4.880433e-01   1.113806e-02
  4.015294e+00    4.896457e-01   1.119740e-02
  4.017504e+00    4.575537e-01   1.086504e-02
  4.019715e+00    4.549183e-01   1.087481e-02
  4.021925e+00    4.988929e-01   1.143195e-02
  4.024136e+00    4.870830e-01   1.133962e-02
  4.026346e+00    4.779032e-01   1.127619e-02
  4.028557e+00    4.919998e-01   1.148588e-02
  4.030767e+00    5.267779e-01   1.193262e-02
  4.032978e+00    4.803017e-01   1.144024e-02
  4.035188e+00    4.858933e-01   1.155282e-02
  4.037399e+00    4.934255e-01   1.169023e-02
  4.039609e+00    4.760439e-01   1.152978e-02
  4.041819e+00    4.866745e-01   1.170666e-02
  4.044030e+00    4.551460e-01   1.136963e-02
  4.046240e+00    5.028453e-01   1.200137e-02
  4.048451e+00    4.751299e-01   1.171653e-02
  4.050661e+00    4.800347e-01   1.182806e-02
  4.052872e+00    4.756334e-01   1.182615e-02
  4.055082e+00    4.662526e-01   1.176146e-02
  4.057293e+00    4.488795e-01   1.159214e-02
  4.059503e+00    4.812993e-01   1.205792e-02
  4.061714e+00    4.738921e-01   1.202081e-02
  4.063924e+00    5.167842e-01   1.261189e-02
  4.066134e+00    4.738508e-01   1.213355e-02
  4.068345e+00    4.851546e-01   1.233645e-02
  4.070555e+00    4.894984e-01   1.245142e-02
  4.072766e+00    4.707724e-01   1.227098e-02
  4.074976e+00    4.780172e-01   1.242673e-02
  4.077187e+00    4.930813e-01   1.268387e-02
  4.079397e+00    4.602776e-01   1.231714e-02
  4.081608e+00    5.021590e-01   1.293222e-02
  4.083818e+00    4.713359e-01   1.259430e-02
  4.086029e+00    5.207927e-01   1.330834e-02
  4.088239e+00    4.834911e-01   1.289199e-02
  4.090449e+00    4.564834e-01   1.259457e-02
  4.092660e+00    5.085070e-01   1.336600e-02
  4.094870e+00    4.758954e-01   1.300237e-02
  4.097081e+00    4.676444e-01   1.295967e-02
  4.099291e+00    4.875329e-01   1.328715e-02
  4.101502e+00    4.594344e-01   1.294675e-02
  4.103712e+00    4.689733e-01   1.312896e-02
  4.105923e+00    4.751194e-01   1.326619e-02
  4.108133e+00    4.480601e-01   1.293238e-02
  4.110344e+00    4.704389e-01   1.330209e-02
  4.112554e+00    4.670075e-01   1.330588e-02
  4.114764e+00    4.988349e-01   1.380697e-02
  4.116975e+00    4.920436e-01   1.376689e-02
  4.119185e+00    4.817964e-01   1.367805e-02
  4.121396e+00    4.587378e-01   1.340183e-02
  4.123606e+00    4.861657e-01   1.385333e-02
  4.125817e+00    4.702035e-01   1.368101e-02
  4.128027e+00    4.964848e-01   1.411722e-02
  4.130238e+00    5.259604e-01   1.459285e-02
  4.132448e+00    5.162099e-01   1.451944e-02
  4.134659e+00    4.849083e-01   1.413312e-02
  4.136869e+00    4.892095e-01   1.425892e-02
  4.139080e+00    5.187923e-01   1.474961e-02
  4.141290e+00    4.992610e-01   1.453389e-02
  4.143500e+00    4.641819e-01   1.407829e-02
  4.145711e+00    4.969758e-01   1.463514e-02
  4.147921e+00    4.782775e-01   1.442332e-02
  4.150132e+00    5.075110e-01   1.492821e-02
  4.152342e+00    5.003490e-01   1.489445e-02
  4.154553e+00    5.298972e-01   1.540074e-02
  4.156763e+00    4.754615e-01   1.466055e-02
  4.158974e+00    4.704164e-01   1.465574e-02
  4.161184e+00    5.077986e-01   1.530253e-02
  4.163395e+00    5.130946e-01   1.546062e-02
  4.165605e+00    4.999543e-01   1.534078e-02
  4.167815e+00    4.838401e-01   1.517041e-02
  4.170026e+00    5.015813e-01   1.552707e-02
  4.172236e+00    5.142181e-01   1.580662e-02
  4.174447e+00    5.125733e-01   1.586718e-02
  4.176657e+00    4.905581e-01   1.560761e-02
  4.178868e+00    5.057265e-01   1.593671e-02
  4.181078e+00    4.751300e-01   1.553403e-02
  4.183289e+00    4.546088e-01   1.528209e-02
  4.185499e+00    4.887132e-01   1.593825e-02
  4.187710e+00    4.649062e-01   1.563626e-02
  4.189920e+00    4.712400e-01   1.583705e-02
  4.192130e+00    5.074188e-01   1.653461e-02
  4.194341e+00    4.517626e-01   1.569693e-02
  4.196551e+00    4.514080e-01   1.578992e-02
  4.198762e+00    5.355243e-01   1.730765e-02
  4.200972e+00    5.346346e-01   1.740530e-02
  4.203183e+00    4.398003e-01   1.589039e-02
  4.205393e+00    4.838718e-01   1.677802e-02
  4.207604e+00    5.012358e-01   1.719375e-02
  4.209814e+00    4.295215e-01   1.602498e-02
  4.212025e+00    4.776631e-01   1.701886e-02
  4.214235e+00    4.995030e-01   1.752722e-02
  4.216445e+00    4.738551e-01   1.719457e-02
  4.218656e+00    4.471052e-01   1.682756e-02
  4.220866e+00    4.471357e-01   1.695259e-02
  4.223077e+00    4.766691e-01   1.763830e-02
  4.225287e+00    4.380274e-01   1.704101e-02
  4.227498e+00    4.606391e-01   1.761259e-02
  4.229708e+00    4.280846e-01   1.711675e-02
  4.231919e+00    5.339667e-01   1.927475e-02
  4.234129e+00    4.850565e-01   1.852492e-02
  4.236340e+00    5.068159e-01   1.909791e-02
  4.238550e+00    4.775654e-01   1.870264e-02
  4.240761e+00    5.138649e-01   1.957147e-02
  4.242971e+00    4.913337e-01   1.931292e-02
  4.245181e+00    4.685058e-01   1.903589e-02
  4.247392e+00    5.047048e-01   1.994255e-02
  4.249602e+00    5.134761e-01   2.031499e-02
  4.251813e+00    4.445360e-01   1.908835e-02
  4.254023e+00    4.435566e-01   1.925899e-02
  4.256234e+00    5.120090e-01   2.091336e-02
  4.258444e+00    4.625196e-01   2.008449e-02
  4.260655e+00    5.911894e-01   2.295719e-02
  4.262865e+00    5.316327e-01   2.201676e-02
  4.265076e+00    4.562094e-01   2.062765e-02
  4.267286e+00    4.718319e-01   2.122631e-02
  4.269496e+00    5.541918e-01   2.328493e-02
  4.271707e+00    4.864475e-01   2.208534e-02
  4.273917e+00    4.841972e-01   2.231871e-02
  4.276128e+00    5.151468e-01   2.332701e-02
  4.278338e+00    4.296809e-01   2.158888e-02
  4.280549e+00    4.576724e-01   2.260023e-02
  4.282759e+00    4.726864e-01   2.329772e-02
  4.284970e+00    5.043533e-01   2.442262e-02
  4.287180e+00    4.654830e-01   2.374310e-02
  4.289391e+00    4.646347e-01   2.389941e-02
  4.291601e+00    4.997230e-01   2.498418e-02
  4.293811e+00    4.251914e-01   2.322533e-02
  4.296022e+00    4.915701e-01   2.517284e-02
  4.298232e+00    5.004323e-01   2.561254e-02
  4.300443e+00    4.003993e-01   2.309859e-02
  4.302653e+00    4.072083e-01   2.349615e-02
  4.304864e+00    3.627078e-01   2.236673e-02
  4.307074e+00    5.099168e-01   2.675844e-02
  4.309285e+00    4.335860e-01   2.489926e-02
  4.311495e+00    4.382632e-01   2.526674e-02
  4.313706e+00    4.938514e-01   2.707372e-02
  4.315916e+00    4.357663e-01   2.568195e-02
  4.318126e+00    4.923269e-01   2.756744e-02
  4.320337e+00    4.336913e-01   2.613652e-02
  4.322547e+00    4.653106e-01   2.735897e-02
  4.324758e+00    4.685848e-01   2.774021e-02
  4.326968e+00    5.339392e-01   2.994574e-02
  4.329179e+00    4.573353e-01   2.801937e-02
  4.331389e+00    4.901929e-01   2.934285e-02
  4.333600e+00    5.213670e-01   3.062338e-02
  4.335810e+00    4.240484e-01   2.794624e-02
  4.338021e+00    4.515294e-01   2.920615e-02
  4.340231e+00    4.487582e-01   2.948243e-02
  4.342442e+00    4.381560e-01   2.952242e-02
  4.344652e+00    4.253213e-01   2.948162e-02
  4.346862e+00    5.001740e-01   3.241842e-02
  4.349073e+00    6.038413e-01   3.613927e-02
  4.351283e+00    4.830376e-01   3.280488e-02
  4.353494e+00    4.671831e-01   3.276044e-02
  4.355704e+00    5.933030e-01   3.751315e-02
  4.357915e+00    5.788764e-01   3.767169e-02
  4.360125e+00    4.524507e-01   3.387276e-02
  4.362336e+00    5.574886e-01   3.828591e-02
  4.364546e+00    3.232077e-01   2.968206e-02
  4.366757e+00    4.278010e-01   3.482693e-02
  4.368967e+00    5.156691e-01   3.899992e-02
  4.371177e+00    6.560239e-01   4.492334e-02
  4.373388e+00    5.719760e-01   4.288649e-02
  4.375598e+00    3.735603e-01   3.544856e-02
  4.377809e+00    5.204606e-01   4.289909e-02
  4.380019e+00    4.452654e-01   4.067945e-02
  4.382230e+00    2.144329e-01   2.901791e-02
  4.384440e+00    5.450403e-01   4.759170e-02
  4.386651e+00    4.321515e-01   4.368728e-02
  4.388861e+00    3.088239e-01   3.816840e-02
  4.391072e+00    5.299722e-01   5.175683e-02
  4.393282e+00    5.232890e-01   5.341863e-02
  4.395492e+00    3.087616e-01   4.273990e-02
  4.397703e+00    2.446292e-01   3.978058e-02
  4.399913e+00    3.534338e-01   5.023754e-02
  4.402124e+00    3.753637e-01   5.470055e-02
  4.404334e+00    6.302896e-01   7.535492e-02
  4.406545e+00    2.592416e-01   5.192720e-02
  4.408755e+00    2.646057e-01   5.689393e-02
  4.410966e+00    1.924851e-01   5.369616e-02
  4.413176e+00    3.554203e-01   8.260740e-02
  4.415387e+00   -6.601492e-01            nan
  4.417597e+00   -1.739599e+00            nan
  4.419807e+00   -1.824666e-01            nan
