# == pyFAI calibration ==
# Distance Sample to Detector: 0.216 m
# PONI: 1.166e-01, 1.308e-01 m
# Rotations: 0.000000 0.000000 0.000000 rad
# 
# == Fit2d calibration ==
# Distance Sample-beamCenter: 216.000 mm
# Center: x=1744.293, y=1555.000 pix
# Tilt: 0.000 deg  TiltPlanRot: 0.000 deg
# 
# Detector Eiger 9M	 PixelSize= 7.500e-05, 7.500e-05 m
#    Detector has a mask: True 
#    Detector has a dark current: False 
#    detector has a flat field: False 
# 
# Wavelength: 9.8e-11 m
# Mask applied: from detector
# Dark current applied: False
# Flat field applied: False
# Polarization factor: None
# Normalization factor: 1.0
# 
# Headers of the input frame:
# {
# "_array_data.header_convention": "SLS_1.0",
# "_array_data.header_contents": "# Detector: Dectris Eiger 9M, S/N E-18-0102\r\n# Pixel_size 75e-6 m x 75e-6 m\r\n# Silicon sensor, thickness 0.000450 m\r\n# Exposure_time 0.024997 s\r\n# Exposure_period 0.025000 s\r\n# Count_cutoff 62318 counts\r\n# Wavelength 0.980106 A\r\n# Detector_distance 0.215992 m\r\n# Beam_xy (1555, 1744) pixels\r\n# Start_angle 0.000000 deg.\r\n# Angle_increment 0.000000 deg.",
# "Content-Type": "application/octet-stream;",
# "conversions": "x-CBF_BYTE_OFFSET",
# "Content-Transfer-Encoding": "BINARY",
# "X-Binary-Size": "10166594",
# "X-Binary-ID": "1",
# "X-Binary-Element-Type": "signed 32-bit integer",
# "X-Binary-Element-Byte-Order": "LITTLE_ENDIAN",
# "Content-MD5": "xUUnfV+1HkbldiGES6hd6A==",
# "X-Binary-Number-of-Elements": "10166590",
# "X-Binary-Size-Fastest-Dimension": "3110",
# "X-Binary-Size-Second-Dimension": "3269",
# "X-Binary-Size-Padding": "4095"
# }
# --> H:/Proxima2a_2019-04-05/RAW_DATA/C5_gel17_position5/C5_mesh_1_data.cbf/C5_mesh_1_data.cbf000127.dat
#        q_A^-1              I           sigma 
  1.105228e-03    2.231435e+00   8.083122e-01
  3.315685e-03    1.534151e+00   4.074548e-01
  5.526141e-03    1.365382e+00   2.972345e-01
  7.736597e-03    1.548121e+00   2.673761e-01
  9.947054e-03    1.226055e+00   2.097642e-01
  1.215751e-02    1.452576e+00   2.064610e-01
  1.436797e-02    1.363949e+00   1.840242e-01
  1.657842e-02    1.293927e+00   1.668396e-01
  1.878888e-02    1.420231e+00   1.641886e-01
  2.099934e-02    1.421435e+00   1.554052e-01
  2.320979e-02    1.554972e+00   1.545945e-01
  2.542025e-02    1.508924e+00   1.455269e-01
  2.763070e-02    1.592319e+00   1.433855e-01
  2.984116e-02    1.693139e+00   1.422731e-01
  3.205162e-02    1.573736e+00   1.323586e-01
  3.426207e-02    1.404884e+00   1.209470e-01
  3.647253e-02    1.386405e+00   1.164487e-01
  3.868299e-02    1.423772e+00   1.145950e-01
  4.089344e-02    1.506312e+00   1.146405e-01
  4.310390e-02    1.501691e+00   1.114844e-01
  4.531436e-02    1.427884e+00   1.060260e-01
  4.752481e-02    1.522793e+00   1.069152e-01
  4.973527e-02    1.472251e+00   1.027644e-01
  5.194572e-02    1.434526e+00   9.925608e-02
  5.415618e-02    1.469055e+00   9.836890e-02
  5.636664e-02    1.373593e+00   9.323828e-02
  5.857709e-02    1.448971e+00   9.393865e-02
  6.078755e-02    1.443175e+00   9.202735e-02
  6.299801e-02    1.288460e+00   8.541457e-02
  6.520846e-02    1.370455e+00   8.658510e-02
  6.741892e-02    1.414856e+00   8.651789e-02
  6.962938e-02    1.470887e+00   8.680724e-02
  7.183983e-02    1.517306e+00   8.679777e-02
  7.405029e-02    1.473059e+00   8.423476e-02
  7.626074e-02    1.398608e+00   8.087949e-02
  7.847120e-02    1.322904e+00   7.754219e-02
  8.068166e-02    1.425927e+00   7.939385e-02
  8.289211e-02    1.496398e+00   8.023989e-02
  8.510257e-02    1.579651e+00   8.136355e-02
  8.731303e-02    1.589781e+00   8.058113e-02
  8.952348e-02    1.607533e+00   8.002533e-02
  9.173394e-02    1.488247e+00   7.606266e-02
  9.394439e-02    1.480791e+00   7.497150e-02
  9.615485e-02    1.490043e+00   7.433428e-02
  9.836531e-02    1.577679e+00   7.562262e-02
  1.005758e-01    1.567616e+00   7.454857e-02
  1.027862e-01    1.513826e+00   7.246459e-02
  1.049967e-01    1.495184e+00   7.125369e-02
  1.072071e-01    1.518103e+00   7.105282e-02
  1.094176e-01    1.564062e+00   7.138704e-02
  1.116280e-01    1.535930e+00   7.003663e-02
  1.138385e-01    1.618806e+00   7.119847e-02
  1.160490e-01    1.543347e+00   6.885315e-02
  1.182594e-01    1.526404e+00   6.782972e-02
  1.204699e-01    1.559607e+00   6.793103e-02
  1.226803e-01    1.611051e+00   6.841464e-02
  1.248908e-01    1.613598e+00   6.785928e-02
  1.271012e-01    1.555058e+00   6.603385e-02
  1.293117e-01    1.640572e+00   6.724212e-02
  1.315222e-01    1.540503e+00   6.460775e-02
  1.337326e-01    1.476424e+00   6.272363e-02
  1.359431e-01    1.577852e+00   6.488031e-02
  1.381535e-01    1.605964e+00   6.633436e-02
  1.403640e-01    1.625468e+00   6.702409e-02
  1.425744e-01    1.525710e+00   6.503856e-02
  1.447849e-01    1.592316e+00   6.645834e-02
  1.469953e-01    1.603689e+00   6.665350e-02
  1.492058e-01    1.635653e+00   6.723626e-02
  1.514163e-01    1.560854e+00   6.557183e-02
  1.536267e-01    1.555318e+00   6.532763e-02
  1.558372e-01    1.609924e+00   6.631782e-02
  1.580476e-01    1.610823e+00   6.617536e-02
  1.602581e-01    1.642320e+00   6.664949e-02
  1.624685e-01    1.675954e+00   6.714417e-02
  1.646790e-01    1.720482e+00   6.783494e-02
  1.668895e-01    1.743982e+00   6.809942e-02
  1.690999e-01    1.715547e+00   6.733915e-02
  1.713104e-01    1.715524e+00   6.712972e-02
  1.735208e-01    1.793175e+00   6.841874e-02
  1.757313e-01    1.826443e+00   6.883410e-02
  1.779417e-01    1.828374e+00   6.864587e-02
  1.801522e-01    1.845606e+00   6.874894e-02
  1.823626e-01    1.830347e+00   6.823622e-02
  1.845731e-01    1.890366e+00   6.912134e-02
  1.867836e-01    1.907099e+00   6.919227e-02
  1.889940e-01    1.959888e+00   6.991415e-02
  1.912045e-01    2.045158e+00   7.118038e-02
  1.934149e-01    1.962365e+00   6.949136e-02
  1.956254e-01    2.006669e+00   7.003966e-02
  1.978358e-01    1.989719e+00   6.950423e-02
  2.000463e-01    2.003604e+00   6.951518e-02
  2.022568e-01    2.034414e+00   6.981771e-02
  2.044672e-01    2.010340e+00   6.916562e-02
  2.066777e-01    2.001809e+00   6.878965e-02
  2.088881e-01    1.916440e+00   6.708667e-02
  2.110986e-01    1.889313e+00   6.638174e-02
  2.133090e-01    2.018819e+00   6.839605e-02
  2.155195e-01    2.071169e+00   6.904741e-02
  2.177300e-01    1.942273e+00   6.633908e-02
  2.199404e-01    1.897196e+00   6.383711e-02
  2.221509e-01    1.978966e+00   6.412773e-02
  2.243613e-01    1.965176e+00   6.309378e-02
  2.265718e-01    2.036020e+00   6.351311e-02
  2.287822e-01    2.021208e+00   6.265529e-02
  2.309927e-01    2.180846e+00   6.448969e-02
  2.332031e-01    2.208318e+00   6.433921e-02
  2.354136e-01    2.236609e+00   6.422523e-02
  2.376241e-01    2.170849e+00   6.278292e-02
  2.398345e-01    2.197083e+00   6.269366e-02
  2.420450e-01    2.185613e+00   6.208293e-02
  2.442554e-01    2.177951e+00   6.154708e-02
  2.464659e-01    2.137717e+00   6.056654e-02
  2.486763e-01    2.148015e+00   6.031317e-02
  2.508868e-01    2.114787e+00   5.946733e-02
  2.530973e-01    2.050869e+00   5.819869e-02
  2.553077e-01    2.044101e+00   5.775014e-02
  2.575182e-01    2.047548e+00   5.745684e-02
  2.597286e-01    2.068102e+00   5.740884e-02
  2.619391e-01    2.097113e+00   5.747729e-02
  2.641495e-01    2.054244e+00   5.657192e-02
  2.663600e-01    2.065121e+00   5.640959e-02
  2.685704e-01    1.960448e+00   5.466345e-02
  2.707809e-01    2.043383e+00   5.551151e-02
  2.729914e-01    2.010799e+00   5.478014e-02
  2.752018e-01    2.046175e+00   5.497230e-02
  2.774123e-01    2.089602e+00   5.526883e-02
  2.796227e-01    2.074852e+00   5.480100e-02
  2.818332e-01    2.014590e+00   5.372994e-02
  2.840436e-01    1.889643e+00   5.178484e-02
  2.862541e-01    1.919428e+00   5.194044e-02
  2.884646e-01    2.013831e+00   5.294993e-02
  2.906750e-01    2.016689e+00   5.273627e-02
  2.928855e-01    1.944125e+00   5.153888e-02
  2.950959e-01    1.917191e+00   5.094551e-02
  2.973064e-01    1.994974e+00   5.173513e-02
  2.995168e-01    1.954755e+00   5.097907e-02
  3.017273e-01    1.930337e+00   5.043628e-02
  3.039377e-01    1.945988e+00   5.041863e-02
  3.061482e-01    1.907611e+00   4.970302e-02
  3.083587e-01    1.950161e+00   5.003678e-02
  3.105691e-01    1.924852e+00   4.949870e-02
  3.127796e-01    1.883025e+00   4.875210e-02
  3.149900e-01    1.949204e+00   4.939474e-02
  3.172005e-01    1.963335e+00   4.937076e-02
  3.194109e-01    1.871438e+00   4.800251e-02
  3.216214e-01    1.843039e+00   4.744251e-02
  3.238319e-01    1.862398e+00   4.750207e-02
  3.260423e-01    1.850729e+00   4.716440e-02
  3.282528e-01    1.841176e+00   4.685526e-02
  3.304632e-01    1.843759e+00   4.670646e-02
  3.326737e-01    1.811787e+00   4.611908e-02
  3.348841e-01    1.952005e+00   4.768481e-02
  3.370946e-01    1.868057e+00   4.647268e-02
  3.393050e-01    1.861326e+00   4.621316e-02
  3.415155e-01    1.861476e+00   4.604124e-02
  3.437260e-01    1.830898e+00   4.549230e-02
  3.459364e-01    1.799738e+00   4.493666e-02
  3.481469e-01    1.867926e+00   4.561291e-02
  3.503573e-01    1.905748e+00   4.590457e-02
  3.525678e-01    1.841449e+00   4.496273e-02
  3.547782e-01    1.750084e+00   4.367467e-02
  3.569887e-01    1.766961e+00   4.372926e-02
  3.591992e-01    1.792065e+00   4.388297e-02
  3.614096e-01    1.765936e+00   4.341085e-02
  3.636201e-01    1.761194e+00   4.320018e-02
  3.658305e-01    1.793769e+00   4.344913e-02
  3.680410e-01    1.825687e+00   4.368323e-02
  3.702514e-01    1.816607e+00   4.342794e-02
  3.724619e-01    1.789076e+00   4.295084e-02
  3.746724e-01    1.788122e+00   4.279612e-02
  3.768828e-01    1.785168e+00   4.261685e-02
  3.790933e-01    1.823475e+00   4.293133e-02
  3.813037e-01    1.770431e+00   4.216390e-02
  3.835142e-01    1.772119e+00   4.204543e-02
  3.857246e-01    1.814399e+00   4.240636e-02
  3.879351e-01    1.802357e+00   4.212861e-02
  3.901455e-01    1.794893e+00   4.190744e-02
  3.923560e-01    1.794113e+00   4.176518e-02
  3.945665e-01    1.740918e+00   4.101088e-02
  3.967769e-01    1.773187e+00   4.125958e-02
  3.989874e-01    1.829311e+00   4.177663e-02
  4.011978e-01    1.790661e+00   4.120583e-02
  4.034083e-01    1.730876e+00   4.038774e-02
  4.056187e-01    1.750865e+00   4.049515e-02
  4.078292e-01    1.761480e+00   4.049479e-02
  4.100397e-01    1.771946e+00   4.049092e-02
  4.122501e-01    1.782943e+00   4.049485e-02
  4.144606e-01    1.796114e+00   4.052362e-02
  4.166710e-01    1.796654e+00   4.040921e-02
  4.188815e-01    1.755503e+00   3.982576e-02
  4.210919e-01    1.754164e+00   3.969390e-02
  4.233024e-01    1.768566e+00   3.973927e-02
  4.255128e-01    1.783726e+00   3.979388e-02
  4.277233e-01    1.851222e+00   4.042331e-02
  4.299338e-01    1.836888e+00   4.015063e-02
  4.321442e-01    1.818169e+00   3.983125e-02
  4.343547e-01    1.760187e+00   3.908015e-02
  4.365651e-01    1.734679e+00   3.868573e-02
  4.387756e-01    1.799518e+00   3.929176e-02
  4.409860e-01    1.796309e+00   3.914794e-02
  4.431965e-01    1.830224e+00   3.940652e-02
  4.454070e-01    1.791639e+00   3.888046e-02
  4.476174e-01    1.753758e+00   3.836161e-02
  4.498279e-01    1.762866e+00   3.835645e-02
  4.520383e-01    1.716845e+00   3.774861e-02
  4.542488e-01    1.680600e+00   3.724731e-02
  4.564592e-01    1.707647e+00   3.744510e-02
  4.586697e-01    1.697985e+00   3.723992e-02
  4.608801e-01    1.667911e+00   3.680979e-02
  4.630906e-01    1.726820e+00   3.735499e-02
  4.653011e-01    1.769121e+00   3.771036e-02
  4.675115e-01    1.724725e+00   3.713612e-02
  4.697220e-01    1.714191e+00   3.692560e-02
  4.719324e-01    1.714468e+00   3.683306e-02
  4.741429e-01    1.673635e+00   3.629803e-02
  4.763533e-01    1.709263e+00   3.658830e-02
  4.785638e-01    1.700720e+00   3.640248e-02
  4.807743e-01    1.683219e+00   3.612259e-02
  4.829847e-01    1.714049e+00   3.635982e-02
  4.851952e-01    1.752243e+00   3.666966e-02
  4.874056e-01    1.736338e+00   3.641084e-02
  4.896161e-01    1.727085e+00   3.622361e-02
  4.918265e-01    1.732381e+00   3.618903e-02
  4.940370e-01    1.643409e+00   3.516046e-02
  4.962475e-01    1.649891e+00   3.514273e-02
  4.984579e-01    1.668536e+00   3.525363e-02
  5.006684e-01    1.670022e+00   3.518334e-02
  5.028788e-01    1.698578e+00   3.539688e-02
  5.050893e-01    1.705089e+00   3.537841e-02
  5.072997e-01    1.674304e+00   3.497292e-02
  5.095102e-01    1.676477e+00   3.491179e-02
  5.117206e-01    1.645500e+00   3.450549e-02
  5.139311e-01    1.683820e+00   3.482236e-02
  5.161416e-01    1.695983e+00   3.486531e-02
  5.183520e-01    1.650185e+00   3.430961e-02
  5.205625e-01    1.658691e+00   3.431734e-02
  5.227729e-01    1.640492e+00   3.404896e-02
  5.249834e-01    1.631678e+00   3.387852e-02
  5.271938e-01    1.698242e+00   3.448202e-02
  5.294043e-01    1.728610e+00   3.470865e-02
  5.316148e-01    1.778898e+00   3.512927e-02
  5.338252e-01    1.743367e+00   3.469721e-02
  5.360357e-01    1.734697e+00   3.453200e-02
  5.382461e-01    1.805231e+00   3.514743e-02
  5.404566e-01    1.745133e+00   3.447881e-02
  5.426670e-01    1.718364e+00   3.413625e-02
  5.448775e-01    1.718745e+00   3.406375e-02
  5.470879e-01    1.767283e+00   3.446435e-02
  5.492984e-01    1.779245e+00   3.450392e-02
  5.515089e-01    1.733689e+00   3.398379e-02
  5.537193e-01    1.739799e+00   3.396861e-02
  5.559298e-01    1.781024e+00   3.429332e-02
  5.581402e-01    1.772904e+00   3.414030e-02
  5.603507e-01    1.808126e+00   3.440271e-02
  5.625611e-01    1.835855e+00   3.459030e-02
  5.647716e-01    1.812060e+00   3.429077e-02
  5.669821e-01    1.802969e+00   3.413091e-02
  5.691925e-01    1.798617e+00   3.401653e-02
  5.714030e-01    1.772593e+00   3.369753e-02
  5.736134e-01    1.760296e+00   3.350902e-02
  5.758239e-01    1.753809e+00   3.337583e-02
  5.780343e-01    1.705105e+00   3.283954e-02
  5.802448e-01    1.655079e+00   3.228648e-02
  5.824552e-01    1.625414e+00   3.192869e-02
  5.846657e-01    1.605500e+00   3.166634e-02
  5.868762e-01    1.632002e+00   3.186017e-02
  5.890866e-01    1.627439e+00   3.174958e-02
  5.912971e-01    1.617932e+00   3.159118e-02
  5.935075e-01    1.608962e+00   3.143837e-02
  5.957180e-01    1.628987e+00   3.156850e-02
  5.979284e-01    1.640193e+00   3.161222e-02
  6.001389e-01    1.664693e+00   3.178260e-02
  6.023494e-01    1.681483e+00   3.187762e-02
  6.045598e-01    1.671739e+00   3.172042e-02
  6.067703e-01    1.668266e+00   3.162372e-02
  6.089807e-01    1.686658e+00   3.173364e-02
  6.111912e-01    1.661096e+00   3.142938e-02
  6.134016e-01    1.651429e+00   3.127526e-02
  6.156121e-01    1.667758e+00   3.136705e-02
  6.178226e-01    1.639600e+00   3.103955e-02
  6.200330e-01    1.669136e+00   3.125609e-02
  6.222435e-01    1.693380e+00   3.141990e-02
  6.244539e-01    1.705598e+00   3.147132e-02
  6.266644e-01    1.690822e+00   3.127357e-02
  6.288748e-01    1.708830e+00   3.137846e-02
  6.310853e-01    1.726487e+00   3.147893e-02
  6.332957e-01    1.723119e+00   3.138750e-02
  6.355062e-01    1.667465e+00   3.081649e-02
  6.377167e-01    1.666877e+00   3.075191e-02
  6.399271e-01    1.715928e+00   3.114131e-02
  6.421376e-01    1.706434e+00   3.099578e-02
  6.443480e-01    1.727497e+00   3.112715e-02
  6.465585e-01    1.717565e+00   3.097877e-02
  6.487689e-01    1.648319e+00   3.029055e-02
  6.509794e-01    1.685684e+00   3.057417e-02
  6.531899e-01    1.653162e+00   3.022087e-02
  6.554003e-01    1.625668e+00   2.991217e-02
  6.576108e-01    1.598108e+00   2.960231e-02
  6.598212e-01    1.596406e+00   2.953156e-02
  6.620317e-01    1.628335e+00   2.977014e-02
  6.642421e-01    1.616402e+00   2.960599e-02
  6.664526e-01    1.628879e+00   2.966526e-02
  6.686630e-01    1.628299e+00   2.960517e-02
  6.708735e-01    1.595253e+00   2.924943e-02
  6.730840e-01    1.663876e+00   2.981746e-02
  6.752944e-01    1.612587e+00   2.930095e-02
  6.775049e-01    1.567372e+00   2.883478e-02
  6.797153e-01    1.609373e+00   2.916565e-02
  6.819258e-01    1.635842e+00   2.935149e-02
  6.841362e-01    1.633412e+00   2.927694e-02
  6.863467e-01    1.604559e+00   2.896523e-02
  6.885572e-01    1.618456e+00   2.903827e-02
  6.907676e-01    1.602151e+00   2.883987e-02
  6.929781e-01    1.591761e+00   2.869510e-02
  6.951885e-01    1.584250e+00   2.857661e-02
  6.973990e-01    1.606216e+00   2.872317e-02
  6.996094e-01    1.583463e+00   2.846884e-02
  7.018199e-01    1.557058e+00   2.818092e-02
  7.040303e-01    1.560663e+00   2.816396e-02
  7.062408e-01    1.569010e+00   2.818972e-02
  7.084513e-01    1.589845e+00   2.832690e-02
  7.106617e-01    1.602225e+00   2.838756e-02
  7.128722e-01    1.630715e+00   2.858930e-02
  7.150826e-01    1.583667e+00   2.812531e-02
  7.172931e-01    1.585883e+00   2.809644e-02
  7.195035e-01    1.582139e+00   2.801503e-02
  7.217140e-01    1.550007e+00   2.777814e-02
  7.239245e-01    1.551197e+00   2.801383e-02
  7.261349e-01    1.579082e+00   2.837327e-02
  7.283454e-01    1.567054e+00   2.833726e-02
  7.305558e-01    1.553723e+00   2.827008e-02
  7.327663e-01    1.580598e+00   2.855609e-02
  7.349767e-01    1.644199e+00   2.914171e-02
  7.371872e-01    1.576589e+00   2.852507e-02
  7.393976e-01    1.543993e+00   2.821452e-02
  7.416081e-01    1.549636e+00   2.825000e-02
  7.438186e-01    1.575661e+00   2.834185e-02
  7.460290e-01    1.615407e+00   2.839907e-02
  7.482395e-01    1.574992e+00   2.787040e-02
  7.504499e-01    1.581767e+00   2.779368e-02
  7.526604e-01    1.567228e+00   2.754937e-02
  7.548708e-01    1.586962e+00   2.763252e-02
  7.570813e-01    1.597984e+00   2.767697e-02
  7.592918e-01    1.551195e+00   2.723385e-02
  7.615022e-01    1.529935e+00   2.701325e-02
  7.637127e-01    1.569231e+00   2.732524e-02
  7.659231e-01    1.558237e+00   2.719753e-02
  7.681336e-01    1.559875e+00   2.718036e-02
  7.703440e-01    1.558912e+00   2.714092e-02
  7.725545e-01    1.536187e+00   2.691183e-02
  7.747650e-01    1.645350e+00   2.781259e-02
  7.769754e-01    1.590300e+00   2.729043e-02
  7.791859e-01    1.571241e+00   2.707296e-02
  7.813963e-01    1.565310e+00   2.696947e-02
  7.836068e-01    1.561435e+00   2.688443e-02
  7.858172e-01    1.591653e+00   2.709259e-02
  7.880277e-01    1.585301e+00   2.698703e-02
  7.902381e-01    1.618924e+00   2.722216e-02
  7.924486e-01    1.602474e+00   2.703336e-02
  7.946591e-01    1.632883e+00   2.723984e-02
  7.968695e-01    1.638003e+00   2.723373e-02
  7.990800e-01    1.618306e+00   2.702111e-02
  8.012904e-01    1.592571e+00   2.675902e-02
  8.035009e-01    1.632933e+00   2.704777e-02
  8.057113e-01    1.607109e+00   2.678665e-02
  8.079218e-01    1.655961e+00   2.714378e-02
  8.101323e-01    1.658824e+00   2.712113e-02
  8.123427e-01    1.650174e+00   2.700419e-02
  8.145532e-01    1.645816e+00   2.692238e-02
  8.167636e-01    1.662388e+00   2.701209e-02
  8.189741e-01    1.646042e+00   2.683415e-02
  8.211845e-01    1.646707e+00   2.679457e-02
  8.233950e-01    1.632300e+00   2.663374e-02
  8.256054e-01    1.608115e+00   2.639187e-02
  8.278159e-01    1.610372e+00   2.636679e-02
  8.300264e-01    1.607578e+00   2.630123e-02
  8.322368e-01    1.633387e+00   2.646844e-02
  8.344473e-01    1.655964e+00   2.660716e-02
  8.366577e-01    1.645922e+00   2.648369e-02
  8.388682e-01    1.603713e+00   2.610011e-02
  8.410786e-01    1.623175e+00   2.621615e-02
  8.432891e-01    1.633090e+00   2.625434e-02
  8.454996e-01    1.622273e+00   2.612581e-02
  8.477100e-01    1.637794e+00   2.620885e-02
  8.499205e-01    1.625027e+00   2.606549e-02
  8.521309e-01    1.610254e+00   2.590629e-02
  8.543414e-01    1.580418e+00   2.562512e-02
  8.565518e-01    1.576957e+00   2.555720e-02
  8.587623e-01    1.594156e+00   2.565617e-02
  8.609727e-01    1.611980e+00   2.575920e-02
  8.631832e-01    1.609497e+00   2.569967e-02
  8.653937e-01    1.587792e+00   2.548657e-02
  8.676041e-01    1.583292e+00   2.541203e-02
  8.698146e-01    1.586455e+00   2.539851e-02
  8.720250e-01    1.599333e+00   2.546252e-02
  8.742355e-01    1.605729e+00   2.547455e-02
  8.764459e-01    1.594888e+00   2.534968e-02
  8.786564e-01    1.565562e+00   2.507810e-02
  8.808669e-01    1.574676e+00   2.511285e-02
  8.830773e-01    1.590079e+00   2.519739e-02
  8.852878e-01    1.600156e+00   2.523921e-02
  8.874982e-01    1.611758e+00   2.529378e-02
  8.897087e-01    1.599570e+00   2.516030e-02
  8.919191e-01    1.584177e+00   2.500140e-02
  8.941296e-01    1.550026e+00   2.469374e-02
  8.963401e-01    1.551907e+00   2.467285e-02
  8.985505e-01    1.570890e+00   2.478665e-02
  9.007610e-01    1.586757e+00   2.487494e-02
  9.029714e-01    1.612280e+00   2.503820e-02
  9.051819e-01    1.605788e+00   2.495049e-02
  9.073923e-01    1.598557e+00   2.485766e-02
  9.096028e-01    1.640263e+00   2.514450e-02
  9.118132e-01    1.609114e+00   2.486828e-02
  9.140237e-01    1.635547e+00   2.503466e-02
  9.162342e-01    1.611461e+00   2.481499e-02
  9.184446e-01    1.579859e+00   2.453491e-02
  9.206551e-01    1.595681e+00   2.462191e-02
  9.228655e-01    1.620420e+00   2.477659e-02
  9.250760e-01    1.631921e+00   2.482867e-02
  9.272864e-01    1.639602e+00   2.485238e-02
  9.294969e-01    1.620581e+00   2.467181e-02
  9.317074e-01    1.613272e+00   2.458132e-02
  9.339178e-01    1.615592e+00   2.456537e-02
  9.361283e-01    1.651134e+00   2.479753e-02
  9.383387e-01    1.635066e+00   2.464301e-02
  9.405492e-01    1.640937e+00   2.465273e-02
  9.427596e-01    1.652124e+00   2.470101e-02
  9.449701e-01    1.686087e+00   2.491969e-02
  9.471805e-01    1.688806e+00   2.490446e-02
  9.493910e-01    1.680690e+00   2.481047e-02
  9.516015e-01    1.688690e+00   2.483470e-02
  9.538119e-01    1.711225e+00   2.496560e-02
  9.560224e-01    1.725637e+00   2.503523e-02
  9.582328e-01    1.723349e+00   2.498506e-02
  9.604433e-01    1.758001e+00   2.519927e-02
  9.626537e-01    1.776272e+00   2.529583e-02
  9.648642e-01    1.796018e+00   2.540119e-02
  9.670747e-01    1.841743e+00   2.568703e-02
  9.692851e-01    1.852431e+00   2.572724e-02
  9.714956e-01    1.811315e+00   2.540423e-02
  9.737060e-01    1.853889e+00   2.566729e-02
  9.759165e-01    1.822018e+00   2.540984e-02
  9.781269e-01    1.814377e+00   2.532331e-02
  9.803374e-01    1.850387e+00   2.553801e-02
  9.825478e-01    1.852192e+00   2.551676e-02
  9.847583e-01    1.886249e+00   2.571531e-02
  9.869688e-01    1.861032e+00   2.550868e-02
  9.891792e-01    1.829437e+00   2.525760e-02
  9.913897e-01    1.831136e+00   2.523520e-02
  9.936001e-01    1.840508e+00   2.526660e-02
  9.958106e-01    1.792511e+00   2.490108e-02
  9.980210e-01    1.700233e+00   2.422019e-02
  1.000231e+00    1.708487e+00   2.441188e-02
  1.002442e+00    1.710704e+00   2.455753e-02
  1.004652e+00    1.656616e+00   2.423362e-02
  1.006863e+00    1.616768e+00   2.399005e-02
  1.009073e+00    1.594267e+00   2.385899e-02
  1.011284e+00    1.581036e+00   2.379153e-02
  1.013494e+00    1.584334e+00   2.383996e-02
  1.015705e+00    1.580098e+00   2.383058e-02
  1.017915e+00    1.559887e+00   2.369399e-02
  1.020126e+00    1.570958e+00   2.379398e-02
  1.022336e+00    1.588650e+00   2.393939e-02
  1.024547e+00    1.560089e+00   2.373448e-02
  1.026757e+00    1.541149e+00   2.359830e-02
  1.028967e+00    1.540366e+00   2.360000e-02
  1.031178e+00    1.512226e+00   2.338955e-02
  1.033388e+00    1.520092e+00   2.345533e-02
  1.035599e+00    1.530468e+00   2.353868e-02
  1.037809e+00    1.507978e+00   2.336831e-02
  1.040020e+00    1.518590e+00   2.345168e-02
  1.042230e+00    1.552775e+00   2.371611e-02
  1.044441e+00    1.541928e+00   2.363293e-02
  1.046651e+00    1.549224e+00   2.368895e-02
  1.048862e+00    1.522032e+00   2.347934e-02
  1.051072e+00    1.493579e+00   2.325648e-02
  1.053282e+00    1.515387e+00   2.342470e-02
  1.055493e+00    1.488357e+00   2.321056e-02
  1.057703e+00    1.491455e+00   2.323318e-02
  1.059914e+00    1.469802e+00   2.305969e-02
  1.062124e+00    1.465740e+00   2.302377e-02
  1.064335e+00    1.491281e+00   2.322005e-02
  1.066545e+00    1.469705e+00   2.304551e-02
  1.068756e+00    1.453652e+00   2.291560e-02
  1.070966e+00    1.454630e+00   2.291681e-02
  1.073177e+00    1.483108e+00   2.313397e-02
  1.075387e+00    1.443136e+00   2.281494e-02
  1.077597e+00    1.442073e+00   2.279932e-02
  1.079808e+00    1.463634e+00   2.283642e-02
  1.082018e+00    1.418486e+00   2.229530e-02
  1.084229e+00    1.399248e+00   2.203584e-02
  1.086439e+00    1.419590e+00   2.210910e-02
  1.088650e+00    1.419563e+00   2.203412e-02
  1.090860e+00    1.426303e+00   2.201940e-02
  1.093071e+00    1.427717e+00   2.196861e-02
  1.095281e+00    1.466704e+00   2.220889e-02
  1.097492e+00    1.415277e+00   2.176174e-02
  1.099702e+00    1.395940e+00   2.156195e-02
  1.101912e+00    1.382838e+00   2.141266e-02
  1.104123e+00    1.407203e+00   2.155271e-02
  1.106333e+00    1.392482e+00   2.139593e-02
  1.108544e+00    1.375816e+00   2.122406e-02
  1.110754e+00    1.387758e+00   2.127356e-02
  1.112965e+00    1.381483e+00   2.118544e-02
  1.115175e+00    1.415520e+00   2.140372e-02
  1.117386e+00    1.400784e+00   2.125297e-02
  1.119596e+00    1.386582e+00   2.110744e-02
  1.121807e+00    1.388809e+00   2.108582e-02
  1.124017e+00    1.411197e+00   2.121843e-02
  1.126228e+00    1.395319e+00   2.106306e-02
  1.128438e+00    1.405580e+00   2.110357e-02
  1.130648e+00    1.383535e+00   2.090327e-02
  1.132859e+00    1.391766e+00   2.093107e-02
  1.135069e+00    1.386157e+00   2.085420e-02
  1.137280e+00    1.395526e+00   2.089150e-02
  1.139490e+00    1.388218e+00   2.080365e-02
  1.141701e+00    1.391003e+00   2.079130e-02
  1.143911e+00    1.398299e+00   2.081374e-02
  1.146122e+00    1.378393e+00   2.063307e-02
  1.148332e+00    1.321797e+00   2.017383e-02
  1.150543e+00    1.344640e+00   2.031695e-02
  1.152753e+00    1.345973e+00   2.029649e-02
  1.154963e+00    1.377616e+00   2.050260e-02
  1.157174e+00    1.362494e+00   2.035975e-02
  1.159384e+00    1.346415e+00   2.020966e-02
  1.161595e+00    1.346752e+00   2.018262e-02
  1.163805e+00    1.380738e+00   2.040629e-02
  1.166016e+00    1.384575e+00   2.040502e-02
  1.168226e+00    1.350739e+00   2.012536e-02
  1.170437e+00    1.371294e+00   2.024922e-02
  1.172647e+00    1.389117e+00   2.035126e-02
  1.174858e+00    1.372905e+00   2.020397e-02
  1.177068e+00    1.398127e+00   2.036007e-02
  1.179278e+00    1.414902e+00   2.045274e-02
  1.181489e+00    1.414739e+00   2.042400e-02
  1.183699e+00    1.406368e+00   2.033545e-02
  1.185910e+00    1.386269e+00   2.016155e-02
  1.188120e+00    1.380969e+00   2.009604e-02
  1.190331e+00    1.373958e+00   2.001803e-02
  1.192541e+00    1.395585e+00   2.014714e-02
  1.194752e+00    1.399819e+00   2.015019e-02
  1.196962e+00    1.429790e+00   2.033827e-02
  1.199173e+00    1.424568e+00   2.027391e-02
  1.201383e+00    1.367290e+00   1.983481e-02
  1.203593e+00    1.341489e+00   1.962202e-02
  1.205804e+00    1.344685e+00   1.961951e-02
  1.208014e+00    1.328470e+00   1.947424e-02
  1.210225e+00    1.316360e+00   1.936025e-02
  1.212435e+00    1.344060e+00   1.953814e-02
  1.214646e+00    1.367980e+00   1.968497e-02
  1.216856e+00    1.362340e+00   1.961876e-02
  1.219067e+00    1.325568e+00   1.932793e-02
  1.221277e+00    1.346329e+00   1.945369e-02
  1.223488e+00    1.353134e+00   1.947703e-02
  1.225698e+00    1.374068e+00   1.959995e-02
  1.227909e+00    1.373823e+00   1.956780e-02
  1.230119e+00    1.358304e+00   1.942501e-02
  1.232329e+00    1.338683e+00   1.925360e-02
  1.234540e+00    1.331050e+00   1.916856e-02
  1.236750e+00    1.337245e+00   1.918300e-02
  1.238961e+00    1.339534e+00   1.917253e-02
  1.241171e+00    1.353255e+00   1.924627e-02
  1.243382e+00    1.365622e+00   1.931037e-02
  1.245592e+00    1.329262e+00   1.902765e-02
  1.247803e+00    1.342388e+00   1.909778e-02
  1.250013e+00    1.326501e+00   1.896109e-02
  1.252224e+00    1.354613e+00   1.913767e-02
  1.254434e+00    1.378284e+00   1.928013e-02
  1.256644e+00    1.453586e+00   1.977574e-02
  1.258855e+00    1.413969e+00   1.948061e-02
  1.261065e+00    1.352371e+00   1.902817e-02
  1.263276e+00    1.339681e+00   1.891581e-02
  1.265486e+00    1.339392e+00   1.889099e-02
  1.267697e+00    1.339816e+00   1.887103e-02
  1.269907e+00    1.363478e+00   1.901415e-02
  1.272118e+00    1.341960e+00   1.884101e-02
  1.274328e+00    1.315281e+00   1.863036e-02
  1.276539e+00    1.325514e+00   1.868008e-02
  1.278749e+00    1.353088e+00   1.885107e-02
  1.280959e+00    1.322683e+00   1.861576e-02
  1.283170e+00    1.335735e+00   1.868508e-02
  1.285380e+00    1.348027e+00   1.874840e-02
  1.287591e+00    1.355826e+00   1.878050e-02
  1.289801e+00    1.327737e+00   1.856389e-02
  1.292012e+00    1.319535e+00   1.848956e-02
  1.294222e+00    1.327182e+00   1.852695e-02
  1.296433e+00    1.362233e+00   1.875433e-02
  1.298643e+00    1.370266e+00   1.879296e-02
  1.300854e+00    1.395804e+00   1.895059e-02
  1.303064e+00    1.391728e+00   1.890339e-02
  1.305274e+00    1.382936e+00   1.882187e-02
  1.307485e+00    1.378143e+00   1.876747e-02
  1.309695e+00    1.391646e+00   1.883660e-02
  1.311906e+00    1.403705e+00   1.889590e-02
  1.314116e+00    1.389807e+00   1.878104e-02
  1.316327e+00    1.396252e+00   1.880246e-02
  1.318537e+00    1.396006e+00   1.877855e-02
  1.320748e+00    1.409244e+00   1.884536e-02
  1.322958e+00    1.411723e+00   1.884096e-02
  1.325169e+00    1.390478e+00   1.867730e-02
  1.327379e+00    1.390822e+00   1.865750e-02
  1.329589e+00    1.361238e+00   1.843682e-02
  1.331800e+00    1.389974e+00   1.860942e-02
  1.334010e+00    1.385385e+00   1.855776e-02
  1.336221e+00    1.372625e+00   1.845017e-02
  1.338431e+00    1.346592e+00   1.825351e-02
  1.340642e+00    1.373089e+00   1.849694e-02
  1.342852e+00    1.353616e+00   1.846612e-02
  1.345063e+00    1.357982e+00   1.854551e-02
  1.347273e+00    1.349524e+00   1.852290e-02
  1.349484e+00    1.359814e+00   1.862117e-02
  1.351694e+00    1.337865e+00   1.849288e-02
  1.353905e+00    1.337941e+00   1.851131e-02
  1.356115e+00    1.378966e+00   1.880815e-02
  1.358325e+00    1.421792e+00   1.911167e-02
  1.360536e+00    1.406064e+00   1.901756e-02
  1.362746e+00    1.323992e+00   1.846366e-02
  1.364957e+00    1.320133e+00   1.844429e-02
  1.367167e+00    1.339566e+00   1.858668e-02
  1.369378e+00    1.311209e+00   1.839483e-02
  1.371588e+00    1.331807e+00   1.854386e-02
  1.373799e+00    1.354500e+00   1.870487e-02
  1.376009e+00    1.330720e+00   1.854336e-02
  1.378220e+00    1.324050e+00   1.849932e-02
  1.380430e+00    1.317336e+00   1.845507e-02
  1.382640e+00    1.310496e+00   1.840798e-02
  1.384851e+00    1.323684e+00   1.850127e-02
  1.387061e+00    1.289227e+00   1.825917e-02
  1.389272e+00    1.296947e+00   1.831395e-02
  1.391482e+00    1.290035e+00   1.826441e-02
  1.393693e+00    1.282387e+00   1.820932e-02
  1.395903e+00    1.272278e+00   1.813591e-02
  1.398114e+00    1.325994e+00   1.851339e-02
  1.400324e+00    1.336636e+00   1.858538e-02
  1.402535e+00    1.320670e+00   1.847169e-02
  1.404745e+00    1.299297e+00   1.831923e-02
  1.406955e+00    1.301379e+00   1.833116e-02
  1.409166e+00    1.311088e+00   1.839608e-02
  1.411376e+00    1.268024e+00   1.808833e-02
  1.413587e+00    1.260287e+00   1.802924e-02
  1.415797e+00    1.252481e+00   1.796981e-02
  1.418008e+00    1.294907e+00   1.822934e-02
  1.420218e+00    1.301674e+00   1.812534e-02
  1.422429e+00    1.271602e+00   1.782938e-02
  1.424639e+00    1.285670e+00   1.786263e-02
  1.426850e+00    1.297462e+00   1.788908e-02
  1.429060e+00    1.293535e+00   1.781256e-02
  1.431270e+00    1.280647e+00   1.767910e-02
  1.433481e+00    1.279197e+00   1.762798e-02
  1.435691e+00    1.290234e+00   1.766513e-02
  1.437902e+00    1.288745e+00   1.761821e-02
  1.440112e+00    1.271217e+00   1.746263e-02
  1.442323e+00    1.259435e+00   1.734860e-02
  1.444533e+00    1.274809e+00   1.742155e-02
  1.446744e+00    1.286523e+00   1.747009e-02
  1.448954e+00    1.264091e+00   1.728699e-02
  1.451165e+00    1.272136e+00   1.731212e-02
  1.453375e+00    1.273506e+00   1.729337e-02
  1.455586e+00    1.274133e+00   1.726941e-02
  1.457796e+00    1.244227e+00   1.703832e-02
  1.460006e+00    1.258933e+00   1.711155e-02
  1.462217e+00    1.259736e+00   1.709091e-02
  1.464427e+00    1.247169e+00   1.698006e-02
  1.466638e+00    1.267759e+00   1.709434e-02
  1.468848e+00    1.263985e+00   1.704361e-02
  1.471059e+00    1.252179e+00   1.693890e-02
  1.473269e+00    1.258027e+00   1.695414e-02
  1.475480e+00    1.255070e+00   1.691056e-02
  1.477690e+00    1.261513e+00   1.693014e-02
  1.479901e+00    1.231424e+00   1.670353e-02
  1.482111e+00    1.223311e+00   1.662549e-02
  1.484321e+00    1.239982e+00   1.671552e-02
  1.486532e+00    1.262762e+00   1.684607e-02
  1.488742e+00    1.237466e+00   1.665409e-02
  1.490953e+00    1.228056e+00   1.656837e-02
  1.493163e+00    1.245612e+00   1.666423e-02
  1.495374e+00    1.246962e+00   1.665193e-02
  1.497584e+00    1.245933e+00   1.662352e-02
  1.499795e+00    1.259982e+00   1.669535e-02
  1.502005e+00    1.255382e+00   1.664320e-02
  1.504216e+00    1.255128e+00   1.662052e-02
  1.506426e+00    1.233991e+00   1.645936e-02
  1.508636e+00    1.246029e+00   1.651909e-02
  1.510847e+00    1.246504e+00   1.650050e-02
  1.513057e+00    1.237411e+00   1.641531e-02
  1.515268e+00    1.261101e+00   1.654591e-02
  1.517478e+00    1.254585e+00   1.647797e-02
  1.519689e+00    1.254631e+00   1.645329e-02
  1.521899e+00    1.250519e+00   1.640324e-02
  1.524110e+00    1.254883e+00   1.641148e-02
  1.526320e+00    1.245724e+00   1.633195e-02
  1.528531e+00    1.245297e+00   1.630942e-02
  1.530741e+00    1.235794e+00   1.622805e-02
  1.532951e+00    1.236987e+00   1.621638e-02
  1.535162e+00    1.244340e+00   1.635094e-02
  1.537372e+00    1.235090e+00   1.635658e-02
  1.539583e+00    1.234184e+00   1.638461e-02
  1.541793e+00    1.233959e+00   1.639003e-02
  1.544004e+00    1.226141e+00   1.633827e-02
  1.546214e+00    1.242664e+00   1.644648e-02
  1.548425e+00    1.256826e+00   1.654021e-02
  1.550635e+00    1.250320e+00   1.650703e-02
  1.552846e+00    1.241735e+00   1.645993e-02
  1.555056e+00    1.236343e+00   1.638279e-02
  1.557266e+00    1.242568e+00   1.631363e-02
  1.559477e+00    1.245175e+00   1.627159e-02
  1.561687e+00    1.274239e+00   1.642935e-02
  1.563898e+00    1.270728e+00   1.638939e-02
  1.566108e+00    1.240193e+00   1.617534e-02
  1.568319e+00    1.255618e+00   1.625991e-02
  1.570529e+00    1.254716e+00   1.622885e-02
  1.572740e+00    1.247461e+00   1.615421e-02
  1.574950e+00    1.230121e+00   1.601538e-02
  1.577161e+00    1.237276e+00   1.603648e-02
  1.579371e+00    1.256134e+00   1.613446e-02
  1.581582e+00    1.264217e+00   1.616636e-02
  1.583792e+00    1.248693e+00   1.604875e-02
  1.586002e+00    1.255811e+00   1.607672e-02
  1.588213e+00    1.240751e+00   1.596282e-02
  1.590423e+00    1.258366e+00   1.605555e-02
  1.592634e+00    1.254773e+00   1.601088e-02
  1.594844e+00    1.267241e+00   1.606864e-02
  1.597055e+00    1.257156e+00   1.598396e-02
  1.599265e+00    1.246882e+00   1.589775e-02
  1.601476e+00    1.225353e+00   1.573971e-02
  1.603686e+00    1.216095e+00   1.566058e-02
  1.605897e+00    1.211654e+00   1.561201e-02
  1.608107e+00    1.236848e+00   1.575393e-02
  1.610317e+00    1.230422e+00   1.569370e-02
  1.612528e+00    1.205925e+00   1.551776e-02
  1.614738e+00    1.195798e+00   1.543377e-02
  1.616949e+00    1.227382e+00   1.561728e-02
  1.619159e+00    1.233820e+00   1.563939e-02
  1.621370e+00    1.251068e+00   1.572962e-02
  1.623580e+00    1.214996e+00   1.548288e-02
  1.625791e+00    1.186874e+00   1.528455e-02
  1.628001e+00    1.170112e+00   1.515821e-02
  1.630212e+00    1.175614e+00   1.517617e-02
  1.632422e+00    1.182397e+00   1.520203e-02
  1.634632e+00    1.195886e+00   1.527110e-02
  1.636843e+00    1.170768e+00   1.509238e-02
  1.639053e+00    1.145620e+00   1.491232e-02
  1.641264e+00    1.173309e+00   1.507433e-02
  1.643474e+00    1.162230e+00   1.498561e-02
  1.645685e+00    1.168741e+00   1.501079e-02
  1.647895e+00    1.149370e+00   1.486933e-02
  1.650106e+00    1.125631e+00   1.469816e-02
  1.652316e+00    1.131815e+00   1.472210e-02
  1.654527e+00    1.123475e+00   1.465123e-02
  1.656737e+00    1.119806e+00   1.461085e-02
  1.658947e+00    1.117246e+00   1.457796e-02
  1.661158e+00    1.122395e+00   1.459529e-02
  1.663368e+00    1.113313e+00   1.452016e-02
  1.665579e+00    1.116037e+00   1.452179e-02
  1.667789e+00    1.095810e+00   1.437351e-02
  1.670000e+00    1.109180e+00   1.444546e-02
  1.672210e+00    1.075123e+00   1.420634e-02
  1.674421e+00    1.086772e+00   1.426787e-02
  1.676631e+00    1.088730e+00   1.426494e-02
  1.678842e+00    1.089275e+00   1.425283e-02
  1.681052e+00    1.070534e+00   1.411445e-02
  1.683263e+00    1.063948e+00   1.405602e-02
  1.685473e+00    1.071303e+00   1.408945e-02
  1.687683e+00    1.083341e+00   1.415299e-02
  1.689894e+00    1.062777e+00   1.400237e-02
  1.692104e+00    1.037297e+00   1.381886e-02
  1.694315e+00    1.038513e+00   1.381267e-02
  1.696525e+00    1.041218e+00   1.381570e-02
  1.698736e+00    1.065865e+00   1.396343e-02
  1.700946e+00    1.036453e+00   1.375449e-02
  1.703157e+00    1.032954e+00   1.371675e-02
  1.705367e+00    1.049258e+00   1.381012e-02
  1.707578e+00    1.042339e+00   1.374999e-02
  1.709788e+00    1.018082e+00   1.357512e-02
  1.711998e+00    9.970813e-01   1.341971e-02
  1.714209e+00    9.922650e-01   1.337312e-02
  1.716419e+00    1.010130e+00   1.347889e-02
  1.718630e+00    1.000242e+00   1.339872e-02
  1.720840e+00    1.002438e+00   1.339939e-02
  1.723051e+00    1.009574e+00   1.343325e-02
  1.725261e+00    9.925753e-01   1.330520e-02
  1.727472e+00    1.008738e+00   1.339899e-02
  1.729682e+00    9.858429e-01   1.323281e-02
  1.731893e+00    9.846848e-01   1.321130e-02
  1.734103e+00    9.757523e-01   1.313768e-02
  1.736313e+00    9.903039e-01   1.322138e-02
  1.738524e+00    9.780109e-01   1.312541e-02
  1.740734e+00    9.586743e-01   1.298158e-02
  1.742945e+00    9.656113e-01   1.301522e-02
  1.745155e+00    9.503545e-01   1.289883e-02
  1.747366e+00    9.639152e-01   1.297689e-02
  1.749576e+00    9.815028e-01   1.308109e-02
  1.751787e+00    9.846097e-01   1.308845e-02
  1.753997e+00    9.563715e-01   1.288616e-02
  1.756208e+00    9.622271e-01   1.291245e-02
  1.758418e+00    9.499674e-01   1.281695e-02
  1.760628e+00    9.460951e-01   1.277762e-02
  1.762839e+00    9.368086e-01   1.270173e-02
  1.765049e+00    9.410794e-01   1.271766e-02
  1.767260e+00    9.608716e-01   1.283789e-02
  1.769470e+00    9.452188e-01   1.271999e-02
  1.771681e+00    9.548947e-01   1.277176e-02
  1.773891e+00    9.214350e-01   1.253317e-02
  1.776102e+00    9.100804e-01   1.244306e-02
  1.778312e+00    9.343739e-01   1.259539e-02
  1.780523e+00    9.258336e-01   1.252509e-02
  1.782733e+00    9.275707e-01   1.252420e-02
  1.784944e+00    9.423707e-01   1.261080e-02
  1.787154e+00    9.365062e-01   1.255894e-02
  1.789364e+00    9.241366e-01   1.246330e-02
  1.791575e+00    9.146677e-01   1.238681e-02
  1.793785e+00    9.296398e-01   1.247533e-02
  1.795996e+00    9.203405e-01   1.240027e-02
  1.798206e+00    9.317759e-01   1.246445e-02
  1.800417e+00    9.279467e-01   1.242608e-02
  1.802627e+00    9.136735e-01   1.231820e-02
  1.804838e+00    8.872189e-01   1.212661e-02
  1.807048e+00    9.003837e-01   1.220348e-02
  1.809259e+00    8.962668e-01   1.216201e-02
  1.811469e+00    9.274982e-01   1.235696e-02
  1.813679e+00    9.005772e-01   1.216135e-02
  1.815890e+00    8.918234e-01   1.208740e-02
  1.818100e+00    8.848690e-01   1.202515e-02
  1.820311e+00    9.119479e-01   1.219286e-02
  1.822521e+00    9.066944e-01   1.214270e-02
  1.824732e+00    8.975128e-01   1.206620e-02
  1.826942e+00    8.896303e-01   1.200074e-02
  1.829153e+00    8.921137e-01   1.200574e-02
  1.831363e+00    8.905627e-01   1.198320e-02
  1.833574e+00    9.367042e-01   1.227769e-02
  1.835784e+00    9.032533e-01   1.204491e-02
  1.837994e+00    8.730616e-01   1.183020e-02
  1.840205e+00    8.708423e-01   1.180400e-02
  1.842415e+00    8.756484e-01   1.182475e-02
  1.844626e+00    8.697640e-01   1.177338e-02
  1.846836e+00    9.006488e-01   1.196896e-02
  1.849047e+00    8.611630e-01   1.169209e-02
  1.851257e+00    8.680599e-01   1.172920e-02
  1.853468e+00    8.589613e-01   1.165880e-02
  1.855678e+00    8.469577e-01   1.156822e-02
  1.857889e+00    8.672442e-01   1.169740e-02
  1.860099e+00    8.731635e-01   1.172854e-02
  1.862309e+00    8.606182e-01   1.163546e-02
  1.864520e+00    8.635045e-01   1.164634e-02
  1.866730e+00    8.680623e-01   1.166758e-02
  1.868941e+00    8.429774e-01   1.148688e-02
  1.871151e+00    8.552876e-01   1.155903e-02
  1.873362e+00    8.527799e-01   1.153072e-02
  1.875572e+00    8.442679e-01   1.146211e-02
  1.877783e+00    8.577060e-01   1.154149e-02
  1.879993e+00    8.372913e-01   1.139221e-02
  1.882204e+00    8.389529e-01   1.139265e-02
  1.884414e+00    8.403750e-01   1.139124e-02
  1.886624e+00    8.506808e-01   1.144976e-02
  1.888835e+00    8.626202e-01   1.151874e-02
  1.891045e+00    8.396205e-01   1.135325e-02
  1.893256e+00    8.367595e-01   1.132282e-02
  1.895466e+00    8.099440e-01   1.112893e-02
  1.897677e+00    8.238245e-01   1.121302e-02
  1.899887e+00    8.424826e-01   1.132825e-02
  1.902098e+00    8.500289e-01   1.136792e-02
  1.904308e+00    8.308545e-01   1.122839e-02
  1.906519e+00    8.431596e-01   1.130031e-02
  1.908729e+00    8.417101e-01   1.127990e-02
  1.910940e+00    8.276445e-01   1.117414e-02
  1.913150e+00    8.137019e-01   1.106910e-02
  1.915360e+00    8.210631e-01   1.110845e-02
  1.917571e+00    8.337243e-01   1.118284e-02
  1.919781e+00    8.275144e-01   1.113038e-02
  1.921992e+00    8.235886e-01   1.109332e-02
  1.924202e+00    8.169230e-01   1.103756e-02
  1.926413e+00    8.140668e-01   1.100798e-02
  1.928623e+00    8.032345e-01   1.092403e-02
  1.930834e+00    7.983326e-01   1.088029e-02
  1.933044e+00    8.047513e-01   1.091333e-02
  1.935255e+00    8.020059e-01   1.088441e-02
  1.937465e+00    7.958352e-01   1.083216e-02
  1.939675e+00    7.971626e-01   1.083038e-02
  1.941886e+00    7.887516e-01   1.076294e-02
  1.944096e+00    7.945897e-01   1.079255e-02
  1.946307e+00    8.020731e-01   1.083293e-02
  1.948517e+00    8.015963e-01   1.081924e-02
  1.950728e+00    7.958567e-01   1.077023e-02
  1.952938e+00    7.870897e-01   1.070070e-02
  1.955149e+00    7.965975e-01   1.075491e-02
  1.957359e+00    8.000135e-01   1.076787e-02
  1.959570e+00    7.952839e-01   1.072514e-02
  1.961780e+00    7.873558e-01   1.066166e-02
  1.963990e+00    7.726789e-01   1.055183e-02
  1.966201e+00    7.755704e-01   1.056158e-02
  1.968411e+00    7.798855e-01   1.058083e-02
  1.970622e+00    8.028009e-01   1.072496e-02
  1.972832e+00    8.085856e-01   1.075344e-02
  1.975043e+00    7.774584e-01   1.053444e-02
  1.977253e+00    7.878023e-01   1.059432e-02
  1.979464e+00    7.731282e-01   1.048521e-02
  1.981674e+00    7.953430e-01   1.062445e-02
  1.983885e+00    7.949316e-01   1.061159e-02
  1.986095e+00    7.898483e-01   1.056786e-02
  1.988305e+00    7.979892e-01   1.061215e-02
  1.990516e+00    7.810794e-01   1.048921e-02
  1.992726e+00    7.676063e-01   1.038871e-02
  1.994937e+00    7.983442e-01   1.058440e-02
  1.997147e+00    7.925875e-01   1.053635e-02
  1.999358e+00    7.802678e-01   1.044426e-02
  2.001568e+00    7.735035e-01   1.038808e-02
  2.003779e+00    7.711083e-01   1.036006e-02
  2.005989e+00    7.729789e-01   1.036059e-02
  2.008200e+00    7.891816e-01   1.045696e-02
  2.010410e+00    7.779569e-01   1.037050e-02
  2.012621e+00    7.711416e-01   1.031327e-02
  2.014831e+00    7.678261e-01   1.027958e-02
  2.017041e+00    7.752672e-01   1.031884e-02
  2.019252e+00    7.651260e-01   1.024117e-02
  2.021462e+00    7.708344e-01   1.026975e-02
  2.023673e+00    7.778815e-01   1.030714e-02
  2.025883e+00    7.617891e-01   1.019044e-02
  2.028094e+00    7.607265e-01   1.017370e-02
  2.030304e+00    7.706541e-01   1.023029e-02
  2.032515e+00    7.488184e-01   1.007508e-02
  2.034725e+00    7.518257e-01   1.008589e-02
  2.036936e+00    7.693922e-01   1.019363e-02
  2.039146e+00    7.609979e-01   1.012829e-02
  2.041356e+00    7.516806e-01   1.005648e-02
  2.043567e+00    7.599109e-01   1.010205e-02
  2.045777e+00    7.451426e-01   9.994217e-03
  2.047988e+00    7.624013e-01   1.009987e-02
  2.050198e+00    7.575782e-01   1.005944e-02
  2.052409e+00    7.424706e-01   9.951012e-03
  2.054619e+00    7.657645e-01   1.009846e-02
  2.056830e+00    7.701777e-01   1.012027e-02
  2.059040e+00    7.605767e-01   1.004943e-02
  2.061251e+00    7.612891e-01   1.004682e-02
  2.063461e+00    7.592303e-01   1.002560e-02
  2.065671e+00    7.296155e-01   9.819508e-03
  2.067882e+00    7.354159e-01   9.849529e-03
  2.070092e+00    7.418121e-01   9.883113e-03
  2.072303e+00    7.443233e-01   9.890705e-03
  2.074513e+00    7.493708e-01   9.914828e-03
  2.076724e+00    7.477784e-01   9.894817e-03
  2.078934e+00    7.311311e-01   9.775127e-03
  2.081145e+00    7.248560e-01   9.724119e-03
  2.083355e+00    7.351004e-01   9.783437e-03
  2.085566e+00    7.364953e-01   9.783869e-03
  2.087776e+00    7.179990e-01   9.650844e-03
  2.089986e+00    7.339747e-01   9.748857e-03
  2.092197e+00    7.389694e-01   9.773018e-03
  2.094407e+00    7.413591e-01   9.779537e-03
  2.096618e+00    7.390324e-01   9.755269e-03
  2.098828e+00    7.316836e-01   9.697354e-03
  2.101039e+00    7.088274e-01   9.535860e-03
  2.103249e+00    7.313864e-01   9.677721e-03
  2.105460e+00    7.237066e-01   9.617836e-03
  2.107670e+00    7.103611e-01   9.520106e-03
  2.109881e+00    6.988440e-01   9.433626e-03
  2.112091e+00    7.022536e-01   9.447780e-03
  2.114301e+00    7.083564e-01   9.480042e-03
  2.116512e+00    7.185899e-01   9.539523e-03
  2.118722e+00    6.977910e-01   9.391782e-03
  2.120933e+00    7.001531e-01   9.398922e-03
  2.123143e+00    7.165815e-01   9.499649e-03
  2.125354e+00    6.847520e-01   9.277968e-03
  2.127564e+00    6.981874e-01   9.359896e-03
  2.129775e+00    7.031416e-01   9.384413e-03
  2.131985e+00    7.065886e-01   9.398369e-03
  2.134196e+00    7.049387e-01   9.378858e-03
  2.136406e+00    7.066411e-01   9.381468e-03
  2.138617e+00    7.093577e-01   9.391032e-03
  2.140827e+00    6.970294e-01   9.325003e-03
  2.143037e+00    6.984256e-01   9.379515e-03
  2.145248e+00    7.103392e-01   9.481259e-03
  2.147458e+00    6.922226e-01   9.374582e-03
  2.149669e+00    6.849310e-01   9.336764e-03
  2.151879e+00    7.012628e-01   9.456641e-03
  2.154090e+00    7.038478e-01   9.481395e-03
  2.156300e+00    7.027731e-01   9.480761e-03
  2.158511e+00    6.908808e-01   9.405483e-03
  2.160721e+00    6.798252e-01   9.334660e-03
  2.162932e+00    7.004637e-01   9.479055e-03
  2.165142e+00    6.705011e-01   9.277074e-03
  2.167352e+00    6.837627e-01   9.371241e-03
  2.169563e+00    6.659093e-01   9.250001e-03
  2.171773e+00    6.877824e-01   9.403123e-03
  2.173984e+00    6.955527e-01   9.457511e-03
  2.176194e+00    6.874332e-01   9.403346e-03
  2.178405e+00    6.968979e-01   9.468549e-03
  2.180615e+00    6.863759e-01   9.397496e-03
  2.182826e+00    6.827104e-01   9.373024e-03
  2.185036e+00    6.884123e-01   9.412156e-03
  2.187247e+00    6.775799e-01   9.337734e-03
  2.189457e+00    6.852337e-01   9.389929e-03
  2.191667e+00    6.795877e-01   9.350997e-03
  2.193878e+00    6.796659e-01   9.350964e-03
  2.196088e+00    6.796737e-01   9.350343e-03
  2.198299e+00    6.887213e-01   9.411268e-03
  2.200509e+00    6.812612e-01   9.359115e-03
  2.202720e+00    6.876673e-01   9.401851e-03
  2.204930e+00    6.921811e-01   9.431410e-03
  2.207141e+00    6.805812e-01   9.350934e-03
  2.209351e+00    6.865807e-01   9.390170e-03
  2.211562e+00    6.731482e-01   9.296253e-03
  2.213772e+00    6.498777e-01   9.079787e-03
  2.215982e+00    6.744455e-01   9.205627e-03
  2.218193e+00    6.901112e-01   9.282012e-03
  2.220403e+00    6.731057e-01   9.142378e-03
  2.222614e+00    6.684509e-01   9.089840e-03
  2.224824e+00    6.673776e-01   9.063241e-03
  2.227035e+00    6.671805e-01   9.044536e-03
  2.229245e+00    6.830707e-01   9.134497e-03
  2.231456e+00    6.673792e-01   9.013399e-03
  2.233666e+00    6.738385e-01   9.041787e-03
  2.235877e+00    6.790212e-01   9.062126e-03
  2.238087e+00    6.789017e-01   9.047781e-03
  2.240298e+00    6.649560e-01   8.940623e-03
  2.242508e+00    6.650642e-01   8.926294e-03
  2.244718e+00    6.559977e-01   8.849557e-03
  2.246929e+00    6.665747e-01   8.906227e-03
  2.249139e+00    6.579136e-01   8.835875e-03
  2.251350e+00    6.761486e-01   8.945702e-03
  2.253560e+00    6.676908e-01   8.878001e-03
  2.255771e+00    6.666501e-01   8.859680e-03
  2.257981e+00    6.582054e-01   8.792236e-03
  2.260192e+00    6.666028e-01   8.837032e-03
  2.262402e+00    6.692980e-01   8.843978e-03
  2.264613e+00    6.783817e-01   8.892839e-03
  2.266823e+00    6.819914e-01   8.905936e-03
  2.269033e+00    6.635368e-01   8.774220e-03
  2.271244e+00    6.712078e-01   8.814324e-03
  2.273454e+00    6.868405e-01   8.905926e-03
  2.275665e+00    6.802879e-01   8.852929e-03
  2.277875e+00    6.576341e-01   8.694345e-03
  2.280086e+00    6.696646e-01   8.763403e-03
  2.282296e+00    6.610938e-01   8.697739e-03
  2.284507e+00    6.720109e-01   8.758995e-03
  2.286717e+00    6.781611e-01   8.789408e-03
  2.288928e+00    6.598493e-01   8.660029e-03
  2.291138e+00    6.522003e-01   8.600298e-03
  2.293348e+00    6.656921e-01   8.679185e-03
  2.295559e+00    6.606081e-01   8.636636e-03
  2.297769e+00    6.660306e-01   8.662669e-03
  2.299980e+00    6.545227e-01   8.578177e-03
  2.302190e+00    6.481835e-01   8.527447e-03
  2.304401e+00    6.462035e-01   8.505119e-03
  2.306611e+00    6.483752e-01   8.510235e-03
  2.308822e+00    6.427729e-01   8.465051e-03
  2.311032e+00    6.545305e-01   8.535649e-03
  2.313243e+00    6.540059e-01   8.525950e-03
  2.315453e+00    6.503326e-01   8.494381e-03
  2.317663e+00    6.454279e-01   8.453188e-03
  2.319874e+00    6.488618e-01   8.466883e-03
  2.322084e+00    6.555673e-01   8.501500e-03
  2.324295e+00    6.402750e-01   8.393572e-03
  2.326505e+00    6.441483e-01   8.409858e-03
  2.328716e+00    6.444212e-01   8.403081e-03
  2.330926e+00    6.551663e-01   8.463980e-03
  2.333137e+00    6.435089e-01   8.379957e-03
  2.335347e+00    6.347387e-01   8.313845e-03
  2.337558e+00    6.217411e-01   8.220149e-03
  2.339768e+00    6.278673e-01   8.252069e-03
  2.341979e+00    6.336741e-01   8.281793e-03
  2.344189e+00    6.493180e-01   8.374934e-03
  2.346399e+00    6.426215e-01   8.323115e-03
  2.348610e+00    6.308331e-01   8.237984e-03
  2.350820e+00    6.422648e-01   8.304058e-03
  2.353031e+00    6.438571e-01   8.306013e-03
  2.355241e+00    6.305243e-01   8.211511e-03
  2.357452e+00    6.417480e-01   8.275791e-03
  2.359662e+00    6.455673e-01   8.292077e-03
  2.361873e+00    6.316173e-01   8.193754e-03
  2.364083e+00    6.328869e-01   8.193972e-03
  2.366294e+00    6.244021e-01   8.130774e-03
  2.368504e+00    6.262355e-01   8.134632e-03
  2.370714e+00    6.212523e-01   8.094168e-03
  2.372925e+00    6.210784e-01   8.085009e-03
  2.375135e+00    6.213229e-01   8.078565e-03
  2.377346e+00    6.259659e-01   8.100726e-03
  2.379556e+00    6.425409e-01   8.199257e-03
  2.381767e+00    6.243168e-01   8.074289e-03
  2.383977e+00    6.048282e-01   7.939417e-03
  2.386188e+00    6.087702e-01   7.957394e-03
  2.388398e+00    6.197489e-01   8.020861e-03
  2.390609e+00    6.323693e-01   8.094301e-03
  2.392819e+00    6.108851e-01   7.947889e-03
  2.395029e+00    6.192654e-01   7.994509e-03
  2.397240e+00    6.247063e-01   8.021635e-03
  2.399450e+00    6.313391e-01   8.056183e-03
  2.401661e+00    6.206266e-01   7.979818e-03
  2.403871e+00    6.033913e-01   7.860527e-03
  2.406082e+00    5.996442e-01   7.828696e-03
  2.408292e+00    6.107951e-01   7.893362e-03
  2.410503e+00    6.068833e-01   7.860552e-03
  2.412713e+00    6.142051e-01   7.899989e-03
  2.414924e+00    5.985120e-01   7.790997e-03
  2.417134e+00    6.088484e-01   7.850291e-03
  2.419344e+00    6.041866e-01   7.812784e-03
  2.421555e+00    5.953194e-01   7.747776e-03
  2.423765e+00    5.963812e-01   7.747291e-03
  2.425976e+00    6.030387e-01   7.782595e-03
  2.428186e+00    5.819221e-01   7.638008e-03
  2.430397e+00    5.932788e-01   7.704705e-03
  2.432607e+00    5.987874e-01   7.733101e-03
  2.434818e+00    6.031827e-01   7.753841e-03
  2.437028e+00    6.057163e-01   7.762893e-03
  2.439239e+00    5.920441e-01   7.667149e-03
  2.441449e+00    5.892658e-01   7.641935e-03
  2.443659e+00    5.865495e-01   7.617000e-03
  2.445870e+00    5.877125e-01   7.636759e-03
  2.448080e+00    5.836139e-01   7.644923e-03
  2.450291e+00    5.754189e-01   7.607623e-03
  2.452501e+00    5.771570e-01   7.630289e-03
  2.454712e+00    5.787898e-01   7.649532e-03
  2.456922e+00    5.696772e-01   7.595703e-03
  2.459133e+00    5.697502e-01   7.601621e-03
  2.461343e+00    5.574429e-01   7.523406e-03
  2.463554e+00    5.558345e-01   7.515967e-03
  2.465764e+00    5.565881e-01   7.524181e-03
  2.467975e+00    5.612339e-01   7.557810e-03
  2.470185e+00    5.624371e-01   7.568168e-03
  2.472395e+00    5.500501e-01   7.485586e-03
  2.474606e+00    5.431551e-01   7.440066e-03
  2.476816e+00    5.531101e-01   7.508656e-03
  2.479027e+00    5.674217e-01   7.606060e-03
  2.481237e+00    5.408240e-01   7.425944e-03
  2.483448e+00    5.479302e-01   7.474833e-03
  2.485658e+00    5.502959e-01   7.490844e-03
  2.487869e+00    5.362355e-01   7.394549e-03
  2.490079e+00    5.486292e-01   7.478997e-03
  2.492290e+00    5.411499e-01   7.427395e-03
  2.494500e+00    5.545912e-01   7.518347e-03
  2.496710e+00    5.536298e-01   7.511104e-03
  2.498921e+00    5.412037e-01   7.425359e-03
  2.501131e+00    5.330647e-01   7.368342e-03
  2.503342e+00    5.359898e-01   7.387293e-03
  2.505552e+00    5.061241e-01   7.177408e-03
  2.507763e+00    5.181854e-01   7.261013e-03
  2.509973e+00    5.139487e-01   7.229918e-03
  2.512184e+00    5.030468e-01   7.151230e-03
  2.514394e+00    5.114910e-01   7.201780e-03
  2.516605e+00    5.048413e-01   7.108747e-03
  2.518815e+00    5.162640e-01   7.160627e-03
  2.521025e+00    5.279346e-01   7.220122e-03
  2.523236e+00    5.292919e-01   7.211341e-03
  2.525446e+00    5.305408e-01   7.204169e-03
  2.527657e+00    5.347147e-01   7.217722e-03
  2.529867e+00    5.150881e-01   7.069981e-03
  2.532078e+00    5.320729e-01   7.170437e-03
  2.534288e+00    5.328830e-01   7.161925e-03
  2.536499e+00    5.301011e-01   7.131198e-03
  2.538709e+00    5.234655e-01   7.075440e-03
  2.540920e+00    5.167702e-01   7.019476e-03
  2.543130e+00    5.129417e-01   6.983174e-03
  2.545340e+00    5.173461e-01   7.003076e-03
  2.547551e+00    5.253522e-01   7.047101e-03
  2.549761e+00    5.244177e-01   7.031227e-03
  2.551972e+00    5.001734e-01   6.857627e-03
  2.554182e+00    5.162166e-01   6.957589e-03
  2.556393e+00    5.184718e-01   6.963694e-03
  2.558603e+00    5.367336e-01   7.076067e-03
  2.560814e+00    5.271449e-01   7.003823e-03
  2.563024e+00    5.223320e-01   6.963163e-03
  2.565235e+00    5.061259e-01   6.844905e-03
  2.567445e+00    5.276822e-01   6.979500e-03
  2.569656e+00    5.197166e-01   6.916895e-03
  2.571866e+00    5.063223e-01   6.817906e-03
  2.574076e+00    5.067001e-01   6.811277e-03
  2.576287e+00    5.108132e-01   6.830571e-03
  2.578497e+00    5.103486e-01   6.819683e-03
  2.580708e+00    5.018760e-01   6.754851e-03
  2.582918e+00    5.034004e-01   6.757416e-03
  2.585129e+00    5.162072e-01   6.835074e-03
  2.587339e+00    5.126972e-01   6.804138e-03
  2.589550e+00    4.900828e-01   6.644995e-03
  2.591760e+00    5.067194e-01   6.749142e-03
  2.593971e+00    5.062346e-01   6.738437e-03
  2.596181e+00    5.081026e-01   6.744634e-03
  2.598391e+00    5.090054e-01   6.745470e-03
  2.600602e+00    4.955058e-01   6.649572e-03
  2.602812e+00    5.137452e-01   6.763278e-03
  2.605023e+00    5.172418e-01   6.779043e-03
  2.607233e+00    4.989806e-01   6.651215e-03
  2.609444e+00    5.027056e-01   6.668793e-03
  2.611654e+00    5.125757e-01   6.726595e-03
  2.613865e+00    5.099913e-01   6.702535e-03
  2.616075e+00    5.156218e-01   6.732238e-03
  2.618286e+00    5.159628e-01   6.727404e-03
  2.620496e+00    5.073123e-01   6.664062e-03
  2.622706e+00    4.969401e-01   6.589870e-03
  2.624917e+00    5.120877e-01   6.683664e-03
  2.627127e+00    5.070596e-01   6.645028e-03
  2.629338e+00    4.917362e-01   6.537927e-03
  2.631548e+00    5.081444e-01   6.639919e-03
  2.633759e+00    4.901539e-01   6.514261e-03
  2.635969e+00    5.017227e-01   6.583998e-03
  2.638180e+00    5.083836e-01   6.620525e-03
  2.640390e+00    4.923540e-01   6.508777e-03
  2.642601e+00    4.974857e-01   6.535970e-03
  2.644811e+00    4.847069e-01   6.444507e-03
  2.647021e+00    5.015368e-01   6.548846e-03
  2.649232e+00    5.056783e-01   6.569095e-03
  2.651442e+00    4.854550e-01   6.429980e-03
  2.653653e+00    5.028658e-01   6.537431e-03
  2.655863e+00    5.047861e-01   6.543198e-03
  2.658074e+00    4.885140e-01   6.430321e-03
  2.660284e+00    4.899661e-01   6.433557e-03
  2.662495e+00    4.814453e-01   6.370725e-03
  2.664705e+00    4.967392e-01   6.464546e-03
  2.666916e+00    5.054873e-01   6.514715e-03
  2.669126e+00    4.923959e-01   6.423356e-03
  2.671337e+00    4.998190e-01   6.464986e-03
  2.673547e+00    4.970046e-01   6.440385e-03
  2.675757e+00    4.898324e-01   6.387308e-03
  2.677968e+00    4.936268e-01   6.405476e-03
  2.680178e+00    4.996028e-01   6.437710e-03
  2.682389e+00    4.984123e-01   6.423595e-03
  2.684599e+00    5.014682e-01   6.437024e-03
  2.686810e+00    4.945982e-01   6.386154e-03
  2.689020e+00    4.953357e-01   6.384597e-03
  2.691231e+00    5.023199e-01   6.423095e-03
  2.693441e+00    4.850492e-01   6.305601e-03
  2.695652e+00    4.818982e-01   6.278616e-03
  2.697862e+00    4.995631e-01   6.386250e-03
  2.700072e+00    5.009388e-01   6.388900e-03
  2.702283e+00    4.816331e-01   6.258404e-03
  2.704493e+00    4.921596e-01   6.320119e-03
  2.706704e+00    4.912859e-01   6.308085e-03
  2.708914e+00    5.033587e-01   6.379066e-03
  2.711125e+00    4.837183e-01   6.247158e-03
  2.713335e+00    4.843545e-01   6.245182e-03
  2.715546e+00    4.856010e-01   6.246770e-03
  2.717756e+00    4.794005e-01   6.200917e-03
  2.719967e+00    4.734506e-01   6.156174e-03
  2.722177e+00    4.908838e-01   6.262349e-03
  2.724387e+00    4.746086e-01   6.151616e-03
  2.726598e+00    4.712109e-01   6.123582e-03
  2.728808e+00    4.897266e-01   6.236556e-03
  2.731019e+00    4.853314e-01   6.202384e-03
  2.733229e+00    4.843069e-01   6.190020e-03
  2.735440e+00    4.876936e-01   6.205342e-03
  2.737650e+00    4.887310e-01   6.205888e-03
  2.739861e+00    4.900787e-01   6.208336e-03
  2.742071e+00    4.787649e-01   6.130527e-03
  2.744282e+00    4.831557e-01   6.152325e-03
  2.746492e+00    4.839034e-01   6.151041e-03
  2.748702e+00    4.791674e-01   6.114986e-03
  2.750913e+00    4.774775e-01   6.098416e-03
  2.753123e+00    4.702761e-01   6.046211e-03
  2.755334e+00    4.856385e-01   6.138057e-03
  2.757544e+00    4.891580e-01   6.154479e-03
  2.759755e+00    4.817968e-01   6.102118e-03
  2.761965e+00    4.724844e-01   6.036903e-03
  2.764176e+00    4.750379e-01   6.047244e-03
  2.766386e+00    4.846733e-01   6.102441e-03
  2.768597e+00    4.687885e-01   5.995834e-03
  2.770807e+00    4.605156e-01   5.936900e-03
  2.773017e+00    4.799957e-01   6.055203e-03
  2.775228e+00    4.757279e-01   6.022451e-03
  2.777438e+00    4.765935e-01   6.022149e-03
  2.779649e+00    4.784735e-01   6.028106e-03
  2.781859e+00    4.673426e-01   5.951887e-03
  2.784070e+00    4.654869e-01   5.934250e-03
  2.786280e+00    4.726631e-01   5.974104e-03
  2.788491e+00    4.681762e-01   5.939887e-03
  2.790701e+00    4.716520e-01   5.956272e-03
  2.792912e+00    4.762647e-01   5.979364e-03
  2.795122e+00    4.756431e-01   5.969735e-03
  2.797333e+00    4.733902e-01   5.950047e-03
  2.799543e+00    4.627118e-01   5.876753e-03
  2.801753e+00    4.795410e-01   5.976794e-03
  2.803964e+00    4.705800e-01   5.915058e-03
  2.806174e+00    4.759113e-01   5.942305e-03
  2.808385e+00    4.789430e-01   5.954389e-03
  2.810595e+00    4.815000e-01   5.963343e-03
  2.812806e+00    4.812092e-01   5.954887e-03
  2.815016e+00    4.735457e-01   5.902551e-03
  2.817227e+00    4.749053e-01   5.936947e-03
  2.819437e+00    4.787030e-01   5.971797e-03
  2.821648e+00    4.633358e-01   5.877423e-03
  2.823858e+00    4.625325e-01   5.877593e-03
  2.826068e+00    4.752374e-01   5.962761e-03
  2.828279e+00    4.820442e-01   6.009392e-03
  2.830489e+00    4.848303e-01   6.030117e-03
  2.832700e+00    4.712044e-01   5.947345e-03
  2.834910e+00    4.547670e-01   5.844711e-03
  2.837121e+00    4.656428e-01   5.915872e-03
  2.839331e+00    4.784555e-01   5.997964e-03
  2.841542e+00    4.641351e-01   5.908526e-03
  2.843752e+00    4.770642e-01   5.991046e-03
  2.845963e+00    4.787977e-01   6.002320e-03
  2.848173e+00    4.753564e-01   5.980808e-03
  2.850383e+00    4.763103e-01   5.987086e-03
  2.852594e+00    4.581152e-01   5.871568e-03
  2.854804e+00    4.540289e-01   5.844798e-03
  2.857015e+00    4.672748e-01   5.929017e-03
  2.859225e+00    4.637070e-01   5.906092e-03
  2.861436e+00    4.816466e-01   6.018580e-03
  2.863646e+00    4.731734e-01   5.965455e-03
  2.865857e+00    4.650364e-01   5.914283e-03
  2.868067e+00    4.644444e-01   5.910729e-03
  2.870278e+00    4.678683e-01   5.932112e-03
  2.872488e+00    4.722811e-01   5.958869e-03
  2.874698e+00    4.698357e-01   5.942372e-03
  2.876909e+00    4.604447e-01   5.881351e-03
  2.879119e+00    4.617594e-01   5.888124e-03
  2.881330e+00    4.671192e-01   5.920717e-03
  2.883540e+00    4.624304e-01   5.889546e-03
  2.885751e+00    4.546885e-01   5.838401e-03
  2.887961e+00    4.671377e-01   5.915883e-03
  2.890172e+00    4.618490e-01   5.880718e-03
  2.892382e+00    4.653763e-01   5.901296e-03
  2.894593e+00    4.652810e-01   5.898870e-03
  2.896803e+00    4.636041e-01   5.886260e-03
  2.899014e+00    4.553814e-01   5.831914e-03
  2.901224e+00    4.608267e-01   5.864684e-03
  2.903434e+00    4.603885e-01   5.859953e-03
  2.905645e+00    4.663320e-01   5.895416e-03
  2.907855e+00    4.609573e-01   5.859245e-03
  2.910066e+00    4.511486e-01   5.794508e-03
  2.912276e+00    4.620621e-01   5.862037e-03
  2.914487e+00    4.519562e-01   5.795158e-03
  2.916697e+00    4.610435e-01   5.850874e-03
  2.918908e+00    4.627196e-01   5.859504e-03
  2.921118e+00    4.539681e-01   5.801136e-03
  2.923329e+00    4.743814e-01   5.927778e-03
  2.925539e+00    4.575830e-01   5.819610e-03
  2.927749e+00    4.558239e-01   5.806074e-03
  2.929960e+00    4.643470e-01   5.857331e-03
  2.932170e+00    4.535547e-01   5.786533e-03
  2.934381e+00    4.347550e-01   5.662983e-03
  2.936591e+00    4.396681e-01   5.692323e-03
  2.938802e+00    4.610592e-01   5.826430e-03
  2.941012e+00    4.522634e-01   5.768286e-03
  2.943223e+00    4.555184e-01   5.786287e-03
  2.945433e+00    4.634784e-01   5.832872e-03
  2.947644e+00    4.782235e-01   5.920672e-03
  2.949854e+00    4.649624e-01   5.833733e-03
  2.952064e+00    4.558653e-01   5.772117e-03
  2.954275e+00    4.504880e-01   5.733613e-03
  2.956485e+00    4.480506e-01   5.713899e-03
  2.958696e+00    4.533906e-01   5.743494e-03
  2.960906e+00    4.452872e-01   5.687807e-03
  2.963117e+00    4.477051e-01   5.698760e-03
  2.965327e+00    4.590004e-01   5.766292e-03
  2.967538e+00    4.448576e-01   5.673872e-03
  2.969748e+00    4.554241e-01   5.738037e-03
  2.971959e+00    4.610342e-01   5.770130e-03
  2.974169e+00    4.517694e-01   5.709261e-03
  2.976379e+00    4.729604e-01   5.838656e-03
  2.978590e+00    4.572507e-01   5.737736e-03
  2.980800e+00    4.552817e-01   5.722553e-03
  2.983011e+00    4.566711e-01   5.728482e-03
  2.985221e+00    4.558159e-01   5.719956e-03
  2.987432e+00    4.434575e-01   5.638806e-03
  2.989642e+00    4.428197e-01   5.632149e-03
  2.991853e+00    4.606422e-01   5.741073e-03
  2.994063e+00    4.572100e-01   5.716726e-03
  2.996274e+00    4.572843e-01   5.713991e-03
  2.998484e+00    4.582233e-01   5.717153e-03
  3.000694e+00    4.618059e-01   5.735964e-03
  3.002905e+00    4.551769e-01   5.691724e-03
  3.005115e+00    4.450368e-01   5.624993e-03
  3.007326e+00    4.643677e-01   5.742669e-03
  3.009536e+00    4.601832e-01   5.713470e-03
  3.011747e+00    4.477259e-01   5.632704e-03
  3.013957e+00    4.527177e-01   5.660836e-03
  3.016168e+00    4.452536e-01   5.610759e-03
  3.018378e+00    4.499951e-01   5.637499e-03
  3.020589e+00    4.557938e-01   5.670500e-03
  3.022799e+00    4.528355e-01   5.648896e-03
  3.025010e+00    4.462835e-01   5.604668e-03
  3.027220e+00    4.627745e-01   5.704123e-03
  3.029430e+00    4.609238e-01   5.689444e-03
  3.031641e+00    4.559779e-01   5.655691e-03
  3.033851e+00    4.406993e-01   5.556642e-03
  3.036062e+00    4.569075e-01   5.655115e-03
  3.038272e+00    4.289518e-01   5.475893e-03
  3.040483e+00    4.405495e-01   5.546235e-03
  3.042693e+00    4.567949e-01   5.644288e-03
  3.044904e+00    4.507103e-01   5.602557e-03
  3.047114e+00    4.495392e-01   5.590463e-03
  3.049325e+00    4.495551e-01   5.586180e-03
  3.051535e+00    4.570565e-01   5.628174e-03
  3.053745e+00    4.384653e-01   5.507845e-03
  3.055956e+00    4.385502e-01   5.503841e-03
  3.058166e+00    4.622954e-01   5.646569e-03
  3.060377e+00    4.553957e-01   5.599482e-03
  3.062587e+00    4.433699e-01   5.520467e-03
  3.064798e+00    4.379581e-01   5.482465e-03
  3.067008e+00    4.484900e-01   5.543259e-03
  3.069219e+00    4.497274e-01   5.546400e-03
  3.071429e+00    4.593333e-01   5.601773e-03
  3.073640e+00    4.491313e-01   5.535886e-03
  3.075850e+00    4.532773e-01   5.557780e-03
  3.078060e+00    4.374132e-01   5.456598e-03
  3.080271e+00    4.440160e-01   5.494154e-03
  3.082481e+00    4.458621e-01   5.502135e-03
  3.084692e+00    4.456086e-01   5.497201e-03
  3.086902e+00    4.500562e-01   5.521327e-03
  3.089113e+00    4.507242e-01   5.521829e-03
  3.091323e+00    4.564882e-01   5.553616e-03
  3.093534e+00    4.608056e-01   5.576406e-03
  3.095744e+00    4.380776e-01   5.433813e-03
  3.097955e+00    4.509440e-01   5.509463e-03
  3.100165e+00    4.435648e-01   5.460872e-03
  3.102375e+00    4.493217e-01   5.492775e-03
  3.104586e+00    4.572541e-01   5.537512e-03
  3.106796e+00    4.554220e-01   5.522846e-03
  3.109007e+00    4.427387e-01   5.442216e-03
  3.111217e+00    4.429214e-01   5.439651e-03
  3.113428e+00    4.344449e-01   5.383959e-03
  3.115638e+00    4.345036e-01   5.381150e-03
  3.117849e+00    4.386335e-01   5.402951e-03
  3.120059e+00    4.560143e-01   5.505456e-03
  3.122270e+00    4.383429e-01   5.394499e-03
  3.124480e+00    4.425986e-01   5.416945e-03
  3.126691e+00    4.447183e-01   5.426330e-03
  3.128901e+00    4.552299e-01   5.486932e-03
  3.131111e+00    4.477089e-01   5.437568e-03
  3.133322e+00    4.517425e-01   5.458523e-03
  3.135532e+00    4.449099e-01   5.413696e-03
  3.137743e+00    4.513237e-01   5.449062e-03
  3.139953e+00    4.436511e-01   5.398865e-03
  3.142164e+00    4.396560e-01   5.386458e-03
  3.144374e+00    4.496282e-01   5.475843e-03
  3.146585e+00    4.645378e-01   5.580826e-03
  3.148795e+00    4.508383e-01   5.508807e-03
  3.151006e+00    4.358513e-01   5.424942e-03
  3.153216e+00    4.421346e-01   5.471047e-03
  3.155426e+00    4.437129e-01   5.487133e-03
  3.157637e+00    4.493642e-01   5.527545e-03
  3.159847e+00    4.440567e-01   5.499697e-03
  3.162058e+00    4.336407e-01   5.439221e-03
  3.164268e+00    4.282218e-01   5.409122e-03
  3.166479e+00    4.271716e-01   5.406098e-03
  3.168689e+00    4.426340e-01   5.506421e-03
  3.170900e+00    4.447786e-01   5.522973e-03
  3.173110e+00    4.356442e-01   5.468805e-03
  3.175321e+00    4.500395e-01   5.560958e-03
  3.177531e+00    4.430447e-01   5.520343e-03
  3.179741e+00    4.385961e-01   5.494610e-03
  3.181952e+00    4.313989e-01   5.451459e-03
  3.184162e+00    4.291704e-01   5.439511e-03
  3.186373e+00    4.429155e-01   5.527547e-03
  3.188583e+00    4.319715e-01   5.460616e-03
  3.190794e+00    4.322913e-01   5.464377e-03
  3.193004e+00    4.227189e-01   5.404757e-03
  3.195215e+00    4.280115e-01   5.439974e-03
  3.197425e+00    4.375193e-01   5.501279e-03
  3.199636e+00    4.439023e-01   5.540485e-03
  3.201846e+00    4.304656e-01   5.455406e-03
  3.204056e+00    4.267099e-01   5.432406e-03
  3.206267e+00    4.412319e-01   5.524940e-03
  3.208477e+00    4.301958e-01   5.456334e-03
  3.210688e+00    4.324580e-01   5.471494e-03
  3.212898e+00    4.308523e-01   5.461903e-03
  3.215109e+00    4.348589e-01   5.487991e-03
  3.217319e+00    4.367187e-01   5.500370e-03
  3.219530e+00    4.282860e-01   5.447387e-03
  3.221740e+00    4.298974e-01   5.458185e-03
  3.223951e+00    4.349900e-01   5.490896e-03
  3.226161e+00    4.264239e-01   5.436751e-03
  3.228372e+00    4.238318e-01   5.420719e-03
  3.230582e+00    4.214654e-01   5.405713e-03
  3.232792e+00    4.217291e-01   5.407631e-03
  3.235003e+00    4.167963e-01   5.376133e-03
  3.237213e+00    4.243632e-01   5.424834e-03
  3.239424e+00    4.299551e-01   5.460441e-03
  3.241634e+00    4.262902e-01   5.437261e-03
  3.243845e+00    4.277415e-01   5.446577e-03
  3.246055e+00    4.145086e-01   5.361397e-03
  3.248266e+00    4.185591e-01   5.387717e-03
  3.250476e+00    4.221756e-01   5.410656e-03
  3.252687e+00    4.091917e-01   5.326715e-03
  3.254897e+00    4.203664e-01   5.398838e-03
  3.257107e+00    4.287477e-01   5.452082e-03
  3.259318e+00    4.249166e-01   5.427449e-03
  3.261528e+00    4.170044e-01   5.376540e-03
  3.263739e+00    4.189136e-01   5.388261e-03
  3.265949e+00    4.269590e-01   5.439647e-03
  3.268160e+00    4.240071e-01   5.420398e-03
  3.270370e+00    4.265338e-01   5.436018e-03
  3.272581e+00    4.073596e-01   5.312160e-03
  3.274791e+00    4.121873e-01   5.342993e-03
  3.277002e+00    4.247213e-01   5.423084e-03
  3.279212e+00    4.234541e-01   5.414608e-03
  3.281422e+00    4.319091e-01   5.467801e-03
  3.283633e+00    4.339655e-01   5.480132e-03
  3.285843e+00    4.310580e-01   5.461399e-03
  3.288054e+00    4.220363e-01   5.403008e-03
  3.290264e+00    4.218897e-01   5.401754e-03
  3.292475e+00    4.305145e-01   5.455852e-03
  3.294685e+00    4.246561e-01   5.417967e-03
  3.296896e+00    4.260294e-01   5.425967e-03
  3.299106e+00    4.257256e-01   5.423461e-03
  3.301317e+00    4.296178e-01   5.447173e-03
  3.303527e+00    4.266078e-01   5.427593e-03
  3.305737e+00    4.231239e-01   5.404341e-03
  3.307948e+00    4.075502e-01   5.303279e-03
  3.310158e+00    4.351928e-01   5.479315e-03
  3.312369e+00    4.332531e-01   5.466230e-03
  3.314579e+00    4.143462e-01   5.344688e-03
  3.316790e+00    4.367098e-01   5.486326e-03
  3.319000e+00    4.230703e-01   5.398792e-03
  3.321211e+00    4.334709e-01   5.464129e-03
  3.323421e+00    4.109696e-01   5.319241e-03
  3.325632e+00    4.258288e-01   5.413633e-03
  3.327842e+00    4.299580e-01   5.438915e-03
  3.330052e+00    4.197934e-01   5.373165e-03
  3.332263e+00    4.259770e-01   5.411583e-03
  3.334473e+00    4.028277e-01   5.261603e-03
  3.336684e+00    4.265264e-01   5.412846e-03
  3.338894e+00    4.340304e-01   5.459431e-03
  3.341105e+00    4.200085e-01   5.369313e-03
  3.343315e+00    4.213348e-01   5.376639e-03
  3.345526e+00    4.229066e-01   5.385753e-03
  3.347736e+00    4.224307e-01   5.381317e-03
  3.349947e+00    4.117652e-01   5.312015e-03
  3.352157e+00    4.208340e-01   5.369029e-03
  3.354368e+00    4.203515e-01   5.364648e-03
  3.356578e+00    4.224923e-01   5.377275e-03
  3.358788e+00    4.318973e-01   5.435428e-03
  3.360999e+00    4.288063e-01   5.414702e-03
  3.363209e+00    4.226567e-01   5.374704e-03
  3.365420e+00    4.225284e-01   5.372378e-03
  3.367630e+00    4.092965e-01   5.286571e-03
  3.369841e+00    4.122228e-01   5.304018e-03
  3.372051e+00    4.217858e-01   5.363200e-03
  3.374262e+00    4.228665e-01   5.367592e-03
  3.376472e+00    4.182370e-01   5.335710e-03
  3.378683e+00    4.133857e-01   5.302159e-03
  3.380893e+00    4.164116e-01   5.319191e-03
  3.383103e+00    4.191101e-01   5.333684e-03
  3.385314e+00    4.080939e-01   5.260917e-03
  3.387524e+00    4.084380e-01   5.260407e-03
  3.389735e+00    4.152022e-01   5.301160e-03
  3.391945e+00    4.181326e-01   5.316141e-03
  3.394156e+00    4.181421e-01   5.311955e-03
  3.396366e+00    4.066661e-01   5.235170e-03
  3.398577e+00    4.071710e-01   5.235392e-03
  3.400787e+00    4.002865e-01   5.202700e-03
  3.402998e+00    3.920261e-01   5.185941e-03
  3.405208e+00    3.986946e-01   5.250367e-03
  3.407418e+00    3.988775e-01   5.267298e-03
  3.409629e+00    3.901356e-01   5.223057e-03
  3.411839e+00    3.776259e-01   5.150061e-03
  3.414050e+00    3.981167e-01   5.298952e-03
  3.416260e+00    3.851166e-01   5.221253e-03
  3.418471e+00    3.890175e-01   5.256984e-03
  3.420681e+00    3.899490e-01   5.271752e-03
  3.422892e+00    3.797742e-01   5.210393e-03
  3.425102e+00    3.856665e-01   5.258453e-03
  3.427313e+00    3.779202e-01   5.212449e-03
  3.429523e+00    3.937510e-01   5.327624e-03
  3.431733e+00    3.796797e-01   5.238191e-03
  3.433944e+00    3.756092e-01   5.216436e-03
  3.436154e+00    3.646402e-01   5.145799e-03
  3.438365e+00    3.737631e-01   5.215617e-03
  3.440575e+00    3.737229e-01   5.221234e-03
  3.442786e+00    3.815960e-01   5.281539e-03
  3.444996e+00    3.707960e-01   5.211770e-03
  3.447207e+00    3.636265e-01   5.166314e-03
  3.449417e+00    3.787372e-01   5.313756e-03
  3.451628e+00    3.756126e-01   5.321548e-03
  3.453838e+00    3.774671e-01   5.356058e-03
  3.456049e+00    3.989410e-01   5.531257e-03
  3.458259e+00    3.760257e-01   5.392273e-03
  3.460469e+00    3.708132e-01   5.374687e-03
  3.462680e+00    3.625832e-01   5.333654e-03
  3.464890e+00    3.590451e-01   5.325177e-03
  3.467101e+00    3.545284e-01   5.308748e-03
  3.469311e+00    3.749048e-01   5.475789e-03
  3.471522e+00    3.811969e-01   5.538096e-03
  3.473732e+00    3.851226e-01   5.582648e-03
  3.475943e+00    3.955778e-01   5.673853e-03
  3.478153e+00    4.063652e-01   5.766525e-03
  3.480364e+00    4.074754e-01   5.789802e-03
  3.482574e+00    4.123158e-01   5.839601e-03
  3.484784e+00    4.318453e-01   5.991525e-03
  3.486995e+00    4.368458e-01   6.041611e-03
  3.489205e+00    4.327524e-01   6.028080e-03
  3.491416e+00    4.343457e-01   6.054177e-03
  3.493626e+00    4.551242e-01   6.212247e-03
  3.495837e+00    4.534103e-01   6.215501e-03
  3.498047e+00    4.621354e-01   6.289786e-03
  3.500258e+00    4.554303e-01   6.258656e-03
  3.502468e+00    4.514631e-01   6.245677e-03
  3.504679e+00    4.692062e-01   6.381851e-03
  3.506889e+00    4.774378e-01   6.452224e-03
  3.509099e+00    4.897059e-01   6.549209e-03
  3.511310e+00    4.892800e-01   6.561064e-03
  3.513520e+00    4.890586e-01   6.574061e-03
  3.515731e+00    4.964775e-01   6.638308e-03
  3.517941e+00    4.827233e-01   6.559934e-03
  3.520152e+00    5.161102e-01   6.797596e-03
  3.522362e+00    5.249534e-01   6.870463e-03
  3.524573e+00    5.116246e-01   6.797030e-03
  3.526783e+00    5.085941e-01   6.790182e-03
  3.528994e+00    5.218805e-01   6.890575e-03
  3.531204e+00    5.406504e-01   7.026125e-03
  3.533414e+00    5.387343e-01   7.025893e-03
  3.535625e+00    5.254021e-01   6.950743e-03
  3.537835e+00    5.400229e-01   7.058968e-03
  3.540046e+00    5.410198e-01   7.074460e-03
  3.542256e+00    5.528004e-01   7.158759e-03
  3.544467e+00    5.411671e-01   7.090660e-03
  3.546677e+00    5.573612e-01   7.203715e-03
  3.548888e+00    5.328467e-01   7.050979e-03
  3.551098e+00    5.418801e-01   7.117813e-03
  3.553309e+00    5.380851e-01   7.101048e-03
  3.555519e+00    5.358322e-01   7.097437e-03
  3.557729e+00    5.504144e-01   7.205275e-03
  3.559940e+00    5.421689e-01   7.162676e-03
  3.562150e+00    5.317788e-01   7.105418e-03
  3.564361e+00    5.381652e-01   7.161266e-03
  3.566571e+00    5.398301e-01   7.186227e-03
  3.568782e+00    5.323198e-01   7.150138e-03
  3.570992e+00    5.492567e-01   7.276923e-03
  3.573203e+00    5.335797e-01   7.186432e-03
  3.575413e+00    5.220816e-01   7.122172e-03
  3.577624e+00    5.143300e-01   7.082948e-03
  3.579834e+00    5.316540e-01   7.215025e-03
  3.582045e+00    5.577312e-01   7.404197e-03
  3.584255e+00    5.420375e-01   7.313427e-03
  3.586465e+00    5.458362e-01   7.353064e-03
  3.588676e+00    5.427297e-01   7.346401e-03
  3.590886e+00    5.470846e-01   7.389640e-03
  3.593097e+00    5.378307e-01   7.341424e-03
  3.595307e+00    5.246180e-01   7.264469e-03
  3.597518e+00    5.395603e-01   7.381439e-03
  3.599728e+00    5.355242e-01   7.367898e-03
  3.601939e+00    5.517476e-01   7.492945e-03
  3.604149e+00    5.452293e-01   7.463057e-03
  3.606360e+00    5.652465e-01   7.613388e-03
  3.608570e+00    5.648188e-01   7.625070e-03
  3.610780e+00    5.481108e-01   7.522630e-03
  3.612991e+00    5.168584e-01   7.314839e-03
  3.615201e+00    5.243634e-01   7.377452e-03
  3.617412e+00    5.354016e-01   7.461974e-03
  3.619622e+00    5.617001e-01   7.649173e-03
  3.621833e+00    5.287227e-01   7.427881e-03
  3.624043e+00    5.344758e-01   7.477716e-03
  3.626254e+00    5.491748e-01   7.589669e-03
  3.628464e+00    5.410617e-01   7.544432e-03
  3.630675e+00    5.516922e-01   7.632565e-03
  3.632885e+00    5.432286e-01   7.588350e-03
  3.635095e+00    5.386780e-01   7.570975e-03
  3.637306e+00    5.359937e-01   7.566486e-03
  3.639516e+00    5.104221e-01   7.398008e-03
  3.641727e+00    5.369519e-01   7.602429e-03
  3.643937e+00    5.305308e-01   7.571330e-03
  3.646148e+00    5.530857e-01   7.745516e-03
  3.648358e+00    5.377886e-01   7.652584e-03
  3.650569e+00    5.317420e-01   7.624148e-03
  3.652779e+00    5.294760e-01   7.622592e-03
  3.654990e+00    5.605955e-01   7.858677e-03
  3.657200e+00    5.549027e-01   7.833913e-03
  3.659410e+00    5.122848e-01   7.541765e-03
  3.661621e+00    5.295689e-01   7.682963e-03
  3.663831e+00    5.136973e-01   7.581841e-03
  3.666042e+00    5.379934e-01   7.774310e-03
  3.668252e+00    5.218535e-01   7.671927e-03
  3.670463e+00    5.362984e-01   7.792662e-03
  3.672673e+00    5.107730e-01   7.620127e-03
  3.674884e+00    5.183447e-01   7.691545e-03
  3.677094e+00    5.444826e-01   7.898841e-03
  3.679305e+00    5.476892e-01   7.937876e-03
  3.681515e+00    5.377553e-01   7.881301e-03
  3.683726e+00    5.268281e-01   7.816544e-03
  3.685936e+00    5.284111e-01   7.844038e-03
  3.688146e+00    4.940931e-01   7.600258e-03
  3.690357e+00    5.251518e-01   7.851378e-03
  3.692567e+00    5.500278e-01   8.051667e-03
  3.694778e+00    5.399912e-01   7.994170e-03
  3.696988e+00    5.159376e-01   7.829878e-03
  3.699199e+00    5.334710e-01   7.978172e-03
  3.701409e+00    5.334581e-01   7.994596e-03
  3.703620e+00    5.418977e-01   8.074156e-03
  3.705830e+00    5.278875e-01   7.985563e-03
  3.708041e+00    5.413530e-01   8.103618e-03
  3.710251e+00    5.212885e-01   7.968731e-03
  3.712461e+00    5.230241e-01   7.998693e-03
  3.714672e+00    5.142385e-01   7.947875e-03
  3.716882e+00    5.226260e-01   8.029146e-03
  3.719093e+00    5.106556e-01   7.953648e-03
  3.721303e+00    5.384336e-01   8.184359e-03
  3.723514e+00    5.064494e-01   7.954622e-03
  3.725724e+00    5.463660e-01   8.279735e-03
  3.727935e+00    5.268187e-01   8.147939e-03
  3.730145e+00    5.117559e-01   8.047820e-03
  3.732356e+00    5.218078e-01   8.144087e-03
  3.734566e+00    5.049535e-01   8.028893e-03
  3.736776e+00    4.847348e-01   7.883702e-03
  3.738987e+00    4.994444e-01   8.019927e-03
  3.741197e+00    5.019864e-01   8.058066e-03
  3.743408e+00    5.262613e-01   8.268935e-03
  3.745618e+00    5.003385e-01   8.080766e-03
  3.747829e+00    5.298754e-01   8.334260e-03
  3.750039e+00    5.117830e-01   8.209186e-03
  3.752250e+00    5.066543e-01   8.186314e-03
  3.754460e+00    5.007330e-01   8.156705e-03
  3.756671e+00    5.007038e-01   8.175087e-03
  3.758881e+00    5.077370e-01   8.250943e-03
  3.761091e+00    5.258303e-01   8.416117e-03
  3.763302e+00    5.090124e-01   8.299548e-03
  3.765512e+00    4.916521e-01   8.175739e-03
  3.767723e+00    5.260994e-01   8.476951e-03
  3.769933e+00    5.229058e-01   8.470940e-03
  3.772144e+00    4.947685e-01   8.259194e-03
  3.774354e+00    4.951487e-01   8.281962e-03
  3.776565e+00    5.285522e-01   8.577112e-03
  3.778775e+00    5.027468e-01   8.385002e-03
  3.780986e+00    5.137012e-01   8.496382e-03
  3.783196e+00    5.192217e-01   8.562448e-03
  3.785407e+00    5.118930e-01   8.522456e-03
  3.787617e+00    4.811013e-01   8.282404e-03
  3.789827e+00    5.113255e-01   8.559356e-03
  3.792038e+00    4.930063e-01   8.425269e-03
  3.794248e+00    5.075704e-01   8.570098e-03
  3.796459e+00    4.829672e-01   8.380797e-03
  3.798669e+00    4.840769e-01   8.411405e-03
  3.800880e+00    4.983870e-01   8.556251e-03
  3.803090e+00    4.933150e-01   8.534244e-03
  3.805301e+00    4.910401e-01   8.536427e-03
  3.807511e+00    5.164130e-01   8.776607e-03
  3.809722e+00    4.979692e-01   8.640610e-03
  3.811932e+00    5.181490e-01   8.836562e-03
  3.814142e+00    5.328334e-01   8.984591e-03
  3.816353e+00    4.949288e-01   8.681841e-03
  3.818563e+00    5.027413e-01   8.773288e-03
  3.820774e+00    5.086768e-01   8.848339e-03
  3.822984e+00    4.761983e-01   8.584047e-03
  3.825195e+00    5.205016e-01   8.998705e-03
  3.827405e+00    5.057696e-01   8.894602e-03
  3.829616e+00    5.203723e-01   9.046623e-03
  3.831826e+00    5.197257e-01   9.065777e-03
  3.834037e+00    4.844711e-01   8.777085e-03
  3.836247e+00    4.908524e-01   8.859170e-03
  3.838457e+00    5.060573e-01   9.020663e-03
  3.840668e+00    4.968916e-01   8.963785e-03
  3.842878e+00    4.930715e-01   8.954708e-03
  3.845089e+00    4.928544e-01   8.978224e-03
  3.847299e+00    4.796475e-01   8.882520e-03
  3.849510e+00    5.060236e-01   9.149554e-03
  3.851720e+00    4.873185e-01   9.000172e-03
  3.853931e+00    4.904916e-01   9.048317e-03
  3.856141e+00    4.599522e-01   8.780455e-03
  3.858352e+00    4.939427e-01   9.118271e-03
  3.860562e+00    5.025639e-01   9.217050e-03
  3.862772e+00    5.016869e-01   9.228703e-03
  3.864983e+00    4.991101e-01   9.224818e-03
  3.867193e+00    4.920487e-01   9.178969e-03
  3.869404e+00    5.156381e-01   9.416712e-03
  3.871614e+00    4.737586e-01   9.045808e-03
  3.873825e+00    5.192550e-01   9.490984e-03
  3.876035e+00    4.998159e-01   9.332447e-03
  3.878246e+00    4.866409e-01   9.234216e-03
  3.880456e+00    4.918480e-01   9.312432e-03
  3.882667e+00    4.924175e-01   9.347213e-03
  3.884877e+00    4.759648e-01   9.218963e-03
  3.887087e+00    5.202588e-01   9.669161e-03
  3.889298e+00    5.000138e-01   9.509792e-03
  3.891508e+00    4.973730e-01   9.515448e-03
  3.893719e+00    4.851869e-01   9.428968e-03
  3.895929e+00    4.766079e-01   9.376152e-03
  3.898140e+00    4.740635e-01   9.382326e-03
  3.900350e+00    4.711802e-01   9.385162e-03
  3.902561e+00    4.939590e-01   9.641831e-03
  3.904771e+00    5.014145e-01   9.747600e-03
  3.906982e+00    4.976157e-01   9.743969e-03
  3.909192e+00    4.866975e-01   9.669936e-03
  3.911403e+00    5.009366e-01   9.844708e-03
  3.913613e+00    5.019171e-01   9.889194e-03
  3.915823e+00    5.001309e-01   9.906649e-03
  3.918034e+00    5.059338e-01   9.999956e-03
  3.920244e+00    4.878739e-01   9.855567e-03
  3.922455e+00    4.772698e-01   9.783534e-03
  3.924665e+00    4.749286e-01   9.795397e-03
  3.926876e+00    4.877088e-01   9.963476e-03
  3.929086e+00    4.930563e-01   1.005546e-02
  3.931297e+00    4.962738e-01   1.012335e-02
  3.933507e+00    4.709594e-01   9.890305e-03
  3.935718e+00    4.789678e-01   1.000244e-02
  3.937928e+00    4.965062e-01   1.021366e-02
  3.940138e+00    5.015481e-01   1.029511e-02
  3.942349e+00    4.835153e-01   1.013821e-02
  3.944559e+00    4.980160e-01   1.031934e-02
  3.946770e+00    4.929322e-01   1.029702e-02
  3.948980e+00    4.679098e-01   1.006227e-02
  3.951191e+00    4.808616e-01   1.023128e-02
  3.953401e+00    4.828040e-01   1.028319e-02
  3.955612e+00    4.682885e-01   1.015847e-02
  3.957822e+00    4.734180e-01   1.024522e-02
  3.960033e+00    4.910914e-01   1.046745e-02
  3.962243e+00    4.997700e-01   1.059291e-02
  3.964453e+00    4.862766e-01   1.048209e-02
  3.966664e+00    4.767255e-01   1.041168e-02
  3.968874e+00    4.911152e-01   1.059615e-02
  3.971085e+00    5.125322e-01   1.084731e-02
  3.973295e+00    5.139165e-01   1.088403e-02
  3.975506e+00    5.114631e-01   1.088028e-02
  3.977716e+00    5.086787e-01   1.087308e-02
  3.979927e+00    4.874721e-01   1.066619e-02
  3.982137e+00    4.925937e-01   1.074453e-02
  3.984348e+00    4.956283e-01   1.080036e-02
  3.986558e+00    4.636423e-01   1.046796e-02
  3.988768e+00    4.498950e-01   1.033362e-02
  3.990979e+00    4.977670e-01   1.089258e-02
  3.993189e+00    4.974078e-01   1.091202e-02
  3.995400e+00    4.998350e-01   1.096256e-02
  3.997610e+00    4.758718e-01   1.072609e-02
  3.999821e+00    4.784136e-01   1.079188e-02
  4.002031e+00    5.050816e-01   1.112782e-02
  4.004242e+00    5.158833e-01   1.128588e-02
  4.006452e+00    5.065745e-01   1.122385e-02
  4.008663e+00    5.278943e-01   1.149935e-02
  4.010873e+00    4.910249e-01   1.113081e-02
  4.013084e+00    4.877521e-01   1.113463e-02
  4.015294e+00    4.793378e-01   1.107903e-02
  4.017504e+00    4.795799e-01   1.112338e-02
  4.019715e+00    4.662505e-01   1.100951e-02
  4.021925e+00    4.480590e-01   1.083384e-02
  4.024136e+00    4.840174e-01   1.130401e-02
  4.026346e+00    4.813111e-01   1.131619e-02
  4.028557e+00    4.913290e-01   1.147810e-02
  4.030767e+00    4.793517e-01   1.138283e-02
  4.032978e+00    4.553217e-01   1.113879e-02
  4.035188e+00    4.797189e-01   1.147917e-02
  4.037399e+00    5.004646e-01   1.177324e-02
  4.039609e+00    5.266536e-01   1.212706e-02
  4.041819e+00    5.182180e-01   1.208022e-02
  4.044030e+00    4.930410e-01   1.183351e-02
  4.046240e+00    4.686089e-01   1.158554e-02
  4.048451e+00    4.977137e-01   1.199169e-02
  4.050661e+00    4.921059e-01   1.197597e-02
  4.052872e+00    4.914157e-01   1.202070e-02
  4.055082e+00    4.776321e-01   1.190419e-02
  4.057293e+00    4.606884e-01   1.174352e-02
  4.059503e+00    4.978151e-01   1.226316e-02
  4.061714e+00    5.183972e-01   1.257266e-02
  4.063924e+00    4.827061e-01   1.218906e-02
  4.066134e+00    4.674973e-01   1.205172e-02
  4.068345e+00    4.991380e-01   1.251318e-02
  4.070555e+00    4.457277e-01   1.188168e-02
  4.072766e+00    4.385991e-01   1.184426e-02
  4.074976e+00    4.457676e-01   1.200031e-02
  4.077187e+00    4.444383e-01   1.204190e-02
  4.079397e+00    4.657905e-01   1.239063e-02
  4.081608e+00    5.108334e-01   1.304349e-02
  4.083818e+00    4.850823e-01   1.277649e-02
  4.086029e+00    5.228152e-01   1.333425e-02
  4.088239e+00    4.739876e-01   1.276476e-02
  4.090449e+00    4.641892e-01   1.270038e-02
  4.092660e+00    5.047613e-01   1.331667e-02
  4.094870e+00    4.759958e-01   1.300375e-02
  4.097081e+00    4.478786e-01   1.268269e-02
  4.099291e+00    5.036281e-01   1.350476e-02
  4.101502e+00    4.903919e-01   1.337580e-02
  4.103712e+00    4.563203e-01   1.295085e-02
  4.105923e+00    4.593084e-01   1.304342e-02
  4.108133e+00    4.500155e-01   1.296067e-02
  4.110344e+00    5.043750e-01   1.377341e-02
  4.112554e+00    4.867870e-01   1.358481e-02
  4.114764e+00    4.676802e-01   1.336894e-02
  4.116975e+00    4.650465e-01   1.338386e-02
  4.119185e+00    4.570709e-01   1.332236e-02
  4.121396e+00    4.744316e-01   1.362923e-02
  4.123606e+00    4.803126e-01   1.376955e-02
  4.125817e+00    4.558529e-01   1.347065e-02
  4.128027e+00    4.858363e-01   1.396512e-02
  4.130238e+00    4.923269e-01   1.411849e-02
  4.132448e+00    4.865889e-01   1.409684e-02
  4.134659e+00    4.700246e-01   1.391437e-02
  4.136869e+00    4.700829e-01   1.397743e-02
  4.139080e+00    4.554548e-01   1.382006e-02
  4.141290e+00    5.056744e-01   1.462667e-02
  4.143500e+00    4.650027e-01   1.409087e-02
  4.145711e+00    4.747297e-01   1.430404e-02
  4.147921e+00    4.318908e-01   1.370581e-02
  4.150132e+00    4.968334e-01   1.477038e-02
  4.152342e+00    4.912429e-01   1.475818e-02
  4.154553e+00    4.786933e-01   1.463793e-02
  4.156763e+00    4.721507e-01   1.460921e-02
  4.158974e+00    5.031937e-01   1.515775e-02
  4.161184e+00    5.104852e-01   1.534295e-02
  4.163395e+00    4.780861e-01   1.492408e-02
  4.165605e+00    4.731185e-01   1.492331e-02
  4.167815e+00    5.047920e-01   1.549514e-02
  4.170026e+00    4.857313e-01   1.527997e-02
  4.172236e+00    5.229899e-01   1.594081e-02
  4.174447e+00    4.970851e-01   1.562580e-02
  4.176657e+00    4.581762e-01   1.508344e-02
  4.178868e+00    4.680556e-01   1.533173e-02
  4.181078e+00    4.813907e-01   1.563625e-02
  4.183289e+00    4.528662e-01   1.525247e-02
  4.185499e+00    4.737160e-01   1.569186e-02
  4.187710e+00    5.063924e-01   1.631903e-02
  4.189920e+00    5.321442e-01   1.682946e-02
  4.192130e+00    5.057654e-01   1.650744e-02
  4.194341e+00    4.885981e-01   1.632435e-02
  4.196551e+00    4.720506e-01   1.614720e-02
  4.198762e+00    4.541156e-01   1.593792e-02
  4.200972e+00    4.693151e-01   1.630715e-02
  4.203183e+00    4.953887e-01   1.686470e-02
  4.205393e+00    4.978091e-01   1.701832e-02
  4.207604e+00    5.106710e-01   1.735444e-02
  4.209814e+00    4.655842e-01   1.668416e-02
  4.212025e+00    4.456370e-01   1.643862e-02
  4.214235e+00    4.655864e-01   1.692157e-02
  4.216445e+00    4.999289e-01   1.766120e-02
  4.218656e+00    5.440599e-01   1.856249e-02
  4.220866e+00    4.841415e-01   1.764027e-02
  4.223077e+00    5.114328e-01   1.827007e-02
  4.225287e+00    4.957654e-01   1.812941e-02
  4.227498e+00    4.664283e-01   1.772266e-02
  4.229708e+00    4.794098e-01   1.811413e-02
  4.231919e+00    4.068014e-01   1.682376e-02
  4.234129e+00    5.072595e-01   1.894416e-02
  4.236340e+00    5.838240e-01   2.049760e-02
  4.238550e+00    4.738352e-01   1.862949e-02
  4.240761e+00    4.282407e-01   1.786658e-02
  4.242971e+00    4.489614e-01   1.846147e-02
  4.245181e+00    4.748002e-01   1.916341e-02
  4.247392e+00    4.906857e-01   1.966365e-02
  4.249602e+00    4.685914e-01   1.940663e-02
  4.251813e+00    4.187623e-01   1.852687e-02
  4.254023e+00    4.045459e-01   1.839275e-02
  4.256234e+00    4.449335e-01   1.949502e-02
  4.258444e+00    4.538017e-01   1.989479e-02
  4.260655e+00    5.525333e-01   2.219367e-02
  4.262865e+00    5.018628e-01   2.139200e-02
  4.265076e+00    3.655723e-01   1.846476e-02
  4.267286e+00    4.552495e-01   2.085001e-02
  4.269496e+00    4.148230e-01   2.014609e-02
  4.271707e+00    4.012282e-01   2.005711e-02
  4.273917e+00    5.232863e-01   2.320247e-02
  4.276128e+00    4.559235e-01   2.194498e-02
  4.278338e+00    5.308118e-01   2.399506e-02
  4.280549e+00    4.397511e-01   2.215339e-02
  4.282759e+00    4.783829e-01   2.343824e-02
  4.284970e+00    4.146776e-01   2.214467e-02
  4.287180e+00    4.469725e-01   2.326609e-02
  4.289391e+00    5.803714e-01   2.671105e-02
  4.291601e+00    4.107707e-01   2.265143e-02
  4.293811e+00    4.389001e-01   2.359681e-02
  4.296022e+00    4.908975e-01   2.515592e-02
  4.298232e+00    4.622413e-01   2.461599e-02
  4.300443e+00    4.388756e-01   2.418223e-02
  4.302653e+00    5.512360e-01   2.733743e-02
  4.304864e+00    5.100762e-01   2.652419e-02
  4.307074e+00    5.523140e-01   2.784908e-02
  4.309285e+00    3.667112e-01   2.289890e-02
  4.311495e+00    4.708552e-01   2.618896e-02
  4.313706e+00    4.112386e-01   2.470576e-02
  4.315916e+00    3.906462e-01   2.431599e-02
  4.318126e+00    4.629967e-01   2.673380e-02
  4.320337e+00    5.006544e-01   2.808127e-02
  4.322547e+00    4.436346e-01   2.671410e-02
  4.324758e+00    5.307248e-01   2.952359e-02
  4.326968e+00    3.369358e-01   2.378766e-02
  4.329179e+00    4.482254e-01   2.773878e-02
  4.331389e+00    4.452572e-01   2.796554e-02
  4.333600e+00    5.861643e-01   3.247066e-02
  4.335810e+00    3.992616e-01   2.711620e-02
  4.338021e+00    4.368086e-01   2.872706e-02
  4.340231e+00    4.629286e-01   2.994376e-02
  4.342442e+00    4.479969e-01   2.985246e-02
  4.344652e+00    4.415602e-01   3.003975e-02
  4.346862e+00    3.233168e-01   2.606488e-02
  4.349073e+00    5.210272e-01   3.356864e-02
  4.351283e+00    5.930105e-01   3.634755e-02
  4.353494e+00    5.480105e-01   3.548270e-02
  4.355704e+00    3.641470e-01   2.938885e-02
  4.357915e+00    4.810584e-01   3.434112e-02
  4.360125e+00    4.477786e-01   3.369796e-02
  4.362336e+00    4.189656e-01   3.318952e-02
  4.364546e+00    3.754972e-01   3.199185e-02
  4.366757e+00    6.302764e-01   4.227291e-02
  4.368967e+00    5.008264e-01   3.843539e-02
  4.371177e+00    5.043517e-01   3.938973e-02
  4.373388e+00    5.908985e-01   4.358860e-02
  4.375598e+00    3.340331e-01   3.352259e-02
  4.377809e+00    3.852076e-01   3.690832e-02
  4.380019e+00    1.701617e-01   2.514751e-02
  4.382230e+00    3.732130e-01   3.827972e-02
  4.384440e+00    3.613247e-01   3.875172e-02
  4.386651e+00    3.717566e-01   4.051726e-02
  4.388861e+00    4.825574e-01   4.771181e-02
  4.391072e+00    4.859107e-01   4.956044e-02
  4.393282e+00    3.046281e-01   4.075815e-02
  4.395492e+00    5.035496e-01   5.457709e-02
  4.397703e+00    5.789760e-01   6.119794e-02
  4.399913e+00    7.758868e-01   7.443317e-02
  4.402124e+00    3.458038e-01   5.250866e-02
  4.404334e+00    4.086180e-01   6.067294e-02
  4.406545e+00    3.965850e-01   6.422365e-02
  4.408755e+00    5.285175e-01   8.040013e-02
  4.410966e+00    2.958076e-01   6.657900e-02
  4.413176e+00    4.471908e-01   9.265484e-02
  4.415387e+00   -6.665232e-01            nan
  4.417597e+00   -1.916099e+00            nan
  4.419807e+00    2.807437e-01   1.902519e-01
