# == pyFAI calibration ==
# Distance Sample to Detector: 0.216 m
# PONI: 1.166e-01, 1.308e-01 m
# Rotations: 0.000000 0.000000 0.000000 rad
# 
# == Fit2d calibration ==
# Distance Sample-beamCenter: 216.000 mm
# Center: x=1744.293, y=1555.000 pix
# Tilt: 0.000 deg  TiltPlanRot: 0.000 deg
# 
# Detector Eiger 9M	 PixelSize= 7.500e-05, 7.500e-05 m
#    Detector has a mask: True 
#    Detector has a dark current: False 
#    detector has a flat field: False 
# 
# Wavelength: 9.8e-11 m
# Mask applied: from detector
# Dark current applied: False
# Flat field applied: False
# Polarization factor: None
# Normalization factor: 1.0
# 
# Headers of the input frame:
# {
# "_array_data.header_convention": "SLS_1.0",
# "_array_data.header_contents": "# Detector: Dectris Eiger 9M, S/N E-18-0102\r\n# Pixel_size 75e-6 m x 75e-6 m\r\n# Silicon sensor, thickness 0.000450 m\r\n# Exposure_time 0.024997 s\r\n# Exposure_period 0.025000 s\r\n# Count_cutoff 62318 counts\r\n# Wavelength 0.980106 A\r\n# Detector_distance 0.215992 m\r\n# Beam_xy (1555, 1744) pixels\r\n# Start_angle 0.000000 deg.\r\n# Angle_increment 0.000000 deg.",
# "Content-Type": "application/octet-stream;",
# "conversions": "x-CBF_BYTE_OFFSET",
# "Content-Transfer-Encoding": "BINARY",
# "X-Binary-Size": "10166600",
# "X-Binary-ID": "1",
# "X-Binary-Element-Type": "signed 32-bit integer",
# "X-Binary-Element-Byte-Order": "LITTLE_ENDIAN",
# "Content-MD5": "6DW1o5k0YW7E23PMivXPHQ==",
# "X-Binary-Number-of-Elements": "10166590",
# "X-Binary-Size-Fastest-Dimension": "3110",
# "X-Binary-Size-Second-Dimension": "3269",
# "X-Binary-Size-Padding": "4095"
# }
# --> H:/Proxima2a_2019-04-05/RAW_DATA/C5_gel17_position5/C5_mesh_1_data.cbf/C5_mesh_1_data.cbf000075.dat
#        q_A^-1              I           sigma 
  1.105228e-03    1.451551e+00   6.519332e-01
  3.315685e-03    1.319474e+00   3.778730e-01
  5.526141e-03    1.353909e+00   2.959830e-01
  7.736597e-03    1.668412e+00   2.775695e-01
  9.947054e-03    1.411480e+00   2.250681e-01
  1.215751e-02    1.371861e+00   2.006429e-01
  1.436797e-02    1.501024e+00   1.930499e-01
  1.657842e-02    1.736267e+00   1.932647e-01
  1.878888e-02    1.487042e+00   1.680062e-01
  2.099934e-02    1.242514e+00   1.452957e-01
  2.320979e-02    1.362076e+00   1.446883e-01
  2.542025e-02    1.396511e+00   1.400011e-01
  2.763070e-02    1.424718e+00   1.356297e-01
  2.984116e-02    1.287522e+00   1.240663e-01
  3.205162e-02    1.463557e+00   1.276412e-01
  3.426207e-02    1.421493e+00   1.216598e-01
  3.647253e-02    1.405734e+00   1.172577e-01
  3.868299e-02    1.443409e+00   1.153826e-01
  4.089344e-02    1.307215e+00   1.067958e-01
  4.310390e-02    1.570548e+00   1.140117e-01
  4.531436e-02    1.497514e+00   1.085804e-01
  4.752481e-02    1.404038e+00   1.026617e-01
  4.973527e-02    1.523367e+00   1.045332e-01
  5.194572e-02    1.453819e+00   9.992130e-02
  5.415618e-02    1.532421e+00   1.004680e-01
  5.636664e-02    1.442526e+00   9.554921e-02
  5.857709e-02    1.425731e+00   9.318227e-02
  6.078755e-02    1.483566e+00   9.330625e-02
  6.299801e-02    1.602686e+00   9.526222e-02
  6.520846e-02    1.537317e+00   9.170486e-02
  6.741892e-02    1.536367e+00   9.015656e-02
  6.962938e-02    1.486802e+00   8.727562e-02
  7.183983e-02    1.427551e+00   8.419142e-02
  7.405029e-02    1.583662e+00   8.733985e-02
  7.626074e-02    1.610111e+00   8.677974e-02
  7.847120e-02    1.483775e+00   8.212172e-02
  8.068166e-02    1.550749e+00   8.279595e-02
  8.289211e-02    1.466022e+00   7.942130e-02
  8.510257e-02    1.424838e+00   7.727379e-02
  8.731303e-02    1.644238e+00   8.194962e-02
  8.952348e-02    1.552744e+00   7.864979e-02
  9.173394e-02    1.542060e+00   7.742559e-02
  9.394439e-02    1.516481e+00   7.586960e-02
  9.615485e-02    1.535255e+00   7.545359e-02
  9.836531e-02    1.568726e+00   7.540774e-02
  1.005758e-01    1.527605e+00   7.359105e-02
  1.027862e-01    1.598169e+00   7.445590e-02
  1.049967e-01    1.618920e+00   7.414342e-02
  1.072071e-01    1.580968e+00   7.250908e-02
  1.094176e-01    1.579019e+00   7.172756e-02
  1.116280e-01    1.577825e+00   7.098541e-02
  1.138385e-01    1.537943e+00   6.939743e-02
  1.160490e-01    1.563238e+00   6.929543e-02
  1.182594e-01    1.599046e+00   6.942497e-02
  1.204699e-01    1.657905e+00   7.003909e-02
  1.226803e-01    1.575616e+00   6.765807e-02
  1.248908e-01    1.563500e+00   6.679754e-02
  1.271012e-01    1.661370e+00   6.825373e-02
  1.293117e-01    1.588120e+00   6.615848e-02
  1.315222e-01    1.547049e+00   6.474484e-02
  1.337326e-01    1.601657e+00   6.532966e-02
  1.359431e-01    1.589758e+00   6.512464e-02
  1.381535e-01    1.590478e+00   6.601375e-02
  1.403640e-01    1.575419e+00   6.598417e-02
  1.425744e-01    1.601927e+00   6.664325e-02
  1.447849e-01    1.655604e+00   6.776623e-02
  1.469953e-01    1.649112e+00   6.759084e-02
  1.492058e-01    1.670932e+00   6.795748e-02
  1.514163e-01    1.611033e+00   6.661750e-02
  1.536267e-01    1.614774e+00   6.656457e-02
  1.558372e-01    1.634843e+00   6.682909e-02
  1.580476e-01    1.632044e+00   6.660984e-02
  1.602581e-01    1.536767e+00   6.447213e-02
  1.624685e-01    1.639363e+00   6.640714e-02
  1.646790e-01    1.692969e+00   6.729038e-02
  1.668895e-01    1.646403e+00   6.616686e-02
  1.690999e-01    1.752686e+00   6.806412e-02
  1.713104e-01    1.800513e+00   6.877246e-02
  1.735208e-01    1.758442e+00   6.775289e-02
  1.757313e-01    1.732722e+00   6.704479e-02
  1.779417e-01    1.790747e+00   6.793585e-02
  1.801522e-01    1.780819e+00   6.753149e-02
  1.823626e-01    1.831371e+00   6.825530e-02
  1.845731e-01    1.941709e+00   7.005373e-02
  1.867836e-01    1.954083e+00   7.003942e-02
  1.889940e-01    1.898704e+00   6.881421e-02
  1.912045e-01    2.000313e+00   7.039565e-02
  1.934149e-01    1.916542e+00   6.867522e-02
  1.956254e-01    2.069276e+00   7.112385e-02
  1.978358e-01    2.083941e+00   7.113086e-02
  2.000463e-01    2.099071e+00   7.115202e-02
  2.022568e-01    2.015561e+00   6.949347e-02
  2.044672e-01    2.034907e+00   6.958696e-02
  2.066777e-01    1.902806e+00   6.706703e-02
  2.088881e-01    1.930067e+00   6.732473e-02
  2.110986e-01    1.973296e+00   6.784110e-02
  2.133090e-01    1.971169e+00   6.758410e-02
  2.155195e-01    1.902497e+00   6.617617e-02
  2.177300e-01    1.979033e+00   6.696389e-02
  2.199404e-01    1.941325e+00   6.457529e-02
  2.221509e-01    1.989181e+00   6.429300e-02
  2.243613e-01    2.011433e+00   6.383201e-02
  2.265718e-01    2.039226e+00   6.356312e-02
  2.287822e-01    2.010814e+00   6.249399e-02
  2.309927e-01    2.095335e+00   6.321274e-02
  2.332031e-01    2.165931e+00   6.371874e-02
  2.354136e-01    2.136487e+00   6.277125e-02
  2.376241e-01    2.078463e+00   6.143244e-02
  2.398345e-01    2.115277e+00   6.151541e-02
  2.420450e-01    2.149486e+00   6.156770e-02
  2.442554e-01    2.138111e+00   6.098154e-02
  2.464659e-01    2.230829e+00   6.187151e-02
  2.486763e-01    2.168173e+00   6.059553e-02
  2.508868e-01    2.147721e+00   5.992858e-02
  2.530973e-01    2.162842e+00   5.976634e-02
  2.553077e-01    2.082386e+00   5.828846e-02
  2.575182e-01    2.113181e+00   5.837044e-02
  2.597286e-01    2.136675e+00   5.835286e-02
  2.619391e-01    2.138281e+00   5.803869e-02
  2.641495e-01    2.110957e+00   5.734752e-02
  2.663600e-01    2.092915e+00   5.678790e-02
  2.685704e-01    2.142002e+00   5.713858e-02
  2.707809e-01    2.093832e+00   5.619259e-02
  2.729914e-01    2.001834e+00   5.465791e-02
  2.752018e-01    2.003687e+00   5.439856e-02
  2.774123e-01    2.062100e+00   5.490391e-02
  2.796227e-01    2.078665e+00   5.485132e-02
  2.818332e-01    2.055711e+00   5.427554e-02
  2.840436e-01    1.979001e+00   5.299509e-02
  2.862541e-01    2.041795e+00   5.357052e-02
  2.884646e-01    2.083567e+00   5.385895e-02
  2.906750e-01    1.979903e+00   5.225307e-02
  2.928855e-01    1.999231e+00   5.226421e-02
  2.950959e-01    1.973041e+00   5.168224e-02
  2.973064e-01    1.966065e+00   5.135893e-02
  2.995168e-01    1.951800e+00   5.094051e-02
  3.017273e-01    1.929132e+00   5.042053e-02
  3.039377e-01    2.013675e+00   5.128798e-02
  3.061482e-01    1.914270e+00   4.978972e-02
  3.083587e-01    1.937788e+00   4.987778e-02
  3.105691e-01    1.977523e+00   5.017136e-02
  3.127796e-01    1.929372e+00   4.934844e-02
  3.149900e-01    1.914993e+00   4.895935e-02
  3.172005e-01    1.947163e+00   4.916701e-02
  3.194109e-01    1.848888e+00   4.771242e-02
  3.216214e-01    1.855125e+00   4.759782e-02
  3.238319e-01    1.873716e+00   4.764619e-02
  3.260423e-01    1.929155e+00   4.815335e-02
  3.282528e-01    1.965820e+00   4.841528e-02
  3.304632e-01    1.905538e+00   4.748254e-02
  3.326737e-01    1.848898e+00   4.658902e-02
  3.348841e-01    1.860162e+00   4.654950e-02
  3.370946e-01    2.002580e+00   4.811689e-02
  3.393050e-01    1.960461e+00   4.742786e-02
  3.415155e-01    1.868754e+00   4.613118e-02
  3.437260e-01    1.850790e+00   4.573875e-02
  3.459364e-01    1.907288e+00   4.625985e-02
  3.481469e-01    1.895916e+00   4.595340e-02
  3.503573e-01    1.870672e+00   4.548016e-02
  3.525678e-01    1.835682e+00   4.489225e-02
  3.547782e-01    1.885858e+00   4.533718e-02
  3.569887e-01    1.856347e+00   4.482170e-02
  3.591992e-01    1.797977e+00   4.395530e-02
  3.614096e-01    1.834909e+00   4.425047e-02
  3.636201e-01    1.882761e+00   4.466626e-02
  3.658305e-01    1.819734e+00   4.376248e-02
  3.680410e-01    1.816365e+00   4.357156e-02
  3.702514e-01    1.745262e+00   4.256660e-02
  3.724619e-01    1.797065e+00   4.304661e-02
  3.746724e-01    1.767203e+00   4.254506e-02
  3.768828e-01    1.808890e+00   4.289907e-02
  3.790933e-01    1.793806e+00   4.258065e-02
  3.813037e-01    1.762149e+00   4.206515e-02
  3.835142e-01    1.816920e+00   4.257357e-02
  3.857246e-01    1.899899e+00   4.339403e-02
  3.879351e-01    1.830241e+00   4.245324e-02
  3.901455e-01    1.768333e+00   4.159623e-02
  3.923560e-01    1.763127e+00   4.140293e-02
  3.945665e-01    1.780108e+00   4.146992e-02
  3.967769e-01    1.773890e+00   4.126776e-02
  3.989874e-01    1.847788e+00   4.198707e-02
  4.011978e-01    1.863167e+00   4.203178e-02
  4.034083e-01    1.798974e+00   4.117458e-02
  4.056187e-01    1.811454e+00   4.118986e-02
  4.078292e-01    1.807423e+00   4.101951e-02
  4.100397e-01    1.752198e+00   4.026465e-02
  4.122501e-01    1.787673e+00   4.054853e-02
  4.144606e-01    1.783127e+00   4.037686e-02
  4.166710e-01    1.787363e+00   4.030457e-02
  4.188815e-01    1.829986e+00   4.066186e-02
  4.210919e-01    1.827450e+00   4.051458e-02
  4.233024e-01    1.830745e+00   4.043183e-02
  4.255128e-01    1.818615e+00   4.018116e-02
  4.277233e-01    1.808097e+00   3.994970e-02
  4.299338e-01    1.800193e+00   3.974758e-02
  4.321442e-01    1.815002e+00   3.979652e-02
  4.343547e-01    1.828591e+00   3.983228e-02
  4.365651e-01    1.776557e+00   3.914993e-02
  4.387756e-01    1.733049e+00   3.855927e-02
  4.409860e-01    1.794039e+00   3.912320e-02
  4.431965e-01    1.777832e+00   3.883840e-02
  4.454070e-01    1.725777e+00   3.815914e-02
  4.476174e-01    1.689526e+00   3.765256e-02
  4.498279e-01    1.698233e+00   3.764673e-02
  4.520383e-01    1.732720e+00   3.792270e-02
  4.542488e-01    1.766559e+00   3.818798e-02
  4.564592e-01    1.734291e+00   3.773610e-02
  4.586697e-01    1.748318e+00   3.778782e-02
  4.608801e-01    1.706163e+00   3.722950e-02
  4.630906e-01    1.697181e+00   3.703304e-02
  4.653011e-01    1.719490e+00   3.717763e-02
  4.675115e-01    1.705910e+00   3.693300e-02
  4.697220e-01    1.689781e+00   3.666175e-02
  4.719324e-01    1.746679e+00   3.717744e-02
  4.741429e-01    1.785564e+00   3.749215e-02
  4.763533e-01    1.763628e+00   3.716562e-02
  4.785638e-01    1.754166e+00   3.697004e-02
  4.807743e-01    1.746814e+00   3.679866e-02
  4.829847e-01    1.701646e+00   3.622804e-02
  4.851952e-01    1.724004e+00   3.637297e-02
  4.874056e-01    1.717887e+00   3.621685e-02
  4.896161e-01    1.739488e+00   3.635346e-02
  4.918265e-01    1.731983e+00   3.618487e-02
  4.940370e-01    1.700996e+00   3.577118e-02
  4.962475e-01    1.713130e+00   3.580990e-02
  4.984579e-01    1.717347e+00   3.576556e-02
  5.006684e-01    1.747632e+00   3.599158e-02
  5.028788e-01    1.692442e+00   3.533292e-02
  5.050893e-01    1.662884e+00   3.493782e-02
  5.072997e-01    1.667360e+00   3.490032e-02
  5.095102e-01    1.681080e+00   3.495968e-02
  5.117206e-01    1.704923e+00   3.512299e-02
  5.139311e-01    1.701897e+00   3.500880e-02
  5.161416e-01    1.641682e+00   3.430261e-02
  5.183520e-01    1.670412e+00   3.451924e-02
  5.205625e-01    1.709279e+00   3.483671e-02
  5.227729e-01    1.682119e+00   3.447825e-02
  5.249834e-01    1.655980e+00   3.412990e-02
  5.271938e-01    1.669755e+00   3.419157e-02
  5.294043e-01    1.717862e+00   3.460058e-02
  5.316148e-01    1.751195e+00   3.485466e-02
  5.338252e-01    1.807289e+00   3.532756e-02
  5.360357e-01    1.754910e+00   3.473263e-02
  5.382461e-01    1.735444e+00   3.446138e-02
  5.404566e-01    1.730909e+00   3.433799e-02
  5.426670e-01    1.780479e+00   3.474774e-02
  5.448775e-01    1.736847e+00   3.424267e-02
  5.470879e-01    1.777618e+00   3.456498e-02
  5.492984e-01    1.786993e+00   3.457897e-02
  5.515089e-01    1.730476e+00   3.395228e-02
  5.537193e-01    1.810255e+00   3.464958e-02
  5.559298e-01    1.804936e+00   3.452278e-02
  5.581402e-01    1.824542e+00   3.463390e-02
  5.603507e-01    1.842708e+00   3.473016e-02
  5.625611e-01    1.828541e+00   3.452132e-02
  5.647716e-01    1.812987e+00   3.429955e-02
  5.669821e-01    1.766538e+00   3.378433e-02
  5.691925e-01    1.788636e+00   3.392201e-02
  5.714030e-01    1.779053e+00   3.375887e-02
  5.736134e-01    1.785506e+00   3.374812e-02
  5.758239e-01    1.731920e+00   3.316691e-02
  5.780343e-01    1.720704e+00   3.298940e-02
  5.802448e-01    1.702780e+00   3.274844e-02
  5.824552e-01    1.664544e+00   3.231072e-02
  5.846657e-01    1.677894e+00   3.237242e-02
  5.868762e-01    1.651415e+00   3.204910e-02
  5.890866e-01    1.662008e+00   3.208500e-02
  5.912971e-01    1.657512e+00   3.197526e-02
  5.935075e-01    1.644000e+00   3.177883e-02
  5.957180e-01    1.677597e+00   3.203605e-02
  5.979284e-01    1.659239e+00   3.179525e-02
  6.001389e-01    1.652468e+00   3.166568e-02
  6.023494e-01    1.697570e+00   3.202975e-02
  6.045598e-01    1.664961e+00   3.165605e-02
  6.067703e-01    1.646438e+00   3.141617e-02
  6.089807e-01    1.652875e+00   3.141422e-02
  6.111912e-01    1.654497e+00   3.136688e-02
  6.134016e-01    1.682090e+00   3.156427e-02
  6.156121e-01    1.711691e+00   3.177750e-02
  6.178226e-01    1.694194e+00   3.155209e-02
  6.200330e-01    1.705664e+00   3.159624e-02
  6.222435e-01    1.719642e+00   3.166260e-02
  6.244539e-01    1.784897e+00   3.219460e-02
  6.266644e-01    1.703783e+00   3.139322e-02
  6.288748e-01    1.707558e+00   3.136678e-02
  6.310853e-01    1.733398e+00   3.154188e-02
  6.332957e-01    1.733917e+00   3.148568e-02
  6.355062e-01    1.697508e+00   3.109286e-02
  6.377167e-01    1.700042e+00   3.105633e-02
  6.399271e-01    1.695442e+00   3.095488e-02
  6.421376e-01    1.676599e+00   3.072360e-02
  6.443480e-01    1.718775e+00   3.104848e-02
  6.465585e-01    1.714219e+00   3.094856e-02
  6.487689e-01    1.736601e+00   3.109111e-02
  6.509794e-01    1.714489e+00   3.083429e-02
  6.531899e-01    1.656090e+00   3.024762e-02
  6.554003e-01    1.658508e+00   3.021277e-02
  6.576108e-01    1.647286e+00   3.005433e-02
  6.598212e-01    1.625370e+00   2.979825e-02
  6.620317e-01    1.643827e+00   2.991142e-02
  6.642421e-01    1.655770e+00   2.996434e-02
  6.664526e-01    1.618820e+00   2.957355e-02
  6.686630e-01    1.605111e+00   2.939359e-02
  6.708735e-01    1.613836e+00   2.941932e-02
  6.730840e-01    1.624798e+00   2.946523e-02
  6.752944e-01    1.611751e+00   2.929335e-02
  6.775049e-01    1.604022e+00   2.916994e-02
  6.797153e-01    1.630659e+00   2.935789e-02
  6.819258e-01    1.639825e+00   2.938720e-02
  6.841362e-01    1.645368e+00   2.938390e-02
  6.863467e-01    1.603145e+00   2.895247e-02
  6.885572e-01    1.639171e+00   2.922351e-02
  6.907676e-01    1.622562e+00   2.902299e-02
  6.929781e-01    1.615056e+00   2.890430e-02
  6.951885e-01    1.627643e+00   2.896533e-02
  6.973990e-01    1.582532e+00   2.851062e-02
  6.996094e-01    1.615038e+00   2.875126e-02
  7.018199e-01    1.613692e+00   2.868886e-02
  7.040303e-01    1.580718e+00   2.834435e-02
  7.062408e-01    1.577173e+00   2.826294e-02
  7.084513e-01    1.585072e+00   2.828435e-02
  7.106617e-01    1.597078e+00   2.834194e-02
  7.128722e-01    1.598249e+00   2.830327e-02
  7.150826e-01    1.608059e+00   2.834107e-02
  7.172931e-01    1.636664e+00   2.854274e-02
  7.195035e-01    1.588797e+00   2.807391e-02
  7.217140e-01    1.564772e+00   2.791013e-02
  7.239245e-01    1.569108e+00   2.817510e-02
  7.261349e-01    1.573695e+00   2.832484e-02
  7.283454e-01    1.582675e+00   2.847813e-02
  7.305558e-01    1.579186e+00   2.850080e-02
  7.327663e-01    1.584931e+00   2.859521e-02
  7.349767e-01    1.592902e+00   2.868352e-02
  7.371872e-01    1.580890e+00   2.856395e-02
  7.393976e-01    1.601363e+00   2.873392e-02
  7.416081e-01    1.590038e+00   2.861590e-02
  7.438186e-01    1.609530e+00   2.864484e-02
  7.460290e-01    1.564470e+00   2.794776e-02
  7.482395e-01    1.590873e+00   2.801054e-02
  7.504499e-01    1.610292e+00   2.804318e-02
  7.526604e-01    1.596877e+00   2.780874e-02
  7.548708e-01    1.557089e+00   2.737122e-02
  7.570813e-01    1.575764e+00   2.748384e-02
  7.592918e-01    1.595744e+00   2.762214e-02
  7.615022e-01    1.613763e+00   2.774344e-02
  7.637127e-01    1.575430e+00   2.737918e-02
  7.659231e-01    1.557224e+00   2.718868e-02
  7.681336e-01    1.554526e+00   2.713372e-02
  7.703440e-01    1.578903e+00   2.731438e-02
  7.725545e-01    1.593804e+00   2.741188e-02
  7.747650e-01    1.640407e+00   2.777079e-02
  7.769754e-01    1.586029e+00   2.725375e-02
  7.791859e-01    1.559134e+00   2.696847e-02
  7.813963e-01    1.549352e+00   2.683162e-02
  7.836068e-01    1.598755e+00   2.720383e-02
  7.858172e-01    1.613781e+00   2.728025e-02
  7.880277e-01    1.628433e+00   2.735170e-02
  7.902381e-01    1.627581e+00   2.729486e-02
  7.924486e-01    1.601164e+00   2.702230e-02
  7.946591e-01    1.595329e+00   2.692479e-02
  7.968695e-01    1.584339e+00   2.678388e-02
  7.990800e-01    1.646619e+00   2.725643e-02
  8.012904e-01    1.687561e+00   2.754550e-02
  8.035009e-01    1.630266e+00   2.702570e-02
  8.057113e-01    1.607896e+00   2.679320e-02
  8.079218e-01    1.609772e+00   2.676257e-02
  8.101323e-01    1.572985e+00   2.641009e-02
  8.123427e-01    1.578206e+00   2.640878e-02
  8.145532e-01    1.612082e+00   2.664502e-02
  8.167636e-01    1.654802e+00   2.695039e-02
  8.189741e-01    1.592654e+00   2.639538e-02
  8.211845e-01    1.669060e+00   2.697580e-02
  8.233950e-01    1.664269e+00   2.689329e-02
  8.256054e-01    1.669807e+00   2.689333e-02
  8.278159e-01    1.681244e+00   2.694075e-02
  8.300264e-01    1.628765e+00   2.647399e-02
  8.322368e-01    1.638312e+00   2.650833e-02
  8.344473e-01    1.652411e+00   2.657860e-02
  8.366577e-01    1.630081e+00   2.635593e-02
  8.388682e-01    1.651265e+00   2.648423e-02
  8.410786e-01    1.637151e+00   2.632878e-02
  8.432891e-01    1.638781e+00   2.630003e-02
  8.454996e-01    1.641788e+00   2.628249e-02
  8.477100e-01    1.632693e+00   2.616799e-02
  8.499205e-01    1.621669e+00   2.603856e-02
  8.521309e-01    1.616203e+00   2.595410e-02
  8.543414e-01    1.615071e+00   2.590451e-02
  8.565518e-01    1.646758e+00   2.611669e-02
  8.587623e-01    1.639989e+00   2.602237e-02
  8.609727e-01    1.676854e+00   2.627242e-02
  8.631832e-01    1.656968e+00   2.607593e-02
  8.653937e-01    1.585961e+00   2.547186e-02
  8.676041e-01    1.602973e+00   2.556947e-02
  8.698146e-01    1.629236e+00   2.573868e-02
  8.720250e-01    1.600478e+00   2.547163e-02
  8.742355e-01    1.616125e+00   2.555688e-02
  8.764459e-01    1.623409e+00   2.557533e-02
  8.786564e-01    1.635637e+00   2.563320e-02
  8.808669e-01    1.639121e+00   2.562159e-02
  8.830773e-01    1.608251e+00   2.534098e-02
  8.852878e-01    1.604775e+00   2.527561e-02
  8.874982e-01    1.602633e+00   2.522207e-02
  8.897087e-01    1.652910e+00   2.557636e-02
  8.919191e-01    1.662686e+00   2.561341e-02
  8.941296e-01    1.628395e+00   2.531031e-02
  8.963401e-01    1.607729e+00   2.511267e-02
  8.985505e-01    1.627742e+00   2.523118e-02
  9.007610e-01    1.641727e+00   2.530216e-02
  9.029714e-01    1.583009e+00   2.480988e-02
  9.051819e-01    1.609599e+00   2.498007e-02
  9.073923e-01    1.605882e+00   2.491454e-02
  9.096028e-01    1.626980e+00   2.504249e-02
  9.118132e-01    1.630598e+00   2.503373e-02
  9.140237e-01    1.615984e+00   2.488452e-02
  9.162342e-01    1.618451e+00   2.486872e-02
  9.184446e-01    1.637623e+00   2.497943e-02
  9.206551e-01    1.594828e+00   2.461536e-02
  9.228655e-01    1.570745e+00   2.439386e-02
  9.250760e-01    1.595989e+00   2.455381e-02
  9.272864e-01    1.624079e+00   2.473447e-02
  9.294969e-01    1.615406e+00   2.463237e-02
  9.317074e-01    1.615502e+00   2.459830e-02
  9.339178e-01    1.617560e+00   2.458034e-02
  9.361283e-01    1.625219e+00   2.460214e-02
  9.383387e-01    1.621952e+00   2.454399e-02
  9.405492e-01    1.614888e+00   2.445627e-02
  9.427596e-01    1.644013e+00   2.464030e-02
  9.449701e-01    1.627441e+00   2.448248e-02
  9.471805e-01    1.661426e+00   2.470176e-02
  9.493910e-01    1.683511e+00   2.483126e-02
  9.516015e-01    1.708358e+00   2.497891e-02
  9.538119e-01    1.697967e+00   2.486871e-02
  9.560224e-01    1.714135e+00   2.495165e-02
  9.582328e-01    1.712139e+00   2.490367e-02
  9.604433e-01    1.709644e+00   2.485028e-02
  9.626537e-01    1.723641e+00   2.491824e-02
  9.648642e-01    1.764188e+00   2.517510e-02
  9.670747e-01    1.810707e+00   2.546967e-02
  9.692851e-01    1.876623e+00   2.589466e-02
  9.714956e-01    1.887348e+00   2.593196e-02
  9.737060e-01    1.877871e+00   2.583278e-02
  9.759165e-01    1.879682e+00   2.580878e-02
  9.781269e-01    1.893994e+00   2.587297e-02
  9.803374e-01    1.898363e+00   2.586696e-02
  9.825478e-01    1.848504e+00   2.549137e-02
  9.847583e-01    1.812779e+00   2.520954e-02
  9.869688e-01    1.785838e+00   2.498802e-02
  9.891792e-01    1.771860e+00   2.485695e-02
  9.913897e-01    1.750652e+00   2.467439e-02
  9.936001e-01    1.736318e+00   2.454102e-02
  9.958106e-01    1.684454e+00   2.413886e-02
  9.980210e-01    1.674043e+00   2.403290e-02
  1.000231e+00    1.682979e+00   2.422897e-02
  1.002442e+00    1.664546e+00   2.422396e-02
  1.004652e+00    1.628820e+00   2.402944e-02
  1.006863e+00    1.630310e+00   2.409031e-02
  1.009073e+00    1.603411e+00   2.392732e-02
  1.011284e+00    1.590269e+00   2.386091e-02
  1.013494e+00    1.577226e+00   2.378642e-02
  1.015705e+00    1.558700e+00   2.366867e-02
  1.017915e+00    1.552190e+00   2.363546e-02
  1.020126e+00    1.545228e+00   2.359832e-02
  1.022336e+00    1.558339e+00   2.370991e-02
  1.024547e+00    1.576614e+00   2.385983e-02
  1.026757e+00    1.594474e+00   2.400310e-02
  1.028967e+00    1.588199e+00   2.396362e-02
  1.031178e+00    1.573284e+00   2.385706e-02
  1.033388e+00    1.620332e+00   2.421633e-02
  1.035599e+00    1.631821e+00   2.430561e-02
  1.037809e+00    1.648053e+00   2.442951e-02
  1.040020e+00    1.833375e+00   2.576791e-02
  1.042230e+00    1.771255e+00   2.532971e-02
  1.044441e+00    1.728021e+00   2.501844e-02
  1.046651e+00    1.759895e+00   2.524827e-02
  1.048862e+00    1.803810e+00   2.556049e-02
  1.051072e+00    1.820239e+00   2.567402e-02
  1.053282e+00    1.850100e+00   2.588272e-02
  1.055493e+00    1.756187e+00   2.521261e-02
  1.057703e+00    1.670689e+00   2.458962e-02
  1.059914e+00    1.600571e+00   2.406365e-02
  1.062124e+00    1.647723e+00   2.441122e-02
  1.064335e+00    1.751080e+00   2.516148e-02
  1.066545e+00    1.788841e+00   2.542476e-02
  1.068756e+00    1.761475e+00   2.522550e-02
  1.070966e+00    1.610965e+00   2.411692e-02
  1.073177e+00    1.525628e+00   2.346328e-02
  1.075387e+00    1.462403e+00   2.296672e-02
  1.077597e+00    1.478078e+00   2.308220e-02
  1.079808e+00    1.431217e+00   2.258214e-02
  1.082018e+00    1.398380e+00   2.213669e-02
  1.084229e+00    1.423064e+00   2.222260e-02
  1.086439e+00    1.421443e+00   2.212351e-02
  1.088650e+00    1.424994e+00   2.207624e-02
  1.090860e+00    1.419706e+00   2.196842e-02
  1.093071e+00    1.425306e+00   2.195007e-02
  1.095281e+00    1.417328e+00   2.183186e-02
  1.097492e+00    1.407035e+00   2.169828e-02
  1.099702e+00    1.401091e+00   2.160169e-02
  1.101912e+00    1.399183e+00   2.153884e-02
  1.104123e+00    1.411511e+00   2.158568e-02
  1.106333e+00    1.399627e+00   2.145074e-02
  1.108544e+00    1.411667e+00   2.149881e-02
  1.110754e+00    1.417743e+00   2.150215e-02
  1.112965e+00    1.399489e+00   2.132308e-02
  1.115175e+00    1.391410e+00   2.122067e-02
  1.117386e+00    1.404461e+00   2.128083e-02
  1.119596e+00    1.407434e+00   2.126554e-02
  1.121807e+00    1.413405e+00   2.127174e-02
  1.124017e+00    1.397321e+00   2.111385e-02
  1.126228e+00    1.389383e+00   2.101821e-02
  1.128438e+00    1.384756e+00   2.094666e-02
  1.130648e+00    1.385218e+00   2.091597e-02
  1.132859e+00    1.415895e+00   2.111172e-02
  1.135069e+00    1.416246e+00   2.107933e-02
  1.137280e+00    1.396508e+00   2.089884e-02
  1.139490e+00    1.388298e+00   2.080425e-02
  1.141701e+00    1.369341e+00   2.062877e-02
  1.143911e+00    1.372485e+00   2.062071e-02
  1.146122e+00    1.378734e+00   2.063562e-02
  1.148332e+00    1.369963e+00   2.053810e-02
  1.150543e+00    1.403406e+00   2.075615e-02
  1.152753e+00    1.380626e+00   2.055612e-02
  1.154963e+00    1.381014e+00   2.052788e-02
  1.157174e+00    1.348884e+00   2.025780e-02
  1.159384e+00    1.314761e+00   1.997069e-02
  1.161595e+00    1.373655e+00   2.038318e-02
  1.163805e+00    1.399166e+00   2.054202e-02
  1.166016e+00    1.370977e+00   2.030459e-02
  1.168226e+00    1.376490e+00   2.031627e-02
  1.170437e+00    1.380484e+00   2.031699e-02
  1.172647e+00    1.349184e+00   2.005660e-02
  1.174858e+00    1.373831e+00   2.021077e-02
  1.177068e+00    1.365951e+00   2.012445e-02
  1.179278e+00    1.354084e+00   2.000833e-02
  1.181489e+00    1.361318e+00   2.003470e-02
  1.183699e+00    1.363876e+00   2.002588e-02
  1.185910e+00    1.394261e+00   2.021957e-02
  1.188120e+00    1.365282e+00   1.998160e-02
  1.190331e+00    1.330489e+00   1.969881e-02
  1.192541e+00    1.356907e+00   1.986602e-02
  1.194752e+00    1.334124e+00   1.967167e-02
  1.196962e+00    1.361793e+00   1.984876e-02
  1.199173e+00    1.394573e+00   2.005932e-02
  1.201383e+00    1.357821e+00   1.976600e-02
  1.203593e+00    1.343027e+00   1.963327e-02
  1.205804e+00    1.347678e+00   1.964133e-02
  1.208014e+00    1.347846e+00   1.961573e-02
  1.210225e+00    1.351855e+00   1.961954e-02
  1.212435e+00    1.342341e+00   1.952566e-02
  1.214646e+00    1.325932e+00   1.938008e-02
  1.216856e+00    1.328226e+00   1.937155e-02
  1.219067e+00    1.339114e+00   1.942643e-02
  1.221277e+00    1.336337e+00   1.938139e-02
  1.223488e+00    1.337708e+00   1.936569e-02
  1.225698e+00    1.340961e+00   1.936239e-02
  1.227909e+00    1.385687e+00   1.965211e-02
  1.230119e+00    1.341174e+00   1.930214e-02
  1.232329e+00    1.318714e+00   1.910946e-02
  1.234540e+00    1.320208e+00   1.909032e-02
  1.236750e+00    1.325016e+00   1.909507e-02
  1.238961e+00    1.358708e+00   1.930926e-02
  1.241171e+00    1.378431e+00   1.942448e-02
  1.243382e+00    1.344529e+00   1.916066e-02
  1.245592e+00    1.349961e+00   1.917522e-02
  1.247803e+00    1.367801e+00   1.927771e-02
  1.250013e+00    1.352032e+00   1.914268e-02
  1.252224e+00    1.351955e+00   1.911888e-02
  1.254434e+00    1.358219e+00   1.913930e-02
  1.256644e+00    1.369107e+00   1.919249e-02
  1.258855e+00    1.363284e+00   1.912827e-02
  1.261065e+00    1.374721e+00   1.918474e-02
  1.263276e+00    1.360360e+00   1.906125e-02
  1.265486e+00    1.371845e+00   1.911847e-02
  1.267697e+00    1.350266e+00   1.894451e-02
  1.269907e+00    1.357241e+00   1.897059e-02
  1.272118e+00    1.358675e+00   1.895798e-02
  1.274328e+00    1.370412e+00   1.901679e-02
  1.276539e+00    1.323514e+00   1.866600e-02
  1.278749e+00    1.348825e+00   1.882134e-02
  1.280959e+00    1.386548e+00   1.905988e-02
  1.283170e+00    1.356361e+00   1.882881e-02
  1.285380e+00    1.353215e+00   1.878445e-02
  1.287591e+00    1.315941e+00   1.850221e-02
  1.289801e+00    1.330944e+00   1.858628e-02
  1.292012e+00    1.356536e+00   1.874699e-02
  1.294222e+00    1.378619e+00   1.888257e-02
  1.296433e+00    1.359222e+00   1.873360e-02
  1.298643e+00    1.351772e+00   1.866571e-02
  1.300854e+00    1.342512e+00   1.858530e-02
  1.303064e+00    1.341620e+00   1.855996e-02
  1.305274e+00    1.374955e+00   1.876749e-02
  1.307485e+00    1.356395e+00   1.861880e-02
  1.309695e+00    1.356187e+00   1.859508e-02
  1.311906e+00    1.356532e+00   1.857567e-02
  1.314116e+00    1.378435e+00   1.870403e-02
  1.316327e+00    1.368272e+00   1.861312e-02
  1.318537e+00    1.367663e+00   1.858695e-02
  1.320748e+00    1.347551e+00   1.842825e-02
  1.322958e+00    1.357525e+00   1.847575e-02
  1.325169e+00    1.359996e+00   1.847144e-02
  1.327379e+00    1.391204e+00   1.866004e-02
  1.329589e+00    1.393090e+00   1.865128e-02
  1.331800e+00    1.391187e+00   1.861754e-02
  1.334010e+00    1.381221e+00   1.852985e-02
  1.336221e+00    1.347743e+00   1.828216e-02
  1.338431e+00    1.359814e+00   1.834291e-02
  1.340642e+00    1.363908e+00   1.843501e-02
  1.342852e+00    1.371640e+00   1.858865e-02
  1.345063e+00    1.351435e+00   1.850076e-02
  1.347273e+00    1.353246e+00   1.854843e-02
  1.349484e+00    1.351979e+00   1.856744e-02
  1.351694e+00    1.336437e+00   1.848301e-02
  1.353905e+00    1.320702e+00   1.839168e-02
  1.356115e+00    1.341305e+00   1.854955e-02
  1.358325e+00    1.354333e+00   1.865277e-02
  1.360536e+00    1.382348e+00   1.885646e-02
  1.362746e+00    1.362256e+00   1.872855e-02
  1.364957e+00    1.356671e+00   1.869780e-02
  1.367167e+00    1.332776e+00   1.853952e-02
  1.369378e+00    1.293465e+00   1.826996e-02
  1.371588e+00    1.319038e+00   1.845475e-02
  1.373799e+00    1.336894e+00   1.858292e-02
  1.376009e+00    1.325338e+00   1.850580e-02
  1.378220e+00    1.328470e+00   1.853018e-02
  1.380430e+00    1.297968e+00   1.831890e-02
  1.382640e+00    1.285077e+00   1.822858e-02
  1.384851e+00    1.287249e+00   1.824486e-02
  1.387061e+00    1.303585e+00   1.836053e-02
  1.389272e+00    1.332581e+00   1.856383e-02
  1.391482e+00    1.319855e+00   1.847431e-02
  1.393693e+00    1.291439e+00   1.827348e-02
  1.395903e+00    1.281261e+00   1.819984e-02
  1.398114e+00    1.228321e+00   1.781853e-02
  1.400324e+00    1.270314e+00   1.811841e-02
  1.402535e+00    1.278345e+00   1.817329e-02
  1.404745e+00    1.284689e+00   1.821595e-02
  1.406955e+00    1.282904e+00   1.820059e-02
  1.409166e+00    1.263841e+00   1.806158e-02
  1.411376e+00    1.259230e+00   1.802547e-02
  1.413587e+00    1.278141e+00   1.815650e-02
  1.415797e+00    1.268293e+00   1.808290e-02
  1.418008e+00    1.257731e+00   1.796576e-02
  1.420218e+00    1.244541e+00   1.772311e-02
  1.422429e+00    1.243223e+00   1.762929e-02
  1.424639e+00    1.255854e+00   1.765429e-02
  1.426850e+00    1.292040e+00   1.785165e-02
  1.429060e+00    1.278503e+00   1.770877e-02
  1.431270e+00    1.274230e+00   1.763474e-02
  1.433481e+00    1.287349e+00   1.768406e-02
  1.435691e+00    1.292051e+00   1.767757e-02
  1.437902e+00    1.264695e+00   1.745305e-02
  1.440112e+00    1.270973e+00   1.746093e-02
  1.442323e+00    1.284249e+00   1.751868e-02
  1.444533e+00    1.264862e+00   1.735345e-02
  1.446744e+00    1.270149e+00   1.735855e-02
  1.448954e+00    1.273888e+00   1.735384e-02
  1.451165e+00    1.283168e+00   1.738703e-02
  1.453375e+00    1.282251e+00   1.735264e-02
  1.455586e+00    1.266437e+00   1.721717e-02
  1.457796e+00    1.260765e+00   1.715117e-02
  1.460006e+00    1.244864e+00   1.701570e-02
  1.462217e+00    1.255582e+00   1.706268e-02
  1.464427e+00    1.288376e+00   1.725829e-02
  1.466638e+00    1.285674e+00   1.721472e-02
  1.468848e+00    1.274066e+00   1.711142e-02
  1.471059e+00    1.293974e+00   1.721928e-02
  1.473269e+00    1.273206e+00   1.705611e-02
  1.475480e+00    1.277741e+00   1.706262e-02
  1.477690e+00    1.267732e+00   1.697182e-02
  1.479901e+00    1.270741e+00   1.696808e-02
  1.482111e+00    1.262501e+00   1.688970e-02
  1.484321e+00    1.279164e+00   1.697756e-02
  1.486532e+00    1.297117e+00   1.707368e-02
  1.488742e+00    1.265929e+00   1.684454e-02
  1.490953e+00    1.264570e+00   1.681287e-02
  1.493163e+00    1.267474e+00   1.680985e-02
  1.495374e+00    1.258758e+00   1.673050e-02
  1.497584e+00    1.253795e+00   1.667590e-02
  1.499795e+00    1.264020e+00   1.672208e-02
  1.502005e+00    1.257830e+00   1.665943e-02
  1.504216e+00    1.252548e+00   1.660342e-02
  1.506426e+00    1.246362e+00   1.654165e-02
  1.508636e+00    1.239744e+00   1.647739e-02
  1.510847e+00    1.245814e+00   1.649593e-02
  1.513057e+00    1.293117e+00   1.678072e-02
  1.515268e+00    1.259411e+00   1.653485e-02
  1.517478e+00    1.248342e+00   1.643691e-02
  1.519689e+00    1.232254e+00   1.630591e-02
  1.521899e+00    1.261329e+00   1.647398e-02
  1.524110e+00    1.276614e+00   1.655296e-02
  1.526320e+00    1.286431e+00   1.659665e-02
  1.528531e+00    1.267322e+00   1.645302e-02
  1.530741e+00    1.278216e+00   1.650423e-02
  1.532951e+00    1.249928e+00   1.630100e-02
  1.535162e+00    1.233113e+00   1.627699e-02
  1.537372e+00    1.256825e+00   1.649987e-02
  1.539583e+00    1.248210e+00   1.647745e-02
  1.541793e+00    1.253142e+00   1.651693e-02
  1.544004e+00    1.271201e+00   1.663578e-02
  1.546214e+00    1.247725e+00   1.647997e-02
  1.548425e+00    1.222040e+00   1.630970e-02
  1.550635e+00    1.248191e+00   1.649297e-02
  1.552846e+00    1.249752e+00   1.651296e-02
  1.555056e+00    1.253182e+00   1.649400e-02
  1.557266e+00    1.224305e+00   1.619328e-02
  1.559477e+00    1.257999e+00   1.635517e-02
  1.561687e+00    1.251804e+00   1.628409e-02
  1.563898e+00    1.253324e+00   1.627676e-02
  1.566108e+00    1.243547e+00   1.619719e-02
  1.568319e+00    1.235576e+00   1.612964e-02
  1.570529e+00    1.242740e+00   1.615120e-02
  1.572740e+00    1.242859e+00   1.612438e-02
  1.574950e+00    1.273420e+00   1.629480e-02
  1.577161e+00    1.248016e+00   1.610594e-02
  1.579371e+00    1.264771e+00   1.618983e-02
  1.581582e+00    1.255809e+00   1.611252e-02
  1.583792e+00    1.252748e+00   1.607479e-02
  1.586002e+00    1.231691e+00   1.592158e-02
  1.588213e+00    1.243264e+00   1.597898e-02
  1.590423e+00    1.243483e+00   1.596032e-02
  1.592634e+00    1.204964e+00   1.568990e-02
  1.594844e+00    1.214058e+00   1.572783e-02
  1.597055e+00    1.216726e+00   1.572483e-02
  1.599265e+00    1.222509e+00   1.574160e-02
  1.601476e+00    1.215912e+00   1.567896e-02
  1.603686e+00    1.218441e+00   1.567567e-02
  1.605897e+00    1.232651e+00   1.574669e-02
  1.608107e+00    1.238861e+00   1.576676e-02
  1.610317e+00    1.237754e+00   1.574039e-02
  1.612528e+00    1.217416e+00   1.559152e-02
  1.614738e+00    1.197062e+00   1.544193e-02
  1.616949e+00    1.196802e+00   1.542151e-02
  1.619159e+00    1.194446e+00   1.538782e-02
  1.621370e+00    1.191166e+00   1.534842e-02
  1.623580e+00    1.211044e+00   1.545767e-02
  1.625791e+00    1.178725e+00   1.523198e-02
  1.628001e+00    1.168266e+00   1.514626e-02
  1.630212e+00    1.160542e+00   1.507857e-02
  1.632422e+00    1.159749e+00   1.505575e-02
  1.634632e+00    1.150694e+00   1.497976e-02
  1.636843e+00    1.152770e+00   1.497592e-02
  1.639053e+00    1.151301e+00   1.494925e-02
  1.641264e+00    1.144397e+00   1.488745e-02
  1.643474e+00    1.169434e+00   1.503197e-02
  1.645685e+00    1.158995e+00   1.494808e-02
  1.647895e+00    1.143678e+00   1.483246e-02
  1.650106e+00    1.141087e+00   1.479872e-02
  1.652316e+00    1.150685e+00   1.484432e-02
  1.654527e+00    1.146840e+00   1.480281e-02
  1.656737e+00    1.133733e+00   1.470142e-02
  1.658947e+00    1.123201e+00   1.461676e-02
  1.661158e+00    1.164199e+00   1.486459e-02
  1.663368e+00    1.169660e+00   1.488308e-02
  1.665579e+00    1.162066e+00   1.481822e-02
  1.667789e+00    1.155413e+00   1.475923e-02
  1.670000e+00    1.139728e+00   1.464303e-02
  1.672210e+00    1.126097e+00   1.453921e-02
  1.674421e+00    1.110369e+00   1.442197e-02
  1.676631e+00    1.102699e+00   1.435616e-02
  1.678842e+00    1.100997e+00   1.432932e-02
  1.681052e+00    1.084343e+00   1.420519e-02
  1.683263e+00    1.089465e+00   1.422357e-02
  1.685473e+00    1.078901e+00   1.413935e-02
  1.687683e+00    1.073074e+00   1.408574e-02
  1.689894e+00    1.091834e+00   1.419250e-02
  1.692104e+00    1.064300e+00   1.399756e-02
  1.694315e+00    1.059753e+00   1.395322e-02
  1.696525e+00    1.049876e+00   1.387303e-02
  1.698736e+00    1.034846e+00   1.375876e-02
  1.700946e+00    1.043146e+00   1.379881e-02
  1.703157e+00    1.039772e+00   1.376195e-02
  1.705367e+00    1.039837e+00   1.374798e-02
  1.707578e+00    1.020584e+00   1.360575e-02
  1.709788e+00    1.027818e+00   1.363986e-02
  1.711998e+00    1.025514e+00   1.360968e-02
  1.714209e+00    1.021162e+00   1.356648e-02
  1.716419e+00    1.009684e+00   1.347591e-02
  1.718630e+00    1.010725e+00   1.346873e-02
  1.720840e+00    1.004057e+00   1.341022e-02
  1.723051e+00    1.013956e+00   1.346236e-02
  1.725261e+00    1.028858e+00   1.354620e-02
  1.727472e+00    1.014699e+00   1.343853e-02
  1.729682e+00    1.007721e+00   1.337881e-02
  1.731893e+00    9.937774e-01   1.327217e-02
  1.734103e+00    9.813548e-01   1.317534e-02
  1.736313e+00    1.003515e+00   1.330927e-02
  1.738524e+00    1.012296e+00   1.335347e-02
  1.740734e+00    1.016075e+00   1.336458e-02
  1.742945e+00    1.001134e+00   1.325245e-02
  1.745155e+00    9.903470e-01   1.316744e-02
  1.747366e+00    9.725795e-01   1.303509e-02
  1.749576e+00    9.743270e-01   1.303320e-02
  1.751787e+00    9.681910e-01   1.297885e-02
  1.753997e+00    9.437985e-01   1.280120e-02
  1.756208e+00    9.484622e-01   1.281974e-02
  1.758418e+00    9.576713e-01   1.286882e-02
  1.760628e+00    9.636093e-01   1.289534e-02
  1.762839e+00    9.734086e-01   1.294746e-02
  1.765049e+00    9.512940e-01   1.278652e-02
  1.767260e+00    9.531143e-01   1.278595e-02
  1.769470e+00    9.596095e-01   1.281646e-02
  1.771681e+00    9.344627e-01   1.263439e-02
  1.773891e+00    9.172537e-01   1.250468e-02
  1.776102e+00    9.378917e-01   1.263176e-02
  1.778312e+00    9.204687e-01   1.250133e-02
  1.780523e+00    8.982886e-01   1.233735e-02
  1.782733e+00    9.158917e-01   1.244511e-02
  1.784944e+00    9.198707e-01   1.245934e-02
  1.787154e+00    9.278633e-01   1.250084e-02
  1.789364e+00    9.763393e-01   1.281044e-02
  1.791575e+00    1.006974e+00   1.299684e-02
  1.793785e+00    9.703603e-01   1.274564e-02
  1.795996e+00    9.599400e-01   1.266424e-02
  1.798206e+00    9.766077e-01   1.276078e-02
  1.800417e+00    9.885426e-01   1.282538e-02
  1.802627e+00    9.711472e-01   1.269971e-02
  1.804838e+00    9.815627e-01   1.275509e-02
  1.807048e+00    9.464127e-01   1.251152e-02
  1.809259e+00    9.473273e-01   1.250365e-02
  1.811469e+00    9.591746e-01   1.256620e-02
  1.813679e+00    9.563830e-01   1.253247e-02
  1.815890e+00    9.457669e-01   1.244760e-02
  1.818100e+00    8.938317e-01   1.208592e-02
  1.820311e+00    9.053515e-01   1.214868e-02
  1.822521e+00    8.949432e-01   1.206376e-02
  1.824732e+00    8.895372e-01   1.201247e-02
  1.826942e+00    8.744115e-01   1.189765e-02
  1.829153e+00    8.714806e-01   1.186609e-02
  1.831363e+00    8.723210e-01   1.185985e-02
  1.833574e+00    8.759595e-01   1.187293e-02
  1.835784e+00    8.622254e-01   1.176816e-02
  1.837994e+00    8.619421e-01   1.175462e-02
  1.840205e+00    8.524850e-01   1.167894e-02
  1.842415e+00    8.522732e-01   1.166583e-02
  1.844626e+00    8.789161e-01   1.183517e-02
  1.846836e+00    8.533086e-01   1.165017e-02
  1.849047e+00    8.474345e-01   1.159851e-02
  1.851257e+00    8.759449e-01   1.178234e-02
  1.853468e+00    8.719693e-01   1.174674e-02
  1.855678e+00    8.533996e-01   1.161215e-02
  1.857889e+00    8.372069e-01   1.149304e-02
  1.860099e+00    8.606957e-01   1.164451e-02
  1.862309e+00    8.555753e-01   1.160132e-02
  1.864520e+00    8.379673e-01   1.147285e-02
  1.866730e+00    8.540059e-01   1.157271e-02
  1.868941e+00    8.528682e-01   1.155408e-02
  1.871151e+00    8.584731e-01   1.158052e-02
  1.873362e+00    8.696016e-01   1.164388e-02
  1.875572e+00    8.715708e-01   1.164598e-02
  1.877783e+00    8.489363e-01   1.148233e-02
  1.879993e+00    8.586255e-01   1.153643e-02
  1.882204e+00    8.458903e-01   1.143966e-02
  1.884414e+00    8.374627e-01   1.137149e-02
  1.886624e+00    8.384506e-01   1.136717e-02
  1.888835e+00    8.235679e-01   1.125498e-02
  1.891045e+00    8.294345e-01   1.128416e-02
  1.893256e+00    8.203281e-01   1.121110e-02
  1.895466e+00    8.218382e-01   1.121032e-02
  1.897677e+00    8.460628e-01   1.136336e-02
  1.899887e+00    8.392427e-01   1.130646e-02
  1.902098e+00    8.326071e-01   1.125082e-02
  1.904308e+00    8.456388e-01   1.132785e-02
  1.906519e+00    8.340619e-01   1.123918e-02
  1.908729e+00    8.295383e-01   1.119806e-02
  1.910940e+00    8.178933e-01   1.110812e-02
  1.913150e+00    8.095256e-01   1.104066e-02
  1.915360e+00    8.070573e-01   1.101330e-02
  1.917571e+00    8.141828e-01   1.105100e-02
  1.919781e+00    8.196552e-01   1.107740e-02
  1.921992e+00    8.025670e-01   1.095083e-02
  1.924202e+00    8.076900e-01   1.097501e-02
  1.926413e+00    8.105261e-01   1.098400e-02
  1.928623e+00    8.141796e-01   1.099819e-02
  1.930834e+00    8.152898e-01   1.099524e-02
  1.933044e+00    8.112748e-01   1.095747e-02
  1.935255e+00    8.015047e-01   1.088102e-02
  1.937465e+00    7.978933e-01   1.084614e-02
  1.939675e+00    8.072158e-01   1.089848e-02
  1.941886e+00    7.855235e-01   1.074088e-02
  1.944096e+00    8.024705e-01   1.084596e-02
  1.946307e+00    7.914726e-01   1.076110e-02
  1.948517e+00    7.980601e-01   1.079535e-02
  1.950728e+00    7.857443e-01   1.070158e-02
  1.952938e+00    7.939358e-01   1.074714e-02
  1.955149e+00    7.895181e-01   1.070702e-02
  1.957359e+00    7.919747e-01   1.071364e-02
  1.959570e+00    7.992653e-01   1.075193e-02
  1.961780e+00    7.942294e-01   1.070810e-02
  1.963990e+00    8.119543e-01   1.081667e-02
  1.966201e+00    7.997391e-01   1.072489e-02
  1.968411e+00    8.062518e-01   1.075820e-02
  1.970622e+00    7.947296e-01   1.067093e-02
  1.972832e+00    7.850370e-01   1.059569e-02
  1.975043e+00    7.983195e-01   1.067483e-02
  1.977253e+00    7.790525e-01   1.053532e-02
  1.979464e+00    7.883429e-01   1.058788e-02
  1.981674e+00    7.794091e-01   1.051748e-02
  1.983885e+00    7.848554e-01   1.054413e-02
  1.986095e+00    7.798360e-01   1.050065e-02
  1.988305e+00    7.834504e-01   1.051505e-02
  1.990516e+00    7.750679e-01   1.044874e-02
  1.992726e+00    7.747975e-01   1.043727e-02
  1.994937e+00    7.810481e-01   1.046912e-02
  1.997147e+00    7.835810e-01   1.047632e-02
  1.999358e+00    7.792208e-01   1.043725e-02
  2.001568e+00    7.664244e-01   1.034043e-02
  2.003779e+00    7.674951e-01   1.033576e-02
  2.005989e+00    7.802877e-01   1.040946e-02
  2.008200e+00    7.778468e-01   1.038159e-02
  2.010410e+00    7.606598e-01   1.025456e-02
  2.012621e+00    7.664156e-01   1.028161e-02
  2.014831e+00    7.591004e-01   1.022102e-02
  2.017041e+00    7.582418e-01   1.020491e-02
  2.019252e+00    7.466086e-01   1.011648e-02
  2.021462e+00    7.533938e-01   1.015292e-02
  2.023673e+00    7.571273e-01   1.016870e-02
  2.025883e+00    7.666754e-01   1.022306e-02
  2.028094e+00    7.784386e-01   1.029146e-02
  2.030304e+00    7.638401e-01   1.018497e-02
  2.032515e+00    7.505604e-01   1.008678e-02
  2.034725e+00    7.619264e-01   1.015343e-02
  2.036936e+00    7.490845e-01   1.005822e-02
  2.039146e+00    7.438565e-01   1.001356e-02
  2.041356e+00    7.534184e-01   1.006809e-02
  2.043567e+00    7.610471e-01   1.010959e-02
  2.045777e+00    7.497272e-01   1.002492e-02
  2.047988e+00    7.513116e-01   1.002615e-02
  2.050198e+00    7.638789e-01   1.010117e-02
  2.052409e+00    7.588790e-01   1.006037e-02
  2.054619e+00    7.553048e-01   1.002927e-02
  2.056830e+00    7.470434e-01   9.967105e-03
  2.059040e+00    7.509375e-01   9.985540e-03
  2.061251e+00    7.412720e-01   9.913870e-03
  2.063461e+00    7.433478e-01   9.920166e-03
  2.065671e+00    7.398875e-01   9.888374e-03
  2.067882e+00    7.488757e-01   9.939259e-03
  2.070092e+00    7.463840e-01   9.913530e-03
  2.072303e+00    7.637956e-01   1.001922e-02
  2.074513e+00    7.821029e-01   1.012906e-02
  2.076724e+00    7.880553e-01   1.015779e-02
  2.078934e+00    7.541659e-01   9.927933e-03
  2.081145e+00    7.656088e-01   9.993717e-03
  2.083355e+00    7.507055e-01   9.886767e-03
  2.085566e+00    7.374344e-01   9.790085e-03
  2.087776e+00    7.513008e-01   9.872113e-03
  2.089986e+00    7.494922e-01   9.851374e-03
  2.092197e+00    7.828042e-01   1.005869e-02
  2.094407e+00    7.683648e-01   9.956095e-03
  2.096618e+00    7.404031e-01   9.764295e-03
  2.098828e+00    7.553638e-01   9.853023e-03
  2.101039e+00    7.297320e-01   9.675473e-03
  2.103249e+00    7.030132e-01   9.488161e-03
  2.105460e+00    7.267646e-01   9.638101e-03
  2.107670e+00    7.348506e-01   9.682818e-03
  2.109881e+00    7.145892e-01   9.539315e-03
  2.112091e+00    7.073840e-01   9.482229e-03
  2.114301e+00    7.044636e-01   9.453966e-03
  2.116512e+00    7.069249e-01   9.461771e-03
  2.118722e+00    7.149632e-01   9.506639e-03
  2.120933e+00    7.122898e-01   9.480032e-03
  2.123143e+00    7.123972e-01   9.471882e-03
  2.125354e+00    7.009854e-01   9.387293e-03
  2.127564e+00    7.065808e-01   9.415985e-03
  2.129775e+00    7.127982e-01   9.448640e-03
  2.131985e+00    7.146102e-01   9.451571e-03
  2.134196e+00    7.060205e-01   9.386052e-03
  2.136406e+00    7.052822e-01   9.372441e-03
  2.138617e+00    7.115449e-01   9.405495e-03
  2.140827e+00    7.097842e-01   9.409933e-03
  2.143037e+00    6.972013e-01   9.371298e-03
  2.145248e+00    7.006081e-01   9.416094e-03
  2.147458e+00    6.946651e-01   9.391095e-03
  2.149669e+00    7.008159e-01   9.444418e-03
  2.151879e+00    7.014781e-01   9.458099e-03
  2.154090e+00    6.951661e-01   9.422738e-03
  2.156300e+00    7.001413e-01   9.462984e-03
  2.158511e+00    6.846896e-01   9.363245e-03
  2.160721e+00    6.987332e-01   9.463588e-03
  2.162932e+00    6.857592e-01   9.379032e-03
  2.165142e+00    6.917676e-01   9.423038e-03
  2.167352e+00    6.908492e-01   9.419670e-03
  2.169563e+00    6.932113e-01   9.437724e-03
  2.171773e+00    6.910871e-01   9.425697e-03
  2.173984e+00    6.857134e-01   9.390377e-03
  2.176194e+00    6.887020e-01   9.412019e-03
  2.178405e+00    6.895869e-01   9.418749e-03
  2.180615e+00    6.913067e-01   9.431179e-03
  2.182826e+00    6.960837e-01   9.464387e-03
  2.185036e+00    6.851973e-01   9.390146e-03
  2.187247e+00    6.799338e-01   9.353952e-03
  2.189457e+00    6.907183e-01   9.427429e-03
  2.191667e+00    7.043688e-01   9.519954e-03
  2.193878e+00    6.951628e-01   9.456975e-03
  2.196088e+00    6.894579e-01   9.417408e-03
  2.198299e+00    6.882291e-01   9.407903e-03
  2.200509e+00    7.072677e-01   9.536069e-03
  2.202720e+00    6.936123e-01   9.442419e-03
  2.204930e+00    6.591709e-01   9.203785e-03
  2.207141e+00    6.708025e-01   9.283498e-03
  2.209351e+00    6.857134e-01   9.384224e-03
  2.211562e+00    6.986332e-01   9.470590e-03
  2.213772e+00    6.919522e-01   9.369084e-03
  2.215982e+00    6.861348e-01   9.285105e-03
  2.218193e+00    6.814599e-01   9.223620e-03
  2.220403e+00    6.737956e-01   9.147079e-03
  2.222614e+00    6.709760e-01   9.106980e-03
  2.224824e+00    6.730168e-01   9.101460e-03
  2.227035e+00    6.734580e-01   9.086986e-03
  2.229245e+00    6.796926e-01   9.111874e-03
  2.231456e+00    6.853834e-01   9.134177e-03
  2.233666e+00    6.732647e-01   9.037944e-03
  2.235877e+00    6.660956e-01   8.975460e-03
  2.238087e+00    6.789658e-01   9.048191e-03
  2.240298e+00    6.869441e-01   9.087251e-03
  2.242508e+00    6.607323e-01   8.897169e-03
  2.244718e+00    6.672320e-01   8.925010e-03
  2.246929e+00    6.706563e-01   8.933455e-03
  2.249139e+00    6.674148e-01   8.899449e-03
  2.251350e+00    6.714299e-01   8.914425e-03
  2.253560e+00    6.742278e-01   8.921368e-03
  2.255771e+00    6.624528e-01   8.831727e-03
  2.257981e+00    6.539612e-01   8.763861e-03
  2.260192e+00    6.642040e-01   8.821101e-03
  2.262402e+00    6.784185e-01   8.904048e-03
  2.264613e+00    6.689854e-01   8.831039e-03
  2.266823e+00    6.635512e-01   8.784698e-03
  2.269033e+00    6.675761e-01   8.800888e-03
  2.271244e+00    6.591944e-01   8.735104e-03
  2.273454e+00    6.448685e-01   8.629524e-03
  2.275665e+00    6.579169e-01   8.706130e-03
  2.277875e+00    6.571347e-01   8.691049e-03
  2.280086e+00    6.629286e-01   8.719215e-03
  2.282296e+00    6.696868e-01   8.754066e-03
  2.284507e+00    6.684314e-01   8.735668e-03
  2.286717e+00    6.498358e-01   8.603878e-03
  2.288928e+00    6.598568e-01   8.660071e-03
  2.291138e+00    6.585223e-01   8.641890e-03
  2.293348e+00    6.451346e-01   8.544126e-03
  2.295559e+00    6.534428e-01   8.589660e-03
  2.297769e+00    6.525946e-01   8.574850e-03
  2.299980e+00    6.651146e-01   8.647304e-03
  2.302190e+00    6.540349e-01   8.565840e-03
  2.304401e+00    6.504404e-01   8.532962e-03
  2.306611e+00    6.493074e-01   8.516351e-03
  2.308822e+00    6.525114e-01   8.528937e-03
  2.311032e+00    6.453408e-01   8.475523e-03
  2.313243e+00    6.525389e-01   8.516373e-03
  2.315453e+00    6.429005e-01   8.445705e-03
  2.317663e+00    6.480691e-01   8.470459e-03
  2.319874e+00    6.543313e-01   8.502500e-03
  2.322084e+00    6.484975e-01   8.455537e-03
  2.324295e+00    6.464679e-01   8.434064e-03
  2.326505e+00    6.278369e-01   8.302703e-03
  2.328716e+00    6.434772e-01   8.396923e-03
  2.330926e+00    6.500643e-01   8.430964e-03
  2.333137e+00    6.556940e-01   8.458910e-03
  2.335347e+00    6.628652e-01   8.496042e-03
  2.337558e+00    6.375519e-01   8.324026e-03
  2.339768e+00    6.320241e-01   8.279347e-03
  2.341979e+00    6.284842e-01   8.247802e-03
  2.344189e+00    6.396226e-01   8.312187e-03
  2.346399e+00    6.345837e-01   8.270876e-03
  2.348610e+00    6.421999e-01   8.311878e-03
  2.350820e+00    6.352003e-01   8.258262e-03
  2.353031e+00    6.419384e-01   8.293629e-03
  2.355241e+00    6.287745e-01   8.200108e-03
  2.357452e+00    6.398966e-01   8.263849e-03
  2.359662e+00    6.361502e-01   8.231372e-03
  2.361873e+00    6.390325e-01   8.241705e-03
  2.364083e+00    6.469966e-01   8.284810e-03
  2.366294e+00    6.422239e-01   8.245984e-03
  2.368504e+00    6.351166e-01   8.192119e-03
  2.370714e+00    6.253534e-01   8.120849e-03
  2.372925e+00    6.068692e-01   7.991988e-03
  2.375135e+00    6.240382e-01   8.096188e-03
  2.377346e+00    6.345794e-01   8.156285e-03
  2.379556e+00    6.299602e-01   8.118590e-03
  2.381767e+00    6.238676e-01   8.071370e-03
  2.383977e+00    6.136377e-01   7.997029e-03
  2.386188e+00    6.219565e-01   8.043119e-03
  2.388398e+00    6.122509e-01   7.972200e-03
  2.390609e+00    6.176756e-01   7.999713e-03
  2.392819e+00    6.173136e-01   7.989580e-03
  2.395029e+00    6.198723e-01   7.998438e-03
  2.397240e+00    6.157307e-01   7.963805e-03
  2.399450e+00    6.212690e-01   7.991657e-03
  2.401661e+00    6.233233e-01   7.997153e-03
  2.403871e+00    5.938377e-01   7.798040e-03
  2.406082e+00    6.057132e-01   7.868213e-03
  2.408292e+00    6.067694e-01   7.867299e-03
  2.410503e+00    6.117087e-01   7.891749e-03
  2.412713e+00    6.187851e-01   7.929390e-03
  2.414924e+00    6.175385e-01   7.913846e-03
  2.417134e+00    6.135133e-01   7.880327e-03
  2.419344e+00    6.027858e-01   7.803716e-03
  2.421555e+00    6.074362e-01   7.826224e-03
  2.423765e+00    6.116028e-01   7.845535e-03
  2.425976e+00    6.092765e-01   7.822738e-03
  2.428186e+00    6.156182e-01   7.856025e-03
  2.430397e+00    6.036261e-01   7.771620e-03
  2.432607e+00    5.984722e-01   7.731072e-03
  2.434818e+00    5.992430e-01   7.728470e-03
  2.437028e+00    6.116872e-01   7.801064e-03
  2.439239e+00    5.970462e-01   7.699460e-03
  2.441449e+00    5.791887e-01   7.576325e-03
  2.443659e+00    5.710908e-01   7.515952e-03
  2.445870e+00    5.756850e-01   7.558208e-03
  2.448080e+00    5.902242e-01   7.688083e-03
  2.450291e+00    5.828404e-01   7.656538e-03
  2.452501e+00    5.815727e-01   7.659414e-03
  2.454712e+00    5.829766e-01   7.677159e-03
  2.456922e+00    5.821819e-01   7.678600e-03
  2.459133e+00    5.761801e-01   7.644414e-03
  2.461343e+00    5.669349e-01   7.587169e-03
  2.463554e+00    5.724943e-01   7.627784e-03
  2.465764e+00    5.609162e-01   7.553386e-03
  2.467975e+00    5.517944e-01   7.493990e-03
  2.470185e+00    5.451514e-01   7.450952e-03
  2.472395e+00    5.654401e-01   7.589580e-03
  2.474606e+00    5.523736e-01   7.502942e-03
  2.476816e+00    5.493016e-01   7.482763e-03
  2.479027e+00    5.610498e-01   7.563230e-03
  2.481237e+00    5.478301e-01   7.473877e-03
  2.483448e+00    5.285907e-01   7.341764e-03
  2.485658e+00    5.409168e-01   7.426712e-03
  2.487869e+00    5.452685e-01   7.456570e-03
  2.490079e+00    5.481479e-01   7.475709e-03
  2.492290e+00    5.416826e-01   7.431070e-03
  2.494500e+00    5.430294e-01   7.439543e-03
  2.496710e+00    5.589813e-01   7.547332e-03
  2.498921e+00    5.445123e-01   7.448009e-03
  2.501131e+00    5.492829e-01   7.479598e-03
  2.503342e+00    5.399272e-01   7.414365e-03
  2.505552e+00    5.383549e-01   7.402404e-03
  2.507763e+00    5.345712e-01   7.374946e-03
  2.509973e+00    5.354895e-01   7.379849e-03
  2.512184e+00    5.305588e-01   7.344195e-03
  2.514394e+00    5.244048e-01   7.292137e-03
  2.516605e+00    5.135353e-01   7.169680e-03
  2.518815e+00    5.237135e-01   7.212115e-03
  2.521025e+00    5.365772e-01   7.278971e-03
  2.523236e+00    5.321628e-01   7.230883e-03
  2.525446e+00    5.271710e-01   7.181246e-03
  2.527657e+00    5.397276e-01   7.251478e-03
  2.529867e+00    5.310920e-01   7.178963e-03
  2.532078e+00    5.316545e-01   7.167630e-03
  2.534288e+00    5.288971e-01   7.135095e-03
  2.536499e+00    5.110471e-01   7.001861e-03
  2.538709e+00    5.160403e-01   7.025080e-03
  2.540920e+00    5.197111e-01   7.039408e-03
  2.543130e+00    5.158266e-01   7.002798e-03
  2.545340e+00    5.133291e-01   6.975835e-03
  2.547551e+00    5.126745e-01   6.961553e-03
  2.549761e+00    5.195194e-01   6.998312e-03
  2.551972e+00    5.184220e-01   6.981589e-03
  2.554182e+00    5.213682e-01   6.992235e-03
  2.556393e+00    5.186297e-01   6.964755e-03
  2.558603e+00    5.213402e-01   6.973879e-03
  2.560814e+00    5.185580e-01   6.946525e-03
  2.563024e+00    5.231630e-01   6.968702e-03
  2.565235e+00    5.124789e-01   6.887732e-03
  2.567445e+00    5.264285e-01   6.971206e-03
  2.569656e+00    5.297796e-01   6.983521e-03
  2.571866e+00    5.085996e-01   6.833244e-03
  2.574076e+00    5.108074e-01   6.838803e-03
  2.576287e+00    5.358381e-01   6.995901e-03
  2.578497e+00    5.132731e-01   6.839189e-03
  2.580708e+00    5.072982e-01   6.791242e-03
  2.582918e+00    5.140291e-01   6.828383e-03
  2.585129e+00    5.219423e-01   6.872940e-03
  2.587339e+00    5.160605e-01   6.826411e-03
  2.589550e+00    5.072314e-01   6.760255e-03
  2.591760e+00    5.199413e-01   6.836636e-03
  2.593971e+00    5.046353e-01   6.727776e-03
  2.596181e+00    5.173090e-01   6.805468e-03
  2.598391e+00    5.299053e-01   6.882554e-03
  2.600602e+00    4.987162e-01   6.671105e-03
  2.602812e+00    4.927602e-01   6.623700e-03
  2.605023e+00    5.091209e-01   6.725598e-03
  2.607233e+00    5.016622e-01   6.669085e-03
  2.609444e+00    5.063926e-01   6.693195e-03
  2.611654e+00    5.042901e-01   6.672006e-03
  2.613865e+00    5.095941e-01   6.699933e-03
  2.616075e+00    5.025702e-01   6.646489e-03
  2.618286e+00    5.015581e-01   6.632821e-03
  2.620496e+00    5.043538e-01   6.644601e-03
  2.622706e+00    4.883545e-01   6.532704e-03
  2.624917e+00    4.957635e-01   6.576278e-03
  2.627127e+00    4.964815e-01   6.575331e-03
  2.629338e+00    5.052764e-01   6.627329e-03
  2.631548e+00    4.989273e-01   6.579429e-03
  2.633759e+00    5.049694e-01   6.611973e-03
  2.635969e+00    5.132567e-01   6.659245e-03
  2.638180e+00    5.046967e-01   6.596487e-03
  2.640390e+00    5.035338e-01   6.582242e-03
  2.642601e+00    5.085994e-01   6.608579e-03
  2.644811e+00    4.915328e-01   6.489726e-03
  2.647021e+00    5.029538e-01   6.558104e-03
  2.649232e+00    4.990287e-01   6.525750e-03
  2.651442e+00    5.005817e-01   6.529384e-03
  2.653653e+00    5.127559e-01   6.601412e-03
  2.655863e+00    4.983692e-01   6.501480e-03
  2.658074e+00    4.912700e-01   6.448430e-03
  2.660284e+00    4.886032e-01   6.424612e-03
  2.662495e+00    4.841460e-01   6.388565e-03
  2.664705e+00    4.950893e-01   6.453800e-03
  2.666916e+00    5.018421e-01   6.491178e-03
  2.669126e+00    4.913856e-01   6.416774e-03
  2.671337e+00    4.973159e-01   6.448776e-03
  2.673547e+00    4.976977e-01   6.444861e-03
  2.675757e+00    4.882452e-01   6.376955e-03
  2.677968e+00    4.986616e-01   6.438066e-03
  2.680178e+00    4.945390e-01   6.404996e-03
  2.682389e+00    5.053375e-01   6.468072e-03
  2.684599e+00    4.902858e-01   6.364854e-03
  2.686810e+00    4.830655e-01   6.311263e-03
  2.689020e+00    4.820807e-01   6.298593e-03
  2.691231e+00    4.946452e-01   6.373821e-03
  2.693441e+00    5.060747e-01   6.440816e-03
  2.695652e+00    4.954343e-01   6.366191e-03
  2.697862e+00    4.994386e-01   6.385467e-03
  2.700072e+00    5.065775e-01   6.424745e-03
  2.702283e+00    5.105627e-01   6.443621e-03
  2.704493e+00    5.022544e-01   6.384619e-03
  2.706704e+00    4.851596e-01   6.268630e-03
  2.708914e+00    4.943042e-01   6.321424e-03
  2.711125e+00    5.028759e-01   6.369657e-03
  2.713335e+00    4.990958e-01   6.339519e-03
  2.715546e+00    4.870999e-01   6.256402e-03
  2.717756e+00    4.968640e-01   6.312841e-03
  2.719967e+00    4.933205e-01   6.284045e-03
  2.722177e+00    4.875379e-01   6.240956e-03
  2.724387e+00    5.078474e-01   6.363372e-03
  2.726598e+00    4.964731e-01   6.285600e-03
  2.728808e+00    4.885938e-01   6.229343e-03
  2.731019e+00    4.817548e-01   6.179494e-03
  2.733229e+00    4.754474e-01   6.133145e-03
  2.735440e+00    4.754583e-01   6.127005e-03
  2.737650e+00    4.888640e-01   6.206729e-03
  2.739861e+00    4.802988e-01   6.146074e-03
  2.742071e+00    4.647180e-01   6.039929e-03
  2.744282e+00    4.822918e-01   6.146818e-03
  2.746492e+00    4.888446e-01   6.182352e-03
  2.748702e+00    4.988770e-01   6.239485e-03
  2.750913e+00    4.810935e-01   6.121471e-03
  2.753123e+00    4.850969e-01   6.140747e-03
  2.755334e+00    4.720853e-01   6.051814e-03
  2.757544e+00    4.792852e-01   6.092052e-03
  2.759755e+00    4.799935e-01   6.090664e-03
  2.761965e+00    4.958828e-01   6.184579e-03
  2.764176e+00    4.958053e-01   6.178015e-03
  2.766386e+00    4.889257e-01   6.129157e-03
  2.768597e+00    4.916631e-01   6.140360e-03
  2.770807e+00    4.921499e-01   6.137432e-03
  2.773017e+00    4.905489e-01   6.121416e-03
  2.775228e+00    4.756185e-01   6.021762e-03
  2.777438e+00    4.935758e-01   6.128497e-03
  2.779649e+00    4.748834e-01   6.005462e-03
  2.781859e+00    4.805068e-01   6.035121e-03
  2.784070e+00    4.750458e-01   5.994890e-03
  2.786280e+00    4.675736e-01   5.941843e-03
  2.788491e+00    4.720242e-01   5.964240e-03
  2.790701e+00    4.923103e-01   6.085314e-03
  2.792912e+00    4.881581e-01   6.053578e-03
  2.795122e+00    4.736642e-01   5.957308e-03
  2.797333e+00    4.784527e-01   5.981754e-03
  2.799543e+00    4.698877e-01   5.922162e-03
  2.801753e+00    4.773479e-01   5.963105e-03
  2.803964e+00    4.934518e-01   6.057092e-03
  2.806174e+00    4.828842e-01   5.985695e-03
  2.808385e+00    4.672948e-01   5.881544e-03
  2.810595e+00    4.660226e-01   5.866714e-03
  2.812806e+00    4.794182e-01   5.943792e-03
  2.815016e+00    4.767977e-01   5.922774e-03
  2.817227e+00    4.653835e-01   5.877137e-03
  2.819437e+00    4.748366e-01   5.947628e-03
  2.821648e+00    4.700615e-01   5.919922e-03
  2.823858e+00    4.762089e-01   5.963855e-03
  2.826068e+00    4.704451e-01   5.932631e-03
  2.828279e+00    4.757534e-01   5.970052e-03
  2.830489e+00    4.642181e-01   5.900542e-03
  2.832700e+00    4.721798e-01   5.953493e-03
  2.834910e+00    4.678586e-01   5.928230e-03
  2.837121e+00    4.750915e-01   5.975607e-03
  2.839331e+00    4.669880e-01   5.925647e-03
  2.841542e+00    4.588866e-01   5.875037e-03
  2.843752e+00    4.598362e-01   5.881859e-03
  2.845963e+00    4.657767e-01   5.920153e-03
  2.848173e+00    4.659428e-01   5.921282e-03
  2.850383e+00    4.598366e-01   5.882650e-03
  2.852594e+00    4.674793e-01   5.931251e-03
  2.854804e+00    4.641509e-01   5.909601e-03
  2.857015e+00    4.667640e-01   5.925774e-03
  2.859225e+00    4.703274e-01   5.948107e-03
  2.861436e+00    4.708660e-01   5.950842e-03
  2.863646e+00    4.629106e-01   5.900419e-03
  2.865857e+00    4.633884e-01   5.903777e-03
  2.868067e+00    4.638731e-01   5.907098e-03
  2.870278e+00    4.630179e-01   5.901288e-03
  2.872488e+00    4.688515e-01   5.937183e-03
  2.874698e+00    4.704783e-01   5.946439e-03
  2.876909e+00    4.768413e-01   5.985140e-03
  2.879119e+00    4.707815e-01   5.945379e-03
  2.881330e+00    4.724460e-01   5.954383e-03
  2.883540e+00    4.604004e-01   5.876594e-03
  2.885751e+00    4.758634e-01   5.972807e-03
  2.887961e+00    4.628431e-01   5.888632e-03
  2.890172e+00    4.738933e-01   5.956893e-03
  2.892382e+00    4.598276e-01   5.866024e-03
  2.894593e+00    4.695977e-01   5.926172e-03
  2.896803e+00    4.586771e-01   5.854896e-03
  2.899014e+00    4.716271e-01   5.935015e-03
  2.901224e+00    4.710345e-01   5.929287e-03
  2.903434e+00    4.693440e-01   5.916681e-03
  2.905645e+00    4.697765e-01   5.917146e-03
  2.907855e+00    4.532920e-01   5.810328e-03
  2.910066e+00    4.539213e-01   5.812278e-03
  2.912276e+00    4.599838e-01   5.848843e-03
  2.914487e+00    4.614176e-01   5.855497e-03
  2.916697e+00    4.516715e-01   5.791115e-03
  2.918908e+00    4.565184e-01   5.820101e-03
  2.921118e+00    4.521212e-01   5.789337e-03
  2.923329e+00    4.484257e-01   5.763319e-03
  2.925539e+00    4.694878e-01   5.894815e-03
  2.927749e+00    4.516203e-01   5.779259e-03
  2.929960e+00    4.621052e-01   5.843168e-03
  2.932170e+00    4.470316e-01   5.744770e-03
  2.934381e+00    4.655447e-01   5.860064e-03
  2.936591e+00    4.531009e-01   5.778641e-03
  2.938802e+00    4.485798e-01   5.747044e-03
  2.941012e+00    4.584754e-01   5.807757e-03
  2.943223e+00    4.509148e-01   5.756983e-03
  2.945433e+00    4.607269e-01   5.815527e-03
  2.947644e+00    4.496144e-01   5.740859e-03
  2.949854e+00    4.562475e-01   5.778771e-03
  2.952064e+00    4.636963e-01   5.821499e-03
  2.954275e+00    4.654364e-01   5.827944e-03
  2.956485e+00    4.656352e-01   5.824958e-03
  2.958696e+00    4.590450e-01   5.779200e-03
  2.960906e+00    4.659967e-01   5.818557e-03
  2.963117e+00    4.659424e-01   5.813680e-03
  2.965327e+00    4.619623e-01   5.784858e-03
  2.967538e+00    4.622047e-01   5.783449e-03
  2.969748e+00    4.493534e-01   5.699672e-03
  2.971959e+00    4.683893e-01   5.815955e-03
  2.974169e+00    4.628795e-01   5.779052e-03
  2.976379e+00    4.581391e-01   5.746447e-03
  2.978590e+00    4.507904e-01   5.697054e-03
  2.980800e+00    4.575743e-01   5.736945e-03
  2.983011e+00    4.588610e-01   5.742202e-03
  2.985221e+00    4.430778e-01   5.639467e-03
  2.987432e+00    4.443205e-01   5.644282e-03
  2.989642e+00    4.674348e-01   5.786561e-03
  2.991853e+00    4.694963e-01   5.795995e-03
  2.994063e+00    4.591687e-01   5.728960e-03
  2.996274e+00    4.471453e-01   5.650297e-03
  2.998484e+00    4.578549e-01   5.714846e-03
  3.000694e+00    4.523652e-01   5.677034e-03
  3.002905e+00    4.535066e-01   5.681261e-03
  3.005115e+00    4.521520e-01   5.669786e-03
  3.007326e+00    4.492018e-01   5.648123e-03
  3.009536e+00    4.588270e-01   5.705040e-03
  3.011747e+00    4.577834e-01   5.695613e-03
  3.013957e+00    4.531857e-01   5.663765e-03
  3.016168e+00    4.545757e-01   5.669174e-03
  3.018378e+00    4.543846e-01   5.664952e-03
  3.020589e+00    4.448859e-01   5.602229e-03
  3.022799e+00    4.497007e-01   5.629308e-03
  3.025010e+00    4.633353e-01   5.710724e-03
  3.027220e+00    4.642518e-01   5.713245e-03
  3.029430e+00    4.590481e-01   5.677847e-03
  3.031641e+00    4.538246e-01   5.642312e-03
  3.033851e+00    4.542845e-01   5.641647e-03
  3.036062e+00    4.505268e-01   5.615480e-03
  3.038272e+00    4.517583e-01   5.619576e-03
  3.040483e+00    4.493929e-01   5.601636e-03
  3.042693e+00    4.406887e-01   5.543891e-03
  3.044904e+00    4.422967e-01   5.550016e-03
  3.047114e+00    4.488778e-01   5.586348e-03
  3.049325e+00    4.497723e-01   5.587523e-03
  3.051535e+00    4.503433e-01   5.586686e-03
  3.053745e+00    4.550420e-01   5.610981e-03
  3.055956e+00    4.548293e-01   5.605079e-03
  3.058166e+00    4.528032e-01   5.588297e-03
  3.060377e+00    4.496125e-01   5.563820e-03
  3.062587e+00    4.505149e-01   5.564751e-03
  3.064798e+00    4.512731e-01   5.565184e-03
  3.067008e+00    4.559461e-01   5.589162e-03
  3.069219e+00    4.442576e-01   5.512567e-03
  3.071429e+00    4.519553e-01   5.556597e-03
  3.073640e+00    4.556336e-01   5.575812e-03
  3.075850e+00    4.512403e-01   5.545279e-03
  3.078060e+00    4.474663e-01   5.518939e-03
  3.080271e+00    4.500482e-01   5.531353e-03
  3.082481e+00    4.615175e-01   5.597895e-03
  3.084692e+00    4.509906e-01   5.530315e-03
  3.086902e+00    4.496875e-01   5.519053e-03
  3.089113e+00    4.464634e-01   5.495674e-03
  3.091323e+00    4.521049e-01   5.526897e-03
  3.093534e+00    4.578974e-01   5.558772e-03
  3.095744e+00    4.490324e-01   5.501334e-03
  3.097955e+00    4.461379e-01   5.480024e-03
  3.100165e+00    4.404693e-01   5.441785e-03
  3.102375e+00    4.490764e-01   5.491284e-03
  3.104586e+00    4.412047e-01   5.439455e-03
  3.106796e+00    4.447986e-01   5.458061e-03
  3.109007e+00    4.511583e-01   5.493700e-03
  3.111217e+00    4.469841e-01   5.464538e-03
  3.113428e+00    4.484601e-01   5.470118e-03
  3.115638e+00    4.397352e-01   5.413458e-03
  3.117849e+00    4.371331e-01   5.393692e-03
  3.120059e+00    4.478014e-01   5.455659e-03
  3.122270e+00    4.375776e-01   5.389789e-03
  3.124480e+00    4.548360e-01   5.491307e-03
  3.126691e+00    4.584199e-01   5.509306e-03
  3.128901e+00    4.550910e-01   5.486084e-03
  3.131111e+00    4.615177e-01   5.520786e-03
  3.133322e+00    4.453800e-01   5.419963e-03
  3.135532e+00    4.436158e-01   5.405798e-03
  3.137743e+00    4.425356e-01   5.395760e-03
  3.139953e+00    4.523182e-01   5.451327e-03
  3.142164e+00    4.491558e-01   5.444362e-03
  3.144374e+00    4.475374e-01   5.463094e-03
  3.146585e+00    4.468019e-01   5.473261e-03
  3.148795e+00    4.388174e-01   5.434858e-03
  3.151006e+00    4.384823e-01   5.441299e-03
  3.153216e+00    4.354085e-01   5.429265e-03
  3.155426e+00    4.472502e-01   5.508961e-03
  3.157637e+00    4.333515e-01   5.428170e-03
  3.159847e+00    4.394653e-01   5.471192e-03
  3.162058e+00    4.288050e-01   5.408807e-03
  3.164268e+00    4.378077e-01   5.469316e-03
  3.166479e+00    4.461302e-01   5.524770e-03
  3.168689e+00    4.406287e-01   5.493945e-03
  3.170900e+00    4.427251e-01   5.510201e-03
  3.173110e+00    4.418901e-01   5.507874e-03
  3.175321e+00    4.338571e-01   5.460070e-03
  3.177531e+00    4.512515e-01   5.571202e-03
  3.179741e+00    4.410561e-01   5.510028e-03
  3.181952e+00    4.477494e-01   5.553778e-03
  3.184162e+00    4.462554e-01   5.546743e-03
  3.186373e+00    4.276867e-01   5.431698e-03
  3.188583e+00    4.300324e-01   5.448326e-03
  3.190794e+00    4.360581e-01   5.488129e-03
  3.193004e+00    4.417982e-01   5.525386e-03
  3.195215e+00    4.335911e-01   5.475320e-03
  3.197425e+00    4.508634e-01   5.584540e-03
  3.199636e+00    4.464068e-01   5.556106e-03
  3.201846e+00    4.380179e-01   5.503034e-03
  3.204056e+00    4.368730e-01   5.496729e-03
  3.206267e+00    4.375244e-01   5.501679e-03
  3.208477e+00    4.346509e-01   5.484500e-03
  3.210688e+00    4.379739e-01   5.506302e-03
  3.212898e+00    4.197626e-01   5.391147e-03
  3.215109e+00    4.365120e-01   5.498413e-03
  3.217319e+00    4.285057e-01   5.448411e-03
  3.219530e+00    4.266003e-01   5.436645e-03
  3.221740e+00    4.346762e-01   5.488437e-03
  3.223951e+00    4.225955e-01   5.412113e-03
  3.226161e+00    4.315737e-01   5.469465e-03
  3.228372e+00    4.324253e-01   5.475412e-03
  3.230582e+00    4.219610e-01   5.408890e-03
  3.232792e+00    4.297595e-01   5.458855e-03
  3.235003e+00    4.288605e-01   5.453398e-03
  3.237213e+00    4.322018e-01   5.474709e-03
  3.239424e+00    4.246420e-01   5.426603e-03
  3.241634e+00    4.263744e-01   5.437794e-03
  3.243845e+00    4.329874e-01   5.479871e-03
  3.246055e+00    4.283240e-01   5.450005e-03
  3.248266e+00    4.329757e-01   5.479721e-03
  3.250476e+00    4.369614e-01   5.504582e-03
  3.252687e+00    4.260002e-01   5.435031e-03
  3.254897e+00    4.249634e-01   5.428285e-03
  3.257107e+00    4.179342e-01   5.382891e-03
  3.259318e+00    4.198265e-01   5.394834e-03
  3.261528e+00    4.243144e-01   5.423453e-03
  3.263739e+00    4.273160e-01   5.442042e-03
  3.265949e+00    4.259140e-01   5.432986e-03
  3.268160e+00    4.233905e-01   5.416450e-03
  3.270370e+00    4.217135e-01   5.405205e-03
  3.272581e+00    4.291236e-01   5.452201e-03
  3.274791e+00    4.226416e-01   5.410363e-03
  3.277002e+00    4.192758e-01   5.388201e-03
  3.279212e+00    4.141157e-01   5.354573e-03
  3.281422e+00    4.184988e-01   5.382260e-03
  3.283633e+00    4.156406e-01   5.363167e-03
  3.285843e+00    4.223087e-01   5.405688e-03
  3.288054e+00    4.250534e-01   5.422273e-03
  3.290264e+00    4.248944e-01   5.420967e-03
  3.292475e+00    4.250257e-01   5.420957e-03
  3.294685e+00    4.237264e-01   5.412032e-03
  3.296896e+00    4.276642e-01   5.436353e-03
  3.299106e+00    4.367073e-01   5.492983e-03
  3.301317e+00    4.367334e-01   5.492086e-03
  3.303527e+00    4.392129e-01   5.507193e-03
  3.305737e+00    4.401225e-01   5.511816e-03
  3.307948e+00    4.355942e-01   5.482722e-03
  3.310158e+00    4.309129e-01   5.452325e-03
  3.312369e+00    4.339959e-01   5.470883e-03
  3.314579e+00    4.200255e-01   5.381212e-03
  3.316790e+00    4.327444e-01   5.461364e-03
  3.319000e+00    4.194010e-01   5.375324e-03
  3.321211e+00    4.180616e-01   5.366128e-03
  3.323421e+00    4.307058e-01   5.445458e-03
  3.325632e+00    4.161167e-01   5.351559e-03
  3.327842e+00    4.204278e-01   5.378283e-03
  3.330052e+00    4.248182e-01   5.405237e-03
  3.332263e+00    4.383923e-01   5.489859e-03
  3.334473e+00    4.199927e-01   5.372529e-03
  3.336684e+00    4.353998e-01   5.468878e-03
  3.338894e+00    4.307159e-01   5.438545e-03
  3.341105e+00    4.326772e-01   5.449692e-03
  3.343315e+00    4.156218e-01   5.340060e-03
  3.345526e+00    4.169607e-01   5.347763e-03
  3.347736e+00    4.109263e-01   5.307538e-03
  3.349947e+00    4.072219e-01   5.282626e-03
  3.352157e+00    4.193361e-01   5.359462e-03
  3.354368e+00    4.242012e-01   5.389154e-03
  3.356578e+00    4.402065e-01   5.488833e-03
  3.358788e+00    4.315059e-01   5.432974e-03
  3.360999e+00    4.268655e-01   5.402447e-03
  3.363209e+00    4.109698e-01   5.299875e-03
  3.365420e+00    4.148304e-01   5.323201e-03
  3.367630e+00    4.137458e-01   5.315228e-03
  3.369841e+00    4.118703e-01   5.301746e-03
  3.372051e+00    4.205331e-01   5.355228e-03
  3.374262e+00    4.233076e-01   5.370413e-03
  3.376472e+00    4.190291e-01   5.340737e-03
  3.378683e+00    4.239185e-01   5.369289e-03
  3.380893e+00    4.109222e-01   5.284024e-03
  3.383103e+00    4.102791e-01   5.277187e-03
  3.385314e+00    4.177500e-01   5.322782e-03
  3.387524e+00    4.059291e-01   5.244244e-03
  3.389735e+00    4.005762e-01   5.206964e-03
  3.391945e+00    4.100109e-01   5.264242e-03
  3.394156e+00    4.089487e-01   5.253243e-03
  3.396366e+00    4.107797e-01   5.261573e-03
  3.398577e+00    4.121465e-01   5.267278e-03
  3.400787e+00    4.142120e-01   5.292421e-03
  3.402998e+00    4.098194e-01   5.302326e-03
  3.405208e+00    4.037531e-01   5.283576e-03
  3.407418e+00    4.011870e-01   5.282524e-03
  3.409629e+00    4.050031e-01   5.321641e-03
  3.411839e+00    3.932018e-01   5.255214e-03
  3.414050e+00    3.949170e-01   5.277613e-03
  3.416260e+00    3.955382e-01   5.291425e-03
  3.418471e+00    3.878854e-01   5.249336e-03
  3.420681e+00    3.945445e-01   5.302705e-03
  3.422892e+00    3.999363e-01   5.346935e-03
  3.425102e+00    3.790680e-01   5.213273e-03
  3.427313e+00    3.682819e-01   5.145567e-03
  3.429523e+00    3.862348e-01   5.276522e-03
  3.431733e+00    3.802268e-01   5.241956e-03
  3.433944e+00    3.905097e-01   5.318881e-03
  3.436154e+00    3.943708e-01   5.351475e-03
  3.438365e+00    4.020692e-01   5.409516e-03
  3.440575e+00    3.752327e-01   5.231764e-03
  3.442786e+00    3.946546e-01   5.371166e-03
  3.444996e+00    3.888319e-01   5.337008e-03
  3.447207e+00    3.565216e-01   5.115611e-03
  3.449417e+00    3.618942e-01   5.194271e-03
  3.451628e+00    3.726111e-01   5.300213e-03
  3.453838e+00    3.773682e-01   5.355381e-03
  3.456049e+00    3.731580e-01   5.349532e-03
  3.458259e+00    3.744834e-01   5.381179e-03
  3.460469e+00    3.955150e-01   5.550793e-03
  3.462680e+00    3.878339e-01   5.516256e-03
  3.464890e+00    3.728145e-01   5.426345e-03
  3.467101e+00    3.717088e-01   5.435838e-03
  3.469311e+00    3.781906e-01   5.499729e-03
  3.471522e+00    4.078805e-01   5.728676e-03
  3.473732e+00    4.113552e-01   5.769641e-03
  3.475943e+00    3.841079e-01   5.591009e-03
  3.478153e+00    3.972171e-01   5.701238e-03
  3.480364e+00    4.153129e-01   5.845216e-03
  3.482574e+00    4.140916e-01   5.852160e-03
  3.484784e+00    4.198785e-01   5.907928e-03
  3.486995e+00    4.292823e-01   5.989091e-03
  3.489205e+00    4.387459e-01   6.069641e-03
  3.491416e+00    4.575512e-01   6.213814e-03
  3.493626e+00    4.484837e-01   6.166752e-03
  3.495837e+00    4.501644e-01   6.193238e-03
  3.498047e+00    4.496180e-01   6.204003e-03
  3.500258e+00    4.761291e-01   6.399274e-03
  3.502468e+00    4.812518e-01   6.448458e-03
  3.504679e+00    4.788133e-01   6.446867e-03
  3.506889e+00    4.760996e-01   6.443190e-03
  3.509099e+00    4.645834e-01   6.379018e-03
  3.511310e+00    4.821499e-01   6.513055e-03
  3.513520e+00    4.932044e-01   6.601866e-03
  3.515731e+00    4.943494e-01   6.624069e-03
  3.517941e+00    4.836833e-01   6.566454e-03
  3.520152e+00    5.134691e-01   6.780204e-03
  3.522362e+00    5.132206e-01   6.793217e-03
  3.524573e+00    5.175219e-01   6.836092e-03
  3.526783e+00    5.170814e-01   6.846611e-03
  3.528994e+00    5.172454e-01   6.859928e-03
  3.531204e+00    5.410694e-01   7.028827e-03
  3.533414e+00    5.334536e-01   6.991382e-03
  3.535625e+00    5.263708e-01   6.957140e-03
  3.537835e+00    5.361598e-01   7.033672e-03
  3.540046e+00    5.491823e-01   7.127652e-03
  3.542256e+00    5.449995e-01   7.108042e-03
  3.544467e+00    5.542933e-01   7.176140e-03
  3.546677e+00    5.439512e-01   7.116538e-03
  3.548888e+00    5.256103e-01   7.002918e-03
  3.551098e+00    5.640299e-01   7.261836e-03
  3.553309e+00    5.476953e-01   7.164186e-03
  3.555519e+00    5.272240e-01   7.040202e-03
  3.557729e+00    5.386474e-01   7.127826e-03
  3.559940e+00    5.317076e-01   7.093237e-03
  3.562150e+00    5.488169e-01   7.218332e-03
  3.564361e+00    5.497057e-01   7.237672e-03
  3.566571e+00    5.235653e-01   7.077149e-03
  3.568782e+00    5.376155e-01   7.185586e-03
  3.570992e+00    5.542561e-01   7.309970e-03
  3.573203e+00    5.463415e-01   7.271849e-03
  3.575413e+00    5.487301e-01   7.301696e-03
  3.577624e+00    5.260458e-01   7.163141e-03
  3.579834e+00    5.227279e-01   7.154236e-03
  3.582045e+00    5.442320e-01   7.314038e-03
  3.584255e+00    5.419705e-01   7.312986e-03
  3.586465e+00    5.365173e-01   7.290005e-03
  3.588676e+00    5.591282e-01   7.456550e-03
  3.590886e+00    5.515514e-01   7.419751e-03
  3.593097e+00    5.435441e-01   7.380318e-03
  3.595307e+00    5.320907e-01   7.316016e-03
  3.597518e+00    5.528499e-01   7.471810e-03
  3.599728e+00    5.485572e-01   7.457037e-03
  3.601939e+00    5.257543e-01   7.314295e-03
  3.604149e+00    5.388837e-01   7.419530e-03
  3.606360e+00    5.402994e-01   7.443467e-03
  3.608570e+00    5.470277e-01   7.504005e-03
  3.610780e+00    5.405018e-01   7.470223e-03
  3.612991e+00    5.457661e-01   7.516602e-03
  3.615201e+00    5.360314e-01   7.459118e-03
  3.617412e+00    5.523502e-01   7.579153e-03
  3.619622e+00    5.591173e-01   7.631562e-03
  3.621833e+00    5.500485e-01   7.576200e-03
  3.624043e+00    5.625644e-01   7.671689e-03
  3.626254e+00    5.596930e-01   7.662013e-03
  3.628464e+00    5.226911e-01   7.415290e-03
  3.630675e+00    5.282322e-01   7.468487e-03
  3.632885e+00    5.372799e-01   7.546684e-03
  3.635095e+00    5.418444e-01   7.593186e-03
  3.637306e+00    5.425550e-01   7.612660e-03
  3.639516e+00    5.261077e-01   7.510813e-03
  3.641727e+00    5.337442e-01   7.579682e-03
  3.643937e+00    5.414600e-01   7.648950e-03
  3.646148e+00    5.304871e-01   7.585600e-03
  3.648358e+00    5.515518e-01   7.749890e-03
  3.650569e+00    5.410625e-01   7.690654e-03
  3.652779e+00    5.559433e-01   7.810801e-03
  3.654990e+00    5.425706e-01   7.731344e-03
  3.657200e+00    5.533457e-01   7.822858e-03
  3.659410e+00    5.639775e-01   7.913116e-03
  3.661621e+00    5.513478e-01   7.839401e-03
  3.663831e+00    5.178410e-01   7.612355e-03
  3.666042e+00    5.163807e-01   7.616552e-03
  3.668252e+00    5.391743e-01   7.798168e-03
  3.670463e+00    5.622209e-01   7.978778e-03
  3.672673e+00    5.449589e-01   7.871012e-03
  3.674884e+00    5.001824e-01   7.555637e-03
  3.677094e+00    5.053763e-01   7.609893e-03
  3.679305e+00    5.341253e-01   7.838970e-03
  3.681515e+00    5.252700e-01   7.789204e-03
  3.683726e+00    5.715863e-01   8.141859e-03
  3.685936e+00    5.360274e-01   7.900339e-03
  3.688146e+00    5.309661e-01   7.878758e-03
  3.690357e+00    5.365820e-01   7.936396e-03
  3.692567e+00    5.334347e-01   7.929292e-03
  3.694778e+00    5.444019e-01   8.026725e-03
  3.696988e+00    5.167479e-01   7.836050e-03
  3.699199e+00    5.160987e-01   7.847178e-03
  3.701409e+00    5.252295e-01   7.932712e-03
  3.703620e+00    5.201313e-01   7.910335e-03
  3.705830e+00    5.150311e-01   7.887715e-03
  3.708041e+00    5.046347e-01   7.823993e-03
  3.710251e+00    5.160965e-01   7.928923e-03
  3.712461e+00    5.137890e-01   7.927764e-03
  3.714672e+00    5.320005e-01   8.083923e-03
  3.716882e+00    5.340477e-01   8.116449e-03
  3.719093e+00    5.201675e-01   8.027371e-03
  3.721303e+00    5.183316e-01   8.030138e-03
  3.723514e+00    5.217288e-01   8.073699e-03
  3.725724e+00    5.168353e-01   8.052895e-03
  3.727935e+00    5.181989e-01   8.081005e-03
  3.730145e+00    5.260324e-01   8.159261e-03
  3.732356e+00    5.201454e-01   8.131133e-03
  3.734566e+00    5.182376e-01   8.133813e-03
  3.736776e+00    4.972566e-01   7.984891e-03
  3.738987e+00    5.126448e-01   8.125173e-03
  3.741197e+00    5.247236e-01   8.238591e-03
  3.743408e+00    5.381491e-01   8.361750e-03
  3.745618e+00    5.222275e-01   8.255720e-03
  3.747829e+00    4.723239e-01   7.868681e-03
  3.750039e+00    5.060280e-01   8.162820e-03
  3.752250e+00    5.227113e-01   8.315028e-03
  3.754460e+00    5.114295e-01   8.243334e-03
  3.756671e+00    5.322466e-01   8.428701e-03
  3.758881e+00    5.127928e-01   8.291882e-03
  3.761091e+00    5.240125e-01   8.401563e-03
  3.763302e+00    5.199755e-01   8.388476e-03
  3.765512e+00    5.176582e-01   8.389148e-03
  3.767723e+00    5.174947e-01   8.407402e-03
  3.769933e+00    5.043438e-01   8.319191e-03
  3.772144e+00    5.074288e-01   8.364147e-03
  3.774354e+00    5.159470e-01   8.454179e-03
  3.776565e+00    5.049375e-01   8.383303e-03
  3.778775e+00    4.926216e-01   8.300159e-03
  3.780986e+00    4.843217e-01   8.249828e-03
  3.783196e+00    5.218086e-01   8.583743e-03
  3.785407e+00    5.163596e-01   8.559532e-03
  3.787617e+00    4.945709e-01   8.397598e-03
  3.789827e+00    5.047969e-01   8.504502e-03
  3.792038e+00    5.045028e-01   8.522950e-03
  3.794248e+00    5.306949e-01   8.763123e-03
  3.796459e+00    5.271419e-01   8.755669e-03
  3.798669e+00    5.055653e-01   8.596134e-03
  3.800880e+00    4.959312e-01   8.535115e-03
  3.803090e+00    5.031311e-01   8.618736e-03
  3.805301e+00    5.117041e-01   8.714205e-03
  3.807511e+00    5.214317e-01   8.819124e-03
  3.809722e+00    5.032009e-01   8.685902e-03
  3.811932e+00    4.986818e-01   8.668986e-03
  3.814142e+00    5.241234e-01   8.910829e-03
  3.816353e+00    5.151714e-01   8.857628e-03
  3.818563e+00    4.866101e-01   8.631415e-03
  3.820774e+00    4.861644e-01   8.650291e-03
  3.822984e+00    4.938780e-01   8.741952e-03
  3.825195e+00    4.950045e-01   8.775561e-03
  3.827405e+00    5.171260e-01   8.993864e-03
  3.829616e+00    4.947762e-01   8.821337e-03
  3.831826e+00    5.182464e-01   9.052855e-03
  3.834037e+00    5.096228e-01   9.001954e-03
  3.836247e+00    5.243382e-01   9.156461e-03
  3.838457e+00    5.057954e-01   9.018286e-03
  3.840668e+00    5.136443e-01   9.113648e-03
  3.842878e+00    5.075228e-01   9.084983e-03
  3.845089e+00    4.918228e-01   8.968838e-03
  3.847299e+00    5.007166e-01   9.075488e-03
  3.849510e+00    4.890604e-01   8.994935e-03
  3.851720e+00    4.948953e-01   9.069835e-03
  3.853931e+00    5.061354e-01   9.191448e-03
  3.856141e+00    5.065103e-01   9.214122e-03
  3.858352e+00    5.119200e-01   9.282756e-03
  3.860562e+00    5.112227e-01   9.296075e-03
  3.862772e+00    5.086949e-01   9.292957e-03
  3.864983e+00    5.074805e-01   9.301824e-03
  3.867193e+00    4.807831e-01   9.073324e-03
  3.869404e+00    4.858392e-01   9.140581e-03
  3.871614e+00    5.019308e-01   9.310904e-03
  3.873825e+00    4.850343e-01   9.172913e-03
  3.876035e+00    5.097532e-01   9.424728e-03
  3.878246e+00    5.120865e-01   9.472569e-03
  3.880456e+00    4.753505e-01   9.154963e-03
  3.882667e+00    4.767447e-01   9.197174e-03
  3.884877e+00    4.930633e-01   9.383135e-03
  3.887087e+00    4.760485e-01   9.249247e-03
  3.889298e+00    4.717002e-01   9.236626e-03
  3.891508e+00    4.851696e-01   9.397971e-03
  3.893719e+00    4.995317e-01   9.567278e-03
  3.895929e+00    5.152068e-01   9.748421e-03
  3.898140e+00    5.051426e-01   9.684971e-03
  3.900350e+00    5.039485e-01   9.706078e-03
  3.902561e+00    4.817079e-01   9.521590e-03
  3.904771e+00    4.707340e-01   9.444573e-03
  3.906982e+00    4.966056e-01   9.734132e-03
  3.909192e+00    4.727936e-01   9.530801e-03
  3.911403e+00    5.019233e-01   9.854384e-03
  3.913613e+00    5.221633e-01   1.008661e-02
  3.915823e+00    5.059004e-01   9.963754e-03
  3.918034e+00    4.839298e-01   9.780054e-03
  3.920244e+00    4.912747e-01   9.889843e-03
  3.922455e+00    4.994431e-01   1.000820e-02
  3.924665e+00    4.784506e-01   9.831655e-03
  3.926876e+00    5.038965e-01   1.012740e-02
  3.929086e+00    5.053107e-01   1.017975e-02
  3.931297e+00    4.831973e-01   9.989123e-03
  3.933507e+00    4.915497e-01   1.010412e-02
  3.935718e+00    4.997501e-01   1.021712e-02
  3.937928e+00    5.068734e-01   1.031976e-02
  3.940138e+00    5.186489e-01   1.046917e-02
  3.942349e+00    5.034134e-01   1.034466e-02
  3.944559e+00    5.193147e-01   1.053776e-02
  3.946770e+00    4.754378e-01   1.011259e-02
  3.948980e+00    4.843642e-01   1.023765e-02
  3.951191e+00    5.072128e-01   1.050786e-02
  3.953401e+00    5.205483e-01   1.067764e-02
  3.955612e+00    4.825456e-01   1.031193e-02
  3.957822e+00    4.800155e-01   1.031639e-02
  3.960033e+00    4.872507e-01   1.042647e-02
  3.962243e+00    4.766528e-01   1.034500e-02
  3.964453e+00    4.603435e-01   1.019870e-02
  3.966664e+00    4.988841e-01   1.065092e-02
  3.968874e+00    5.232872e-01   1.093770e-02
  3.971085e+00    5.116709e-01   1.083822e-02
  3.973295e+00    5.182572e-01   1.092993e-02
  3.975506e+00    5.103488e-01   1.086844e-02
  3.977716e+00    4.641598e-01   1.038640e-02
  3.979927e+00    5.074546e-01   1.088253e-02
  3.982137e+00    4.978493e-01   1.080179e-02
  3.984348e+00    4.801034e-01   1.062984e-02
  3.986558e+00    4.539738e-01   1.035819e-02
  3.988768e+00    4.744035e-01   1.061135e-02
  3.990979e+00    5.074961e-01   1.099849e-02
  3.993189e+00    5.056607e-01   1.100224e-02
  3.995400e+00    4.689943e-01   1.061902e-02
  3.997610e+00    5.079426e-01   1.108147e-02
  3.999821e+00    4.936389e-01   1.096245e-02
  4.002031e+00    4.826614e-01   1.087796e-02
  4.004242e+00    4.970663e-01   1.107811e-02
  4.006452e+00    5.065194e-01   1.122326e-02
  4.008663e+00    4.871196e-01   1.104638e-02
  4.010873e+00    5.054227e-01   1.129275e-02
  4.013084e+00    5.223056e-01   1.152228e-02
  4.015294e+00    4.928433e-01   1.123404e-02
  4.017504e+00    4.983000e-01   1.133836e-02
  4.019715e+00    5.178223e-01   1.160248e-02
  4.021925e+00    4.841356e-01   1.126155e-02
  4.024136e+00    5.048766e-01   1.154501e-02
  4.026346e+00    5.182021e-01   1.174189e-02
  4.028557e+00    4.837907e-01   1.138980e-02
  4.030767e+00    4.522095e-01   1.105580e-02
  4.032978e+00    4.701424e-01   1.131855e-02
  4.035188e+00    4.840100e-01   1.153041e-02
  4.037399e+00    4.752855e-01   1.147324e-02
  4.039609e+00    5.213525e-01   1.206599e-02
  4.041819e+00    5.226777e-01   1.213200e-02
  4.044030e+00    5.106766e-01   1.204327e-02
  4.046240e+00    4.589229e-01   1.146528e-02
  4.048451e+00    4.981805e-01   1.199725e-02
  4.050661e+00    5.118883e-01   1.221428e-02
  4.052872e+00    5.012477e-01   1.214031e-02
  4.055082e+00    4.708171e-01   1.181902e-02
  4.057293e+00    4.818087e-01   1.200968e-02
  4.059503e+00    4.984735e-01   1.227130e-02
  4.061714e+00    4.732426e-01   1.201262e-02
  4.063924e+00    4.980710e-01   1.238132e-02
  4.066134e+00    5.053836e-01   1.253073e-02
  4.068345e+00    4.707105e-01   1.215162e-02
  4.070555e+00    4.545017e-01   1.199798e-02
  4.072766e+00    4.778587e-01   1.236306e-02
  4.074976e+00    4.687118e-01   1.230524e-02
  4.077187e+00    4.524673e-01   1.215018e-02
  4.079397e+00    4.715538e-01   1.246717e-02
  4.081608e+00    4.679860e-01   1.248448e-02
  4.083818e+00    4.684925e-01   1.255613e-02
  4.086029e+00    4.892652e-01   1.289930e-02
  4.088239e+00    4.869302e-01   1.293773e-02
  4.090449e+00    4.936074e-01   1.309659e-02
  4.092660e+00    4.695339e-01   1.284394e-02
  4.094870e+00    4.536312e-01   1.269428e-02
  4.097081e+00    4.840253e-01   1.318471e-02
  4.099291e+00    4.953431e-01   1.339322e-02
  4.101502e+00    4.953460e-01   1.344309e-02
  4.103712e+00    4.845255e-01   1.334505e-02
  4.105923e+00    4.801141e-01   1.333567e-02
  4.108133e+00    4.681821e-01   1.321950e-02
  4.110344e+00    4.851246e-01   1.350808e-02
  4.112554e+00    5.166820e-01   1.399571e-02
  4.114764e+00    4.657384e-01   1.334117e-02
  4.116975e+00    4.992480e-01   1.386727e-02
  4.119185e+00    4.815465e-01   1.367448e-02
  4.121396e+00    4.835426e-01   1.375940e-02
  4.123606e+00    4.866340e-01   1.385987e-02
  4.125817e+00    4.738126e-01   1.373359e-02
  4.128027e+00    4.481688e-01   1.341282e-02
  4.130238e+00    5.119854e-01   1.439748e-02
  4.132448e+00    5.100829e-01   1.443311e-02
  4.134659e+00    4.981815e-01   1.432515e-02
  4.136869e+00    4.997251e-01   1.441127e-02
  4.139080e+00    4.944899e-01   1.440032e-02
  4.141290e+00    4.449601e-01   1.372065e-02
  4.143500e+00    4.329945e-01   1.359707e-02
  4.145711e+00    4.619655e-01   1.411034e-02
  4.147921e+00    4.652860e-01   1.422577e-02
  4.150132e+00    5.015115e-01   1.483984e-02
  4.152342e+00    4.741422e-01   1.449904e-02
  4.154553e+00    4.997837e-01   1.495682e-02
  4.156763e+00    4.761789e-01   1.467144e-02
  4.158974e+00    4.960748e-01   1.505019e-02
  4.161184e+00    4.976020e-01   1.514815e-02
  4.163395e+00    4.521222e-01   1.451291e-02
  4.165605e+00    5.098578e-01   1.549190e-02
  4.167815e+00    4.920512e-01   1.529836e-02
  4.170026e+00    5.134844e-01   1.571052e-02
  4.172236e+00    4.851027e-01   1.535256e-02
  4.174447e+00    5.316663e-01   1.615996e-02
  4.176657e+00    4.785069e-01   1.541464e-02
  4.178868e+00    5.059625e-01   1.594053e-02
  4.181078e+00    4.828533e-01   1.565984e-02
  4.183289e+00    4.870022e-01   1.581697e-02
  4.185499e+00    4.888954e-01   1.594120e-02
  4.187710e+00    5.017715e-01   1.624439e-02
  4.189920e+00    4.954832e-01   1.623946e-02
  4.192130e+00    5.556928e-01   1.730297e-02
  4.194341e+00    5.228301e-01   1.688671e-02
  4.196551e+00    5.126068e-01   1.682625e-02
  4.198762e+00    5.034990e-01   1.678230e-02
  4.200972e+00    4.893222e-01   1.665161e-02
  4.203183e+00    4.405165e-01   1.590301e-02
  4.205393e+00    4.724613e-01   1.657932e-02
  4.207604e+00    5.211905e-01   1.753228e-02
  4.209814e+00    4.855499e-01   1.703837e-02
  4.212025e+00    5.210086e-01   1.777416e-02
  4.214235e+00    4.879336e-01   1.732312e-02
  4.216445e+00    5.051945e-01   1.775392e-02
  4.218656e+00    5.136894e-01   1.803697e-02
  4.220866e+00    5.057467e-01   1.802981e-02
  4.223077e+00    4.576509e-01   1.728269e-02
  4.225287e+00    4.900037e-01   1.802374e-02
  4.227498e+00    4.386853e-01   1.718776e-02
  4.229708e+00    4.322418e-01   1.719951e-02
  4.231919e+00    4.692730e-01   1.806960e-02
  4.234129e+00    4.917712e-01   1.865276e-02
  4.236340e+00    4.549968e-01   1.809542e-02
  4.238550e+00    5.144158e-01   1.941044e-02
  4.240761e+00    4.530048e-01   1.837596e-02
  4.242971e+00    5.784985e-01   2.095616e-02
  4.245181e+00    4.999084e-01   1.966361e-02
  4.247392e+00    4.778051e-01   1.940404e-02
  4.249602e+00    4.810412e-01   1.966247e-02
  4.251813e+00    5.872586e-01   2.193955e-02
  4.254023e+00    4.394561e-01   1.917009e-02
  4.256234e+00    4.993065e-01   2.065235e-02
  4.258444e+00    4.486647e-01   1.978174e-02
  4.260655e+00    5.224755e-01   2.158141e-02
  4.262865e+00    5.138120e-01   2.164501e-02
  4.265076e+00    4.813035e-01   2.118681e-02
  4.267286e+00    5.215544e-01   2.231690e-02
  4.269496e+00    4.431467e-01   2.082230e-02
  4.271707e+00    5.004355e-01   2.240016e-02
  4.273917e+00    4.918647e-01   2.249489e-02
  4.276128e+00    5.069176e-01   2.314001e-02
  4.278338e+00    4.442067e-01   2.195068e-02
  4.280549e+00    4.284070e-01   2.186582e-02
  4.282759e+00    4.285165e-01   2.218261e-02
  4.284970e+00    4.213145e-01   2.232153e-02
  4.287180e+00    4.409589e-01   2.310912e-02
  4.289391e+00    4.895317e-01   2.453167e-02
  4.291601e+00    4.552022e-01   2.384469e-02
  4.293811e+00    4.738412e-01   2.451825e-02
  4.296022e+00    5.388545e-01   2.635624e-02
  4.298232e+00    4.698235e-01   2.481634e-02
  4.300443e+00    4.701640e-01   2.503015e-02
  4.302653e+00    4.778829e-01   2.545417e-02
  4.304864e+00    4.270371e-01   2.426863e-02
  4.307074e+00    5.065665e-01   2.667082e-02
  4.309285e+00    4.316489e-01   2.484312e-02
  4.311495e+00    4.602121e-01   2.589183e-02
  4.313706e+00    5.192633e-01   2.776119e-02
  4.315916e+00    5.367463e-01   2.850265e-02
  4.318126e+00    4.358779e-01   2.593998e-02
  4.320337e+00    4.282536e-01   2.597107e-02
  4.322547e+00    5.408585e-01   2.949586e-02
  4.324758e+00    5.821599e-01   3.092076e-02
  4.326968e+00    4.680031e-01   2.803564e-02
  4.329179e+00    5.258329e-01   3.004452e-02
  4.331389e+00    4.175543e-01   2.708233e-02
  4.333600e+00    3.690695e-01   2.576531e-02
  4.335810e+00    4.419940e-01   2.853022e-02
  4.338021e+00    5.445887e-01   3.207568e-02
  4.340231e+00    4.820266e-01   3.055568e-02
  4.342442e+00    4.725699e-01   3.066036e-02
  4.344652e+00    3.829685e-01   2.797554e-02
  4.346862e+00    3.717869e-01   2.795018e-02
  4.349073e+00    3.945936e-01   2.921403e-02
  4.351283e+00    4.735534e-01   3.248082e-02
  4.353494e+00    4.668855e-01   3.275035e-02
  4.355704e+00    5.305448e-01   3.547360e-02
  4.357915e+00    5.049845e-01   3.518519e-02
  4.360125e+00    4.957747e-01   3.545721e-02
  4.362336e+00    4.008301e-01   3.246421e-02
  4.364546e+00    3.375519e-01   3.033279e-02
  4.366757e+00    5.097668e-01   3.801746e-02
  4.368967e+00    4.105324e-01   3.479807e-02
  4.371177e+00    5.210622e-01   4.003653e-02
  4.373388e+00    5.669749e-01   4.269828e-02
  4.375598e+00    3.857633e-01   3.602232e-02
  4.377809e+00    4.593697e-01   4.030256e-02
  4.380019e+00    3.881215e-01   3.797817e-02
  4.382230e+00    4.090797e-01   4.007922e-02
  4.384440e+00    3.872066e-01   4.011325e-02
  4.386651e+00    5.147942e-01   4.768119e-02
  4.388861e+00    3.811449e-01   4.240271e-02
  4.391072e+00    4.118772e-01   4.562782e-02
  4.393282e+00    3.576236e-01   4.416079e-02
  4.395492e+00    4.898936e-01   5.383452e-02
  4.397703e+00    3.560745e-01   4.799529e-02
  4.399913e+00    2.806077e-01   4.476262e-02
  4.402124e+00    4.303813e-01   5.857733e-02
  4.404334e+00    3.545730e-01   5.652010e-02
  4.406545e+00    8.584318e-02   2.987771e-02
  4.408755e+00    6.044722e-01   8.598571e-02
  4.410966e+00    4.892594e-01   8.561958e-02
  4.413176e+00    2.732096e-01   7.243384e-02
  4.415387e+00   -6.479268e-01            nan
  4.417597e+00   -1.705454e+00            nan
  4.419807e+00    1.168920e-02   3.884985e-02
