# == pyFAI calibration ==
# Distance Sample to Detector: 0.216 m
# PONI: 1.166e-01, 1.308e-01 m
# Rotations: 0.000000 0.000000 0.000000 rad
# 
# == Fit2d calibration ==
# Distance Sample-beamCenter: 216.000 mm
# Center: x=1744.293, y=1555.000 pix
# Tilt: 0.000 deg  TiltPlanRot: 0.000 deg
# 
# Detector Eiger 9M	 PixelSize= 7.500e-05, 7.500e-05 m
#    Detector has a mask: True 
#    Detector has a dark current: False 
#    detector has a flat field: False 
# 
# Wavelength: 9.8e-11 m
# Mask applied: from detector
# Dark current applied: False
# Flat field applied: False
# Polarization factor: None
# Normalization factor: 1.0
# 
# Headers of the input frame:
# {
# "_array_data.header_convention": "SLS_1.0",
# "_array_data.header_contents": "# Detector: Dectris Eiger 9M, S/N E-18-0102\r\n# Pixel_size 75e-6 m x 75e-6 m\r\n# Silicon sensor, thickness 0.000450 m\r\n# Exposure_time 0.024997 s\r\n# Exposure_period 0.025000 s\r\n# Count_cutoff 62318 counts\r\n# Wavelength 0.980106 A\r\n# Detector_distance 0.215992 m\r\n# Beam_xy (1555, 1744) pixels\r\n# Start_angle 0.000000 deg.\r\n# Angle_increment 0.000000 deg.",
# "Content-Type": "application/octet-stream;",
# "conversions": "x-CBF_BYTE_OFFSET",
# "Content-Transfer-Encoding": "BINARY",
# "X-Binary-Size": "10166596",
# "X-Binary-ID": "1",
# "X-Binary-Element-Type": "signed 32-bit integer",
# "X-Binary-Element-Byte-Order": "LITTLE_ENDIAN",
# "Content-MD5": "52UU/OX/HMUhwI1Acbo1TA==",
# "X-Binary-Number-of-Elements": "10166590",
# "X-Binary-Size-Fastest-Dimension": "3110",
# "X-Binary-Size-Second-Dimension": "3269",
# "X-Binary-Size-Padding": "4095"
# }
# --> H:/Proxima2a_2019-04-05/RAW_DATA/C5_gel17_position5/C5_mesh_1_data.cbf/C5_mesh_1_data.cbf000007.dat
#        q_A^-1              I           sigma 
  1.105228e-03    5.852345e-01   4.139538e-01
  3.315685e-03    7.858376e-01   2.916163e-01
  5.526141e-03    1.444547e+00   3.057299e-01
  7.736597e-03    1.338291e+00   2.485968e-01
  9.947054e-03    1.351955e+00   2.202712e-01
  1.215751e-02    1.379121e+00   2.011731e-01
  1.436797e-02    1.249287e+00   1.761193e-01
  1.657842e-02    1.317165e+00   1.683311e-01
  1.878888e-02    1.365481e+00   1.609928e-01
  2.099934e-02    1.595217e+00   1.646311e-01
  2.320979e-02    1.724507e+00   1.628041e-01
  2.542025e-02    1.544466e+00   1.472308e-01
  2.763070e-02    1.265380e+00   1.278206e-01
  2.984116e-02    1.299156e+00   1.246256e-01
  3.205162e-02    1.284006e+00   1.195556e-01
  3.426207e-02    1.263408e+00   1.146956e-01
  3.647253e-02    1.366299e+00   1.156012e-01
  3.868299e-02    1.452945e+00   1.157631e-01
  4.089344e-02    1.493971e+00   1.141700e-01
  4.310390e-02    1.405709e+00   1.078628e-01
  4.531436e-02    1.489795e+00   1.083001e-01
  4.752481e-02    1.462837e+00   1.047893e-01
  4.973527e-02    1.360269e+00   9.877893e-02
  5.194572e-02    1.385357e+00   9.754022e-02
  5.415618e-02    1.377276e+00   9.524655e-02
  5.636664e-02    1.377138e+00   9.335850e-02
  5.857709e-02    1.372651e+00   9.143124e-02
  6.078755e-02    1.365248e+00   8.950827e-02
  6.299801e-02    1.375390e+00   8.824889e-02
  6.520846e-02    1.506674e+00   9.078631e-02
  6.741892e-02    1.445892e+00   8.746167e-02
  6.962938e-02    1.482014e+00   8.713497e-02
  7.183983e-02    1.518906e+00   8.684352e-02
  7.405029e-02    1.418846e+00   8.267018e-02
  7.626074e-02    1.453589e+00   8.245388e-02
  7.847120e-02    1.504684e+00   8.269831e-02
  8.068166e-02    1.494344e+00   8.127624e-02
  8.289211e-02    1.462709e+00   7.933150e-02
  8.510257e-02    1.441631e+00   7.772779e-02
  8.731303e-02    1.507298e+00   7.846288e-02
  8.952348e-02    1.504617e+00   7.742132e-02
  9.173394e-02    1.467444e+00   7.552918e-02
  9.394439e-02    1.467923e+00   7.464503e-02
  9.615485e-02    1.557401e+00   7.599586e-02
  9.836531e-02    1.497443e+00   7.367457e-02
  1.005758e-01    1.445696e+00   7.159091e-02
  1.027862e-01    1.491031e+00   7.191694e-02
  1.049967e-01    1.474937e+00   7.076959e-02
  1.072071e-01    1.531271e+00   7.136032e-02
  1.094176e-01    1.515892e+00   7.027916e-02
  1.116280e-01    1.494176e+00   6.907813e-02
  1.138385e-01    1.543680e+00   6.952676e-02
  1.160490e-01    1.545816e+00   6.890820e-02
  1.182594e-01    1.491807e+00   6.705663e-02
  1.204699e-01    1.459920e+00   6.572416e-02
  1.226803e-01    1.545241e+00   6.700274e-02
  1.248908e-01    1.477286e+00   6.492977e-02
  1.271012e-01    1.507702e+00   6.502060e-02
  1.293117e-01    1.544941e+00   6.525290e-02
  1.315222e-01    1.555703e+00   6.492569e-02
  1.337326e-01    1.548358e+00   6.423346e-02
  1.359431e-01    1.646156e+00   6.626975e-02
  1.381535e-01    1.560009e+00   6.537839e-02
  1.403640e-01    1.504957e+00   6.449169e-02
  1.425744e-01    1.481981e+00   6.409976e-02
  1.447849e-01    1.482012e+00   6.411516e-02
  1.469953e-01    1.520873e+00   6.490967e-02
  1.492058e-01    1.550620e+00   6.546523e-02
  1.514163e-01    1.553407e+00   6.541521e-02
  1.536267e-01    1.579265e+00   6.582863e-02
  1.558372e-01    1.573387e+00   6.556097e-02
  1.580476e-01    1.543004e+00   6.476732e-02
  1.602581e-01    1.574244e+00   6.525352e-02
  1.624685e-01    1.560480e+00   6.478976e-02
  1.646790e-01    1.644731e+00   6.632477e-02
  1.668895e-01    1.684884e+00   6.693564e-02
  1.690999e-01    1.764027e+00   6.828398e-02
  1.713104e-01    1.740613e+00   6.761882e-02
  1.735208e-01    1.681544e+00   6.625488e-02
  1.757313e-01    1.751440e+00   6.740595e-02
  1.779417e-01    1.804157e+00   6.818973e-02
  1.801522e-01    1.862699e+00   6.906655e-02
  1.823626e-01    1.882421e+00   6.920010e-02
  1.845731e-01    1.855895e+00   6.848822e-02
  1.867836e-01    1.917399e+00   6.937888e-02
  1.889940e-01    1.888272e+00   6.862492e-02
  1.912045e-01    1.998461e+00   7.036305e-02
  1.934149e-01    2.014145e+00   7.040221e-02
  1.956254e-01    1.907064e+00   6.827928e-02
  1.978358e-01    1.892586e+00   6.778651e-02
  2.000463e-01    1.841412e+00   6.664217e-02
  2.022568e-01    1.931610e+00   6.803080e-02
  2.044672e-01    1.956679e+00   6.823628e-02
  2.066777e-01    1.970476e+00   6.824917e-02
  2.088881e-01    1.952550e+00   6.771572e-02
  2.110986e-01    1.982646e+00   6.800163e-02
  2.133090e-01    1.909510e+00   6.651866e-02
  2.155195e-01    2.007588e+00   6.797932e-02
  2.177300e-01    1.926531e+00   6.606968e-02
  2.199404e-01    1.977640e+00   6.517647e-02
  2.221509e-01    1.978307e+00   6.411704e-02
  2.243613e-01    2.004046e+00   6.371469e-02
  2.265718e-01    2.048962e+00   6.371467e-02
  2.287822e-01    2.029084e+00   6.277727e-02
  2.309927e-01    2.088227e+00   6.310543e-02
  2.332031e-01    2.157940e+00   6.360108e-02
  2.354136e-01    2.110149e+00   6.238313e-02
  2.376241e-01    2.104582e+00   6.181721e-02
  2.398345e-01    2.192842e+00   6.263313e-02
  2.420450e-01    2.191757e+00   6.217013e-02
  2.442554e-01    2.144068e+00   6.106643e-02
  2.464659e-01    2.147063e+00   6.069879e-02
  2.486763e-01    2.088510e+00   5.947190e-02
  2.508868e-01    2.109112e+00   5.938749e-02
  2.530973e-01    2.124796e+00   5.923834e-02
  2.553077e-01    2.089289e+00   5.838498e-02
  2.575182e-01    2.125391e+00   5.853883e-02
  2.597286e-01    2.121186e+00   5.814097e-02
  2.619391e-01    2.041131e+00   5.670493e-02
  2.641495e-01    1.968295e+00   5.537581e-02
  2.663600e-01    1.977610e+00   5.520142e-02
  2.685704e-01    2.015851e+00   5.543049e-02
  2.707809e-01    2.020587e+00   5.520100e-02
  2.729914e-01    2.051872e+00   5.533680e-02
  2.752018e-01    2.063784e+00   5.520833e-02
  2.774123e-01    1.952724e+00   5.342801e-02
  2.796227e-01    1.959681e+00   5.325833e-02
  2.818332e-01    1.936361e+00   5.267640e-02
  2.840436e-01    1.996523e+00   5.322918e-02
  2.862541e-01    1.950306e+00   5.235661e-02
  2.884646e-01    1.887745e+00   5.126553e-02
  2.906750e-01    1.972066e+00   5.214955e-02
  2.928855e-01    1.916239e+00   5.116792e-02
  2.950959e-01    1.938506e+00   5.122793e-02
  2.973064e-01    1.947428e+00   5.111492e-02
  2.995168e-01    2.005023e+00   5.163038e-02
  3.017273e-01    1.914990e+00   5.023541e-02
  3.039377e-01    1.852259e+00   4.918941e-02
  3.061482e-01    1.870121e+00   4.921220e-02
  3.083587e-01    1.905902e+00   4.946571e-02
  3.105691e-01    1.931293e+00   4.958144e-02
  3.127796e-01    1.940618e+00   4.949204e-02
  3.149900e-01    1.869806e+00   4.837829e-02
  3.172005e-01    1.846268e+00   4.787623e-02
  3.194109e-01    1.853790e+00   4.777563e-02
  3.216214e-01    1.882744e+00   4.795081e-02
  3.238319e-01    1.837596e+00   4.718473e-02
  3.260423e-01    1.762538e+00   4.602696e-02
  3.282528e-01    1.822280e+00   4.661418e-02
  3.304632e-01    1.885194e+00   4.722837e-02
  3.326737e-01    1.840330e+00   4.648095e-02
  3.348841e-01    1.813226e+00   4.595847e-02
  3.370946e-01    1.845104e+00   4.618629e-02
  3.393050e-01    1.802979e+00   4.548306e-02
  3.415155e-01    1.798939e+00   4.526127e-02
  3.437260e-01    1.731483e+00   4.423997e-02
  3.459364e-01    1.775401e+00   4.463179e-02
  3.481469e-01    1.806849e+00   4.486101e-02
  3.503573e-01    1.799598e+00   4.460781e-02
  3.525678e-01    1.809586e+00   4.457201e-02
  3.547782e-01    1.767261e+00   4.388847e-02
  3.569887e-01    1.795012e+00   4.407499e-02
  3.591992e-01    1.819765e+00   4.422083e-02
  3.614096e-01    1.813959e+00   4.399715e-02
  3.636201e-01    1.770664e+00   4.331617e-02
  3.658305e-01    1.760155e+00   4.304010e-02
  3.680410e-01    1.798994e+00   4.336271e-02
  3.702514e-01    1.783950e+00   4.303582e-02
  3.724619e-01    1.781633e+00   4.286140e-02
  3.746724e-01    1.737629e+00   4.218754e-02
  3.768828e-01    1.796546e+00   4.275246e-02
  3.790933e-01    1.782862e+00   4.245055e-02
  3.813037e-01    1.789512e+00   4.239050e-02
  3.835142e-01    1.757561e+00   4.187239e-02
  3.857246e-01    1.728684e+00   4.139258e-02
  3.879351e-01    1.752983e+00   4.154757e-02
  3.901455e-01    1.759133e+00   4.148787e-02
  3.923560e-01    1.746506e+00   4.120732e-02
  3.945665e-01    1.758958e+00   4.122282e-02
  3.967769e-01    1.747742e+00   4.096249e-02
  3.989874e-01    1.743356e+00   4.078331e-02
  4.011978e-01    1.751392e+00   4.075150e-02
  4.034083e-01    1.791911e+00   4.109366e-02
  4.056187e-01    1.788575e+00   4.092892e-02
  4.078292e-01    1.817480e+00   4.113346e-02
  4.100397e-01    1.719975e+00   3.989272e-02
  4.122501e-01    1.737433e+00   3.997469e-02
  4.144606e-01    1.773114e+00   4.026333e-02
  4.166710e-01    1.764202e+00   4.004260e-02
  4.188815e-01    1.766082e+00   3.994558e-02
  4.210919e-01    1.759371e+00   3.975277e-02
  4.233024e-01    1.713695e+00   3.911796e-02
  4.255128e-01    1.739461e+00   3.929701e-02
  4.277233e-01    1.741099e+00   3.920255e-02
  4.299338e-01    1.731336e+00   3.898000e-02
  4.321442e-01    1.747241e+00   3.904657e-02
  4.343547e-01    1.770425e+00   3.919365e-02
  4.365651e-01    1.758407e+00   3.894941e-02
  4.387756e-01    1.751101e+00   3.875957e-02
  4.409860e-01    1.719728e+00   3.830437e-02
  4.431965e-01    1.738842e+00   3.841017e-02
  4.454070e-01    1.761455e+00   3.855154e-02
  4.476174e-01    1.710974e+00   3.789079e-02
  4.498279e-01    1.704548e+00   3.771668e-02
  4.520383e-01    1.673934e+00   3.727387e-02
  4.542488e-01    1.716973e+00   3.764820e-02
  4.564592e-01    1.707809e+00   3.744688e-02
  4.586697e-01    1.691282e+00   3.716634e-02
  4.608801e-01    1.669440e+00   3.682666e-02
  4.630906e-01    1.683513e+00   3.688361e-02
  4.653011e-01    1.715634e+00   3.713593e-02
  4.675115e-01    1.678376e+00   3.663372e-02
  4.697220e-01    1.678828e+00   3.654274e-02
  4.719324e-01    1.738843e+00   3.709396e-02
  4.741429e-01    1.732389e+00   3.692967e-02
  4.763533e-01    1.699408e+00   3.648268e-02
  4.785638e-01    1.661763e+00   3.598315e-02
  4.807743e-01    1.684837e+00   3.613995e-02
  4.829847e-01    1.693831e+00   3.614474e-02
  4.851952e-01    1.687580e+00   3.598671e-02
  4.874056e-01    1.683621e+00   3.585381e-02
  4.896161e-01    1.688948e+00   3.582146e-02
  4.918265e-01    1.662760e+00   3.545437e-02
  4.940370e-01    1.715982e+00   3.592841e-02
  4.962475e-01    1.701271e+00   3.568573e-02
  4.984579e-01    1.648505e+00   3.504138e-02
  5.006684e-01    1.645791e+00   3.492716e-02
  5.028788e-01    1.665538e+00   3.505093e-02
  5.050893e-01    1.684851e+00   3.516782e-02
  5.072997e-01    1.648804e+00   3.470557e-02
  5.095102e-01    1.653397e+00   3.467062e-02
  5.117206e-01    1.635194e+00   3.439727e-02
  5.139311e-01    1.645782e+00   3.442678e-02
  5.161416e-01    1.644649e+00   3.433360e-02
  5.183520e-01    1.624270e+00   3.403914e-02
  5.205625e-01    1.620775e+00   3.392284e-02
  5.227729e-01    1.614453e+00   3.377765e-02
  5.249834e-01    1.592631e+00   3.347072e-02
  5.271938e-01    1.641459e+00   3.390062e-02
  5.294043e-01    1.716039e+00   3.458223e-02
  5.316148e-01    1.725133e+00   3.459433e-02
  5.338252e-01    1.735038e+00   3.461422e-02
  5.360357e-01    1.709951e+00   3.428482e-02
  5.382461e-01    1.738081e+00   3.448754e-02
  5.404566e-01    1.726344e+00   3.429269e-02
  5.426670e-01    1.673944e+00   3.369214e-02
  5.448775e-01    1.718272e+00   3.405907e-02
  5.470879e-01    1.717362e+00   3.397412e-02
  5.492984e-01    1.726089e+00   3.398458e-02
  5.515089e-01    1.804591e+00   3.467173e-02
  5.537193e-01    1.750602e+00   3.407393e-02
  5.559298e-01    1.742776e+00   3.392309e-02
  5.581402e-01    1.725876e+00   3.368446e-02
  5.603507e-01    1.744101e+00   3.378813e-02
  5.625611e-01    1.820340e+00   3.444380e-02
  5.647716e-01    1.834316e+00   3.450074e-02
  5.669821e-01    1.727503e+00   3.340898e-02
  5.691925e-01    1.714250e+00   3.320913e-02
  5.714030e-01    1.712237e+00   3.311887e-02
  5.736134e-01    1.696579e+00   3.289697e-02
  5.758239e-01    1.732532e+00   3.317276e-02
  5.780343e-01    1.669104e+00   3.249100e-02
  5.802448e-01    1.662709e+00   3.236080e-02
  5.824552e-01    1.633089e+00   3.200399e-02
  5.846657e-01    1.642744e+00   3.203154e-02
  5.868762e-01    1.617440e+00   3.171770e-02
  5.890866e-01    1.631047e+00   3.178476e-02
  5.912971e-01    1.649991e+00   3.190262e-02
  5.935075e-01    1.617025e+00   3.151705e-02
  5.957180e-01    1.617590e+00   3.145787e-02
  5.979284e-01    1.597156e+00   3.119474e-02
  6.001389e-01    1.620337e+00   3.135632e-02
  6.023494e-01    1.605197e+00   3.114612e-02
  6.045598e-01    1.629226e+00   3.131448e-02
  6.067703e-01    1.669714e+00   3.163744e-02
  6.089807e-01    1.643190e+00   3.132206e-02
  6.111912e-01    1.631245e+00   3.114569e-02
  6.134016e-01    1.604419e+00   3.082692e-02
  6.156121e-01    1.642816e+00   3.113160e-02
  6.178226e-01    1.707597e+00   3.167663e-02
  6.200330e-01    1.667385e+00   3.123970e-02
  6.222435e-01    1.687761e+00   3.136773e-02
  6.244539e-01    1.706597e+00   3.148053e-02
  6.266644e-01    1.634753e+00   3.075069e-02
  6.288748e-01    1.630935e+00   3.065494e-02
  6.310853e-01    1.644817e+00   3.072537e-02
  6.332957e-01    1.665262e+00   3.085604e-02
  6.355062e-01    1.679583e+00   3.092825e-02
  6.377167e-01    1.669773e+00   3.077862e-02
  6.399271e-01    1.670267e+00   3.072420e-02
  6.421376e-01    1.665709e+00   3.062367e-02
  6.443480e-01    1.660929e+00   3.052153e-02
  6.465585e-01    1.661047e+00   3.046479e-02
  6.487689e-01    1.665246e+00   3.044569e-02
  6.509794e-01    1.641467e+00   3.017050e-02
  6.531899e-01    1.592599e+00   2.966215e-02
  6.554003e-01    1.582854e+00   2.951564e-02
  6.576108e-01    1.622636e+00   2.982861e-02
  6.598212e-01    1.574977e+00   2.933270e-02
  6.620317e-01    1.580995e+00   2.933421e-02
  6.642421e-01    1.578851e+00   2.926005e-02
  6.664526e-01    1.629646e+00   2.967225e-02
  6.686630e-01    1.604546e+00   2.938842e-02
  6.708735e-01    1.597223e+00   2.926750e-02
  6.730840e-01    1.567154e+00   2.893785e-02
  6.752944e-01    1.547373e+00   2.870235e-02
  6.775049e-01    1.560947e+00   2.877559e-02
  6.797153e-01    1.595918e+00   2.904349e-02
  6.819258e-01    1.551238e+00   2.858240e-02
  6.841362e-01    1.577965e+00   2.877573e-02
  6.863467e-01    1.604613e+00   2.896573e-02
  6.885572e-01    1.540312e+00   2.832858e-02
  6.907676e-01    1.540210e+00   2.827687e-02
  6.929781e-01    1.559636e+00   2.840406e-02
  6.951885e-01    1.561190e+00   2.836788e-02
  6.973990e-01    1.574777e+00   2.844067e-02
  6.996094e-01    1.583853e+00   2.847233e-02
  7.018199e-01    1.574230e+00   2.833589e-02
  7.040303e-01    1.565780e+00   2.821010e-02
  7.062408e-01    1.569228e+00   2.819167e-02
  7.084513e-01    1.562854e+00   2.808541e-02
  7.106617e-01    1.605146e+00   2.841343e-02
  7.128722e-01    1.551037e+00   2.788212e-02
  7.150826e-01    1.531731e+00   2.766027e-02
  7.172931e-01    1.544020e+00   2.772313e-02
  7.195035e-01    1.566842e+00   2.787925e-02
  7.217140e-01    1.567228e+00   2.793203e-02
  7.239245e-01    1.563981e+00   2.812903e-02
  7.261349e-01    1.595806e+00   2.852315e-02
  7.283454e-01    1.545932e+00   2.814563e-02
  7.305558e-01    1.537041e+00   2.811791e-02
  7.327663e-01    1.525506e+00   2.805404e-02
  7.349767e-01    1.521627e+00   2.803444e-02
  7.371872e-01    1.527956e+00   2.808166e-02
  7.393976e-01    1.554554e+00   2.831085e-02
  7.416081e-01    1.562982e+00   2.837139e-02
  7.438186e-01    1.550667e+00   2.811619e-02
  7.460290e-01    1.574837e+00   2.804020e-02
  7.482395e-01    1.539666e+00   2.755605e-02
  7.504499e-01    1.530656e+00   2.734097e-02
  7.526604e-01    1.520869e+00   2.713885e-02
  7.548708e-01    1.554317e+00   2.734683e-02
  7.570813e-01    1.519761e+00   2.699105e-02
  7.592918e-01    1.552283e+00   2.724339e-02
  7.615022e-01    1.530857e+00   2.702139e-02
  7.637127e-01    1.544539e+00   2.710941e-02
  7.659231e-01    1.546656e+00   2.709628e-02
  7.681336e-01    1.563197e+00   2.720927e-02
  7.703440e-01    1.605858e+00   2.754655e-02
  7.725545e-01    1.589352e+00   2.737358e-02
  7.747650e-01    1.638754e+00   2.775678e-02
  7.769754e-01    1.659268e+00   2.787589e-02
  7.791859e-01    1.696983e+00   2.813539e-02
  7.813963e-01    1.732453e+00   2.837284e-02
  7.836068e-01    1.701030e+00   2.806048e-02
  7.858172e-01    1.668750e+00   2.774100e-02
  7.880277e-01    1.693851e+00   2.789567e-02
  7.902381e-01    1.644020e+00   2.743238e-02
  7.924486e-01    1.570070e+00   2.675864e-02
  7.946591e-01    1.620624e+00   2.713739e-02
  7.968695e-01    1.660954e+00   2.742386e-02
  7.990800e-01    1.602280e+00   2.688698e-02
  8.012904e-01    1.616446e+00   2.695885e-02
  8.035009e-01    1.613881e+00   2.688952e-02
  8.057113e-01    1.648441e+00   2.712890e-02
  8.079218e-01    1.662669e+00   2.719873e-02
  8.101323e-01    1.612958e+00   2.674356e-02
  8.123427e-01    1.628638e+00   2.682740e-02
  8.145532e-01    1.661979e+00   2.705425e-02
  8.167636e-01    1.675740e+00   2.712035e-02
  8.189741e-01    1.657734e+00   2.692928e-02
  8.211845e-01    1.644515e+00   2.677674e-02
  8.233950e-01    1.631988e+00   2.663118e-02
  8.256054e-01    1.665925e+00   2.686206e-02
  8.278159e-01    1.674395e+00   2.688582e-02
  8.300264e-01    1.643898e+00   2.659667e-02
  8.322368e-01    1.647239e+00   2.658046e-02
  8.344473e-01    1.636716e+00   2.645208e-02
  8.366577e-01    1.582854e+00   2.597134e-02
  8.388682e-01    1.601492e+00   2.608203e-02
  8.410786e-01    1.582821e+00   2.588822e-02
  8.432891e-01    1.595586e+00   2.595111e-02
  8.454996e-01    1.596290e+00   2.591576e-02
  8.477100e-01    1.597023e+00   2.588055e-02
  8.499205e-01    1.636371e+00   2.615632e-02
  8.521309e-01    1.604020e+00   2.585610e-02
  8.543414e-01    1.595662e+00   2.574840e-02
  8.565518e-01    1.614623e+00   2.586060e-02
  8.587623e-01    1.644402e+00   2.605736e-02
  8.609727e-01    1.638593e+00   2.597098e-02
  8.631832e-01    1.620460e+00   2.578703e-02
  8.653937e-01    1.587861e+00   2.548713e-02
  8.676041e-01    1.570614e+00   2.531007e-02
  8.698146e-01    1.556008e+00   2.515361e-02
  8.720250e-01    1.547587e+00   2.504721e-02
  8.742355e-01    1.576115e+00   2.523854e-02
  8.764459e-01    1.628571e+00   2.561596e-02
  8.786564e-01    1.598814e+00   2.534303e-02
  8.808669e-01    1.560445e+00   2.499913e-02
  8.830773e-01    1.569898e+00   2.503697e-02
  8.852878e-01    1.583786e+00   2.510978e-02
  8.874982e-01    1.596717e+00   2.517548e-02
  8.897087e-01    1.604296e+00   2.519745e-02
  8.919191e-01    1.571534e+00   2.490142e-02
  8.941296e-01    1.597945e+00   2.507253e-02
  8.963401e-01    1.583883e+00   2.492573e-02
  8.985505e-01    1.563673e+00   2.472965e-02
  9.007610e-01    1.567635e+00   2.472461e-02
  9.029714e-01    1.562335e+00   2.464734e-02
  9.051819e-01    1.603128e+00   2.492980e-02
  9.073923e-01    1.592761e+00   2.481255e-02
  9.096028e-01    1.662779e+00   2.531649e-02
  9.118132e-01    1.628133e+00   2.501483e-02
  9.140237e-01    1.651323e+00   2.515511e-02
  9.162342e-01    1.608863e+00   2.479498e-02
  9.184446e-01    1.617899e+00   2.482853e-02
  9.206551e-01    1.603880e+00   2.468511e-02
  9.228655e-01    1.596447e+00   2.459262e-02
  9.250760e-01    1.625081e+00   2.477658e-02
  9.272864e-01    1.622533e+00   2.472270e-02
  9.294969e-01    1.592865e+00   2.445992e-02
  9.317074e-01    1.590744e+00   2.440909e-02
  9.339178e-01    1.581432e+00   2.430429e-02
  9.361283e-01    1.587883e+00   2.431791e-02
  9.383387e-01    1.618874e+00   2.452067e-02
  9.405492e-01    1.607672e+00   2.440157e-02
  9.427596e-01    1.652541e+00   2.470411e-02
  9.449701e-01    1.659580e+00   2.472307e-02
  9.471805e-01    1.646639e+00   2.459157e-02
  9.493910e-01    1.671502e+00   2.474254e-02
  9.516015e-01    1.684027e+00   2.480041e-02
  9.538119e-01    1.664737e+00   2.462415e-02
  9.560224e-01    1.739436e+00   2.513511e-02
  9.582328e-01    1.718792e+00   2.495203e-02
  9.604433e-01    1.708664e+00   2.484314e-02
  9.626537e-01    1.752416e+00   2.512539e-02
  9.648642e-01    1.738055e+00   2.498795e-02
  9.670747e-01    1.748901e+00   2.503122e-02
  9.692851e-01    1.767787e+00   2.513257e-02
  9.714956e-01    1.813601e+00   2.542025e-02
  9.737060e-01    1.802762e+00   2.531091e-02
  9.759165e-01    1.795297e+00   2.522280e-02
  9.781269e-01    1.883819e+00   2.580336e-02
  9.803374e-01    1.921776e+00   2.602599e-02
  9.825478e-01    1.870077e+00   2.563968e-02
  9.847583e-01    1.873254e+00   2.562657e-02
  9.869688e-01    1.897845e+00   2.575972e-02
  9.891792e-01    1.916808e+00   2.585367e-02
  9.913897e-01    1.912321e+00   2.578856e-02
  9.936001e-01    1.873361e+00   2.549111e-02
  9.958106e-01    1.778949e+00   2.480672e-02
  9.980210e-01    1.737352e+00   2.448312e-02
  1.000231e+00    1.723875e+00   2.452159e-02
  1.002442e+00    1.716893e+00   2.460191e-02
  1.004652e+00    1.694313e+00   2.450778e-02
  1.006863e+00    1.637462e+00   2.414310e-02
  1.009073e+00    1.623304e+00   2.407528e-02
  1.011284e+00    1.583170e+00   2.380761e-02
  1.013494e+00    1.573143e+00   2.375561e-02
  1.015705e+00    1.560593e+00   2.368304e-02
  1.017915e+00    1.558221e+00   2.368134e-02
  1.020126e+00    1.517231e+00   2.338357e-02
  1.022336e+00    1.540960e+00   2.357734e-02
  1.024547e+00    1.526746e+00   2.347947e-02
  1.026757e+00    1.485654e+00   2.316955e-02
  1.028967e+00    1.498600e+00   2.327782e-02
  1.031178e+00    1.524563e+00   2.348476e-02
  1.033388e+00    1.524921e+00   2.349256e-02
  1.035599e+00    1.506831e+00   2.335620e-02
  1.037809e+00    1.510358e+00   2.338677e-02
  1.040020e+00    1.489503e+00   2.322600e-02
  1.042230e+00    1.467682e+00   2.305715e-02
  1.044441e+00    1.487034e+00   2.320844e-02
  1.046651e+00    1.463168e+00   2.302161e-02
  1.048862e+00    1.507211e+00   2.336472e-02
  1.051072e+00    1.530235e+00   2.354015e-02
  1.053282e+00    1.548694e+00   2.368072e-02
  1.055493e+00    1.529683e+00   2.353059e-02
  1.057703e+00    1.509995e+00   2.337715e-02
  1.059914e+00    1.453134e+00   2.292858e-02
  1.062124e+00    1.438769e+00   2.281096e-02
  1.064335e+00    1.447376e+00   2.287568e-02
  1.066545e+00    1.474867e+00   2.308594e-02
  1.068756e+00    1.443952e+00   2.283903e-02
  1.070966e+00    1.437603e+00   2.278229e-02
  1.073177e+00    1.433790e+00   2.274610e-02
  1.075387e+00    1.426109e+00   2.267993e-02
  1.077597e+00    1.398613e+00   2.245317e-02
  1.079808e+00    1.412258e+00   2.243203e-02
  1.082018e+00    1.419324e+00   2.230186e-02
  1.084229e+00    1.412442e+00   2.213950e-02
  1.086439e+00    1.414303e+00   2.206788e-02
  1.088650e+00    1.445651e+00   2.223566e-02
  1.090860e+00    1.438225e+00   2.211124e-02
  1.093071e+00    1.413533e+00   2.185922e-02
  1.095281e+00    1.439403e+00   2.200123e-02
  1.097492e+00    1.415748e+00   2.176535e-02
  1.099702e+00    1.404011e+00   2.162418e-02
  1.101912e+00    1.419532e+00   2.169489e-02
  1.104123e+00    1.411334e+00   2.158433e-02
  1.106333e+00    1.411536e+00   2.154180e-02
  1.108544e+00    1.402862e+00   2.143168e-02
  1.110754e+00    1.418948e+00   2.151128e-02
  1.112965e+00    1.417347e+00   2.145869e-02
  1.115175e+00    1.389869e+00   2.120892e-02
  1.117386e+00    1.381612e+00   2.110702e-02
  1.119596e+00    1.385025e+00   2.109557e-02
  1.121807e+00    1.363750e+00   2.089475e-02
  1.124017e+00    1.360935e+00   2.083712e-02
  1.126228e+00    1.381057e+00   2.095515e-02
  1.128438e+00    1.388607e+00   2.097574e-02
  1.130648e+00    1.403227e+00   2.105152e-02
  1.132859e+00    1.379847e+00   2.084125e-02
  1.135069e+00    1.359679e+00   2.065407e-02
  1.137280e+00    1.348393e+00   2.053566e-02
  1.139490e+00    1.350754e+00   2.052101e-02
  1.141701e+00    1.372025e+00   2.064898e-02
  1.143911e+00    1.351860e+00   2.046520e-02
  1.146122e+00    1.342194e+00   2.036033e-02
  1.148332e+00    1.353076e+00   2.041113e-02
  1.150543e+00    1.339934e+00   2.028136e-02
  1.152753e+00    1.346960e+00   2.030394e-02
  1.154963e+00    1.356032e+00   2.034136e-02
  1.157174e+00    1.350182e+00   2.026753e-02
  1.159384e+00    1.356954e+00   2.028861e-02
  1.161595e+00    1.364486e+00   2.031505e-02
  1.163805e+00    1.349411e+00   2.017348e-02
  1.166016e+00    1.351680e+00   2.016116e-02
  1.168226e+00    1.370221e+00   2.026997e-02
  1.170437e+00    1.376954e+00   2.029097e-02
  1.172647e+00    1.375493e+00   2.025122e-02
  1.174858e+00    1.372425e+00   2.020043e-02
  1.177068e+00    1.366409e+00   2.012782e-02
  1.179278e+00    1.349451e+00   1.997408e-02
  1.181489e+00    1.385173e+00   2.020946e-02
  1.183699e+00    1.366374e+00   2.004421e-02
  1.185910e+00    1.372678e+00   2.006246e-02
  1.188120e+00    1.409810e+00   2.030480e-02
  1.190331e+00    1.396060e+00   2.017839e-02
  1.192541e+00    1.372255e+00   1.997807e-02
  1.194752e+00    1.361350e+00   1.987137e-02
  1.196962e+00    1.392197e+00   2.006913e-02
  1.199173e+00    1.391916e+00   2.004019e-02
  1.201383e+00    1.385262e+00   1.996474e-02
  1.203593e+00    1.332741e+00   1.955795e-02
  1.205804e+00    1.328064e+00   1.949788e-02
  1.208014e+00    1.353438e+00   1.965638e-02
  1.210225e+00    1.315520e+00   1.935408e-02
  1.212435e+00    1.325640e+00   1.940380e-02
  1.214646e+00    1.334370e+00   1.944164e-02
  1.216856e+00    1.346263e+00   1.950265e-02
  1.219067e+00    1.345496e+00   1.947266e-02
  1.221277e+00    1.376287e+00   1.966895e-02
  1.223488e+00    1.343818e+00   1.940987e-02
  1.225698e+00    1.344795e+00   1.939007e-02
  1.227909e+00    1.315140e+00   1.914531e-02
  1.230119e+00    1.317716e+00   1.913258e-02
  1.232329e+00    1.331963e+00   1.920522e-02
  1.234540e+00    1.351391e+00   1.931446e-02
  1.236750e+00    1.363768e+00   1.937230e-02
  1.238961e+00    1.372604e+00   1.940776e-02
  1.241171e+00    1.379727e+00   1.943360e-02
  1.243382e+00    1.369378e+00   1.933691e-02
  1.245592e+00    1.356100e+00   1.921878e-02
  1.247803e+00    1.356493e+00   1.919785e-02
  1.250013e+00    1.363928e+00   1.922671e-02
  1.252224e+00    1.378171e+00   1.930336e-02
  1.254434e+00    1.385865e+00   1.933310e-02
  1.256644e+00    1.430975e+00   1.962133e-02
  1.258855e+00    1.439409e+00   1.965509e-02
  1.261065e+00    1.392241e+00   1.930661e-02
  1.263276e+00    1.381673e+00   1.920998e-02
  1.265486e+00    1.381969e+00   1.918890e-02
  1.267697e+00    1.383915e+00   1.917908e-02
  1.269907e+00    1.420004e+00   1.940425e-02
  1.272118e+00    1.486491e+00   1.982965e-02
  1.274328e+00    1.478218e+00   1.975063e-02
  1.276539e+00    1.423608e+00   1.935897e-02
  1.278749e+00    1.384321e+00   1.906740e-02
  1.280959e+00    1.355102e+00   1.884252e-02
  1.283170e+00    1.381722e+00   1.900400e-02
  1.285380e+00    1.358053e+00   1.881801e-02
  1.287591e+00    1.381212e+00   1.895550e-02
  1.289801e+00    1.392641e+00   1.901221e-02
  1.292012e+00    1.361024e+00   1.877800e-02
  1.294222e+00    1.355387e+00   1.872279e-02
  1.296433e+00    1.349717e+00   1.866799e-02
  1.298643e+00    1.376879e+00   1.883826e-02
  1.300854e+00    1.374164e+00   1.880312e-02
  1.303064e+00    1.386547e+00   1.886816e-02
  1.305274e+00    1.384122e+00   1.882995e-02
  1.307485e+00    1.389736e+00   1.884623e-02
  1.309695e+00    1.387759e+00   1.881029e-02
  1.311906e+00    1.367252e+00   1.864894e-02
  1.314116e+00    1.381703e+00   1.872619e-02
  1.316327e+00    1.408128e+00   1.888225e-02
  1.318537e+00    1.418663e+00   1.893035e-02
  1.320748e+00    1.374087e+00   1.860881e-02
  1.322958e+00    1.388512e+00   1.868540e-02
  1.325169e+00    1.425698e+00   1.891237e-02
  1.327379e+00    1.389190e+00   1.864654e-02
  1.329589e+00    1.361130e+00   1.843611e-02
  1.331800e+00    1.372845e+00   1.849439e-02
  1.334010e+00    1.382674e+00   1.853959e-02
  1.336221e+00    1.382829e+00   1.851860e-02
  1.338431e+00    1.388715e+00   1.853683e-02
  1.340642e+00    1.347567e+00   1.832423e-02
  1.342852e+00    1.377730e+00   1.862986e-02
  1.345063e+00    1.384264e+00   1.872412e-02
  1.347273e+00    1.355480e+00   1.856373e-02
  1.349484e+00    1.377116e+00   1.873924e-02
  1.351694e+00    1.420098e+00   1.905272e-02
  1.353905e+00    1.402233e+00   1.895087e-02
  1.356115e+00    1.393690e+00   1.890831e-02
  1.358325e+00    1.379071e+00   1.882237e-02
  1.360536e+00    1.430122e+00   1.917950e-02
  1.362746e+00    1.505092e+00   1.968594e-02
  1.364957e+00    1.462844e+00   1.941567e-02
  1.367167e+00    1.421624e+00   1.914752e-02
  1.369378e+00    1.397034e+00   1.898732e-02
  1.371588e+00    1.381854e+00   1.888908e-02
  1.373799e+00    1.377337e+00   1.886192e-02
  1.376009e+00    1.356477e+00   1.872194e-02
  1.378220e+00    1.349017e+00   1.867294e-02
  1.380430e+00    1.360487e+00   1.875488e-02
  1.382640e+00    1.320393e+00   1.847738e-02
  1.384851e+00    1.310500e+00   1.840889e-02
  1.387061e+00    1.310382e+00   1.840835e-02
  1.389272e+00    1.313209e+00   1.842842e-02
  1.391482e+00    1.289676e+00   1.826187e-02
  1.393693e+00    1.279686e+00   1.819014e-02
  1.395903e+00    1.291726e+00   1.827400e-02
  1.398114e+00    1.273987e+00   1.814673e-02
  1.400324e+00    1.272322e+00   1.813274e-02
  1.402535e+00    1.260196e+00   1.804382e-02
  1.404745e+00    1.277077e+00   1.816190e-02
  1.406955e+00    1.278004e+00   1.816580e-02
  1.409166e+00    1.277959e+00   1.816215e-02
  1.411376e+00    1.281678e+00   1.818544e-02
  1.413587e+00    1.275374e+00   1.813685e-02
  1.415797e+00    1.241434e+00   1.789039e-02
  1.418008e+00    1.274817e+00   1.808738e-02
  1.420218e+00    1.284475e+00   1.800518e-02
  1.422429e+00    1.287565e+00   1.794094e-02
  1.424639e+00    1.275136e+00   1.778931e-02
  1.426850e+00    1.266852e+00   1.767681e-02
  1.429060e+00    1.285220e+00   1.775520e-02
  1.431270e+00    1.283144e+00   1.769632e-02
  1.433481e+00    1.280357e+00   1.763597e-02
  1.435691e+00    1.264182e+00   1.748590e-02
  1.437902e+00    1.252368e+00   1.736778e-02
  1.440112e+00    1.250408e+00   1.731910e-02
  1.442323e+00    1.257942e+00   1.733831e-02
  1.444533e+00    1.277226e+00   1.743807e-02
  1.446744e+00    1.251412e+00   1.723005e-02
  1.448954e+00    1.262012e+00   1.727275e-02
  1.451165e+00    1.288906e+00   1.742586e-02
  1.453375e+00    1.265455e+00   1.723862e-02
  1.455586e+00    1.262632e+00   1.719128e-02
  1.457796e+00    1.270107e+00   1.721460e-02
  1.460006e+00    1.274352e+00   1.721603e-02
  1.462217e+00    1.258302e+00   1.708119e-02
  1.464427e+00    1.232642e+00   1.688089e-02
  1.466638e+00    1.252107e+00   1.698849e-02
  1.468848e+00    1.276654e+00   1.712880e-02
  1.471059e+00    1.254591e+00   1.695522e-02
  1.473269e+00    1.235019e+00   1.679838e-02
  1.475480e+00    1.248241e+00   1.686448e-02
  1.477690e+00    1.259896e+00   1.691929e-02
  1.479901e+00    1.268307e+00   1.695181e-02
  1.482111e+00    1.255587e+00   1.684340e-02
  1.484321e+00    1.240474e+00   1.671883e-02
  1.486532e+00    1.253710e+00   1.678558e-02
  1.488742e+00    1.243920e+00   1.669747e-02
  1.490953e+00    1.248854e+00   1.670805e-02
  1.493163e+00    1.263507e+00   1.678353e-02
  1.495374e+00    1.252371e+00   1.668799e-02
  1.497584e+00    1.269821e+00   1.678214e-02
  1.499795e+00    1.249715e+00   1.662719e-02
  1.502005e+00    1.258945e+00   1.666679e-02
  1.504216e+00    1.249979e+00   1.658640e-02
  1.506426e+00    1.249897e+00   1.656508e-02
  1.508636e+00    1.259168e+00   1.660597e-02
  1.510847e+00    1.269105e+00   1.664941e-02
  1.513057e+00    1.271194e+00   1.663789e-02
  1.515268e+00    1.271698e+00   1.661529e-02
  1.517478e+00    1.246166e+00   1.642259e-02
  1.519689e+00    1.242190e+00   1.637151e-02
  1.521899e+00    1.256964e+00   1.644546e-02
  1.524110e+00    1.267710e+00   1.649514e-02
  1.526320e+00    1.273054e+00   1.651013e-02
  1.528531e+00    1.247723e+00   1.632532e-02
  1.530741e+00    1.242448e+00   1.627166e-02
  1.532951e+00    1.279385e+00   1.649195e-02
  1.535162e+00    1.280955e+00   1.658976e-02
  1.537372e+00    1.267573e+00   1.657027e-02
  1.539583e+00    1.265511e+00   1.659125e-02
  1.541793e+00    1.244637e+00   1.646081e-02
  1.544004e+00    1.199572e+00   1.616030e-02
  1.546214e+00    1.206798e+00   1.620742e-02
  1.548425e+00    1.214960e+00   1.626239e-02
  1.550635e+00    1.239747e+00   1.643708e-02
  1.552846e+00    1.246622e+00   1.649228e-02
  1.555056e+00    1.227484e+00   1.632401e-02
  1.557266e+00    1.215439e+00   1.613455e-02
  1.559477e+00    1.227715e+00   1.615710e-02
  1.561687e+00    1.228733e+00   1.613333e-02
  1.563898e+00    1.262943e+00   1.633908e-02
  1.566108e+00    1.236622e+00   1.615203e-02
  1.568319e+00    1.239363e+00   1.615434e-02
  1.570529e+00    1.248841e+00   1.619080e-02
  1.572740e+00    1.246241e+00   1.614631e-02
  1.574950e+00    1.254552e+00   1.617363e-02
  1.577161e+00    1.252714e+00   1.613622e-02
  1.579371e+00    1.251233e+00   1.610296e-02
  1.581582e+00    1.230695e+00   1.595059e-02
  1.583792e+00    1.218488e+00   1.585346e-02
  1.586002e+00    1.212996e+00   1.580029e-02
  1.588213e+00    1.239282e+00   1.595337e-02
  1.590423e+00    1.232959e+00   1.589263e-02
  1.592634e+00    1.224617e+00   1.581733e-02
  1.594844e+00    1.226786e+00   1.581006e-02
  1.597055e+00    1.238248e+00   1.586329e-02
  1.599265e+00    1.305655e+00   1.626807e-02
  1.601476e+00    1.328960e+00   1.639165e-02
  1.603686e+00    1.252465e+00   1.589305e-02
  1.605897e+00    1.246297e+00   1.583362e-02
  1.608107e+00    1.263037e+00   1.591985e-02
  1.610317e+00    1.276864e+00   1.598713e-02
  1.612528e+00    1.350049e+00   1.641884e-02
  1.614738e+00    1.357955e+00   1.644700e-02
  1.616949e+00    1.318928e+00   1.618924e-02
  1.619159e+00    1.299195e+00   1.604837e-02
  1.621370e+00    1.309060e+00   1.609006e-02
  1.623580e+00    1.282805e+00   1.590906e-02
  1.625791e+00    1.246314e+00   1.566259e-02
  1.628001e+00    1.239747e+00   1.560274e-02
  1.630212e+00    1.238567e+00   1.557722e-02
  1.632422e+00    1.208836e+00   1.537107e-02
  1.634632e+00    1.212748e+00   1.537837e-02
  1.636843e+00    1.225728e+00   1.544256e-02
  1.639053e+00    1.177383e+00   1.511765e-02
  1.641264e+00    1.154511e+00   1.495310e-02
  1.643474e+00    1.155150e+00   1.493989e-02
  1.645685e+00    1.145195e+00   1.485881e-02
  1.647895e+00    1.140887e+00   1.481435e-02
  1.650106e+00    1.130379e+00   1.472913e-02
  1.652316e+00    1.127125e+00   1.469156e-02
  1.654527e+00    1.133474e+00   1.471629e-02
  1.656737e+00    1.140825e+00   1.474732e-02
  1.658947e+00    1.145697e+00   1.476243e-02
  1.661158e+00    1.108354e+00   1.450372e-02
  1.663368e+00    1.093843e+00   1.439263e-02
  1.665579e+00    1.095692e+00   1.438882e-02
  1.667789e+00    1.091150e+00   1.434291e-02
  1.670000e+00    1.081967e+00   1.426715e-02
  1.672210e+00    1.096465e+00   1.434663e-02
  1.674421e+00    1.099077e+00   1.434843e-02
  1.676631e+00    1.081628e+00   1.421835e-02
  1.678842e+00    1.066076e+00   1.410022e-02
  1.681052e+00    1.065635e+00   1.408212e-02
  1.683263e+00    1.076886e+00   1.414121e-02
  1.685473e+00    1.078609e+00   1.413743e-02
  1.687683e+00    1.062111e+00   1.401362e-02
  1.689894e+00    1.054074e+00   1.394491e-02
  1.692104e+00    1.098441e+00   1.422030e-02
  1.694315e+00    1.087419e+00   1.413417e-02
  1.696525e+00    1.078465e+00   1.406065e-02
  1.698736e+00    1.073791e+00   1.401526e-02
  1.700946e+00    1.058884e+00   1.390253e-02
  1.703157e+00    1.023596e+00   1.365448e-02
  1.705367e+00    1.039091e+00   1.374303e-02
  1.707578e+00    1.046796e+00   1.377936e-02
  1.709788e+00    1.021029e+00   1.359476e-02
  1.711998e+00    1.026001e+00   1.361291e-02
  1.714209e+00    1.017344e+00   1.354109e-02
  1.716419e+00    1.018142e+00   1.353223e-02
  1.718630e+00    1.029581e+00   1.359379e-02
  1.720840e+00    1.015182e+00   1.348431e-02
  1.723051e+00    1.009136e+00   1.343033e-02
  1.725261e+00    1.008257e+00   1.340991e-02
  1.727472e+00    9.943236e-01   1.330291e-02
  1.729682e+00    9.948910e-01   1.329338e-02
  1.731893e+00    9.900676e-01   1.324737e-02
  1.734103e+00    9.751959e-01   1.313393e-02
  1.736313e+00    9.727665e-01   1.310379e-02
  1.738524e+00    9.485447e-01   1.292616e-02
  1.740734e+00    9.767029e-01   1.310307e-02
  1.742945e+00    9.654360e-01   1.301404e-02
  1.745155e+00    9.650677e-01   1.299829e-02
  1.747366e+00    9.634079e-01   1.297348e-02
  1.749576e+00    9.571587e-01   1.291786e-02
  1.751787e+00    9.508142e-01   1.286186e-02
  1.753997e+00    9.444417e-01   1.280554e-02
  1.756208e+00    9.356557e-01   1.273291e-02
  1.758418e+00    9.272875e-01   1.266303e-02
  1.760628e+00    9.292253e-01   1.266319e-02
  1.762839e+00    9.364292e-01   1.269913e-02
  1.765049e+00    9.485120e-01   1.276781e-02
  1.767260e+00    9.550272e-01   1.279877e-02
  1.769470e+00    9.670705e-01   1.286619e-02
  1.771681e+00    9.205431e-01   1.253995e-02
  1.773891e+00    9.080019e-01   1.244145e-02
  1.776102e+00    9.124973e-01   1.245959e-02
  1.778312e+00    8.982701e-01   1.234966e-02
  1.780523e+00    9.092774e-01   1.241256e-02
  1.782733e+00    9.166135e-01   1.245004e-02
  1.784944e+00    8.939825e-01   1.228276e-02
  1.787154e+00    9.074517e-01   1.236259e-02
  1.789364e+00    9.062914e-01   1.234236e-02
  1.791575e+00    8.996297e-01   1.228457e-02
  1.793785e+00    9.063740e-01   1.231823e-02
  1.795996e+00    8.864542e-01   1.216986e-02
  1.798206e+00    8.688605e-01   1.203629e-02
  1.800417e+00    8.897008e-01   1.216730e-02
  1.802627e+00    9.412581e-01   1.250271e-02
  1.804838e+00    1.074532e+00   1.334543e-02
  1.807048e+00    1.049686e+00   1.317653e-02
  1.809259e+00    9.086507e-01   1.224579e-02
  1.811469e+00    8.812981e-01   1.204526e-02
  1.813679e+00    9.030127e-01   1.217776e-02
  1.815890e+00    9.046891e-01   1.217428e-02
  1.818100e+00    9.079583e-01   1.218104e-02
  1.820311e+00    9.320613e-01   1.232657e-02
  1.822521e+00    9.207244e-01   1.223631e-02
  1.824732e+00    8.884399e-01   1.200505e-02
  1.826942e+00    8.703456e-01   1.186996e-02
  1.829153e+00    9.086546e-01   1.211650e-02
  1.831363e+00    9.517580e-01   1.238808e-02
  1.833574e+00    9.683442e-01   1.248334e-02
  1.835784e+00    9.460523e-01   1.232696e-02
  1.837994e+00    9.359959e-01   1.224917e-02
  1.840205e+00    9.132662e-01   1.208811e-02
  1.842415e+00    9.164065e-01   1.209682e-02
  1.844626e+00    8.800557e-01   1.184285e-02
  1.846836e+00    8.667443e-01   1.174152e-02
  1.849047e+00    8.781106e-01   1.180655e-02
  1.851257e+00    8.631987e-01   1.169633e-02
  1.853468e+00    8.406097e-01   1.153356e-02
  1.855678e+00    8.602729e-01   1.165880e-02
  1.857889e+00    8.682734e-01   1.170434e-02
  1.860099e+00    8.523927e-01   1.158822e-02
  1.862309e+00    8.423864e-01   1.151155e-02
  1.864520e+00    8.531814e-01   1.157652e-02
  1.866730e+00    8.368581e-01   1.145595e-02
  1.868941e+00    8.414127e-01   1.147621e-02
  1.871151e+00    8.567391e-01   1.156882e-02
  1.873362e+00    8.422709e-01   1.145946e-02
  1.875572e+00    8.239739e-01   1.132351e-02
  1.877783e+00    8.313347e-01   1.136268e-02
  1.879993e+00    8.272943e-01   1.132399e-02
  1.882204e+00    8.475994e-01   1.145119e-02
  1.884414e+00    8.523771e-01   1.147231e-02
  1.886624e+00    8.427790e-01   1.139647e-02
  1.888835e+00    8.246982e-01   1.126271e-02
  1.891045e+00    8.192279e-01   1.121452e-02
  1.893256e+00    8.355697e-01   1.131476e-02
  1.895466e+00    8.368710e-01   1.131240e-02
  1.897677e+00    8.242210e-01   1.121573e-02
  1.899887e+00    8.273263e-01   1.122590e-02
  1.902098e+00    8.293097e-01   1.122853e-02
  1.904308e+00    8.145570e-01   1.111773e-02
  1.906519e+00    8.120458e-01   1.108984e-02
  1.908729e+00    8.359333e-01   1.124112e-02
  1.910940e+00    8.419703e-01   1.127043e-02
  1.913150e+00    8.227336e-01   1.113037e-02
  1.915360e+00    8.267319e-01   1.114675e-02
  1.917571e+00    7.942157e-01   1.091466e-02
  1.919781e+00    7.852347e-01   1.084232e-02
  1.921992e+00    8.133817e-01   1.102435e-02
  1.924202e+00    8.171909e-01   1.103938e-02
  1.926413e+00    8.234528e-01   1.107125e-02
  1.928623e+00    8.103138e-01   1.097205e-02
  1.930834e+00    7.977438e-01   1.087629e-02
  1.933044e+00    8.117487e-01   1.096066e-02
  1.935255e+00    8.088558e-01   1.093081e-02
  1.937465e+00    8.046046e-01   1.089167e-02
  1.939675e+00    8.043995e-01   1.087944e-02
  1.941886e+00    7.998148e-01   1.083815e-02
  1.944096e+00    7.936764e-01   1.078636e-02
  1.946307e+00    7.967157e-01   1.079668e-02
  1.948517e+00    7.962092e-01   1.078284e-02
  1.950728e+00    7.871264e-01   1.071098e-02
  1.952938e+00    8.041888e-01   1.081632e-02
  1.955149e+00    7.786764e-01   1.063325e-02
  1.957359e+00    7.764323e-01   1.060800e-02
  1.959570e+00    7.823021e-01   1.063723e-02
  1.961780e+00    7.829156e-01   1.063155e-02
  1.963990e+00    7.872152e-01   1.065061e-02
  1.966201e+00    7.857447e-01   1.063064e-02
  1.968411e+00    7.787081e-01   1.057284e-02
  1.970622e+00    8.042094e-01   1.073437e-02
  1.972832e+00    7.950615e-01   1.066314e-02
  1.975043e+00    7.866048e-01   1.059622e-02
  1.977253e+00    7.874491e-01   1.059195e-02
  1.979464e+00    7.782500e-01   1.051989e-02
  1.981674e+00    7.845119e-01   1.055185e-02
  1.983885e+00    7.808442e-01   1.051716e-02
  1.986095e+00    7.842875e-01   1.053057e-02
  1.988305e+00    7.822052e-01   1.050668e-02
  1.990516e+00    7.973343e-01   1.059775e-02
  1.992726e+00    7.879059e-01   1.052521e-02
  1.994937e+00    7.712973e-01   1.040357e-02
  1.997147e+00    7.924234e-01   1.053525e-02
  1.999358e+00    7.706388e-01   1.037962e-02
  2.001568e+00    7.647104e-01   1.032885e-02
  2.003779e+00    7.762539e-01   1.039458e-02
  2.005989e+00    7.635916e-01   1.029750e-02
  2.008200e+00    7.718667e-01   1.034159e-02
  2.010410e+00    7.646683e-01   1.028156e-02
  2.012621e+00    7.549030e-01   1.020409e-02
  2.014831e+00    7.644185e-01   1.025674e-02
  2.017041e+00    7.792478e-01   1.034530e-02
  2.019252e+00    7.621586e-01   1.022130e-02
  2.021462e+00    7.603006e-01   1.019935e-02
  2.023673e+00    7.469477e-01   1.010011e-02
  2.025883e+00    7.409392e-01   1.005003e-02
  2.028094e+00    7.494661e-01   1.009811e-02
  2.030304e+00    7.645090e-01   1.018941e-02
  2.032515e+00    7.611057e-01   1.015741e-02
  2.034725e+00    7.589241e-01   1.013339e-02
  2.036936e+00    7.507970e-01   1.006970e-02
  2.039146e+00    7.621841e-01   1.013617e-02
  2.041356e+00    7.536617e-01   1.006972e-02
  2.043567e+00    7.534648e-01   1.005910e-02
  2.045777e+00    7.527068e-01   1.004482e-02
  2.047988e+00    7.563947e-01   1.006002e-02
  2.050198e+00    7.571182e-01   1.005637e-02
  2.052409e+00    7.599034e-01   1.006717e-02
  2.054619e+00    7.552596e-01   1.002896e-02
  2.056830e+00    7.563062e-01   1.002871e-02
  2.059040e+00    7.438184e-01   9.938106e-03
  2.061251e+00    7.463787e-01   9.947942e-03
  2.063461e+00    7.486815e-01   9.955700e-03
  2.065671e+00    7.328215e-01   9.841062e-03
  2.067882e+00    7.238265e-01   9.771609e-03
  2.070092e+00    7.578772e-01   9.989552e-03
  2.072303e+00    7.471938e-01   9.909769e-03
  2.074513e+00    7.339068e-01   9.811995e-03
  2.076724e+00    7.473696e-01   9.892113e-03
  2.078934e+00    7.314959e-01   9.777563e-03
  2.081145e+00    7.318804e-01   9.771115e-03
  2.083355e+00    7.240705e-01   9.709772e-03
  2.085566e+00    7.367257e-01   9.785378e-03
  2.087776e+00    7.312310e-01   9.739373e-03
  2.089986e+00    7.309253e-01   9.728591e-03
  2.092197e+00    7.211288e-01   9.654321e-03
  2.094407e+00    7.386078e-01   9.761375e-03
  2.096618e+00    7.247931e-01   9.660825e-03
  2.098828e+00    7.277800e-01   9.671453e-03
  2.101039e+00    7.169986e-01   9.590669e-03
  2.103249e+00    7.056220e-01   9.505745e-03
  2.105460e+00    7.096890e-01   9.524222e-03
  2.107670e+00    7.117369e-01   9.529315e-03
  2.109881e+00    7.034276e-01   9.464520e-03
  2.112091e+00    7.029527e-01   9.452473e-03
  2.114301e+00    7.028303e-01   9.443006e-03
  2.116512e+00    7.041185e-01   9.442973e-03
  2.118722e+00    7.036892e-01   9.431389e-03
  2.120933e+00    6.888493e-01   9.322744e-03
  2.123143e+00    7.034661e-01   9.412309e-03
  2.125354e+00    7.147713e-01   9.479151e-03
  2.127564e+00    7.060477e-01   9.412434e-03
  2.129775e+00    7.140796e-01   9.457127e-03
  2.131985e+00    7.010539e-01   9.361506e-03
  2.134196e+00    6.820611e-01   9.225410e-03
  2.136406e+00    6.854366e-01   9.239640e-03
  2.138617e+00    6.933778e-01   9.284643e-03
  2.140827e+00    6.984661e-01   9.334601e-03
  2.143037e+00    6.981245e-01   9.377499e-03
  2.145248e+00    7.004873e-01   9.415275e-03
  2.147458e+00    6.933993e-01   9.382551e-03
  2.149669e+00    7.047543e-01   9.470903e-03
  2.151879e+00    6.944200e-01   9.410410e-03
  2.154090e+00    7.009936e-01   9.462131e-03
  2.156300e+00    7.214391e-01   9.605845e-03
  2.158511e+00    6.898000e-01   9.398132e-03
  2.160721e+00    6.814008e-01   9.345480e-03
  2.162932e+00    6.852136e-01   9.375292e-03
  2.165142e+00    6.981907e-01   9.466676e-03
  2.167352e+00    6.885318e-01   9.403877e-03
  2.169563e+00    6.744754e-01   9.309309e-03
  2.171773e+00    6.916496e-01   9.429523e-03
  2.173984e+00    6.977561e-01   9.472476e-03
  2.176194e+00    6.816651e-01   9.363820e-03
  2.178405e+00    6.820487e-01   9.367125e-03
  2.180615e+00    6.835266e-01   9.377966e-03
  2.182826e+00    6.728802e-01   9.305307e-03
  2.185036e+00    6.861863e-01   9.396906e-03
  2.187247e+00    6.848752e-01   9.387876e-03
  2.189457e+00    6.956469e-01   9.461009e-03
  2.191667e+00    6.832058e-01   9.375854e-03
  2.193878e+00    6.942341e-01   9.450646e-03
  2.196088e+00    6.932636e-01   9.443358e-03
  2.198299e+00    7.010314e-01   9.495007e-03
  2.200509e+00    6.924210e-01   9.435471e-03
  2.202720e+00    6.766502e-01   9.326230e-03
  2.204930e+00    6.918957e-01   9.429459e-03
  2.207141e+00    6.779219e-01   9.332659e-03
  2.209351e+00    6.693311e-01   9.271453e-03
  2.211562e+00    6.935015e-01   9.435724e-03
  2.213772e+00    6.844857e-01   9.318422e-03
  2.215982e+00    6.744165e-01   9.205454e-03
  2.218193e+00    6.599849e-01   9.077151e-03
  2.220403e+00    6.558320e-01   9.024301e-03
  2.222614e+00    6.709937e-01   9.107106e-03
  2.224824e+00    6.721991e-01   9.095916e-03
  2.227035e+00    6.768987e-01   9.110178e-03
  2.229245e+00    6.757951e-01   9.085710e-03
  2.231456e+00    6.828312e-01   9.117149e-03
  2.233666e+00    6.952006e-01   9.183986e-03
  2.235877e+00    6.902744e-01   9.136908e-03
  2.238087e+00    6.957114e-01   9.159111e-03
  2.240298e+00    6.661324e-01   8.948545e-03
  2.242508e+00    6.679201e-01   8.945415e-03
  2.244718e+00    6.600155e-01   8.876644e-03
  2.246929e+00    6.603254e-01   8.864357e-03
  2.249139e+00    6.690827e-01   8.910573e-03
  2.251350e+00    6.401082e-01   8.704036e-03
  2.253560e+00    6.511787e-01   8.767522e-03
  2.255771e+00    6.734032e-01   8.904420e-03
  2.257981e+00    6.497819e-01   8.735823e-03
  2.260192e+00    6.529474e-01   8.746046e-03
  2.262402e+00    6.455958e-01   8.685972e-03
  2.264613e+00    6.753352e-01   8.872839e-03
  2.266823e+00    6.755428e-01   8.863728e-03
  2.269033e+00    6.531342e-01   8.705179e-03
  2.271244e+00    6.798089e-01   8.870590e-03
  2.273454e+00    7.530127e-01   9.325034e-03
  2.275665e+00    8.201582e-01   9.720497e-03
  2.277875e+00    7.938851e-01   9.552673e-03
  2.280086e+00    7.396460e-01   9.209961e-03
  2.282296e+00    6.649462e-01   8.723056e-03
  2.284507e+00    6.524433e-01   8.630549e-03
  2.286717e+00    6.643809e-01   8.699632e-03
  2.288928e+00    6.499929e-01   8.595115e-03
  2.291138e+00    6.492935e-01   8.581117e-03
  2.293348e+00    6.440829e-01   8.537151e-03
  2.295559e+00    6.409032e-01   8.506856e-03
  2.297769e+00    6.404362e-01   8.494582e-03
  2.299980e+00    6.552392e-01   8.582878e-03
  2.302190e+00    6.462479e-01   8.514685e-03
  2.304401e+00    6.550999e-01   8.563472e-03
  2.306611e+00    6.411463e-01   8.462667e-03
  2.308822e+00    6.394539e-01   8.443164e-03
  2.311032e+00    6.622006e-01   8.585510e-03
  2.313243e+00    6.428002e-01   8.452605e-03
  2.315453e+00    6.243730e-01   8.323112e-03
  2.317663e+00    6.357651e-01   8.389672e-03
  2.319874e+00    6.332214e-01   8.364218e-03
  2.322084e+00    6.426687e-01   8.417446e-03
  2.324295e+00    6.410242e-01   8.398469e-03
  2.326505e+00    6.388046e-01   8.374916e-03
  2.328716e+00    6.392548e-01   8.369328e-03
  2.330926e+00    6.381554e-01   8.353378e-03
  2.333137e+00    6.459186e-01   8.395623e-03
  2.335347e+00    6.561434e-01   8.452850e-03
  2.337558e+00    6.293229e-01   8.270137e-03
  2.339768e+00    6.376600e-01   8.316165e-03
  2.341979e+00    6.352590e-01   8.292156e-03
  2.344189e+00    6.302219e-01   8.250874e-03
  2.346399e+00    6.272812e-01   8.223154e-03
  2.348610e+00    6.356249e-01   8.269216e-03
  2.350820e+00    6.189055e-01   8.151646e-03
  2.353031e+00    6.420870e-01   8.294575e-03
  2.355241e+00    6.381802e-01   8.261227e-03
  2.357452e+00    6.230108e-01   8.154088e-03
  2.359662e+00    6.232521e-01   8.147506e-03
  2.361873e+00    6.109563e-01   8.058620e-03
  2.364083e+00    6.263661e-01   8.151643e-03
  2.366294e+00    6.297152e-01   8.165292e-03
  2.368504e+00    6.301401e-01   8.159951e-03
  2.370714e+00    6.254947e-01   8.121760e-03
  2.372925e+00    6.152951e-01   8.047298e-03
  2.375135e+00    6.038517e-01   7.964165e-03
  2.377346e+00    6.177898e-01   8.047657e-03
  2.379556e+00    6.230173e-01   8.073721e-03
  2.381767e+00    6.204005e-01   8.048912e-03
  2.383977e+00    6.238677e-01   8.063411e-03
  2.386188e+00    6.229651e-01   8.049634e-03
  2.388398e+00    6.084095e-01   7.947158e-03
  2.390609e+00    6.075021e-01   7.933547e-03
  2.392819e+00    6.129231e-01   7.961129e-03
  2.395029e+00    5.879249e-01   7.789617e-03
  2.397240e+00    5.864848e-01   7.772346e-03
  2.399450e+00    6.022403e-01   7.868339e-03
  2.401661e+00    5.947036e-01   7.811382e-03
  2.403871e+00    6.020433e-01   7.851731e-03
  2.406082e+00    5.989603e-01   7.824233e-03
  2.408292e+00    5.915040e-01   7.767720e-03
  2.410503e+00    6.037273e-01   7.840074e-03
  2.412713e+00    6.035597e-01   7.831246e-03
  2.414924e+00    6.020416e-01   7.813917e-03
  2.417134e+00    6.000745e-01   7.793532e-03
  2.419344e+00    6.051939e-01   7.819285e-03
  2.421555e+00    6.003763e-01   7.780626e-03
  2.423765e+00    5.824434e-01   7.656226e-03
  2.425976e+00    5.773221e-01   7.614842e-03
  2.428186e+00    5.986151e-01   7.746764e-03
  2.430397e+00    5.879501e-01   7.670045e-03
  2.432607e+00    5.788244e-01   7.603101e-03
  2.434818e+00    5.865456e-01   7.646168e-03
  2.437028e+00    5.889274e-01   7.654544e-03
  2.439239e+00    5.918378e-01   7.665801e-03
  2.441449e+00    5.859599e-01   7.620484e-03
  2.443659e+00    5.742993e-01   7.537038e-03
  2.445870e+00    5.639796e-01   7.480972e-03
  2.448080e+00    5.706619e-01   7.559616e-03
  2.450291e+00    5.709955e-01   7.578327e-03
  2.452501e+00    5.663693e-01   7.558641e-03
  2.454712e+00    5.745957e-01   7.621768e-03
  2.456922e+00    5.717209e-01   7.609317e-03
  2.459133e+00    5.711122e-01   7.610698e-03
  2.461343e+00    5.668451e-01   7.586574e-03
  2.463554e+00    5.662166e-01   7.585844e-03
  2.465764e+00    5.635076e-01   7.570814e-03
  2.467975e+00    5.612849e-01   7.558149e-03
  2.470185e+00    5.519413e-01   7.497231e-03
  2.472395e+00    5.486342e-01   7.475937e-03
  2.474606e+00    5.368022e-01   7.396427e-03
  2.476816e+00    5.516574e-01   7.498792e-03
  2.479027e+00    5.519444e-01   7.501618e-03
  2.481237e+00    5.418081e-01   7.432669e-03
  2.483448e+00    5.403901e-01   7.423259e-03
  2.485658e+00    5.373532e-01   7.402201e-03
  2.487869e+00    5.426094e-01   7.438394e-03
  2.490079e+00    5.310205e-01   7.357971e-03
  2.492290e+00    5.452551e-01   7.455532e-03
  2.494500e+00    5.348414e-01   7.383257e-03
  2.496710e+00    5.422392e-01   7.433442e-03
  2.498921e+00    5.372646e-01   7.398269e-03
  2.501131e+00    5.369606e-01   7.395232e-03
  2.503342e+00    5.232759e-01   7.299141e-03
  2.505552e+00    5.210034e-01   7.282142e-03
  2.507763e+00    5.198901e-01   7.272953e-03
  2.509973e+00    5.337915e-01   7.368146e-03
  2.512184e+00    5.249665e-01   7.305399e-03
  2.514394e+00    5.150073e-01   7.226490e-03
  2.516605e+00    5.109963e-01   7.151939e-03
  2.518815e+00    5.064794e-01   7.092469e-03
  2.521025e+00    5.162008e-01   7.139413e-03
  2.523236e+00    5.169697e-01   7.126924e-03
  2.525446e+00    5.083195e-01   7.051682e-03
  2.527657e+00    5.067717e-01   7.026599e-03
  2.529867e+00    5.135536e-01   7.059427e-03
  2.532078e+00    5.148177e-01   7.053229e-03
  2.534288e+00    5.117869e-01   7.018723e-03
  2.536499e+00    5.135641e-01   7.019076e-03
  2.538709e+00    5.232684e-01   7.074107e-03
  2.540920e+00    5.216128e-01   7.052288e-03
  2.543130e+00    5.064692e-01   6.938987e-03
  2.545340e+00    5.024624e-01   6.901604e-03
  2.547551e+00    5.148848e-01   6.976533e-03
  2.549761e+00    5.235605e-01   7.025479e-03
  2.551972e+00    5.094087e-01   6.920646e-03
  2.554182e+00    5.063709e-01   6.890931e-03
  2.556393e+00    5.085039e-01   6.896426e-03
  2.558603e+00    5.304326e-01   7.034405e-03
  2.560814e+00    5.101581e-01   6.890055e-03
  2.563024e+00    5.219428e-01   6.960566e-03
  2.565235e+00    5.124996e-01   6.887861e-03
  2.567445e+00    5.123647e-01   6.877488e-03
  2.569656e+00    5.099090e-01   6.851278e-03
  2.571866e+00    5.160013e-01   6.882776e-03
  2.574076e+00    5.032542e-01   6.788085e-03
  2.576287e+00    4.954031e-01   6.726757e-03
  2.578497e+00    4.974752e-01   6.733104e-03
  2.580708e+00    5.176609e-01   6.860244e-03
  2.582918e+00    5.084574e-01   6.791293e-03
  2.585129e+00    5.071571e-01   6.774882e-03
  2.587339e+00    5.057359e-01   6.757800e-03
  2.589550e+00    4.896511e-01   6.642059e-03
  2.591760e+00    5.029315e-01   6.723878e-03
  2.593971e+00    5.031087e-01   6.717589e-03
  2.596181e+00    5.078783e-01   6.743161e-03
  2.598391e+00    4.912368e-01   6.626681e-03
  2.600602e+00    4.918989e-01   6.625322e-03
  2.602812e+00    5.086821e-01   6.729869e-03
  2.605023e+00    5.115710e-01   6.741778e-03
  2.607233e+00    4.894194e-01   6.587193e-03
  2.609444e+00    4.935102e-01   6.607517e-03
  2.611654e+00    5.030044e-01   6.663486e-03
  2.613865e+00    5.067329e-01   6.681107e-03
  2.616075e+00    4.976630e-01   6.613955e-03
  2.618286e+00    5.093228e-01   6.683968e-03
  2.620496e+00    4.976160e-01   6.600059e-03
  2.622706e+00    4.976291e-01   6.594446e-03
  2.624917e+00    4.937421e-01   6.562863e-03
  2.627127e+00    4.933428e-01   6.554514e-03
  2.629338e+00    4.830340e-01   6.479825e-03
  2.631548e+00    4.997699e-01   6.584967e-03
  2.633759e+00    4.968705e-01   6.558747e-03
  2.635969e+00    4.913736e-01   6.515739e-03
  2.638180e+00    4.936288e-01   6.523745e-03
  2.640390e+00    4.937389e-01   6.517923e-03
  2.642601e+00    4.870318e-01   6.466934e-03
  2.644811e+00    4.786237e-01   6.403931e-03
  2.647021e+00    4.997312e-01   6.537060e-03
  2.649232e+00    4.881581e-01   6.454286e-03
  2.651442e+00    4.845906e-01   6.424249e-03
  2.653653e+00    4.838901e-01   6.412919e-03
  2.655863e+00    4.830827e-01   6.400976e-03
  2.658074e+00    4.817281e-01   6.385502e-03
  2.660284e+00    4.933441e-01   6.455682e-03
  2.662495e+00    5.021127e-01   6.506037e-03
  2.664705e+00    4.955298e-01   6.456682e-03
  2.666916e+00    5.032280e-01   6.500132e-03
  2.669126e+00    4.986728e-01   6.464173e-03
  2.671337e+00    5.037320e-01   6.490244e-03
  2.673547e+00    4.953187e-01   6.429445e-03
  2.675757e+00    4.892077e-01   6.383238e-03
  2.677968e+00    4.898134e-01   6.380692e-03
  2.680178e+00    4.924606e-01   6.391528e-03
  2.682389e+00    4.888937e-01   6.361969e-03
  2.684599e+00    4.767691e-01   6.276492e-03
  2.686810e+00    4.879441e-01   6.343058e-03
  2.689020e+00    4.800664e-01   6.285420e-03
  2.691231e+00    4.904989e-01   6.347057e-03
  2.693441e+00    4.840329e-01   6.298997e-03
  2.695652e+00    4.812940e-01   6.274684e-03
  2.697862e+00    4.842136e-01   6.287371e-03
  2.700072e+00    4.862604e-01   6.294608e-03
  2.702283e+00    4.757834e-01   6.220281e-03
  2.704493e+00    4.842600e-01   6.269187e-03
  2.706704e+00    4.834887e-01   6.257832e-03
  2.708914e+00    4.718769e-01   6.176368e-03
  2.711125e+00    4.754070e-01   6.193242e-03
  2.713335e+00    4.723917e-01   6.167589e-03
  2.715546e+00    4.672300e-01   6.127463e-03
  2.717756e+00    4.828899e-01   6.223434e-03
  2.719967e+00    4.663552e-01   6.109891e-03
  2.722177e+00    4.628826e-01   6.081108e-03
  2.724387e+00    4.735755e-01   6.144897e-03
  2.726598e+00    4.871685e-01   6.226419e-03
  2.728808e+00    4.812993e-01   6.182669e-03
  2.731019e+00    4.711032e-01   6.110793e-03
  2.733229e+00    4.796771e-01   6.160364e-03
  2.735440e+00    4.685723e-01   6.082486e-03
  2.737650e+00    4.657905e-01   6.058476e-03
  2.739861e+00    4.858948e-01   6.181779e-03
  2.742071e+00    4.629419e-01   6.028370e-03
  2.744282e+00    4.773898e-01   6.115496e-03
  2.746492e+00    4.834029e-01   6.147863e-03
  2.748702e+00    4.836374e-01   6.143434e-03
  2.750913e+00    4.763794e-01   6.091400e-03
  2.753123e+00    4.780166e-01   6.095781e-03
  2.755334e+00    4.677863e-01   6.024180e-03
  2.757544e+00    4.790125e-01   6.090319e-03
  2.759755e+00    4.855258e-01   6.125663e-03
  2.761965e+00    4.840550e-01   6.110399e-03
  2.764176e+00    4.623703e-01   5.966072e-03
  2.766386e+00    4.731648e-01   6.029545e-03
  2.768597e+00    4.845726e-01   6.095922e-03
  2.770807e+00    4.866125e-01   6.102818e-03
  2.773017e+00    4.820628e-01   6.068228e-03
  2.775228e+00    4.746351e-01   6.015541e-03
  2.777438e+00    4.674745e-01   5.964251e-03
  2.779649e+00    4.652587e-01   5.944286e-03
  2.781859e+00    4.654981e-01   5.940123e-03
  2.784070e+00    4.704451e-01   5.965775e-03
  2.786280e+00    4.784307e-01   6.010436e-03
  2.788491e+00    4.741117e-01   5.977417e-03
  2.790701e+00    4.737713e-01   5.969650e-03
  2.792912e+00    4.684273e-01   5.929970e-03
  2.795122e+00    4.659345e-01   5.908497e-03
  2.797333e+00    4.606748e-01   5.869578e-03
  2.799543e+00    4.655313e-01   5.894630e-03
  2.801753e+00    4.714301e-01   5.926038e-03
  2.803964e+00    4.659312e-01   5.885757e-03
  2.806174e+00    4.798404e-01   5.966791e-03
  2.808385e+00    4.677522e-01   5.884426e-03
  2.810595e+00    4.699789e-01   5.891559e-03
  2.812806e+00    4.666218e-01   5.863945e-03
  2.815016e+00    4.585479e-01   5.808316e-03
  2.817227e+00    4.634641e-01   5.865003e-03
  2.819437e+00    4.662813e-01   5.893798e-03
  2.821648e+00    4.742984e-01   5.946539e-03
  2.823858e+00    4.704790e-01   5.927875e-03
  2.826068e+00    4.680166e-01   5.917296e-03
  2.828279e+00    4.694640e-01   5.930465e-03
  2.830489e+00    4.549398e-01   5.841292e-03
  2.832700e+00    4.513912e-01   5.820945e-03
  2.834910e+00    4.595129e-01   5.875124e-03
  2.837121e+00    4.717315e-01   5.954427e-03
  2.839331e+00    4.715591e-01   5.954580e-03
  2.841542e+00    4.549169e-01   5.849570e-03
  2.843752e+00    4.684429e-01   5.936646e-03
  2.845963e+00    4.779456e-01   5.996995e-03
  2.848173e+00    4.538488e-01   5.843939e-03
  2.850383e+00    4.609777e-01   5.889942e-03
  2.852594e+00    4.505126e-01   5.822627e-03
  2.854804e+00    4.620744e-01   5.896353e-03
  2.857015e+00    4.746822e-01   5.975826e-03
  2.859225e+00    4.644227e-01   5.910660e-03
  2.861436e+00    4.653567e-01   5.915929e-03
  2.863646e+00    4.590089e-01   5.875486e-03
  2.865857e+00    4.566546e-01   5.860737e-03
  2.868067e+00    4.635859e-01   5.905256e-03
  2.870278e+00    4.566453e-01   5.860563e-03
  2.872488e+00    4.529999e-01   5.835948e-03
  2.874698e+00    4.527186e-01   5.833126e-03
  2.876909e+00    4.486035e-01   5.805225e-03
  2.879119e+00    4.499541e-01   5.812373e-03
  2.881330e+00    4.459849e-01   5.785230e-03
  2.883540e+00    4.575664e-01   5.858478e-03
  2.885751e+00    4.617657e-01   5.883666e-03
  2.887961e+00    4.634782e-01   5.892674e-03
  2.890172e+00    4.580728e-01   5.856622e-03
  2.892382e+00    4.602762e-01   5.868873e-03
  2.894593e+00    4.515804e-01   5.811395e-03
  2.896803e+00    4.498054e-01   5.797980e-03
  2.899014e+00    4.532124e-01   5.818007e-03
  2.901224e+00    4.578570e-01   5.845753e-03
  2.903434e+00    4.623061e-01   5.872146e-03
  2.905645e+00    4.619389e-01   5.867587e-03
  2.907855e+00    4.494758e-01   5.785809e-03
  2.910066e+00    4.472953e-01   5.769708e-03
  2.912276e+00    4.530953e-01   5.804881e-03
  2.914487e+00    4.593582e-01   5.842411e-03
  2.916697e+00    4.538924e-01   5.805334e-03
  2.918908e+00    4.605187e-01   5.845552e-03
  2.921118e+00    4.512035e-01   5.783450e-03
  2.923329e+00    4.556767e-01   5.809730e-03
  2.925539e+00    4.550388e-01   5.803400e-03
  2.927749e+00    4.515203e-01   5.778616e-03
  2.929960e+00    4.504400e-01   5.768938e-03
  2.932170e+00    4.658312e-01   5.864321e-03
  2.934381e+00    4.690430e-01   5.882038e-03
  2.936591e+00    4.573128e-01   5.805433e-03
  2.938802e+00    4.629408e-01   5.838329e-03
  2.941012e+00    4.641288e-01   5.843443e-03
  2.943223e+00    4.594508e-01   5.811225e-03
  2.945433e+00    4.566748e-01   5.789904e-03
  2.947644e+00    4.544676e-01   5.771752e-03
  2.949854e+00    4.422303e-01   5.689322e-03
  2.952064e+00    4.510636e-01   5.741634e-03
  2.954275e+00    4.611483e-01   5.801048e-03
  2.956485e+00    4.450070e-01   5.694469e-03
  2.958696e+00    4.479548e-01   5.708957e-03
  2.960906e+00    4.431104e-01   5.673892e-03
  2.963117e+00    4.438157e-01   5.673946e-03
  2.965327e+00    4.599105e-01   5.771996e-03
  2.967538e+00    4.621965e-01   5.783390e-03
  2.969748e+00    4.478508e-01   5.690140e-03
  2.971959e+00    4.433772e-01   5.658544e-03
  2.974169e+00    4.512206e-01   5.705795e-03
  2.976379e+00    4.618697e-01   5.769803e-03
  2.978590e+00    4.635772e-01   5.777283e-03
  2.980800e+00    4.423835e-01   5.640917e-03
  2.983011e+00    4.607535e-01   5.754017e-03
  2.985221e+00    4.612220e-01   5.753773e-03
  2.987432e+00    4.497943e-01   5.678948e-03
  2.989642e+00    4.533093e-01   5.698480e-03
  2.991853e+00    4.440303e-01   5.636597e-03
  2.994063e+00    4.478474e-01   5.657893e-03
  2.996274e+00    4.582452e-01   5.719992e-03
  2.998484e+00    4.495513e-01   5.662804e-03
  3.000694e+00    4.425247e-01   5.614946e-03
  3.002905e+00    4.421158e-01   5.609449e-03
  3.005115e+00    4.506050e-01   5.660079e-03
  3.007326e+00    4.581321e-01   5.703984e-03
  3.009536e+00    4.586097e-01   5.703685e-03
  3.011747e+00    4.478634e-01   5.633588e-03
  3.013957e+00    4.379275e-01   5.567587e-03
  3.016168e+00    4.514200e-01   5.649473e-03
  3.018378e+00    4.504196e-01   5.640168e-03
  3.020589e+00    4.410515e-01   5.578035e-03
  3.022799e+00    4.434743e-01   5.590214e-03
  3.025010e+00    4.452533e-01   5.598183e-03
  3.027220e+00    4.543405e-01   5.651919e-03
  3.029430e+00    4.535429e-01   5.643705e-03
  3.031641e+00    4.577024e-01   5.666365e-03
  3.033851e+00    4.437471e-01   5.575830e-03
  3.036062e+00    4.528145e-01   5.629725e-03
  3.038272e+00    4.561073e-01   5.646552e-03
  3.040483e+00    4.504246e-01   5.608060e-03
  3.042693e+00    4.546498e-01   5.631024e-03
  3.044904e+00    4.555210e-01   5.632363e-03
  3.047114e+00    4.534379e-01   5.614669e-03
  3.049325e+00    4.494095e-01   5.585264e-03
  3.051535e+00    4.560722e-01   5.622112e-03
  3.053745e+00    4.458245e-01   5.553864e-03
  3.055956e+00    4.400575e-01   5.513305e-03
  3.058166e+00    4.327842e-01   5.463370e-03
  3.060377e+00    4.436797e-01   5.526976e-03
  3.062587e+00    4.480828e-01   5.549727e-03
  3.064798e+00    4.384662e-01   5.485646e-03
  3.067008e+00    4.322295e-01   5.441852e-03
  3.069219e+00    4.433186e-01   5.506729e-03
  3.071429e+00    4.480115e-01   5.532319e-03
  3.073640e+00    4.384586e-01   5.469708e-03
  3.075850e+00    4.439833e-01   5.500494e-03
  3.078060e+00    4.610360e-01   5.601996e-03
  3.080271e+00    4.476102e-01   5.516358e-03
  3.082481e+00    4.349453e-01   5.434372e-03
  3.084692e+00    4.401669e-01   5.463513e-03
  3.086902e+00    4.536898e-01   5.543580e-03
  3.089113e+00    4.361009e-01   5.431511e-03
  3.091323e+00    4.521597e-01   5.527240e-03
  3.093534e+00    4.454730e-01   5.482845e-03
  3.095744e+00    4.415385e-01   5.455221e-03
  3.097955e+00    4.503944e-01   5.506107e-03
  3.100165e+00    4.415282e-01   5.448319e-03
  3.102375e+00    4.365667e-01   5.414264e-03
  3.104586e+00    4.350961e-01   5.401672e-03
  3.106796e+00    4.444509e-01   5.455926e-03
  3.109007e+00    4.360408e-01   5.400881e-03
  3.111217e+00    4.375212e-01   5.406369e-03
  3.113428e+00    4.363119e-01   5.395545e-03
  3.115638e+00    4.354758e-01   5.387145e-03
  3.117849e+00    4.371130e-01   5.393593e-03
  3.120059e+00    4.460407e-01   5.444910e-03
  3.122270e+00    4.354815e-01   5.376864e-03
  3.124480e+00    4.433518e-01   5.421557e-03
  3.126691e+00    4.325140e-01   5.351364e-03
  3.128901e+00    4.292478e-01   5.328047e-03
  3.131111e+00    4.466105e-01   5.430870e-03
  3.133322e+00    4.516836e-01   5.458196e-03
  3.135532e+00    4.343840e-01   5.349259e-03
  3.137743e+00    4.359816e-01   5.355644e-03
  3.139953e+00    4.269003e-01   5.295970e-03
  3.142164e+00    4.248462e-01   5.294957e-03
  3.144374e+00    4.393979e-01   5.413189e-03
  3.146585e+00    4.470676e-01   5.474874e-03
  3.148795e+00    4.504756e-01   5.506573e-03
  3.151006e+00    4.449070e-01   5.481026e-03
  3.153216e+00    4.485661e-01   5.510700e-03
  3.155426e+00    4.306706e-01   5.405888e-03
  3.157637e+00    4.329608e-01   5.425706e-03
  3.159847e+00    4.420010e-01   5.486959e-03
  3.162058e+00    4.436515e-01   5.501647e-03
  3.164268e+00    4.440397e-01   5.508111e-03
  3.166479e+00    4.471973e-01   5.531365e-03
  3.168689e+00    4.364246e-01   5.467684e-03
  3.170900e+00    4.263178e-01   5.407121e-03
  3.173110e+00    4.348189e-01   5.463636e-03
  3.175321e+00    4.268739e-01   5.415945e-03
  3.177531e+00    4.337556e-01   5.462153e-03
  3.179741e+00    4.235809e-01   5.399747e-03
  3.181952e+00    4.276815e-01   5.427911e-03
  3.184162e+00    4.275483e-01   5.429226e-03
  3.186373e+00    4.228648e-01   5.400982e-03
  3.188583e+00    4.366840e-01   5.490314e-03
  3.190794e+00    4.261577e-01   5.425466e-03
  3.193004e+00    4.344702e-01   5.479360e-03
  3.195215e+00    4.399166e-01   5.515123e-03
  3.197425e+00    4.400045e-01   5.516873e-03
  3.199636e+00    4.330157e-01   5.472139e-03
  3.201846e+00    4.363454e-01   5.492518e-03
  3.204056e+00    4.235633e-01   5.412350e-03
  3.206267e+00    4.356075e-01   5.489610e-03
  3.208477e+00    4.306654e-01   5.459316e-03
  3.210688e+00    4.199115e-01   5.391543e-03
  3.212898e+00    4.344508e-01   5.484660e-03
  3.215109e+00    4.331137e-01   5.476983e-03
  3.217319e+00    4.309175e-01   5.463695e-03
  3.219530e+00    4.162901e-01   5.370580e-03
  3.221740e+00    4.269746e-01   5.439581e-03
  3.223951e+00    4.312074e-01   5.466972e-03
  3.226161e+00    4.260953e-01   5.434662e-03
  3.228372e+00    4.139733e-01   5.357312e-03
  3.230582e+00    4.136225e-01   5.355165e-03
  3.232792e+00    4.186594e-01   5.387911e-03
  3.235003e+00    4.225155e-01   5.412892e-03
  3.237213e+00    4.372255e-01   5.506434e-03
  3.239424e+00    4.216908e-01   5.407722e-03
  3.241634e+00    4.156908e-01   5.369237e-03
  3.243845e+00    4.268724e-01   5.441031e-03
  3.246055e+00    4.225365e-01   5.413057e-03
  3.248266e+00    4.283827e-01   5.450584e-03
  3.250476e+00    4.286334e-01   5.451881e-03
  3.252687e+00    4.173606e-01   5.379633e-03
  3.254897e+00    4.193573e-01   5.392352e-03
  3.257107e+00    4.108112e-01   5.336827e-03
  3.259318e+00    4.206673e-01   5.400233e-03
  3.261528e+00    4.158507e-01   5.369094e-03
  3.263739e+00    4.223556e-01   5.410355e-03
  3.265949e+00    4.161251e-01   5.370196e-03
  3.268160e+00    4.275178e-01   5.442779e-03
  3.270370e+00    4.213852e-01   5.403113e-03
  3.272581e+00    4.291604e-01   5.452431e-03
  3.274791e+00    4.224308e-01   5.409001e-03
  3.277002e+00    4.201463e-01   5.393805e-03
  3.279212e+00    4.181964e-01   5.380881e-03
  3.281422e+00    4.262594e-01   5.431931e-03
  3.283633e+00    4.299902e-01   5.454958e-03
  3.285843e+00    4.317353e-01   5.465696e-03
  3.288054e+00    4.262996e-01   5.430229e-03
  3.290264e+00    4.190878e-01   5.383792e-03
  3.292475e+00    4.209218e-01   5.394724e-03
  3.294685e+00    4.140233e-01   5.349712e-03
  3.296896e+00    4.150248e-01   5.355416e-03
  3.299106e+00    4.350017e-01   5.482235e-03
  3.301317e+00    4.274107e-01   5.433164e-03
  3.303527e+00    4.183631e-01   5.374897e-03
  3.305737e+00    4.240285e-01   5.410100e-03
  3.307948e+00    4.110058e-01   5.325732e-03
  3.310158e+00    4.181813e-01   5.371145e-03
  3.312369e+00    4.273087e-01   5.428591e-03
  3.314579e+00    4.173403e-01   5.363982e-03
  3.316790e+00    4.106308e-01   5.319998e-03
  3.319000e+00    4.228601e-01   5.397426e-03
  3.321211e+00    4.283945e-01   5.432050e-03
  3.323421e+00    4.210354e-01   5.383976e-03
  3.325632e+00    4.199301e-01   5.376024e-03
  3.327842e+00    4.137178e-01   5.335199e-03
  3.330052e+00    4.147563e-01   5.340829e-03
  3.332263e+00    4.280106e-01   5.424476e-03
  3.334473e+00    4.262562e-01   5.412433e-03
  3.336684e+00    4.124218e-01   5.322641e-03
  3.338894e+00    4.156346e-01   5.342466e-03
  3.341105e+00    4.217734e-01   5.380573e-03
  3.343315e+00    4.178033e-01   5.354063e-03
  3.345526e+00    4.113333e-01   5.311551e-03
  3.347736e+00    4.229280e-01   5.384478e-03
  3.349947e+00    4.208010e-01   5.369984e-03
  3.352157e+00    4.167678e-01   5.343040e-03
  3.354368e+00    4.178896e-01   5.348902e-03
  3.356578e+00    4.253984e-01   5.395727e-03
  3.358788e+00    4.215547e-01   5.369969e-03
  3.360999e+00    4.163226e-01   5.335295e-03
  3.363209e+00    4.040210e-01   5.254888e-03
  3.365420e+00    4.143888e-01   5.320361e-03
  3.367630e+00    4.204181e-01   5.357908e-03
  3.369841e+00    4.198402e-01   5.352807e-03
  3.372051e+00    4.093621e-01   5.283627e-03
  3.374262e+00    4.079743e-01   5.272239e-03
  3.376472e+00    3.996110e-01   5.215540e-03
  3.378683e+00    4.025191e-01   5.232000e-03
  3.380893e+00    4.148309e-01   5.309082e-03
  3.383103e+00    4.132146e-01   5.296040e-03
  3.385314e+00    4.122627e-01   5.287718e-03
  3.387524e+00    4.148628e-01   5.301624e-03
  3.389735e+00    4.090472e-01   5.261729e-03
  3.391945e+00    4.246571e-01   5.357445e-03
  3.394156e+00    4.082380e-01   5.248670e-03
  3.396366e+00    4.121548e-01   5.270394e-03
  3.398577e+00    4.003548e-01   5.191379e-03
  3.400787e+00    3.994233e-01   5.197090e-03
  3.402998e+00    3.827652e-01   5.124322e-03
  3.405208e+00    4.047760e-01   5.290242e-03
  3.407418e+00    3.970120e-01   5.254985e-03
  3.409629e+00    3.952727e-01   5.257306e-03
  3.411839e+00    3.834795e-01   5.189827e-03
  3.414050e+00    3.928272e-01   5.263636e-03
  3.416260e+00    3.875549e-01   5.237772e-03
  3.418471e+00    3.807063e-01   5.200513e-03
  3.420681e+00    3.788091e-01   5.195921e-03
  3.422892e+00    3.777843e-01   5.196712e-03
  3.425102e+00    3.751632e-01   5.186358e-03
  3.427313e+00    3.768523e-01   5.205078e-03
  3.429523e+00    3.766876e-01   5.210918e-03
  3.431733e+00    3.843122e-01   5.270018e-03
  3.433944e+00    3.919338e-01   5.328590e-03
  3.436154e+00    3.811028e-01   5.260677e-03
  3.438365e+00    3.756578e-01   5.228844e-03
  3.440575e+00    3.691332e-01   5.189058e-03
  3.442786e+00    3.695465e-01   5.197509e-03
  3.444996e+00    3.737673e-01   5.232594e-03
  3.447207e+00    3.515106e-01   5.079511e-03
  3.449417e+00    3.619048e-01   5.194360e-03
  3.451628e+00    3.607285e-01   5.215004e-03
  3.453838e+00    3.761440e-01   5.346701e-03
  3.456049e+00    3.735874e-01   5.352609e-03
  3.458259e+00    3.749650e-01   5.384655e-03
  3.460469e+00    3.504620e-01   5.225097e-03
  3.462680e+00    3.679635e-01   5.373088e-03
  3.464890e+00    3.702934e-01   5.407937e-03
  3.467101e+00    3.668842e-01   5.400460e-03
  3.469311e+00    3.757475e-01   5.481954e-03
  3.471522e+00    3.854737e-01   5.569092e-03
  3.473732e+00    3.971138e-01   5.668852e-03
  3.475943e+00    4.136077e-01   5.801737e-03
  3.478153e+00    3.958176e-01   5.691203e-03
  3.480364e+00    3.981374e-01   5.723072e-03
  3.482574e+00    4.046562e-01   5.785087e-03
  3.484784e+00    4.302198e-01   5.980246e-03
  3.486995e+00    4.280441e-01   5.980466e-03
  3.489205e+00    4.208229e-01   5.944389e-03
  3.491416e+00    4.403944e-01   6.096198e-03
  3.493626e+00    4.319119e-01   6.051753e-03
  3.495837e+00    4.454455e-01   6.160648e-03
  3.498047e+00    4.553453e-01   6.243439e-03
  3.500258e+00    4.404993e-01   6.155172e-03
  3.502468e+00    4.598484e-01   6.303430e-03
  3.504679e+00    4.679051e-01   6.373007e-03
  3.506889e+00    4.570328e-01   6.312842e-03
  3.509099e+00    4.614547e-01   6.357495e-03
  3.511310e+00    4.739949e-01   6.457753e-03
  3.513520e+00    4.725152e-01   6.461923e-03
  3.515731e+00    4.826486e-01   6.545187e-03
  3.517941e+00    4.787463e-01   6.532865e-03
  3.520152e+00    4.896287e-01   6.620924e-03
  3.522362e+00    4.963038e-01   6.680326e-03
  3.524573e+00    5.134344e-01   6.809037e-03
  3.526783e+00    5.088412e-01   6.791844e-03
  3.528994e+00    5.100009e-01   6.811718e-03
  3.531204e+00    5.239418e-01   6.916672e-03
  3.533414e+00    5.269188e-01   6.948418e-03
  3.535625e+00    5.235831e-01   6.938698e-03
  3.537835e+00    5.458862e-01   7.097171e-03
  3.540046e+00    5.389467e-01   7.060926e-03
  3.542256e+00    5.361391e-01   7.050048e-03
  3.544467e+00    5.419605e-01   7.095846e-03
  3.546677e+00    5.319950e-01   7.037889e-03
  3.548888e+00    5.330051e-01   7.052007e-03
  3.551098e+00    5.460572e-01   7.145226e-03
  3.553309e+00    5.251837e-01   7.015381e-03
  3.555519e+00    5.533711e-01   7.212671e-03
  3.557729e+00    5.290373e-01   7.063958e-03
  3.559940e+00    5.212571e-01   7.023205e-03
  3.562150e+00    5.398424e-01   7.159053e-03
  3.564361e+00    5.313821e-01   7.116010e-03
  3.566571e+00    5.412503e-01   7.195656e-03
  3.568782e+00    5.469331e-01   7.247636e-03
  3.570992e+00    5.232178e-01   7.102327e-03
  3.573203e+00    5.264271e-01   7.138097e-03
  3.575413e+00    5.432153e-01   7.264900e-03
  3.577624e+00    5.289821e-01   7.183109e-03
  3.579834e+00    5.487448e-01   7.330098e-03
  3.582045e+00    5.278640e-01   7.203239e-03
  3.584255e+00    5.179812e-01   7.149282e-03
  3.586465e+00    5.398635e-01   7.312708e-03
  3.588676e+00    5.373322e-01   7.309787e-03
  3.590886e+00    5.221666e-01   7.219402e-03
  3.593097e+00    5.362732e-01   7.330769e-03
  3.595307e+00    5.411486e-01   7.378026e-03
  3.597518e+00    5.190706e-01   7.239961e-03
  3.599728e+00    5.242202e-01   7.289716e-03
  3.601939e+00    5.276565e-01   7.327525e-03
  3.604149e+00    5.447096e-01   7.459523e-03
  3.606360e+00    5.308229e-01   7.377926e-03
  3.608570e+00    5.274155e-01   7.368238e-03
  3.610780e+00    5.389449e-01   7.459462e-03
  3.612991e+00    5.389863e-01   7.469770e-03
  3.615201e+00    5.452211e-01   7.522783e-03
  3.617412e+00    5.301768e-01   7.425480e-03
  3.619622e+00    5.271654e-01   7.410290e-03
  3.621833e+00    5.350128e-01   7.471945e-03
  3.624043e+00    5.348151e-01   7.480093e-03
  3.626254e+00    5.370870e-01   7.505648e-03
  3.628464e+00    5.438613e-01   7.563944e-03
  3.630675e+00    5.125182e-01   7.356620e-03
  3.632885e+00    5.197434e-01   7.422475e-03
  3.635095e+00    5.307816e-01   7.515268e-03
  3.637306e+00    5.353484e-01   7.561928e-03
  3.639516e+00    5.294193e-01   7.534400e-03
  3.641727e+00    5.513068e-01   7.703384e-03
  3.643937e+00    5.382158e-01   7.626030e-03
  3.646148e+00    5.180509e-01   7.496160e-03
  3.648358e+00    5.199836e-01   7.524839e-03
  3.650569e+00    5.442770e-01   7.713467e-03
  3.652779e+00    5.358455e-01   7.668306e-03
  3.654990e+00    5.455655e-01   7.752647e-03
  3.657200e+00    5.260062e-01   7.627177e-03
  3.659410e+00    5.517969e-01   7.827180e-03
  3.661621e+00    5.476663e-01   7.813181e-03
  3.663831e+00    5.288370e-01   7.692751e-03
  3.666042e+00    5.522127e-01   7.876389e-03
  3.668252e+00    5.290862e-01   7.724863e-03
  3.670463e+00    5.404058e-01   7.822474e-03
  3.672673e+00    5.143967e-01   7.647111e-03
  3.674884e+00    5.108492e-01   7.635775e-03
  3.677094e+00    5.083935e-01   7.632564e-03
  3.679305e+00    5.462096e-01   7.927145e-03
  3.681515e+00    5.308326e-01   7.830404e-03
  3.683726e+00    5.081121e-01   7.676466e-03
  3.685936e+00    5.424028e-01   7.947149e-03
  3.688146e+00    5.227609e-01   7.817663e-03
  3.690357e+00    5.283011e-01   7.874904e-03
  3.692567e+00    5.281256e-01   7.889735e-03
  3.694778e+00    5.317218e-01   7.932687e-03
  3.696988e+00    5.168691e-01   7.836990e-03
  3.699199e+00    4.976575e-01   7.705718e-03
  3.701409e+00    5.354553e-01   8.009529e-03
  3.703620e+00    5.257599e-01   7.953031e-03
  3.705830e+00    5.294315e-01   7.997205e-03
  3.708041e+00    5.295679e-01   8.014962e-03
  3.710251e+00    5.156885e-01   7.925782e-03
  3.712461e+00    5.320061e-01   8.067098e-03
  3.714672e+00    5.112205e-01   7.924512e-03
  3.716882e+00    5.138903e-01   7.961761e-03
  3.719093e+00    5.178251e-01   8.009279e-03
  3.721303e+00    5.273391e-01   8.099586e-03
  3.723514e+00    5.253766e-01   8.101919e-03
  3.725724e+00    5.076539e-01   7.981027e-03
  3.727935e+00    5.072905e-01   7.995504e-03
  3.730145e+00    5.026599e-01   7.975968e-03
  3.732356e+00    5.291306e-01   8.201020e-03
  3.734566e+00    5.235574e-01   8.175449e-03
  3.736776e+00    5.055342e-01   8.051071e-03
  3.738987e+00    5.073839e-01   8.083398e-03
  3.741197e+00    5.102773e-01   8.124379e-03
  3.743408e+00    4.991316e-01   8.052985e-03
  3.745618e+00    5.042692e-01   8.112420e-03
  3.747829e+00    5.158480e-01   8.223235e-03
  3.750039e+00    4.949049e-01   8.072670e-03
  3.752250e+00    5.142644e-01   8.247542e-03
  3.754460e+00    5.158198e-01   8.278673e-03
  3.756671e+00    5.155389e-01   8.295320e-03
  3.758881e+00    4.979350e-01   8.170895e-03
  3.761091e+00    5.164509e-01   8.340732e-03
  3.763302e+00    5.161736e-01   8.357728e-03
  3.765512e+00    4.892845e-01   8.156032e-03
  3.767723e+00    5.073977e-01   8.324957e-03
  3.769933e+00    4.951206e-01   8.242750e-03
  3.772144e+00    5.049781e-01   8.343954e-03
  3.774354e+00    5.053357e-01   8.366785e-03
  3.776565e+00    4.816342e-01   8.187561e-03
  3.778775e+00    4.999536e-01   8.361662e-03
  3.780986e+00    4.978290e-01   8.364099e-03
  3.783196e+00    4.986925e-01   8.391488e-03
  3.785407e+00    5.031617e-01   8.449424e-03
  3.787617e+00    4.979861e-01   8.426523e-03
  3.789827e+00    5.069017e-01   8.522201e-03
  3.792038e+00    5.130664e-01   8.594995e-03
  3.794248e+00    5.138907e-01   8.623285e-03
  3.796459e+00    4.796384e-01   8.351864e-03
  3.798669e+00    5.024025e-01   8.569159e-03
  3.800880e+00    4.834957e-01   8.427468e-03
  3.803090e+00    5.010002e-01   8.600409e-03
  3.805301e+00    5.086688e-01   8.688362e-03
  3.807511e+00    5.094157e-01   8.716869e-03
  3.809722e+00    5.212430e-01   8.840285e-03
  3.811932e+00    4.813164e-01   8.516748e-03
  3.814142e+00    4.915538e-01   8.629510e-03
  3.816353e+00    4.916028e-01   8.652608e-03
  3.818563e+00    4.851691e-01   8.618638e-03
  3.820774e+00    4.867873e-01   8.655823e-03
  3.822984e+00    4.970921e-01   8.770363e-03
  3.825195e+00    5.038934e-01   8.853966e-03
  3.827405e+00    5.135632e-01   8.962842e-03
  3.829616e+00    4.776708e-01   8.667558e-03
  3.831826e+00    4.860069e-01   8.766706e-03
  3.834037e+00    4.891839e-01   8.819658e-03
  3.836247e+00    4.953915e-01   8.900065e-03
  3.838457e+00    5.014027e-01   8.979072e-03
  3.840668e+00    4.860656e-01   8.865636e-03
  3.842878e+00    4.973576e-01   8.993517e-03
  3.845089e+00    4.710596e-01   8.777498e-03
  3.847299e+00    4.763861e-01   8.852256e-03
  3.849510e+00    4.864729e-01   8.971072e-03
  3.851720e+00    5.063479e-01   9.174183e-03
  3.853931e+00    4.868526e-01   9.014693e-03
  3.856141e+00    4.867542e-01   9.032601e-03
  3.858352e+00    4.823657e-01   9.010849e-03
  3.860562e+00    4.944605e-01   9.142429e-03
  3.862772e+00    5.025070e-01   9.236238e-03
  3.864983e+00    4.822788e-01   9.067914e-03
  3.867193e+00    4.771095e-01   9.038632e-03
  3.869404e+00    4.793910e-01   9.079693e-03
  3.871614e+00    4.851454e-01   9.153835e-03
  3.873825e+00    5.145574e-01   9.447990e-03
  3.876035e+00    4.911957e-01   9.251606e-03
  3.878246e+00    4.898096e-01   9.264245e-03
  3.880456e+00    4.522230e-01   8.929419e-03
  3.882667e+00    5.109900e-01   9.521791e-03
  3.884877e+00    4.804076e-01   9.261915e-03
  3.887087e+00    4.783357e-01   9.271413e-03
  3.889298e+00    4.925078e-01   9.438178e-03
  3.891508e+00    5.020860e-01   9.560342e-03
  3.893719e+00    4.876153e-01   9.452555e-03
  3.895929e+00    4.813984e-01   9.423174e-03
  3.898140e+00    4.853003e-01   9.492816e-03
  3.900350e+00    4.953995e-01   9.623401e-03
  3.902561e+00    4.815214e-01   9.519664e-03
  3.904771e+00    5.079931e-01   9.811275e-03
  3.906982e+00    5.218702e-01   9.978653e-03
  3.909192e+00    5.036851e-01   9.837206e-03
  3.911403e+00    4.993136e-01   9.828854e-03
  3.913613e+00    4.821452e-01   9.692361e-03
  3.915823e+00    5.024999e-01   9.930152e-03
  3.918034e+00    4.879519e-01   9.820584e-03
  3.920244e+00    5.154485e-01   1.013020e-02
  3.922455e+00    4.991115e-01   1.000495e-02
  3.924665e+00    4.915529e-01   9.965362e-03
  3.926876e+00    5.026558e-01   1.011500e-02
  3.929086e+00    4.861486e-01   9.984810e-03
  3.931297e+00    4.454205e-01   9.590722e-03
  3.933507e+00    4.747464e-01   9.929855e-03
  3.935718e+00    5.198454e-01   1.042053e-02
  3.937928e+00    5.100165e-01   1.035175e-02
  3.940138e+00    4.824691e-01   1.009741e-02
  3.942349e+00    4.714449e-01   1.001084e-02
  3.944559e+00    4.894409e-01   1.023013e-02
  3.946770e+00    4.972615e-01   1.034203e-02
  3.948980e+00    4.752600e-01   1.014104e-02
  3.951191e+00    4.764197e-01   1.018394e-02
  3.953401e+00    5.022539e-01   1.048822e-02
  3.955612e+00    4.853275e-01   1.034164e-02
  3.957822e+00    5.041078e-01   1.057204e-02
  3.960033e+00    5.022823e-01   1.058611e-02
  3.962243e+00    4.857368e-01   1.044314e-02
  3.964453e+00    4.936010e-01   1.056073e-02
  3.966664e+00    5.044153e-01   1.070972e-02
  3.968874e+00    5.239501e-01   1.094475e-02
  3.971085e+00    4.860632e-01   1.056352e-02
  3.973295e+00    4.976791e-01   1.071070e-02
  3.975506e+00    4.879950e-01   1.062767e-02
  3.977716e+00    5.062865e-01   1.084747e-02
  3.979927e+00    4.535006e-01   1.028787e-02
  3.982137e+00    4.749124e-01   1.054992e-02
  3.984348e+00    5.064219e-01   1.091737e-02
  3.986558e+00    4.873013e-01   1.073156e-02
  3.988768e+00    4.795315e-01   1.066865e-02
  3.990979e+00    4.826374e-01   1.072571e-02
  3.993189e+00    5.064685e-01   1.101103e-02
  3.995400e+00    5.099518e-01   1.107283e-02
  3.997610e+00    5.356231e-01   1.137953e-02
  3.999821e+00    5.006651e-01   1.104012e-02
  4.002031e+00    4.907849e-01   1.096916e-02
  4.004242e+00    4.816425e-01   1.090496e-02
  4.006452e+00    4.932672e-01   1.107557e-02
  4.008663e+00    4.606436e-01   1.074181e-02
  4.010873e+00    5.014123e-01   1.124784e-02
  4.013084e+00    4.976064e-01   1.124668e-02
  4.015294e+00    5.017221e-01   1.133463e-02
  4.017504e+00    4.979794e-01   1.133484e-02
  4.019715e+00    4.812619e-01   1.118527e-02
  4.021925e+00    4.784490e-01   1.119527e-02
  4.024136e+00    4.681786e-01   1.111754e-02
  4.026346e+00    4.434160e-01   1.086163e-02
  4.028557e+00    4.516335e-01   1.100473e-02
  4.030767e+00    4.721469e-01   1.129686e-02
  4.032978e+00    4.586377e-01   1.117925e-02
  4.035188e+00    4.770662e-01   1.144744e-02
  4.037399e+00    4.872486e-01   1.161670e-02
  4.039609e+00    4.620956e-01   1.135961e-02
  4.041819e+00    4.766551e-01   1.158563e-02
  4.044030e+00    4.684826e-01   1.153493e-02
  4.046240e+00    4.891910e-01   1.183730e-02
  4.048451e+00    4.886433e-01   1.188194e-02
  4.050661e+00    4.582251e-01   1.155631e-02
  4.052872e+00    4.800960e-01   1.188141e-02
  4.055082e+00    5.055716e-01   1.224741e-02
  4.057293e+00    4.395762e-01   1.147137e-02
  4.059503e+00    4.693366e-01   1.190725e-02
  4.061714e+00    4.632690e-01   1.188531e-02
  4.063924e+00    4.562862e-01   1.185063e-02
  4.066134e+00    4.781526e-01   1.218852e-02
  4.068345e+00    4.294559e-01   1.160670e-02
  4.070555e+00    4.801838e-01   1.233238e-02
  4.072766e+00    5.044616e-01   1.270244e-02
  4.074976e+00    4.657544e-01   1.226638e-02
  4.077187e+00    4.719591e-01   1.240925e-02
  4.079397e+00    5.165868e-01   1.304873e-02
  4.081608e+00    5.145559e-01   1.309097e-02
  4.083818e+00    4.955908e-01   1.291424e-02
  4.086029e+00    4.716599e-01   1.266513e-02
  4.088239e+00    4.479316e-01   1.240889e-02
  4.090449e+00    4.771805e-01   1.287673e-02
  4.092660e+00    4.993961e-01   1.324592e-02
  4.094870e+00    4.699017e-01   1.292017e-02
  4.097081e+00    4.560374e-01   1.279780e-02
  4.099291e+00    4.802071e-01   1.318697e-02
  4.101502e+00    4.320998e-01   1.255569e-02
  4.103712e+00    4.838011e-01   1.333503e-02
  4.105923e+00    4.744063e-01   1.325613e-02
  4.108133e+00    4.853353e-01   1.345958e-02
  4.110344e+00    4.527891e-01   1.305024e-02
  4.112554e+00    4.537542e-01   1.311576e-02
  4.114764e+00    4.523450e-01   1.314787e-02
  4.116975e+00    4.608426e-01   1.332327e-02
  4.119185e+00    4.857564e-01   1.373397e-02
  4.121396e+00    4.901794e-01   1.385365e-02
  4.123606e+00    5.159824e-01   1.427164e-02
  4.125817e+00    4.884710e-01   1.394427e-02
  4.128027e+00    4.862945e-01   1.397190e-02
  4.130238e+00    4.470859e-01   1.345403e-02
  4.132448e+00    5.151245e-01   1.450419e-02
  4.134659e+00    5.127883e-01   1.453360e-02
  4.136869e+00    5.115386e-01   1.458067e-02
  4.139080e+00    4.928345e-01   1.437611e-02
  4.141290e+00    5.408506e-01   1.512682e-02
  4.143500e+00    5.186772e-01   1.488182e-02
  4.145711e+00    4.961966e-01   1.462387e-02
  4.147921e+00    4.865499e-01   1.454734e-02
  4.150132e+00    4.887930e-01   1.465040e-02
  4.152342e+00    4.637086e-01   1.433869e-02
  4.154553e+00    4.806388e-01   1.466763e-02
  4.156763e+00    4.704806e-01   1.458341e-02
  4.158974e+00    5.117224e-01   1.528566e-02
  4.161184e+00    4.838192e-01   1.493689e-02
  4.163395e+00    4.930243e-01   1.515516e-02
  4.165605e+00    5.204169e-01   1.565157e-02
  4.167815e+00    4.951976e-01   1.534721e-02
  4.170026e+00    5.010960e-01   1.551982e-02
  4.172236e+00    4.685338e-01   1.508820e-02
  4.174447e+00    4.515060e-01   1.489207e-02
  4.176657e+00    5.146834e-01   1.598660e-02
  4.178868e+00    4.974617e-01   1.580610e-02
  4.181078e+00    4.828899e-01   1.566033e-02
  4.183289e+00    5.061787e-01   1.612539e-02
  4.185499e+00    4.710559e-01   1.564772e-02
  4.187710e+00    4.921004e-01   1.608717e-02
  4.189920e+00    4.439334e-01   1.537143e-02
  4.192130e+00    4.920495e-01   1.628203e-02
  4.194341e+00    5.342858e-01   1.707048e-02
  4.196551e+00    4.731365e-01   1.616576e-02
  4.198762e+00    4.807980e-01   1.639949e-02
  4.200972e+00    5.158979e-01   1.709753e-02
  4.203183e+00    4.231274e-01   1.558613e-02
  4.205393e+00    4.944220e-01   1.696048e-02
  4.207604e+00    4.311755e-01   1.594647e-02
  4.209814e+00    4.749991e-01   1.685198e-02
  4.212025e+00    5.067844e-01   1.752988e-02
  4.214235e+00    5.437925e-01   1.828797e-02
  4.216445e+00    4.233778e-01   1.625291e-02
  4.218656e+00    4.519571e-01   1.691830e-02
  4.220866e+00    5.052800e-01   1.802132e-02
  4.223077e+00    5.414562e-01   1.879862e-02
  4.225287e+00    3.885425e-01   1.604998e-02
  4.227498e+00    4.847478e-01   1.806698e-02
  4.229708e+00    5.285702e-01   1.901994e-02
  4.231919e+00    4.996574e-01   1.864553e-02
  4.234129e+00    5.355297e-01   1.946498e-02
  4.236340e+00    4.644451e-01   1.828243e-02
  4.238550e+00    4.718338e-01   1.858983e-02
  4.240761e+00    5.151459e-01   1.959553e-02
  4.242971e+00    4.575216e-01   1.863698e-02
  4.245181e+00    4.828427e-01   1.932482e-02
  4.247392e+00    4.892461e-01   1.963470e-02
  4.249602e+00    4.946907e-01   1.993979e-02
  4.251813e+00    4.718743e-01   1.966671e-02
  4.254023e+00    4.052339e-01   1.840852e-02
  4.256234e+00    4.494671e-01   1.959408e-02
  4.258444e+00    4.742092e-01   2.033718e-02
  4.260655e+00    4.619828e-01   2.029399e-02
  4.262865e+00    4.726904e-01   2.076086e-02
  4.265076e+00    4.607188e-01   2.072908e-02
  4.267286e+00    4.570329e-01   2.089090e-02
  4.269496e+00    4.272254e-01   2.044465e-02
  4.271707e+00    4.289903e-01   2.073959e-02
  4.273917e+00    4.330246e-01   2.110677e-02
  4.276128e+00    4.209648e-01   2.108712e-02
  4.278338e+00    4.037829e-01   2.092774e-02
  4.280549e+00    4.758756e-01   2.304513e-02
  4.282759e+00    4.933954e-01   2.380309e-02
  4.284970e+00    4.035212e-01   2.184500e-02
  4.287180e+00    4.807066e-01   2.412770e-02
  4.289391e+00    5.170572e-01   2.521215e-02
  4.291601e+00    5.783815e-01   2.687791e-02
  4.293811e+00    5.892653e-01   2.734222e-02
  4.296022e+00    5.186007e-01   2.585612e-02
  4.298232e+00    4.484022e-01   2.424411e-02
  4.300443e+00    4.907436e-01   2.557216e-02
  4.302653e+00    4.504956e-01   2.471322e-02
  4.304864e+00    4.137417e-01   2.388892e-02
  4.307074e+00    4.229302e-01   2.436993e-02
  4.309285e+00    4.488187e-01   2.533215e-02
  4.311495e+00    4.715322e-01   2.620845e-02
  4.313706e+00    4.278396e-01   2.519920e-02
  4.315916e+00    3.937905e-01   2.441380e-02
  4.318126e+00    4.340682e-01   2.588548e-02
  4.320337e+00    4.311698e-01   2.605975e-02
  4.322547e+00    3.928199e-01   2.513839e-02
  4.324758e+00    3.736650e-01   2.477160e-02
  4.326968e+00    3.342746e-01   2.369417e-02
  4.329179e+00    4.577560e-01   2.803216e-02
  4.331389e+00    4.451882e-01   2.796348e-02
  4.333600e+00    4.871473e-01   2.960121e-02
  4.335810e+00    4.721214e-01   2.948781e-02
  4.338021e+00    4.487490e-01   2.911584e-02
  4.340231e+00    4.193729e-01   2.850074e-02
  4.342442e+00    4.250888e-01   2.907861e-02
  4.344652e+00    4.710185e-01   3.102580e-02
  4.346862e+00    3.975245e-01   2.890129e-02
  4.349073e+00    4.884276e-01   3.250183e-02
  4.351283e+00    4.864464e-01   3.292142e-02
  4.353494e+00    3.022196e-01   2.634974e-02
  4.355704e+00    5.090026e-01   3.474521e-02
  4.357915e+00    4.679188e-01   3.386899e-02
  4.360125e+00    4.469843e-01   3.366850e-02
  4.362336e+00    4.676620e-01   3.506561e-02
  4.364546e+00    4.411118e-01   3.467513e-02
  4.366757e+00    5.180059e-01   3.832292e-02
  4.368967e+00    5.176054e-01   3.907439e-02
  4.371177e+00    4.962801e-01   3.907377e-02
  4.373388e+00    3.456827e-01   3.333839e-02
  4.375598e+00    3.885629e-01   3.615306e-02
  4.377809e+00    4.099775e-01   3.807557e-02
  4.380019e+00    4.034455e-01   3.872095e-02
  4.382230e+00    3.346603e-01   3.625270e-02
  4.384440e+00    2.112732e-01   2.962867e-02
  4.386651e+00    3.299501e-01   3.817201e-02
  4.388861e+00    3.241285e-01   3.910379e-02
  4.391072e+00    4.952941e-01   5.003441e-02
  4.393282e+00    4.555961e-01   4.984629e-02
  4.395492e+00    3.778503e-01   4.727809e-02
  4.397703e+00    3.135401e-01   4.503664e-02
  4.399913e+00    5.544772e-01   6.292202e-02
  4.402124e+00    2.854072e-01   4.770160e-02
  4.404334e+00    5.332865e-01   6.931277e-02
  4.406545e+00    4.010772e-01   6.458344e-02
  4.408755e+00    6.448376e-01   8.881352e-02
  4.410966e+00    2.542464e-01   6.172514e-02
  4.413176e+00    9.559201e-02   4.284937e-02
  4.415387e+00   -8.402227e-01            nan
  4.417597e+00   -1.879936e+00            nan
  4.419807e+00   -1.939845e-01            nan
