# == pyFAI calibration ==
# Distance Sample to Detector: 0.216 m
# PONI: 1.166e-01, 1.308e-01 m
# Rotations: 0.000000 0.000000 0.000000 rad
# 
# == Fit2d calibration ==
# Distance Sample-beamCenter: 216.000 mm
# Center: x=1744.293, y=1555.000 pix
# Tilt: 0.000 deg  TiltPlanRot: 0.000 deg
# 
# Detector Eiger 9M	 PixelSize= 7.500e-05, 7.500e-05 m
#    Detector has a mask: True 
#    Detector has a dark current: False 
#    detector has a flat field: False 
# 
# Wavelength: 9.8e-11 m
# Mask applied: from detector
# Dark current applied: False
# Flat field applied: False
# Polarization factor: None
# Normalization factor: 1.0
# 
# Headers of the input frame:
# {
# "_array_data.header_convention": "SLS_1.0",
# "_array_data.header_contents": "# Detector: Dectris Eiger 9M, S/N E-18-0102\r\n# Pixel_size 75e-6 m x 75e-6 m\r\n# Silicon sensor, thickness 0.000450 m\r\n# Exposure_time 0.024997 s\r\n# Exposure_period 0.025000 s\r\n# Count_cutoff 62318 counts\r\n# Wavelength 0.980106 A\r\n# Detector_distance 0.215992 m\r\n# Beam_xy (1555, 1744) pixels\r\n# Start_angle 0.000000 deg.\r\n# Angle_increment 0.000000 deg.",
# "Content-Type": "application/octet-stream;",
# "conversions": "x-CBF_BYTE_OFFSET",
# "Content-Transfer-Encoding": "BINARY",
# "X-Binary-Size": "10166612",
# "X-Binary-ID": "1",
# "X-Binary-Element-Type": "signed 32-bit integer",
# "X-Binary-Element-Byte-Order": "LITTLE_ENDIAN",
# "Content-MD5": "W9czafVzECTakPdd+bC3/g==",
# "X-Binary-Number-of-Elements": "10166590",
# "X-Binary-Size-Fastest-Dimension": "3110",
# "X-Binary-Size-Second-Dimension": "3269",
# "X-Binary-Size-Padding": "4095"
# }
# --> H:/Proxima2a_2019-04-05/RAW_DATA/C5_gel17_position5/C5_mesh_1_data.cbf/C5_mesh_1_data.cbf000050.dat
#        q_A^-1              I           sigma 
  1.105228e-03    2.137326e+00   7.910836e-01
  3.315685e-03    1.518641e+00   4.053899e-01
  5.526141e-03    1.385197e+00   2.993836e-01
  7.736597e-03    1.453764e+00   2.590999e-01
  9.947054e-03    1.111550e+00   1.997289e-01
  1.215751e-02    1.180006e+00   1.860847e-01
  1.436797e-02    1.158774e+00   1.696192e-01
  1.657842e-02    1.301504e+00   1.673274e-01
  1.878888e-02    1.381374e+00   1.619269e-01
  2.099934e-02    1.502265e+00   1.597627e-01
  2.320979e-02    1.575278e+00   1.556007e-01
  2.542025e-02    1.421910e+00   1.412686e-01
  2.763070e-02    1.375779e+00   1.332799e-01
  2.984116e-02    1.352186e+00   1.271437e-01
  3.205162e-02    1.421614e+00   1.257989e-01
  3.426207e-02    1.392134e+00   1.203969e-01
  3.647253e-02    1.398203e+00   1.169431e-01
  3.868299e-02    1.352098e+00   1.116734e-01
  4.089344e-02    1.344039e+00   1.082896e-01
  4.310390e-02    1.343312e+00   1.054417e-01
  4.531436e-02    1.319265e+00   1.019135e-01
  4.752481e-02    1.323456e+00   9.967214e-02
  4.973527e-02    1.423842e+00   1.010608e-01
  5.194572e-02    1.356478e+00   9.651824e-02
  5.415618e-02    1.361640e+00   9.470434e-02
  5.636664e-02    1.246511e+00   8.882052e-02
  5.857709e-02    1.363408e+00   9.112290e-02
  6.078755e-02    1.446683e+00   9.213911e-02
  6.299801e-02    1.583713e+00   9.469669e-02
  6.520846e-02    1.527815e+00   9.142102e-02
  6.741892e-02    1.446108e+00   8.746821e-02
  6.962938e-02    1.489443e+00   8.735308e-02
  7.183983e-02    1.552790e+00   8.780687e-02
  7.405029e-02    1.478804e+00   8.439886e-02
  7.626074e-02    1.495902e+00   8.364537e-02
  7.847120e-02    1.489448e+00   8.227856e-02
  8.068166e-02    1.534477e+00   8.236041e-02
  8.289211e-02    1.436738e+00   7.862407e-02
  8.510257e-02    1.450687e+00   7.797154e-02
  8.731303e-02    1.568625e+00   8.004319e-02
  8.952348e-02    1.460853e+00   7.628705e-02
  9.173394e-02    1.541037e+00   7.739988e-02
  9.394439e-02    1.474934e+00   7.482310e-02
  9.615485e-02    1.511902e+00   7.487752e-02
  9.836531e-02    1.453087e+00   7.257520e-02
  1.005758e-01    1.522745e+00   7.347387e-02
  1.027862e-01    1.574205e+00   7.389559e-02
  1.049967e-01    1.486971e+00   7.105774e-02
  1.072071e-01    1.522942e+00   7.116598e-02
  1.094176e-01    1.536585e+00   7.075721e-02
  1.116280e-01    1.478828e+00   6.872243e-02
  1.138385e-01    1.523759e+00   6.907667e-02
  1.160490e-01    1.584899e+00   6.977388e-02
  1.182594e-01    1.520794e+00   6.770497e-02
  1.204699e-01    1.522940e+00   6.712773e-02
  1.226803e-01    1.614549e+00   6.848887e-02
  1.248908e-01    1.632081e+00   6.824684e-02
  1.271012e-01    1.519372e+00   6.527176e-02
  1.293117e-01    1.638325e+00   6.719606e-02
  1.315222e-01    1.576295e+00   6.535398e-02
  1.337326e-01    1.541756e+00   6.409637e-02
  1.359431e-01    1.578937e+00   6.490263e-02
  1.381535e-01    1.608549e+00   6.638770e-02
  1.403640e-01    1.623965e+00   6.699310e-02
  1.425744e-01    1.561383e+00   6.579451e-02
  1.447849e-01    1.444602e+00   6.330077e-02
  1.469953e-01    1.576476e+00   6.608554e-02
  1.492058e-01    1.605052e+00   6.660433e-02
  1.514163e-01    1.608941e+00   6.657423e-02
  1.536267e-01    1.566415e+00   6.556028e-02
  1.558372e-01    1.556102e+00   6.519986e-02
  1.580476e-01    1.542901e+00   6.476514e-02
  1.602581e-01    1.543051e+00   6.460382e-02
  1.624685e-01    1.485228e+00   6.320826e-02
  1.646790e-01    1.565881e+00   6.471542e-02
  1.668895e-01    1.703473e+00   6.730385e-02
  1.690999e-01    1.719137e+00   6.740956e-02
  1.713104e-01    1.709391e+00   6.700961e-02
  1.735208e-01    1.798568e+00   6.852156e-02
  1.757313e-01    1.837563e+00   6.904331e-02
  1.779417e-01    1.879998e+00   6.960823e-02
  1.801522e-01    1.871779e+00   6.923469e-02
  1.823626e-01    1.891666e+00   6.936982e-02
  1.845731e-01    1.817012e+00   6.776697e-02
  1.867836e-01    1.852093e+00   6.818711e-02
  1.889940e-01    1.927040e+00   6.932581e-02
  1.912045e-01    1.935056e+00   6.923786e-02
  1.934149e-01    1.948494e+00   6.924532e-02
  1.956254e-01    1.938625e+00   6.884195e-02
  1.978358e-01    1.873750e+00   6.744832e-02
  2.000463e-01    1.940806e+00   6.841712e-02
  2.022568e-01    1.961669e+00   6.855810e-02
  2.044672e-01    1.945724e+00   6.804500e-02
  2.066777e-01    1.992646e+00   6.863203e-02
  2.088881e-01    1.958507e+00   6.781894e-02
  2.110986e-01    1.940544e+00   6.727575e-02
  2.133090e-01    1.884377e+00   6.607945e-02
  2.155195e-01    1.926265e+00   6.658824e-02
  2.177300e-01    1.914062e+00   6.585554e-02
  2.199404e-01    1.921846e+00   6.425050e-02
  2.221509e-01    1.900516e+00   6.284379e-02
  2.243613e-01    2.029826e+00   6.412319e-02
  2.265718e-01    2.062992e+00   6.393241e-02
  2.287822e-01    2.095906e+00   6.380257e-02
  2.309927e-01    2.093890e+00   6.319097e-02
  2.332031e-01    2.077145e+00   6.239907e-02
  2.354136e-01    2.138337e+00   6.279842e-02
  2.376241e-01    2.160921e+00   6.263917e-02
  2.398345e-01    2.100325e+00   6.129766e-02
  2.420450e-01    2.098947e+00   6.083959e-02
  2.442554e-01    2.093762e+00   6.034577e-02
  2.464659e-01    2.109724e+00   6.016867e-02
  2.486763e-01    2.157021e+00   6.043948e-02
  2.508868e-01    2.093661e+00   5.916956e-02
  2.530973e-01    2.038032e+00   5.801626e-02
  2.553077e-01    2.022000e+00   5.743708e-02
  2.575182e-01    2.128294e+00   5.857880e-02
  2.597286e-01    2.108355e+00   5.796486e-02
  2.619391e-01    2.042809e+00   5.672821e-02
  2.641495e-01    2.025539e+00   5.617528e-02
  2.663600e-01    2.011371e+00   5.567063e-02
  2.685704e-01    1.994906e+00   5.514177e-02
  2.707809e-01    1.972298e+00   5.453740e-02
  2.729914e-01    1.985458e+00   5.443386e-02
  2.752018e-01    2.021183e+00   5.463555e-02
  2.774123e-01    1.959364e+00   5.351877e-02
  2.796227e-01    1.948057e+00   5.310015e-02
  2.818332e-01    1.930331e+00   5.259431e-02
  2.840436e-01    1.961159e+00   5.275566e-02
  2.862541e-01    1.907490e+00   5.177870e-02
  2.884646e-01    1.945853e+00   5.204857e-02
  2.906750e-01    1.953732e+00   5.190658e-02
  2.928855e-01    1.910443e+00   5.109047e-02
  2.950959e-01    1.894959e+00   5.064926e-02
  2.973064e-01    1.976324e+00   5.149274e-02
  2.995168e-01    1.974091e+00   5.123057e-02
  3.017273e-01    1.931086e+00   5.044609e-02
  3.039377e-01    1.909305e+00   4.994113e-02
  3.061482e-01    1.913732e+00   4.978272e-02
  3.083587e-01    1.866721e+00   4.895464e-02
  3.105691e-01    1.823871e+00   4.818282e-02
  3.127796e-01    1.836173e+00   4.814178e-02
  3.149900e-01    1.804069e+00   4.752025e-02
  3.172005e-01    1.827008e+00   4.762585e-02
  3.194109e-01    1.819962e+00   4.733771e-02
  3.216214e-01    1.843582e+00   4.744949e-02
  3.238319e-01    1.892583e+00   4.788547e-02
  3.260423e-01    1.884739e+00   4.759578e-02
  3.282528e-01    1.928655e+00   4.795543e-02
  3.304632e-01    1.937186e+00   4.787520e-02
  3.326737e-01    1.913851e+00   4.740031e-02
  3.348841e-01    1.873386e+00   4.671467e-02
  3.370946e-01    1.841805e+00   4.614499e-02
  3.393050e-01    1.814581e+00   4.562916e-02
  3.415155e-01    1.890558e+00   4.639950e-02
  3.437260e-01    1.812418e+00   4.526212e-02
  3.459364e-01    1.823005e+00   4.522621e-02
  3.481469e-01    1.802004e+00   4.480082e-02
  3.503573e-01    1.808021e+00   4.471208e-02
  3.525678e-01    1.803685e+00   4.449927e-02
  3.547782e-01    1.844212e+00   4.483378e-02
  3.569887e-01    1.826834e+00   4.446397e-02
  3.591992e-01    1.779167e+00   4.372477e-02
  3.614096e-01    1.739351e+00   4.308284e-02
  3.636201e-01    1.789196e+00   4.354222e-02
  3.658305e-01    1.846674e+00   4.408523e-02
  3.680410e-01    1.767642e+00   4.298322e-02
  3.702514e-01    1.753013e+00   4.266100e-02
  3.724619e-01    1.786937e+00   4.292515e-02
  3.746724e-01    1.770688e+00   4.258697e-02
  3.768828e-01    1.788677e+00   4.265872e-02
  3.790933e-01    1.766229e+00   4.225207e-02
  3.813037e-01    1.788838e+00   4.238249e-02
  3.835142e-01    1.842882e+00   4.287669e-02
  3.857246e-01    1.753257e+00   4.168575e-02
  3.879351e-01    1.747388e+00   4.148119e-02
  3.901455e-01    1.846892e+00   4.251013e-02
  3.923560e-01    1.813573e+00   4.199107e-02
  3.945665e-01    1.819266e+00   4.192355e-02
  3.967769e-01    1.798095e+00   4.154838e-02
  3.989874e-01    1.768750e+00   4.107926e-02
  4.011978e-01    1.820281e+00   4.154522e-02
  4.034083e-01    1.771535e+00   4.085936e-02
  4.056187e-01    1.800213e+00   4.106186e-02
  4.078292e-01    1.801644e+00   4.095386e-02
  4.100397e-01    1.793538e+00   4.073687e-02
  4.122501e-01    1.822087e+00   4.093697e-02
  4.144606e-01    1.798930e+00   4.055538e-02
  4.166710e-01    1.785692e+00   4.028574e-02
  4.188815e-01    1.816556e+00   4.051236e-02
  4.210919e-01    1.811517e+00   4.033758e-02
  4.233024e-01    1.756350e+00   3.960180e-02
  4.255128e-01    1.824964e+00   4.025123e-02
  4.277233e-01    1.846537e+00   4.037215e-02
  4.299338e-01    1.742540e+00   3.910591e-02
  4.321442e-01    1.793528e+00   3.956039e-02
  4.343547e-01    1.788617e+00   3.939450e-02
  4.365651e-01    1.714467e+00   3.845969e-02
  4.387756e-01    1.749678e+00   3.874381e-02
  4.409860e-01    1.801979e+00   3.920969e-02
  4.431965e-01    1.758167e+00   3.862301e-02
  4.454070e-01    1.741944e+00   3.833745e-02
  4.476174e-01    1.722725e+00   3.802069e-02
  4.498279e-01    1.702969e+00   3.769919e-02
  4.520383e-01    1.706945e+00   3.763961e-02
  4.542488e-01    1.706161e+00   3.752948e-02
  4.564592e-01    1.737959e+00   3.777597e-02
  4.586697e-01    1.709019e+00   3.736072e-02
  4.608801e-01    1.698359e+00   3.714425e-02
  4.630906e-01    1.654195e+00   3.656106e-02
  4.653011e-01    1.650987e+00   3.642954e-02
  4.675115e-01    1.665860e+00   3.649687e-02
  4.697220e-01    1.715942e+00   3.694446e-02
  4.719324e-01    1.721030e+00   3.690349e-02
  4.741429e-01    1.669864e+00   3.625712e-02
  4.763533e-01    1.657952e+00   3.603495e-02
  4.785638e-01    1.637048e+00   3.571456e-02
  4.807743e-01    1.650608e+00   3.577095e-02
  4.829847e-01    1.675771e+00   3.595154e-02
  4.851952e-01    1.699401e+00   3.611250e-02
  4.874056e-01    1.722963e+00   3.627032e-02
  4.896161e-01    1.706515e+00   3.600727e-02
  4.918265e-01    1.671608e+00   3.554859e-02
  4.940370e-01    1.648332e+00   3.521308e-02
  4.962475e-01    1.675797e+00   3.541755e-02
  4.984579e-01    1.687831e+00   3.545688e-02
  5.006684e-01    1.714593e+00   3.564974e-02
  5.028788e-01    1.683319e+00   3.523755e-02
  5.050893e-01    1.695339e+00   3.527711e-02
  5.072997e-01    1.712098e+00   3.536544e-02
  5.095102e-01    1.702670e+00   3.518345e-02
  5.117206e-01    1.666696e+00   3.472703e-02
  5.139311e-01    1.661851e+00   3.459444e-02
  5.161416e-01    1.662687e+00   3.452136e-02
  5.183520e-01    1.595683e+00   3.373829e-02
  5.205625e-01    1.562181e+00   3.330401e-02
  5.227729e-01    1.638809e+00   3.403147e-02
  5.249834e-01    1.664516e+00   3.421774e-02
  5.271938e-01    1.686030e+00   3.435782e-02
  5.294043e-01    1.697102e+00   3.439088e-02
  5.316148e-01    1.695799e+00   3.429896e-02
  5.338252e-01    1.715398e+00   3.441772e-02
  5.360357e-01    1.745315e+00   3.463755e-02
  5.382461e-01    1.715776e+00   3.426554e-02
  5.404566e-01    1.726478e+00   3.429402e-02
  5.426670e-01    1.715623e+00   3.410901e-02
  5.448775e-01    1.736791e+00   3.424212e-02
  5.470879e-01    1.743239e+00   3.422911e-02
  5.492984e-01    1.754927e+00   3.426731e-02
  5.515089e-01    1.737574e+00   3.402185e-02
  5.537193e-01    1.748871e+00   3.405707e-02
  5.559298e-01    1.745011e+00   3.394483e-02
  5.581402e-01    1.760930e+00   3.402481e-02
  5.603507e-01    1.771104e+00   3.404869e-02
  5.625611e-01    1.774752e+00   3.400980e-02
  5.647716e-01    1.744094e+00   3.364155e-02
  5.669821e-01    1.751831e+00   3.364339e-02
  5.691925e-01    1.755271e+00   3.360412e-02
  5.714030e-01    1.745211e+00   3.343625e-02
  5.736134e-01    1.724506e+00   3.316664e-02
  5.758239e-01    1.709439e+00   3.295092e-02
  5.780343e-01    1.695423e+00   3.274617e-02
  5.802448e-01    1.635425e+00   3.209420e-02
  5.824552e-01    1.656668e+00   3.223419e-02
  5.846657e-01    1.622427e+00   3.183284e-02
  5.868762e-01    1.620360e+00   3.174632e-02
  5.890866e-01    1.646162e+00   3.193169e-02
  5.912971e-01    1.641158e+00   3.181712e-02
  5.935075e-01    1.634018e+00   3.168222e-02
  5.957180e-01    1.610404e+00   3.138792e-02
  5.979284e-01    1.632600e+00   3.153898e-02
  6.001389e-01    1.614909e+00   3.130375e-02
  6.023494e-01    1.650481e+00   3.158239e-02
  6.045598e-01    1.641650e+00   3.143366e-02
  6.067703e-01    1.637591e+00   3.133163e-02
  6.089807e-01    1.662323e+00   3.150389e-02
  6.111912e-01    1.675747e+00   3.156766e-02
  6.134016e-01    1.689638e+00   3.163502e-02
  6.156121e-01    1.686918e+00   3.154672e-02
  6.178226e-01    1.664747e+00   3.127668e-02
  6.200330e-01    1.668128e+00   3.124666e-02
  6.222435e-01    1.688674e+00   3.137622e-02
  6.244539e-01    1.741175e+00   3.179784e-02
  6.266644e-01    1.727126e+00   3.160754e-02
  6.288748e-01    1.692878e+00   3.123168e-02
  6.310853e-01    1.738369e+00   3.158706e-02
  6.332957e-01    1.700059e+00   3.117678e-02
  6.355062e-01    1.681389e+00   3.094487e-02
  6.377167e-01    1.705932e+00   3.111009e-02
  6.399271e-01    1.732928e+00   3.129520e-02
  6.421376e-01    1.685003e+00   3.080054e-02
  6.443480e-01    1.658980e+00   3.050362e-02
  6.465585e-01    1.700498e+00   3.082445e-02
  6.487689e-01    1.650815e+00   3.031350e-02
  6.509794e-01    1.579895e+00   2.959924e-02
  6.531899e-01    1.586359e+00   2.960396e-02
  6.554003e-01    1.615933e+00   2.982246e-02
  6.576108e-01    1.584251e+00   2.947369e-02
  6.598212e-01    1.563335e+00   2.922408e-02
  6.620317e-01    1.555378e+00   2.909558e-02
  6.642421e-01    1.571587e+00   2.919269e-02
  6.664526e-01    1.598288e+00   2.938537e-02
  6.686630e-01    1.596441e+00   2.931412e-02
  6.708735e-01    1.597980e+00   2.927443e-02
  6.730840e-01    1.613605e+00   2.936357e-02
  6.752944e-01    1.590495e+00   2.909953e-02
  6.775049e-01    1.601249e+00   2.914472e-02
  6.797153e-01    1.637028e+00   2.941519e-02
  6.819258e-01    1.597263e+00   2.900332e-02
  6.841362e-01    1.581375e+00   2.880682e-02
  6.863467e-01    1.545872e+00   2.843059e-02
  6.885572e-01    1.597456e+00   2.884926e-02
  6.907676e-01    1.617377e+00   2.897657e-02
  6.929781e-01    1.614269e+00   2.889727e-02
  6.951885e-01    1.570403e+00   2.845147e-02
  6.973990e-01    1.594416e+00   2.861746e-02
  6.996094e-01    1.579654e+00   2.843457e-02
  7.018199e-01    1.587112e+00   2.845159e-02
  7.040303e-01    1.563512e+00   2.818965e-02
  7.062408e-01    1.613912e+00   2.859023e-02
  7.084513e-01    1.564530e+00   2.810049e-02
  7.106617e-01    1.570212e+00   2.810253e-02
  7.128722e-01    1.575223e+00   2.809865e-02
  7.150826e-01    1.584610e+00   2.813366e-02
  7.172931e-01    1.590043e+00   2.813328e-02
  7.195035e-01    1.573069e+00   2.793461e-02
  7.217140e-01    1.549929e+00   2.777744e-02
  7.239245e-01    1.516953e+00   2.770291e-02
  7.261349e-01    1.536785e+00   2.799070e-02
  7.283454e-01    1.584266e+00   2.849243e-02
  7.305558e-01    1.579702e+00   2.850546e-02
  7.327663e-01    1.520054e+00   2.800386e-02
  7.349767e-01    1.550274e+00   2.829709e-02
  7.371872e-01    1.571758e+00   2.848134e-02
  7.393976e-01    1.562721e+00   2.838511e-02
  7.416081e-01    1.586116e+00   2.858058e-02
  7.438186e-01    1.598264e+00   2.854443e-02
  7.460290e-01    1.557469e+00   2.788515e-02
  7.482395e-01    1.585983e+00   2.796746e-02
  7.504499e-01    1.555972e+00   2.756613e-02
  7.526604e-01    1.508635e+00   2.702950e-02
  7.548708e-01    1.508262e+00   2.693862e-02
  7.570813e-01    1.585674e+00   2.757015e-02
  7.592918e-01    1.599059e+00   2.765081e-02
  7.615022e-01    1.618099e+00   2.778069e-02
  7.637127e-01    1.553405e+00   2.718713e-02
  7.659231e-01    1.525430e+00   2.690970e-02
  7.681336e-01    1.546831e+00   2.706647e-02
  7.703440e-01    1.566289e+00   2.720505e-02
  7.725545e-01    1.578307e+00   2.727830e-02
  7.747650e-01    1.603800e+00   2.745917e-02
  7.769754e-01    1.560915e+00   2.703711e-02
  7.791859e-01    1.531503e+00   2.672843e-02
  7.813963e-01    1.577481e+00   2.707409e-02
  7.836068e-01    1.593930e+00   2.716276e-02
  7.858172e-01    1.583677e+00   2.702462e-02
  7.880277e-01    1.591237e+00   2.703751e-02
  7.902381e-01    1.630507e+00   2.731937e-02
  7.924486e-01    1.628958e+00   2.725584e-02
  7.946591e-01    1.619395e+00   2.712711e-02
  7.968695e-01    1.648106e+00   2.731758e-02
  7.990800e-01    1.670400e+00   2.745255e-02
  8.012904e-01    1.739409e+00   2.796542e-02
  8.035009e-01    1.785424e+00   2.828252e-02
  8.057113e-01    1.719679e+00   2.770894e-02
  8.079218e-01    1.646211e+00   2.706378e-02
  8.101323e-01    1.664126e+00   2.716443e-02
  8.123427e-01    1.778968e+00   2.803818e-02
  8.145532e-01    1.840944e+00   2.847366e-02
  8.167636e-01    1.749941e+00   2.771430e-02
  8.189741e-01    1.656081e+00   2.691587e-02
  8.211845e-01    1.614433e+00   2.653070e-02
  8.233950e-01    1.651553e+00   2.679034e-02
  8.256054e-01    1.682784e+00   2.699762e-02
  8.278159e-01    1.720894e+00   2.725658e-02
  8.300264e-01    1.657754e+00   2.670853e-02
  8.322368e-01    1.671568e+00   2.677602e-02
  8.344473e-01    1.675243e+00   2.676159e-02
  8.366577e-01    1.671039e+00   2.668499e-02
  8.388682e-01    1.621620e+00   2.624544e-02
  8.410786e-01    1.631719e+00   2.628505e-02
  8.432891e-01    1.666199e+00   2.651914e-02
  8.454996e-01    1.636507e+00   2.624019e-02
  8.477100e-01    1.635327e+00   2.618910e-02
  8.499205e-01    1.629274e+00   2.609953e-02
  8.521309e-01    1.646298e+00   2.619462e-02
  8.543414e-01    1.600569e+00   2.578797e-02
  8.565518e-01    1.624330e+00   2.593822e-02
  8.587623e-01    1.684039e+00   2.636952e-02
  8.609727e-01    1.766955e+00   2.696901e-02
  8.631832e-01    1.760450e+00   2.687785e-02
  8.653937e-01    1.690712e+00   2.629963e-02
  8.676041e-01    1.606646e+00   2.559877e-02
  8.698146e-01    1.590207e+00   2.542853e-02
  8.720250e-01    1.568724e+00   2.521769e-02
  8.742355e-01    1.594374e+00   2.538431e-02
  8.764459e-01    1.584475e+00   2.526679e-02
  8.786564e-01    1.588332e+00   2.525980e-02
  8.808669e-01    1.660833e+00   2.579069e-02
  8.830773e-01    1.785065e+00   2.669764e-02
  8.852878e-01    1.729238e+00   2.623751e-02
  8.874982e-01    1.600779e+00   2.520750e-02
  8.897087e-01    1.627605e+00   2.537983e-02
  8.919191e-01    1.617397e+00   2.526217e-02
  8.941296e-01    1.597004e+00   2.506516e-02
  8.963401e-01    1.597112e+00   2.502960e-02
  8.985505e-01    1.588594e+00   2.492596e-02
  9.007610e-01    1.579039e+00   2.481436e-02
  9.029714e-01    1.604026e+00   2.497405e-02
  9.051819e-01    1.579139e+00   2.474258e-02
  9.073923e-01    1.565049e+00   2.459576e-02
  9.096028e-01    1.548723e+00   2.443280e-02
  9.118132e-01    1.558577e+00   2.447464e-02
  9.140237e-01    1.620340e+00   2.491801e-02
  9.162342e-01    1.631922e+00   2.497202e-02
  9.184446e-01    1.625177e+00   2.488432e-02
  9.206551e-01    1.650330e+00   2.503999e-02
  9.228655e-01    1.641411e+00   2.493656e-02
  9.250760e-01    1.625621e+00   2.478069e-02
  9.272864e-01    1.608434e+00   2.461506e-02
  9.294969e-01    1.577732e+00   2.434345e-02
  9.317074e-01    1.599736e+00   2.447796e-02
  9.339178e-01    1.609951e+00   2.452247e-02
  9.361283e-01    1.602170e+00   2.442707e-02
  9.383387e-01    1.614538e+00   2.448781e-02
  9.405492e-01    1.663495e+00   2.482159e-02
  9.427596e-01    1.681708e+00   2.492119e-02
  9.449701e-01    1.655860e+00   2.469534e-02
  9.471805e-01    1.664625e+00   2.472552e-02
  9.493910e-01    1.658530e+00   2.464636e-02
  9.516015e-01    1.680708e+00   2.477593e-02
  9.538119e-01    1.678966e+00   2.472918e-02
  9.560224e-01    1.706860e+00   2.489863e-02
  9.582328e-01    1.732700e+00   2.505276e-02
  9.604433e-01    1.702075e+00   2.479522e-02
  9.626537e-01    1.744856e+00   2.507111e-02
  9.648642e-01    1.793817e+00   2.538562e-02
  9.670747e-01    1.789194e+00   2.531795e-02
  9.692851e-01    1.771206e+00   2.515685e-02
  9.714956e-01    1.774746e+00   2.514649e-02
  9.737060e-01    1.766966e+00   2.505833e-02
  9.759165e-01    1.794026e+00   2.521388e-02
  9.781269e-01    1.803400e+00   2.524660e-02
  9.803374e-01    1.792468e+00   2.513516e-02
  9.825478e-01    1.763105e+00   2.489555e-02
  9.847583e-01    1.760046e+00   2.484016e-02
  9.869688e-01    1.779947e+00   2.494676e-02
  9.891792e-01    1.759164e+00   2.476775e-02
  9.913897e-01    1.740331e+00   2.460156e-02
  9.936001e-01    1.711769e+00   2.436691e-02
  9.958106e-01    1.709484e+00   2.431754e-02
  9.980210e-01    1.663062e+00   2.395397e-02
  1.000231e+00    1.626132e+00   2.381627e-02
  1.002442e+00    1.607828e+00   2.380767e-02
  1.004652e+00    1.616110e+00   2.393550e-02
  1.006863e+00    1.597245e+00   2.384476e-02
  1.009073e+00    1.584009e+00   2.378210e-02
  1.011284e+00    1.570807e+00   2.371445e-02
  1.013494e+00    1.592248e+00   2.389943e-02
  1.015705e+00    1.554990e+00   2.364048e-02
  1.017915e+00    1.521791e+00   2.340288e-02
  1.020126e+00    1.527299e+00   2.346102e-02
  1.022336e+00    1.532930e+00   2.351583e-02
  1.024547e+00    1.515211e+00   2.339061e-02
  1.026757e+00    1.525221e+00   2.347605e-02
  1.028967e+00    1.490274e+00   2.321309e-02
  1.031178e+00    1.503187e+00   2.331953e-02
  1.033388e+00    1.518019e+00   2.343934e-02
  1.035599e+00    1.500556e+00   2.330752e-02
  1.037809e+00    1.492360e+00   2.324701e-02
  1.040020e+00    1.487400e+00   2.320959e-02
  1.042230e+00    1.485461e+00   2.319637e-02
  1.044441e+00    1.541728e+00   2.363137e-02
  1.046651e+00    1.531680e+00   2.355445e-02
  1.048862e+00    1.513787e+00   2.341565e-02
  1.051072e+00    1.503014e+00   2.332983e-02
  1.053282e+00    1.459759e+00   2.299074e-02
  1.055493e+00    1.482048e+00   2.316130e-02
  1.057703e+00    1.502325e+00   2.331770e-02
  1.059914e+00    1.616114e+00   2.418013e-02
  1.062124e+00    1.783261e+00   2.539540e-02
  1.064335e+00    1.742870e+00   2.510249e-02
  1.066545e+00    1.560201e+00   2.374446e-02
  1.068756e+00    1.476221e+00   2.309281e-02
  1.070966e+00    1.462743e+00   2.298064e-02
  1.073177e+00    1.426148e+00   2.268541e-02
  1.075387e+00    1.426358e+00   2.268190e-02
  1.077597e+00    1.453367e+00   2.288843e-02
  1.079808e+00    1.459437e+00   2.280366e-02
  1.082018e+00    1.434973e+00   2.242447e-02
  1.084229e+00    1.466021e+00   2.255550e-02
  1.086439e+00    1.454759e+00   2.238130e-02
  1.088650e+00    1.460020e+00   2.234588e-02
  1.090860e+00    1.530859e+00   2.281218e-02
  1.093071e+00    1.566338e+00   2.301043e-02
  1.095281e+00    1.465548e+00   2.220017e-02
  1.097492e+00    1.410583e+00   2.172560e-02
  1.099702e+00    1.432899e+00   2.184553e-02
  1.101912e+00    1.433528e+00   2.180156e-02
  1.104123e+00    1.464738e+00   2.198892e-02
  1.106333e+00    1.436307e+00   2.173001e-02
  1.108544e+00    1.408470e+00   2.147446e-02
  1.110754e+00    1.398455e+00   2.135538e-02
  1.112965e+00    1.397458e+00   2.130759e-02
  1.115175e+00    1.390348e+00   2.121257e-02
  1.117386e+00    1.410301e+00   2.132504e-02
  1.119596e+00    1.407418e+00   2.126541e-02
  1.121807e+00    1.416868e+00   2.129779e-02
  1.124017e+00    1.384971e+00   2.102033e-02
  1.126228e+00    1.393225e+00   2.104725e-02
  1.128438e+00    1.387184e+00   2.096501e-02
  1.130648e+00    1.353610e+00   2.067599e-02
  1.132859e+00    1.354505e+00   2.064896e-02
  1.135069e+00    1.395826e+00   2.092680e-02
  1.137280e+00    1.408762e+00   2.099034e-02
  1.139490e+00    1.374086e+00   2.069749e-02
  1.141701e+00    1.369814e+00   2.063234e-02
  1.143911e+00    1.361657e+00   2.053921e-02
  1.146122e+00    1.339965e+00   2.034342e-02
  1.148332e+00    1.326421e+00   2.020908e-02
  1.150543e+00    1.365066e+00   2.047067e-02
  1.152753e+00    1.325437e+00   2.014109e-02
  1.154963e+00    1.359940e+00   2.037063e-02
  1.157174e+00    1.387002e+00   2.054203e-02
  1.159384e+00    1.375280e+00   2.042514e-02
  1.161595e+00    1.401713e+00   2.059031e-02
  1.163805e+00    1.401026e+00   2.055566e-02
  1.166016e+00    1.381465e+00   2.038210e-02
  1.168226e+00    1.391967e+00   2.043017e-02
  1.170437e+00    1.437571e+00   2.073279e-02
  1.172647e+00    1.414343e+00   2.053523e-02
  1.174858e+00    1.396147e+00   2.037426e-02
  1.177068e+00    1.395112e+00   2.033812e-02
  1.179278e+00    1.413252e+00   2.044080e-02
  1.181489e+00    1.437712e+00   2.058915e-02
  1.183699e+00    1.473942e+00   2.081824e-02
  1.185910e+00    1.515936e+00   2.108339e-02
  1.188120e+00    1.422808e+00   2.039824e-02
  1.190331e+00    1.367379e+00   1.997004e-02
  1.192541e+00    1.339016e+00   1.973462e-02
  1.194752e+00    1.320166e+00   1.956849e-02
  1.196962e+00    1.373003e+00   1.993029e-02
  1.199173e+00    1.340108e+00   1.966372e-02
  1.201383e+00    1.336324e+00   1.960890e-02
  1.203593e+00    1.340362e+00   1.961378e-02
  1.205804e+00    1.327850e+00   1.949631e-02
  1.208014e+00    1.290340e+00   1.919273e-02
  1.210225e+00    1.300179e+00   1.924088e-02
  1.212435e+00    1.335442e+00   1.947541e-02
  1.214646e+00    1.334865e+00   1.944525e-02
  1.216856e+00    1.357123e+00   1.958114e-02
  1.219067e+00    1.350051e+00   1.950561e-02
  1.221277e+00    1.333767e+00   1.936274e-02
  1.223488e+00    1.326858e+00   1.928698e-02
  1.225698e+00    1.373690e+00   1.959727e-02
  1.227909e+00    1.354691e+00   1.943106e-02
  1.230119e+00    1.362274e+00   1.945338e-02
  1.232329e+00    1.337717e+00   1.924666e-02
  1.234540e+00    1.330766e+00   1.916651e-02
  1.236750e+00    1.345239e+00   1.924024e-02
  1.238961e+00    1.396644e+00   1.957696e-02
  1.241171e+00    1.426928e+00   1.976322e-02
  1.243382e+00    1.435721e+00   1.979977e-02
  1.245592e+00    1.419194e+00   1.966079e-02
  1.247803e+00    1.385050e+00   1.939888e-02
  1.250013e+00    1.356609e+00   1.917507e-02
  1.252224e+00    1.333639e+00   1.898894e-02
  1.254434e+00    1.342609e+00   1.902900e-02
  1.256644e+00    1.362420e+00   1.914556e-02
  1.258855e+00    1.368655e+00   1.916591e-02
  1.261065e+00    1.341786e+00   1.895354e-02
  1.263276e+00    1.313071e+00   1.872703e-02
  1.265486e+00    1.329290e+00   1.881959e-02
  1.267697e+00    1.322200e+00   1.874658e-02
  1.269907e+00    1.324731e+00   1.874202e-02
  1.272118e+00    1.320560e+00   1.869018e-02
  1.274328e+00    1.313264e+00   1.861604e-02
  1.276539e+00    1.327827e+00   1.869638e-02
  1.278749e+00    1.326420e+00   1.866438e-02
  1.280959e+00    1.368469e+00   1.893520e-02
  1.283170e+00    1.414512e+00   1.922817e-02
  1.285380e+00    1.401817e+00   1.911883e-02
  1.287591e+00    1.333219e+00   1.862329e-02
  1.289801e+00    1.342829e+00   1.866908e-02
  1.292012e+00    1.386057e+00   1.894989e-02
  1.294222e+00    1.385624e+00   1.893047e-02
  1.296433e+00    1.421068e+00   1.915507e-02
  1.298643e+00    1.380487e+00   1.886293e-02
  1.300854e+00    1.373670e+00   1.879975e-02
  1.303064e+00    1.357097e+00   1.866671e-02
  1.305274e+00    1.370288e+00   1.873561e-02
  1.307485e+00    1.382816e+00   1.879925e-02
  1.309695e+00    1.391247e+00   1.883390e-02
  1.311906e+00    1.419033e+00   1.899878e-02
  1.314116e+00    1.413718e+00   1.894190e-02
  1.316327e+00    1.391897e+00   1.877313e-02
  1.318537e+00    1.399475e+00   1.880187e-02
  1.320748e+00    1.407616e+00   1.883447e-02
  1.322958e+00    1.401062e+00   1.876968e-02
  1.325169e+00    1.394342e+00   1.870325e-02
  1.327379e+00    1.380703e+00   1.858948e-02
  1.329589e+00    1.415526e+00   1.880088e-02
  1.331800e+00    1.428357e+00   1.886460e-02
  1.334010e+00    1.415022e+00   1.875521e-02
  1.336221e+00    1.437918e+00   1.888385e-02
  1.338431e+00    1.458644e+00   1.899779e-02
  1.340642e+00    1.457539e+00   1.905728e-02
  1.342852e+00    1.425863e+00   1.895251e-02
  1.345063e+00    1.431201e+00   1.903891e-02
  1.347273e+00    1.424685e+00   1.903172e-02
  1.349484e+00    1.419065e+00   1.902254e-02
  1.351694e+00    1.394076e+00   1.887737e-02
  1.353905e+00    1.376166e+00   1.877389e-02
  1.356115e+00    1.341785e+00   1.855289e-02
  1.358325e+00    1.351113e+00   1.863058e-02
  1.360536e+00    1.334535e+00   1.852750e-02
  1.362746e+00    1.304687e+00   1.832853e-02
  1.364957e+00    1.338187e+00   1.856998e-02
  1.367167e+00    1.313977e+00   1.840830e-02
  1.369378e+00    1.330953e+00   1.853281e-02
  1.371588e+00    1.323092e+00   1.848311e-02
  1.373799e+00    1.330650e+00   1.853946e-02
  1.376009e+00    1.336648e+00   1.858461e-02
  1.378220e+00    1.297987e+00   1.831635e-02
  1.380430e+00    1.305363e+00   1.837100e-02
  1.382640e+00    1.306272e+00   1.837830e-02
  1.384851e+00    1.281987e+00   1.820754e-02
  1.387061e+00    1.283112e+00   1.821579e-02
  1.389272e+00    1.294385e+00   1.829586e-02
  1.391482e+00    1.288111e+00   1.825079e-02
  1.393693e+00    1.276926e+00   1.817050e-02
  1.395903e+00    1.304354e+00   1.836311e-02
  1.398114e+00    1.293863e+00   1.828774e-02
  1.400324e+00    1.295363e+00   1.829618e-02
  1.402535e+00    1.281553e+00   1.819609e-02
  1.404745e+00    1.276477e+00   1.815763e-02
  1.406955e+00    1.290171e+00   1.825206e-02
  1.409166e+00    1.290713e+00   1.825256e-02
  1.411376e+00    1.296102e+00   1.828748e-02
  1.413587e+00    1.272445e+00   1.811600e-02
  1.415797e+00    1.257380e+00   1.800493e-02
  1.418008e+00    1.259575e+00   1.797891e-02
  1.420218e+00    1.289687e+00   1.804168e-02
  1.422429e+00    1.286986e+00   1.793691e-02
  1.424639e+00    1.286170e+00   1.786610e-02
  1.426850e+00    1.297799e+00   1.789140e-02
  1.429060e+00    1.333467e+00   1.808539e-02
  1.431270e+00    1.345398e+00   1.812053e-02
  1.433481e+00    1.329172e+00   1.796902e-02
  1.435691e+00    1.307960e+00   1.778607e-02
  1.437902e+00    1.297011e+00   1.767461e-02
  1.440112e+00    1.304655e+00   1.769080e-02
  1.442323e+00    1.269486e+00   1.741770e-02
  1.444533e+00    1.289829e+00   1.752388e-02
  1.446744e+00    1.313232e+00   1.765049e-02
  1.448954e+00    1.319689e+00   1.766307e-02
  1.451165e+00    1.291555e+00   1.744376e-02
  1.453375e+00    1.267630e+00   1.725343e-02
  1.455586e+00    1.277800e+00   1.729423e-02
  1.457796e+00    1.275297e+00   1.724975e-02
  1.460006e+00    1.243680e+00   1.700758e-02
  1.462217e+00    1.272841e+00   1.717957e-02
  1.464427e+00    1.260299e+00   1.706922e-02
  1.466638e+00    1.259189e+00   1.703647e-02
  1.468848e+00    1.257844e+00   1.700215e-02
  1.471059e+00    1.251903e+00   1.693704e-02
  1.473269e+00    1.251472e+00   1.690990e-02
  1.475480e+00    1.273292e+00   1.703289e-02
  1.477690e+00    1.256628e+00   1.689734e-02
  1.479901e+00    1.239945e+00   1.676122e-02
  1.482111e+00    1.253626e+00   1.683021e-02
  1.484321e+00    1.268876e+00   1.690917e-02
  1.486532e+00    1.243595e+00   1.671774e-02
  1.488742e+00    1.240157e+00   1.667218e-02
  1.490953e+00    1.250943e+00   1.672202e-02
  1.493163e+00    1.259707e+00   1.675828e-02
  1.495374e+00    1.231310e+00   1.654708e-02
  1.497584e+00    1.251526e+00   1.666079e-02
  1.499795e+00    1.259004e+00   1.668887e-02
  1.502005e+00    1.239603e+00   1.653828e-02
  1.504216e+00    1.229495e+00   1.644991e-02
  1.506426e+00    1.271420e+00   1.670708e-02
  1.508636e+00    1.272568e+00   1.669410e-02
  1.510847e+00    1.267226e+00   1.663709e-02
  1.513057e+00    1.246960e+00   1.647853e-02
  1.515268e+00    1.251185e+00   1.648073e-02
  1.517478e+00    1.268737e+00   1.657064e-02
  1.519689e+00    1.260248e+00   1.649009e-02
  1.521899e+00    1.240527e+00   1.633758e-02
  1.524110e+00    1.245586e+00   1.635057e-02
  1.526320e+00    1.250912e+00   1.636592e-02
  1.528531e+00    1.248328e+00   1.632926e-02
  1.530741e+00    1.249433e+00   1.631735e-02
  1.532951e+00    1.255744e+00   1.633887e-02
  1.535162e+00    1.238795e+00   1.631447e-02
  1.537372e+00    1.238792e+00   1.638106e-02
  1.539583e+00    1.257403e+00   1.653802e-02
  1.541793e+00    1.268654e+00   1.661884e-02
  1.544004e+00    1.267896e+00   1.661415e-02
  1.546214e+00    1.255177e+00   1.652909e-02
  1.548425e+00    1.252560e+00   1.651211e-02
  1.550635e+00    1.251025e+00   1.651169e-02
  1.552846e+00    1.248870e+00   1.650715e-02
  1.555056e+00    1.227620e+00   1.632490e-02
  1.557266e+00    1.251841e+00   1.637437e-02
  1.559477e+00    1.249969e+00   1.630289e-02
  1.561687e+00    1.229520e+00   1.613850e-02
  1.563898e+00    1.236389e+00   1.616641e-02
  1.566108e+00    1.239886e+00   1.617333e-02
  1.568319e+00    1.236783e+00   1.613751e-02
  1.570529e+00    1.216397e+00   1.597911e-02
  1.572740e+00    1.236207e+00   1.608117e-02
  1.574950e+00    1.234070e+00   1.604107e-02
  1.577161e+00    1.256348e+00   1.615960e-02
  1.579371e+00    1.268216e+00   1.621187e-02
  1.581582e+00    1.252739e+00   1.609281e-02
  1.583792e+00    1.243289e+00   1.601398e-02
  1.586002e+00    1.243845e+00   1.599994e-02
  1.588213e+00    1.231877e+00   1.590563e-02
  1.590423e+00    1.249739e+00   1.600041e-02
  1.592634e+00    1.227098e+00   1.583335e-02
  1.594844e+00    1.211000e+00   1.570801e-02
  1.597055e+00    1.242654e+00   1.589149e-02
  1.599265e+00    1.231739e+00   1.580091e-02
  1.601476e+00    1.221829e+00   1.571706e-02
  1.603686e+00    1.227250e+00   1.573224e-02
  1.605897e+00    1.220329e+00   1.566780e-02
  1.608107e+00    1.229027e+00   1.570405e-02
  1.610317e+00    1.227820e+00   1.567711e-02
  1.612528e+00    1.204054e+00   1.550570e-02
  1.614738e+00    1.215188e+00   1.555841e-02
  1.616949e+00    1.188940e+00   1.537077e-02
  1.619159e+00    1.203820e+00   1.544808e-02
  1.621370e+00    1.221184e+00   1.554062e-02
  1.623580e+00    1.197097e+00   1.536840e-02
  1.625791e+00    1.179577e+00   1.523748e-02
  1.628001e+00    1.153805e+00   1.505223e-02
  1.630212e+00    1.154095e+00   1.503663e-02
  1.632422e+00    1.177240e+00   1.516884e-02
  1.634632e+00    1.154192e+00   1.500253e-02
  1.636843e+00    1.143465e+00   1.491535e-02
  1.639053e+00    1.140019e+00   1.487583e-02
  1.641264e+00    1.135619e+00   1.483023e-02
  1.643474e+00    1.152434e+00   1.492233e-02
  1.645685e+00    1.099922e+00   1.456215e-02
  1.647895e+00    1.107242e+00   1.459427e-02
  1.650106e+00    1.102742e+00   1.454794e-02
  1.652316e+00    1.098614e+00   1.450456e-02
  1.654527e+00    1.127180e+00   1.467537e-02
  1.656737e+00    1.086535e+00   1.439217e-02
  1.658947e+00    1.096423e+00   1.444146e-02
  1.661158e+00    1.130330e+00   1.464679e-02
  1.663368e+00    1.083809e+00   1.432649e-02
  1.665579e+00    1.088830e+00   1.434368e-02
  1.667789e+00    1.088690e+00   1.432673e-02
  1.670000e+00    1.106280e+00   1.442657e-02
  1.672210e+00    1.078608e+00   1.422934e-02
  1.674421e+00    1.085364e+00   1.425863e-02
  1.676631e+00    1.075939e+00   1.418091e-02
  1.678842e+00    1.085953e+00   1.423105e-02
  1.681052e+00    1.173154e+00   1.477542e-02
  1.683263e+00    1.331569e+00   1.572470e-02
  1.685473e+00    1.284692e+00   1.542907e-02
  1.687683e+00    1.132377e+00   1.446978e-02
  1.689894e+00    1.079718e+00   1.411354e-02
  1.692104e+00    1.043120e+00   1.385760e-02
  1.694315e+00    1.035290e+00   1.379122e-02
  1.696525e+00    1.043720e+00   1.383229e-02
  1.698736e+00    1.049365e+00   1.385493e-02
  1.700946e+00    1.038844e+00   1.377033e-02
  1.703157e+00    1.031582e+00   1.370765e-02
  1.705367e+00    1.019672e+00   1.361402e-02
  1.707578e+00    1.025320e+00   1.363726e-02
  1.709788e+00    1.016394e+00   1.356387e-02
  1.711998e+00    1.004012e+00   1.346626e-02
  1.714209e+00    9.879115e-01   1.334378e-02
  1.716419e+00    9.909584e-01   1.335035e-02
  1.718630e+00    1.024232e+00   1.355843e-02
  1.720840e+00    1.048104e+00   1.370121e-02
  1.723051e+00    1.071116e+00   1.383664e-02
  1.725261e+00    1.085112e+00   1.391160e-02
  1.727472e+00    1.063403e+00   1.375726e-02
  1.729682e+00    1.021959e+00   1.347300e-02
  1.731893e+00    9.843082e-01   1.320878e-02
  1.734103e+00    9.990664e-01   1.329369e-02
  1.736313e+00    1.024934e+00   1.345055e-02
  1.738524e+00    1.032209e+00   1.348418e-02
  1.740734e+00    1.007692e+00   1.330933e-02
  1.742945e+00    9.778743e-01   1.309761e-02
  1.745155e+00    9.702595e-01   1.303320e-02
  1.747366e+00    9.999072e-01   1.321695e-02
  1.749576e+00    1.004549e+00   1.323378e-02
  1.751787e+00    9.967769e-01   1.316907e-02
  1.753997e+00    9.862869e-01   1.308616e-02
  1.756208e+00    9.844114e-01   1.306043e-02
  1.758418e+00    1.003576e+00   1.317364e-02
  1.760628e+00    9.824495e-01   1.302080e-02
  1.762839e+00    9.471653e-01   1.277176e-02
  1.765049e+00    9.267922e-01   1.262075e-02
  1.767260e+00    9.650115e-01   1.286552e-02
  1.769470e+00    9.405929e-01   1.268882e-02
  1.771681e+00    9.369177e-01   1.265097e-02
  1.773891e+00    9.362450e-01   1.263347e-02
  1.776102e+00    9.316622e-01   1.258975e-02
  1.778312e+00    9.280394e-01   1.255262e-02
  1.780523e+00    9.620714e-01   1.276782e-02
  1.782733e+00    1.024238e+00   1.316063e-02
  1.784944e+00    1.015060e+00   1.308817e-02
  1.787154e+00    9.563833e-01   1.269151e-02
  1.789364e+00    9.409066e-01   1.257589e-02
  1.791575e+00    9.077259e-01   1.233973e-02
  1.793785e+00    9.057207e-01   1.231379e-02
  1.795996e+00    9.153708e-01   1.236675e-02
  1.798206e+00    8.919541e-01   1.219521e-02
  1.800417e+00    8.913630e-01   1.217866e-02
  1.802627e+00    8.840219e-01   1.211667e-02
  1.804838e+00    8.920282e-01   1.215942e-02
  1.807048e+00    9.526466e-01   1.255263e-02
  1.809259e+00    9.564265e-01   1.256358e-02
  1.811469e+00    9.140769e-01   1.226724e-02
  1.813679e+00    8.651389e-01   1.191967e-02
  1.815890e+00    8.664605e-01   1.191427e-02
  1.818100e+00    8.747847e-01   1.195644e-02
  1.820311e+00    8.592935e-01   1.183564e-02
  1.822521e+00    8.668517e-01   1.187289e-02
  1.824732e+00    9.003331e-01   1.208514e-02
  1.826942e+00    8.498226e-01   1.172919e-02
  1.829153e+00    8.510609e-01   1.172623e-02
  1.831363e+00    8.410252e-01   1.164518e-02
  1.833574e+00    8.517654e-01   1.170778e-02
  1.835784e+00    8.675367e-01   1.180436e-02
  1.837994e+00    8.611097e-01   1.174893e-02
  1.840205e+00    8.910191e-01   1.193996e-02
  1.842415e+00    8.793375e-01   1.184963e-02
  1.844626e+00    8.636962e-01   1.173226e-02
  1.846836e+00    8.512712e-01   1.163624e-02
  1.849047e+00    8.422362e-01   1.156288e-02
  1.851257e+00    8.361351e-01   1.151150e-02
  1.853468e+00    8.481102e-01   1.158490e-02
  1.855678e+00    8.423131e-01   1.153648e-02
  1.857889e+00    8.166326e-01   1.135094e-02
  1.860099e+00    8.231463e-01   1.138767e-02
  1.862309e+00    8.488095e-01   1.155534e-02
  1.864520e+00    8.664647e-01   1.166628e-02
  1.866730e+00    8.636685e-01   1.163801e-02
  1.868941e+00    8.565856e-01   1.157922e-02
  1.871151e+00    8.526803e-01   1.154141e-02
  1.873362e+00    8.385293e-01   1.143396e-02
  1.875572e+00    8.357121e-01   1.140390e-02
  1.877783e+00    8.461792e-01   1.146366e-02
  1.879993e+00    8.585576e-01   1.153596e-02
  1.882204e+00    8.669502e-01   1.158120e-02
  1.884414e+00    8.534538e-01   1.147954e-02
  1.886624e+00    8.482183e-01   1.143320e-02
  1.888835e+00    8.311050e-01   1.130634e-02
  1.891045e+00    8.466088e-01   1.140041e-02
  1.893256e+00    8.238800e-01   1.123534e-02
  1.895466e+00    8.281573e-01   1.125334e-02
  1.897677e+00    8.474131e-01   1.137242e-02
  1.899887e+00    8.594829e-01   1.144197e-02
  1.902098e+00    8.875270e-01   1.161594e-02
  1.904308e+00    8.976429e-01   1.167097e-02
  1.906519e+00    8.800381e-01   1.154481e-02
  1.908729e+00    8.811445e-01   1.154110e-02
  1.910940e+00    9.120439e-01   1.173003e-02
  1.913150e+00    9.445604e-01   1.192595e-02
  1.915360e+00    1.160136e+00   1.320434e-02
  1.917571e+00    1.233599e+00   1.360282e-02
  1.919781e+00    1.034062e+00   1.244225e-02
  1.921992e+00    8.846313e-01   1.149712e-02
  1.924202e+00    8.466558e-01   1.123662e-02
  1.926413e+00    8.426038e-01   1.119927e-02
  1.928623e+00    8.165132e-01   1.101394e-02
  1.930834e+00    8.216885e-01   1.103830e-02
  1.933044e+00    8.297497e-01   1.108154e-02
  1.935255e+00    8.139009e-01   1.096484e-02
  1.937465e+00    7.968892e-01   1.083931e-02
  1.939675e+00    8.248769e-01   1.101706e-02
  1.941886e+00    8.060326e-01   1.088020e-02
  1.944096e+00    8.074512e-01   1.087955e-02
  1.946307e+00    8.046849e-01   1.085055e-02
  1.948517e+00    7.989887e-01   1.080164e-02
  1.950728e+00    7.908896e-01   1.073655e-02
  1.952938e+00    7.883615e-01   1.070936e-02
  1.955149e+00    7.836720e-01   1.066730e-02
  1.957359e+00    7.774341e-01   1.061483e-02
  1.959570e+00    7.742308e-01   1.058222e-02
  1.961780e+00    7.852232e-01   1.064720e-02
  1.963990e+00    7.792876e-01   1.059686e-02
  1.966201e+00    7.829620e-01   1.061179e-02
  1.968411e+00    7.923559e-01   1.066509e-02
  1.970622e+00    7.875807e-01   1.062280e-02
  1.972832e+00    8.040984e-01   1.072356e-02
  1.975043e+00    7.895802e-01   1.061625e-02
  1.977253e+00    7.889749e-01   1.060219e-02
  1.979464e+00    7.855707e-01   1.056926e-02
  1.981674e+00    7.726109e-01   1.047152e-02
  1.983885e+00    7.726665e-01   1.046192e-02
  1.986095e+00    7.863389e-01   1.054436e-02
  1.988305e+00    7.611478e-01   1.036430e-02
  1.990516e+00    7.708255e-01   1.042009e-02
  1.992726e+00    7.827566e-01   1.049074e-02
  1.994937e+00    7.708024e-01   1.040024e-02
  1.997147e+00    7.617006e-01   1.032902e-02
  1.999358e+00    7.553797e-01   1.027632e-02
  2.001568e+00    7.754197e-01   1.040093e-02
  2.003779e+00    7.697349e-01   1.035083e-02
  2.005989e+00    7.633709e-01   1.029601e-02
  2.008200e+00    7.653936e-01   1.029815e-02
  2.010410e+00    7.693043e-01   1.031267e-02
  2.012621e+00    7.674595e-01   1.028861e-02
  2.014831e+00    7.592494e-01   1.022202e-02
  2.017041e+00    7.571222e-01   1.019736e-02
  2.019252e+00    7.638820e-01   1.023285e-02
  2.021462e+00    7.552890e-01   1.016568e-02
  2.023673e+00    7.658041e-01   1.022678e-02
  2.025883e+00    7.780015e-01   1.029831e-02
  2.028094e+00    7.576187e-01   1.015292e-02
  2.030304e+00    7.433733e-01   1.004757e-02
  2.032515e+00    7.566146e-01   1.012740e-02
  2.034725e+00    7.500845e-01   1.007420e-02
  2.036936e+00    7.518491e-01   1.007676e-02
  2.039146e+00    7.395828e-01   9.984754e-03
  2.041356e+00    7.547728e-01   1.007714e-02
  2.043567e+00    7.377107e-01   9.953395e-03
  2.045777e+00    7.580746e-01   1.008055e-02
  2.047988e+00    7.714568e-01   1.015969e-02
  2.050198e+00    7.628031e-01   1.009407e-02
  2.052409e+00    7.535411e-01   1.002492e-02
  2.054619e+00    7.392450e-01   9.922078e-03
  2.056830e+00    7.287505e-01   9.844327e-03
  2.059040e+00    7.371439e-01   9.893393e-03
  2.061251e+00    7.532548e-01   9.993665e-03
  2.063461e+00    7.580508e-01   1.001780e-02
  2.065671e+00    7.400029e-01   9.889155e-03
  2.067882e+00    7.496198e-01   9.944199e-03
  2.070092e+00    7.475678e-01   9.921378e-03
  2.072303e+00    7.543342e-01   9.956997e-03
  2.074513e+00    7.527729e-01   9.937311e-03
  2.076724e+00    7.326940e-01   9.794516e-03
  2.078934e+00    7.381155e-01   9.821692e-03
  2.081145e+00    7.451505e-01   9.859308e-03
  2.083355e+00    7.310429e-01   9.756418e-03
  2.085566e+00    7.399359e-01   9.806673e-03
  2.087776e+00    7.279364e-01   9.717410e-03
  2.089986e+00    7.217908e-01   9.667605e-03
  2.092197e+00    7.240359e-01   9.673762e-03
  2.094407e+00    7.307639e-01   9.709402e-03
  2.096618e+00    7.247420e-01   9.660487e-03
  2.098828e+00    7.237549e-01   9.644673e-03
  2.101039e+00    7.067072e-01   9.521584e-03
  2.103249e+00    7.271703e-01   9.649795e-03
  2.105460e+00    6.953483e-01   9.427509e-03
  2.107670e+00    7.093684e-01   9.513443e-03
  2.109881e+00    7.140383e-01   9.535632e-03
  2.112091e+00    7.145640e-01   9.530212e-03
  2.114301e+00    7.415475e-01   9.699616e-03
  2.116512e+00    7.238198e-01   9.574174e-03
  2.118722e+00    7.186309e-01   9.530982e-03
  2.120933e+00    7.282975e-01   9.585978e-03
  2.123143e+00    7.069142e-01   9.435360e-03
  2.125354e+00    7.178152e-01   9.499294e-03
  2.127564e+00    7.176464e-01   9.489451e-03
  2.129775e+00    7.068617e-01   9.409213e-03
  2.131985e+00    6.958193e-01   9.326469e-03
  2.134196e+00    7.101713e-01   9.413597e-03
  2.136406e+00    7.095727e-01   9.400916e-03
  2.138617e+00    7.017295e-01   9.340398e-03
  2.140827e+00    7.020015e-01   9.358192e-03
  2.143037e+00    7.106985e-01   9.461574e-03
  2.145248e+00    7.092488e-01   9.473976e-03
  2.147458e+00    7.087319e-01   9.485709e-03
  2.149669e+00    7.096146e-01   9.503523e-03
  2.151879e+00    7.020234e-01   9.461780e-03
  2.154090e+00    6.940317e-01   9.415031e-03
  2.156300e+00    7.125454e-01   9.546446e-03
  2.158511e+00    6.893107e-01   9.394806e-03
  2.160721e+00    6.927269e-01   9.422806e-03
  2.162932e+00    7.031967e-01   9.497536e-03
  2.165142e+00    6.863989e-01   9.386402e-03
  2.167352e+00    6.849329e-01   9.379259e-03
  2.169563e+00    6.889745e-01   9.408838e-03
  2.171773e+00    6.745538e-01   9.312271e-03
  2.173984e+00    6.720081e-01   9.296051e-03
  2.176194e+00    6.926409e-01   9.438896e-03
  2.178405e+00    6.821902e-01   9.368110e-03
  2.180615e+00    6.722931e-01   9.300576e-03
  2.182826e+00    6.836749e-01   9.379647e-03
  2.185036e+00    6.924899e-01   9.439972e-03
  2.187247e+00    6.768349e-01   9.332623e-03
  2.189457e+00    6.642289e-01   9.244893e-03
  2.191667e+00    6.801441e-01   9.354807e-03
  2.193878e+00    6.717879e-01   9.296630e-03
  2.196088e+00    6.695334e-01   9.280319e-03
  2.198299e+00    6.727299e-01   9.301377e-03
  2.200509e+00    6.697345e-01   9.279589e-03
  2.202720e+00    6.769531e-01   9.328326e-03
  2.204930e+00    6.849881e-01   9.382271e-03
  2.207141e+00    6.822652e-01   9.362491e-03
  2.209351e+00    6.855585e-01   9.383173e-03
  2.211562e+00    6.706990e-01   9.279337e-03
  2.213772e+00    6.583452e-01   9.138723e-03
  2.215982e+00    6.775964e-01   9.227133e-03
  2.218193e+00    6.724930e-01   9.162745e-03
  2.220403e+00    6.672604e-01   9.102607e-03
  2.222614e+00    6.592410e-01   9.026999e-03
  2.224824e+00    6.524643e-01   8.961417e-03
  2.227035e+00    6.499315e-01   8.926843e-03
  2.229245e+00    6.617199e-01   8.990603e-03
  2.231456e+00    6.690916e-01   9.024957e-03
  2.233666e+00    6.631840e-01   8.970023e-03
  2.235877e+00    6.653271e-01   8.970274e-03
  2.238087e+00    7.027015e-01   9.204992e-03
  2.240298e+00    7.070153e-01   9.219042e-03
  2.242508e+00    6.981893e-01   9.145876e-03
  2.244718e+00    6.963519e-01   9.117707e-03
  2.246929e+00    6.869180e-01   9.041103e-03
  2.249139e+00    7.000626e-01   9.114517e-03
  2.251350e+00    6.943300e-01   9.065172e-03
  2.253560e+00    6.992115e-01   9.085150e-03
  2.255771e+00    6.994767e-01   9.075169e-03
  2.257981e+00    6.942371e-01   9.029697e-03
  2.260192e+00    6.937252e-01   9.015018e-03
  2.262402e+00    6.857469e-01   8.952012e-03
  2.264613e+00    6.645048e-01   8.801425e-03
  2.266823e+00    6.572402e-01   8.742823e-03
  2.269033e+00    6.582311e-01   8.739064e-03
  2.271244e+00    6.977082e-01   8.986616e-03
  2.273454e+00    7.908791e-01   9.556619e-03
  2.275665e+00    8.509278e-01   9.901156e-03
  2.277875e+00    7.895864e-01   9.526806e-03
  2.280086e+00    7.028474e-01   8.977936e-03
  2.282296e+00    6.626561e-01   8.708000e-03
  2.284507e+00    6.491364e-01   8.608661e-03
  2.286717e+00    6.596153e-01   8.668371e-03
  2.288928e+00    6.539534e-01   8.621260e-03
  2.291138e+00    6.372473e-01   8.501141e-03
  2.293348e+00    6.471834e-01   8.557665e-03
  2.295559e+00    6.380756e-01   8.488071e-03
  2.297769e+00    6.454525e-01   8.527797e-03
  2.299980e+00    6.480420e-01   8.535596e-03
  2.302190e+00    6.549258e-01   8.571667e-03
  2.304401e+00    6.581416e-01   8.583332e-03
  2.306611e+00    6.515816e-01   8.531247e-03
  2.308822e+00    6.518086e-01   8.524341e-03
  2.311032e+00    6.388552e-01   8.432840e-03
  2.313243e+00    6.508470e-01   8.505314e-03
  2.315453e+00    6.445023e-01   8.456228e-03
  2.317663e+00    6.428108e-01   8.436028e-03
  2.319874e+00    6.379055e-01   8.395094e-03
  2.322084e+00    6.455783e-01   8.436494e-03
  2.324295e+00    6.424060e-01   8.407510e-03
  2.326505e+00    6.438131e-01   8.407676e-03
  2.328716e+00    6.329333e-01   8.327855e-03
  2.330926e+00    6.375691e-01   8.349529e-03
  2.333137e+00    6.497467e-01   8.420472e-03
  2.335347e+00    6.447896e-01   8.379403e-03
  2.337558e+00    6.166140e-01   8.186199e-03
  2.339768e+00    6.432423e-01   8.352480e-03
  2.341979e+00    6.328848e-01   8.276653e-03
  2.344189e+00    6.267787e-01   8.228293e-03
  2.346399e+00    6.510419e-01   8.377447e-03
  2.348610e+00    6.466303e-01   8.340500e-03
  2.350820e+00    6.313478e-01   8.233196e-03
  2.353031e+00    6.137892e-01   8.109739e-03
  2.355241e+00    6.098825e-01   8.075985e-03
  2.357452e+00    6.256136e-01   8.171093e-03
  2.359662e+00    6.306011e-01   8.195392e-03
  2.361873e+00    6.281257e-01   8.171084e-03
  2.364083e+00    6.181562e-01   8.098039e-03
  2.366294e+00    6.243600e-01   8.130509e-03
  2.368504e+00    6.204161e-01   8.096738e-03
  2.370714e+00    6.245872e-01   8.115866e-03
  2.372925e+00    6.075890e-01   7.996746e-03
  2.375135e+00    6.186689e-01   8.061275e-03
  2.377346e+00    6.107394e-01   8.001615e-03
  2.379556e+00    6.220099e-01   8.067194e-03
  2.381767e+00    6.097704e-01   7.979658e-03
  2.383977e+00    6.086322e-01   7.964343e-03
  2.386188e+00    6.174414e-01   8.013865e-03
  2.388398e+00    6.078188e-01   7.943294e-03
  2.390609e+00    6.103832e-01   7.952343e-03
  2.392819e+00    6.147120e-01   7.972741e-03
  2.395029e+00    6.035256e-01   7.892269e-03
  2.397240e+00    6.131988e-01   7.947396e-03
  2.399450e+00    6.242048e-01   8.010552e-03
  2.401661e+00    5.899864e-01   7.780336e-03
  2.403871e+00    5.972458e-01   7.820389e-03
  2.406082e+00    6.004841e-01   7.834182e-03
  2.408292e+00    6.041110e-01   7.850046e-03
  2.410503e+00    6.015866e-01   7.826186e-03
  2.412713e+00    5.906644e-01   7.747121e-03
  2.414924e+00    6.168079e-01   7.909149e-03
  2.417134e+00    6.030274e-01   7.812707e-03
  2.419344e+00    6.032028e-01   7.806405e-03
  2.421555e+00    5.968204e-01   7.757537e-03
  2.423765e+00    6.077718e-01   7.820927e-03
  2.425976e+00    6.094271e-01   7.823697e-03
  2.428186e+00    5.947202e-01   7.721557e-03
  2.430397e+00    5.879127e-01   7.669778e-03
  2.432607e+00    6.034093e-01   7.762888e-03
  2.434818e+00    5.838078e-01   7.628314e-03
  2.437028e+00    5.743080e-01   7.558938e-03
  2.439239e+00    5.942488e-01   7.681390e-03
  2.441449e+00    5.900663e-01   7.647142e-03
  2.443659e+00    5.902957e-01   7.641274e-03
  2.445870e+00    5.790334e-01   7.580176e-03
  2.448080e+00    5.659891e-01   7.528592e-03
  2.450291e+00    5.793365e-01   7.633484e-03
  2.452501e+00    5.671520e-01   7.563874e-03
  2.454712e+00    5.553721e-01   7.493179e-03
  2.456922e+00    5.667823e-01   7.576374e-03
  2.459133e+00    5.545685e-01   7.499674e-03
  2.461343e+00    5.428365e-01   7.424170e-03
  2.463554e+00    5.528727e-01   7.495914e-03
  2.465764e+00    5.582364e-01   7.535318e-03
  2.467975e+00    5.557960e-01   7.521102e-03
  2.470185e+00    5.638146e-01   7.577436e-03
  2.472395e+00    5.442284e-01   7.445870e-03
  2.474606e+00    5.382335e-01   7.406278e-03
  2.476816e+00    5.489811e-01   7.480582e-03
  2.479027e+00    5.402050e-01   7.421403e-03
  2.481237e+00    5.371940e-01   7.400971e-03
  2.483448e+00    5.360497e-01   7.393372e-03
  2.485658e+00    5.503070e-01   7.490903e-03
  2.487869e+00    5.336183e-01   7.376497e-03
  2.490079e+00    5.327705e-01   7.370097e-03
  2.492290e+00    5.407205e-01   7.424460e-03
  2.494500e+00    5.362287e-01   7.392825e-03
  2.496710e+00    5.433068e-01   7.440756e-03
  2.498921e+00    5.427193e-01   7.435735e-03
  2.501131e+00    5.381385e-01   7.403340e-03
  2.503342e+00    5.300264e-01   7.346060e-03
  2.505552e+00    5.367734e-01   7.391526e-03
  2.507763e+00    5.268393e-01   7.321417e-03
  2.509973e+00    5.191914e-01   7.266680e-03
  2.512184e+00    5.232601e-01   7.293500e-03
  2.514394e+00    5.202779e-01   7.263383e-03
  2.516605e+00    5.327705e-01   7.302708e-03
  2.518815e+00    5.351058e-01   7.290157e-03
  2.521025e+00    5.310709e-01   7.241528e-03
  2.523236e+00    5.231227e-01   7.169199e-03
  2.525446e+00    5.314741e-01   7.210494e-03
  2.527657e+00    5.347356e-01   7.217868e-03
  2.529867e+00    5.199369e-01   7.103168e-03
  2.532078e+00    5.273000e-01   7.138216e-03
  2.534288e+00    5.302204e-01   7.144013e-03
  2.536499e+00    5.100824e-01   6.995250e-03
  2.538709e+00    5.121486e-01   6.998542e-03
  2.540920e+00    5.077977e-01   6.958267e-03
  2.543130e+00    5.137883e-01   6.988926e-03
  2.545340e+00    5.156600e-01   6.991663e-03
  2.547551e+00    5.293381e-01   7.073768e-03
  2.549761e+00    5.375428e-01   7.118681e-03
  2.551972e+00    5.194703e-01   6.988653e-03
  2.554182e+00    5.415475e-01   7.126215e-03
  2.556393e+00    6.325937e-01   7.691994e-03
  2.558603e+00    6.311449e-01   7.673235e-03
  2.560814e+00    5.684373e-01   7.272981e-03
  2.563024e+00    5.366355e-01   7.057865e-03
  2.565235e+00    5.373843e-01   7.053114e-03
  2.567445e+00    5.196353e-01   6.926094e-03
  2.569656e+00    5.208444e-01   6.924377e-03
  2.571866e+00    5.097476e-01   6.840949e-03
  2.574076e+00    5.120525e-01   6.847135e-03
  2.576287e+00    5.148009e-01   6.857195e-03
  2.578497e+00    5.093394e-01   6.812932e-03
  2.580708e+00    5.088665e-01   6.801729e-03
  2.582918e+00    5.047177e-01   6.766254e-03
  2.585129e+00    5.085770e-01   6.784377e-03
  2.587339e+00    5.045340e-01   6.749752e-03
  2.589550e+00    5.023329e-01   6.727521e-03
  2.591760e+00    5.138310e-01   6.796339e-03
  2.593971e+00    5.152199e-01   6.797972e-03
  2.596181e+00    5.272202e-01   6.870359e-03
  2.598391e+00    5.081789e-01   6.739990e-03
  2.600602e+00    5.157806e-01   6.784238e-03
  2.602812e+00    5.284324e-01   6.859285e-03
  2.605023e+00    5.173330e-01   6.779629e-03
  2.607233e+00    5.248587e-01   6.821506e-03
  2.609444e+00    5.337548e-01   6.871657e-03
  2.611654e+00    5.126415e-01   6.727036e-03
  2.613865e+00    5.096188e-01   6.700101e-03
  2.616075e+00    4.944198e-01   6.592378e-03
  2.618286e+00    4.907924e-01   6.561253e-03
  2.620496e+00    4.923356e-01   6.564942e-03
  2.622706e+00    4.992810e-01   6.605385e-03
  2.624917e+00    5.051847e-01   6.638453e-03
  2.627127e+00    5.072864e-01   6.646517e-03
  2.629338e+00    4.862761e-01   6.501533e-03
  2.631548e+00    4.926845e-01   6.538127e-03
  2.633759e+00    4.951823e-01   6.547592e-03
  2.635969e+00    4.948200e-01   6.538547e-03
  2.638180e+00    5.043169e-01   6.593992e-03
  2.640390e+00    4.999859e-01   6.559021e-03
  2.642601e+00    4.991036e-01   6.546584e-03
  2.644811e+00    4.978892e-01   6.531559e-03
  2.647021e+00    5.042165e-01   6.566326e-03
  2.649232e+00    5.050582e-01   6.565057e-03
  2.651442e+00    4.910837e-01   6.467152e-03
  2.653653e+00    5.063829e-01   6.560260e-03
  2.655863e+00    5.019507e-01   6.524781e-03
  2.658074e+00    5.109606e-01   6.576397e-03
  2.660284e+00    5.029040e-01   6.517950e-03
  2.662495e+00    4.915037e-01   6.436933e-03
  2.664705e+00    4.922768e-01   6.435446e-03
  2.666916e+00    5.015284e-01   6.489152e-03
  2.669126e+00    4.871726e-01   6.389210e-03
  2.671337e+00    4.875699e-01   6.385268e-03
  2.673547e+00    4.928535e-01   6.413425e-03
  2.675757e+00    4.940773e-01   6.414914e-03
  2.677968e+00    4.978993e-01   6.433159e-03
  2.680178e+00    4.943376e-01   6.403679e-03
  2.682389e+00    4.974232e-01   6.417233e-03
  2.684599e+00    4.853710e-01   6.332867e-03
  2.686810e+00    4.924134e-01   6.372024e-03
  2.689020e+00    4.956695e-01   6.386756e-03
  2.691231e+00    4.913164e-01   6.352350e-03
  2.693441e+00    4.927216e-01   6.355276e-03
  2.695652e+00    4.926823e-01   6.348477e-03
  2.697862e+00    4.833397e-01   6.281717e-03
  2.700072e+00    4.803187e-01   6.256022e-03
  2.702283e+00    4.815604e-01   6.257926e-03
  2.704493e+00    4.906892e-01   6.310677e-03
  2.706704e+00    4.936681e-01   6.323347e-03
  2.708914e+00    4.943921e-01   6.321998e-03
  2.711125e+00    4.900084e-01   6.287638e-03
  2.713335e+00    5.038139e-01   6.369392e-03
  2.715546e+00    4.953777e-01   6.309360e-03
  2.717756e+00    4.839502e-01   6.230256e-03
  2.719967e+00    4.974667e-01   6.310393e-03
  2.722177e+00    4.881487e-01   6.244876e-03
  2.724387e+00    4.865280e-01   6.228379e-03
  2.726598e+00    4.836396e-01   6.203817e-03
  2.728808e+00    4.986109e-01   6.292869e-03
  2.731019e+00    4.855732e-01   6.203942e-03
  2.733229e+00    4.880761e-01   6.214055e-03
  2.735440e+00    4.817754e-01   6.167591e-03
  2.737650e+00    4.804376e-01   6.152997e-03
  2.739861e+00    4.942597e-01   6.234744e-03
  2.742071e+00    5.022643e-01   6.279193e-03
  2.744282e+00    4.814176e-01   6.141249e-03
  2.746492e+00    4.845201e-01   6.154965e-03
  2.748702e+00    4.856657e-01   6.156297e-03
  2.750913e+00    4.837329e-01   6.138244e-03
  2.753123e+00    4.700698e-01   6.044887e-03
  2.755334e+00    4.677915e-01   6.024227e-03
  2.757544e+00    4.788217e-01   6.089095e-03
  2.759755e+00    4.973127e-01   6.199587e-03
  2.761965e+00    4.827909e-01   6.102395e-03
  2.764176e+00    4.803464e-01   6.080940e-03
  2.766386e+00    4.779713e-01   6.060103e-03
  2.768597e+00    4.876966e-01   6.115537e-03
  2.770807e+00    4.854890e-01   6.095771e-03
  2.773017e+00    4.746673e-01   6.021508e-03
  2.775228e+00    4.782324e-01   6.038278e-03
  2.777438e+00    4.765822e-01   6.022076e-03
  2.779649e+00    4.731084e-01   5.994222e-03
  2.781859e+00    4.702443e-01   5.970330e-03
  2.784070e+00    4.816108e-01   6.036159e-03
  2.786280e+00    4.778937e-01   6.007060e-03
  2.788491e+00    4.707513e-01   5.956203e-03
  2.790701e+00    4.708446e-01   5.951175e-03
  2.792912e+00    4.726966e-01   5.956929e-03
  2.795122e+00    4.754748e-01   5.968676e-03
  2.797333e+00    4.855292e-01   6.025838e-03
  2.799543e+00    4.775925e-01   5.970512e-03
  2.801753e+00    4.762102e-01   5.956007e-03
  2.803964e+00    4.719699e-01   5.923778e-03
  2.806174e+00    4.759227e-01   5.942381e-03
  2.808385e+00    4.775104e-01   5.945493e-03
  2.810595e+00    4.570213e-01   5.809781e-03
  2.812806e+00    4.683652e-01   5.874872e-03
  2.815016e+00    4.766220e-01   5.921683e-03
  2.817227e+00    4.760840e-01   5.944310e-03
  2.819437e+00    4.836923e-01   6.002835e-03
  2.821648e+00    4.742604e-01   5.946311e-03
  2.823858e+00    4.646226e-01   5.890855e-03
  2.826068e+00    4.710386e-01   5.936366e-03
  2.828279e+00    4.688064e-01   5.926313e-03
  2.830489e+00    4.631891e-01   5.894008e-03
  2.832700e+00    4.648158e-01   5.906871e-03
  2.834910e+00    4.688516e-01   5.934527e-03
  2.837121e+00    4.706609e-01   5.947669e-03
  2.839331e+00    4.736322e-01   5.967653e-03
  2.841542e+00    4.691502e-01   5.940368e-03
  2.843752e+00    4.620090e-01   5.895756e-03
  2.845963e+00    4.732240e-01   5.967282e-03
  2.848173e+00    4.620167e-01   5.896282e-03
  2.850383e+00    4.650852e-01   5.916130e-03
  2.852594e+00    4.702821e-01   5.949004e-03
  2.854804e+00    4.747820e-01   5.976896e-03
  2.857015e+00    4.604556e-01   5.885602e-03
  2.859225e+00    4.683543e-01   5.935605e-03
  2.861436e+00    4.672043e-01   5.927667e-03
  2.863646e+00    4.745095e-01   5.973858e-03
  2.865857e+00    4.661013e-01   5.921058e-03
  2.868067e+00    4.722074e-01   5.959915e-03
  2.870278e+00    4.616261e-01   5.892436e-03
  2.872488e+00    4.555279e-01   5.852210e-03
  2.874698e+00    4.670606e-01   5.924792e-03
  2.876909e+00    4.615330e-01   5.888302e-03
  2.879119e+00    4.554798e-01   5.847949e-03
  2.881330e+00    4.617814e-01   5.886789e-03
  2.883540e+00    4.620241e-01   5.886961e-03
  2.885751e+00    4.524043e-01   5.823722e-03
  2.887961e+00    4.528627e-01   5.824793e-03
  2.890172e+00    4.611960e-01   5.876543e-03
  2.892382e+00    4.489494e-01   5.796224e-03
  2.894593e+00    4.571354e-01   5.847010e-03
  2.896803e+00    4.607033e-01   5.867796e-03
  2.899014e+00    4.641249e-01   5.887650e-03
  2.901224e+00    4.540771e-01   5.821576e-03
  2.903434e+00    4.654293e-01   5.891943e-03
  2.905645e+00    4.652283e-01   5.888429e-03
  2.907855e+00    4.579549e-01   5.840135e-03
  2.910066e+00    4.471309e-01   5.768647e-03
  2.912276e+00    4.548700e-01   5.816232e-03
  2.914487e+00    4.712309e-01   5.917441e-03
  2.916697e+00    4.549460e-01   5.812065e-03
  2.918908e+00    4.463601e-01   5.754995e-03
  2.921118e+00    4.588687e-01   5.832360e-03
  2.923329e+00    4.651786e-01   5.869992e-03
  2.925539e+00    4.595606e-01   5.832169e-03
  2.927749e+00    4.612485e-01   5.840526e-03
  2.929960e+00    4.451316e-01   5.734868e-03
  2.932170e+00    4.506461e-01   5.767940e-03
  2.934381e+00    4.561304e-01   5.800509e-03
  2.936591e+00    4.463007e-01   5.735107e-03
  2.938802e+00    4.612921e-01   5.827907e-03
  2.941012e+00    4.656178e-01   5.852820e-03
  2.943223e+00    4.620039e-01   5.827345e-03
  2.945433e+00    4.608409e-01   5.816242e-03
  2.947644e+00    4.572567e-01   5.789456e-03
  2.949854e+00    4.500503e-01   5.739389e-03
  2.952064e+00    4.526137e-01   5.751503e-03
  2.954275e+00    4.691733e-01   5.851302e-03
  2.956485e+00    4.484718e-01   5.716591e-03
  2.958696e+00    4.617904e-01   5.796448e-03
  2.960906e+00    4.681303e-01   5.831856e-03
  2.963117e+00    4.643732e-01   5.803893e-03
  2.965327e+00    4.570557e-01   5.754063e-03
  2.967538e+00    4.426395e-01   5.659718e-03
  2.969748e+00    4.478200e-01   5.689933e-03
  2.971959e+00    4.496849e-01   5.698651e-03
  2.974169e+00    4.521222e-01   5.711507e-03
  2.976379e+00    4.668825e-01   5.801010e-03
  2.978590e+00    4.647172e-01   5.784383e-03
  2.980800e+00    4.593799e-01   5.748258e-03
  2.983011e+00    4.660858e-01   5.787233e-03
  2.985221e+00    4.632552e-01   5.766426e-03
  2.987432e+00    4.595411e-01   5.740167e-03
  2.989642e+00    4.536010e-01   5.700305e-03
  2.991853e+00    4.481649e-01   5.662790e-03
  2.994063e+00    4.504771e-01   5.674468e-03
  2.996274e+00    4.636807e-01   5.753812e-03
  2.998484e+00    4.637871e-01   5.751761e-03
  3.000694e+00    4.586564e-01   5.716367e-03
  3.002905e+00    4.639771e-01   5.746460e-03
  3.005115e+00    4.799712e-01   5.841602e-03
  3.007326e+00    4.731794e-01   5.796905e-03
  3.009536e+00    4.767762e-01   5.815565e-03
  3.011747e+00    4.625089e-01   5.724946e-03
  3.013957e+00    4.640689e-01   5.731362e-03
  3.016168e+00    4.605293e-01   5.706183e-03
  3.018378e+00    4.657508e-01   5.735358e-03
  3.020589e+00    4.685809e-01   5.749483e-03
  3.022799e+00    4.540765e-01   5.656639e-03
  3.025010e+00    4.543548e-01   5.655130e-03
  3.027220e+00    4.323273e-01   5.513304e-03
  3.029430e+00    4.364717e-01   5.536466e-03
  3.031641e+00    4.408062e-01   5.560799e-03
  3.033851e+00    4.376869e-01   5.537611e-03
  3.036062e+00    4.471777e-01   5.594575e-03
  3.038272e+00    4.514660e-01   5.617748e-03
  3.040483e+00    4.509022e-01   5.611031e-03
  3.042693e+00    4.474257e-01   5.586113e-03
  3.044904e+00    4.450987e-01   5.567564e-03
  3.047114e+00    4.524389e-01   5.608465e-03
  3.049325e+00    4.636382e-01   5.673003e-03
  3.051535e+00    4.475097e-01   5.569084e-03
  3.053745e+00    4.554186e-01   5.613296e-03
  3.055956e+00    4.513652e-01   5.583702e-03
  3.058166e+00    4.569848e-01   5.614028e-03
  3.060377e+00    4.605804e-01   5.631273e-03
  3.062587e+00    4.431064e-01   5.518830e-03
  3.064798e+00    4.390537e-01   5.489314e-03
  3.067008e+00    4.480088e-01   5.540289e-03
  3.069219e+00    4.530279e-01   5.566710e-03
  3.071429e+00    4.555351e-01   5.578566e-03
  3.073640e+00    4.490687e-01   5.535508e-03
  3.075850e+00    4.600120e-01   5.598899e-03
  3.078060e+00    4.468037e-01   5.514865e-03
  3.080271e+00    4.432951e-01   5.489697e-03
  3.082481e+00    4.483811e-01   5.517649e-03
  3.084692e+00    4.420452e-01   5.475193e-03
  3.086902e+00    4.357845e-01   5.433066e-03
  3.089113e+00    4.517378e-01   5.528036e-03
  3.091323e+00    4.526876e-01   5.530453e-03
  3.093534e+00    4.563704e-01   5.549501e-03
  3.095744e+00    4.623275e-01   5.582175e-03
  3.097955e+00    4.349554e-01   5.410927e-03
  3.100165e+00    4.424599e-01   5.454055e-03
  3.102375e+00    4.508428e-01   5.502069e-03
  3.104586e+00    4.501156e-01   5.494107e-03
  3.106796e+00    4.434947e-01   5.450069e-03
  3.109007e+00    4.463877e-01   5.464566e-03
  3.111217e+00    4.541723e-01   5.508303e-03
  3.113428e+00    4.489805e-01   5.473299e-03
  3.115638e+00    4.451529e-01   5.446691e-03
  3.117849e+00    4.487321e-01   5.464783e-03
  3.120059e+00    4.557145e-01   5.503664e-03
  3.122270e+00    4.387236e-01   5.396838e-03
  3.124480e+00    4.461045e-01   5.438350e-03
  3.126691e+00    4.381683e-01   5.386229e-03
  3.128901e+00    4.387144e-01   5.386479e-03
  3.131111e+00    4.454696e-01   5.423944e-03
  3.133322e+00    4.437160e-01   5.409827e-03
  3.135532e+00    4.422459e-01   5.397453e-03
  3.137743e+00    4.526221e-01   5.456891e-03
  3.139953e+00    4.412035e-01   5.383953e-03
  3.142164e+00    4.365005e-01   5.367107e-03
  3.144374e+00    4.362287e-01   5.393635e-03
  3.146585e+00    4.498670e-01   5.491986e-03
  3.148795e+00    4.527936e-01   5.520729e-03
  3.151006e+00    4.494557e-01   5.508959e-03
  3.153216e+00    4.406493e-01   5.461853e-03
  3.155426e+00    4.396895e-01   5.462206e-03
  3.157637e+00    4.302213e-01   5.408527e-03
  3.159847e+00    4.355360e-01   5.446664e-03
  3.162058e+00    4.434661e-01   5.500502e-03
  3.164268e+00    4.354951e-01   5.454856e-03
  3.166479e+00    4.373308e-01   5.470006e-03
  3.168689e+00    4.409135e-01   5.495722e-03
  3.170900e+00    4.360658e-01   5.468602e-03
  3.173110e+00    4.263600e-01   5.410220e-03
  3.175321e+00    4.402674e-01   5.500258e-03
  3.177531e+00    4.374637e-01   5.485442e-03
  3.179741e+00    4.418012e-01   5.514654e-03
  3.181952e+00    4.410413e-01   5.512041e-03
  3.184162e+00    4.311412e-01   5.451989e-03
  3.186373e+00    4.403709e-01   5.511646e-03
  3.188583e+00    4.429615e-01   5.529652e-03
  3.190794e+00    4.390148e-01   5.506683e-03
  3.193004e+00    4.497092e-01   5.574631e-03
  3.195215e+00    4.530509e-01   5.596845e-03
  3.197425e+00    4.349405e-01   5.485058e-03
  3.199636e+00    4.319827e-01   5.465597e-03
  3.201846e+00    4.364566e-01   5.493225e-03
  3.204056e+00    4.341283e-01   5.479427e-03
  3.206267e+00    4.353078e-01   5.487725e-03
  3.208477e+00    4.397333e-01   5.516482e-03
  3.210688e+00    4.329749e-01   5.474772e-03
  3.212898e+00    4.239351e-01   5.417894e-03
  3.215109e+00    4.222500e-01   5.407838e-03
  3.217319e+00    4.327216e-01   5.475125e-03
  3.219530e+00    4.278690e-01   5.444738e-03
  3.221740e+00    4.338163e-01   5.483001e-03
  3.223951e+00    4.306700e-01   5.463577e-03
  3.226161e+00    4.374391e-01   5.506501e-03
  3.228372e+00    4.418360e-01   5.534662e-03
  3.230582e+00    4.327947e-01   5.477886e-03
  3.232792e+00    4.279459e-01   5.447348e-03
  3.235003e+00    4.274480e-01   5.444398e-03
  3.237213e+00    4.174732e-01   5.380619e-03
  3.239424e+00    4.176142e-01   5.381505e-03
  3.241634e+00    4.366831e-01   5.503136e-03
  3.243845e+00    4.365510e-01   5.502364e-03
  3.246055e+00    4.290976e-01   5.454936e-03
  3.248266e+00    4.268558e-01   5.440867e-03
  3.250476e+00    4.245564e-01   5.425882e-03
  3.252687e+00    4.196348e-01   5.394267e-03
  3.254897e+00    4.239197e-01   5.421598e-03
  3.257107e+00    4.234646e-01   5.418409e-03
  3.259318e+00    4.268206e-01   5.439574e-03
  3.261528e+00    4.272311e-01   5.442075e-03
  3.263739e+00    4.305159e-01   5.462373e-03
  3.265949e+00    4.472800e-01   5.567590e-03
  3.268160e+00    4.285925e-01   5.449625e-03
  3.270370e+00    4.370565e-01   5.502661e-03
  3.272581e+00    4.273878e-01   5.441174e-03
  3.274791e+00    4.161174e-01   5.368431e-03
  3.277002e+00    4.236060e-01   5.415936e-03
  3.279212e+00    4.365595e-01   5.497765e-03
  3.281422e+00    4.257460e-01   5.428653e-03
  3.283633e+00    4.345845e-01   5.484020e-03
  3.285843e+00    4.379205e-01   5.504718e-03
  3.288054e+00    4.306545e-01   5.457889e-03
  3.290264e+00    4.266591e-01   5.432217e-03
  3.292475e+00    4.230628e-01   5.408421e-03
  3.294685e+00    4.178355e-01   5.374282e-03
  3.296896e+00    4.188890e-01   5.380303e-03
  3.299106e+00    4.215011e-01   5.396490e-03
  3.301317e+00    4.354067e-01   5.483742e-03
  3.303527e+00    4.381459e-01   5.500497e-03
  3.305737e+00    4.362238e-01   5.487366e-03
  3.307948e+00    4.339393e-01   5.472271e-03
  3.310158e+00    4.379335e-01   5.496566e-03
  3.312369e+00    4.354073e-01   5.479786e-03
  3.314579e+00    4.149362e-01   5.348511e-03
  3.316790e+00    4.258226e-01   5.417500e-03
  3.319000e+00    4.281965e-01   5.431406e-03
  3.321211e+00    4.238409e-01   5.403087e-03
  3.323421e+00    4.292996e-01   5.436556e-03
  3.325632e+00    4.310743e-01   5.446896e-03
  3.327842e+00    4.143832e-01   5.339490e-03
  3.330052e+00    4.176153e-01   5.359204e-03
  3.332263e+00    4.165104e-01   5.351108e-03
  3.334473e+00    4.320466e-01   5.449057e-03
  3.336684e+00    4.257063e-01   5.407684e-03
  3.338894e+00    4.118626e-01   5.318194e-03
  3.341105e+00    4.204251e-01   5.371948e-03
  3.343315e+00    4.135464e-01   5.326727e-03
  3.345526e+00    4.328338e-01   5.448576e-03
  3.347736e+00    4.421161e-01   5.505282e-03
  3.349947e+00    4.306907e-01   5.432720e-03
  3.352157e+00    4.113791e-01   5.308384e-03
  3.354368e+00    4.215399e-01   5.372218e-03
  3.356578e+00    4.285112e-01   5.415432e-03
  3.358788e+00    4.178891e-01   5.346581e-03
  3.360999e+00    4.144286e-01   5.323153e-03
  3.363209e+00    4.075719e-01   5.277922e-03
  3.365420e+00    4.157718e-01   5.329221e-03
  3.367630e+00    4.226649e-01   5.372220e-03
  3.369841e+00    4.073008e-01   5.272258e-03
  3.372051e+00    4.153936e-01   5.322390e-03
  3.374262e+00    4.209907e-01   5.355697e-03
  3.376472e+00    4.265631e-01   5.388546e-03
  3.378683e+00    4.132959e-01   5.301589e-03
  3.380893e+00    4.170980e-01   5.323577e-03
  3.383103e+00    3.978212e-01   5.196467e-03
  3.385314e+00    4.204723e-01   5.340089e-03
  3.387524e+00    4.154362e-01   5.305309e-03
  3.389735e+00    3.917810e-01   5.149459e-03
  3.391945e+00    4.207238e-01   5.332587e-03
  3.394156e+00    4.302979e-01   5.388604e-03
  3.396366e+00    4.178208e-01   5.306499e-03
  3.398577e+00    3.983384e-01   5.178289e-03
  3.400787e+00    3.996469e-01   5.198530e-03
  3.402998e+00    4.062321e-01   5.279070e-03
  3.405208e+00    4.033353e-01   5.280833e-03
  3.407418e+00    4.018279e-01   5.286752e-03
  3.409629e+00    3.881946e-01   5.210038e-03
  3.411839e+00    3.879861e-01   5.220235e-03
  3.414050e+00    3.938071e-01   5.270194e-03
  3.416260e+00    3.971318e-01   5.302073e-03
  3.418471e+00    3.877887e-01   5.248683e-03
  3.420681e+00    3.921056e-01   5.286312e-03
  3.422892e+00    3.850185e-01   5.246232e-03
  3.425102e+00    3.818450e-01   5.232352e-03
  3.427313e+00    3.671954e-01   5.137946e-03
  3.429523e+00    3.892397e-01   5.297025e-03
  3.431733e+00    3.768954e-01   5.218950e-03
  3.433944e+00    3.838133e-01   5.273082e-03
  3.436154e+00    3.811034e-01   5.260681e-03
  3.438365e+00    3.769402e-01   5.237761e-03
  3.440575e+00    3.706574e-01   5.199757e-03
  3.442786e+00    3.803172e-01   5.272715e-03
  3.444996e+00    3.686253e-01   5.196471e-03
  3.447207e+00    3.564956e-01   5.115406e-03
  3.449417e+00    3.688945e-01   5.244253e-03
  3.451628e+00    3.828397e-01   5.372479e-03
  3.453838e+00    3.828334e-01   5.394028e-03
  3.456049e+00    3.795282e-01   5.394994e-03
  3.458259e+00    3.755105e-01   5.388577e-03
  3.460469e+00    3.634107e-01   5.320748e-03
  3.462680e+00    3.810140e-01   5.467519e-03
  3.464890e+00    3.784913e-01   5.467499e-03
  3.467101e+00    3.762361e-01   5.468857e-03
  3.469311e+00    3.728039e-01   5.460439e-03
  3.471522e+00    3.821325e-01   5.544898e-03
  3.473732e+00    4.031613e-01   5.711871e-03
  3.475943e+00    3.995297e-01   5.702158e-03
  3.478153e+00    4.074740e-01   5.774376e-03
  3.480364e+00    4.062423e-01   5.781031e-03
  3.482574e+00    4.107244e-01   5.828318e-03
  3.484784e+00    4.220172e-01   5.922951e-03
  3.486995e+00    4.390116e-01   6.056563e-03
  3.489205e+00    4.334456e-01   6.032920e-03
  3.491416e+00    4.371287e-01   6.073538e-03
  3.493626e+00    4.519156e-01   6.190299e-03
  3.495837e+00    4.428992e-01   6.143066e-03
  3.498047e+00    4.263409e-01   6.041280e-03
  3.500258e+00    4.586529e-01   6.280730e-03
  3.502468e+00    4.768126e-01   6.418629e-03
  3.504679e+00    4.857212e-01   6.493224e-03
  3.506889e+00    4.730614e-01   6.422572e-03
  3.509099e+00    4.815142e-01   6.494229e-03
  3.511310e+00    4.843268e-01   6.527736e-03
  3.513520e+00    4.719055e-01   6.457780e-03
  3.515731e+00    4.837293e-01   6.552479e-03
  3.517941e+00    4.967430e-01   6.654532e-03
  3.520152e+00    5.122780e-01   6.772325e-03
  3.522362e+00    5.063897e-01   6.747879e-03
  3.524573e+00    5.054750e-01   6.756057e-03
  3.526783e+00    4.966398e-01   6.709908e-03
  3.528994e+00    5.071968e-01   6.792983e-03
  3.531204e+00    5.175671e-01   6.874461e-03
  3.533414e+00    5.525412e-01   7.115331e-03
  3.535625e+00    5.414335e-01   7.055990e-03
  3.537835e+00    5.468029e-01   7.103170e-03
  3.540046e+00    5.384200e-01   7.057455e-03
  3.542256e+00    5.343041e-01   7.037951e-03
  3.544467e+00    5.503366e-01   7.150482e-03
  3.546677e+00    5.222076e-01   6.972857e-03
  3.548888e+00    5.285558e-01   7.022506e-03
  3.551098e+00    5.486537e-01   7.162186e-03
  3.553309e+00    5.271307e-01   7.028381e-03
  3.555519e+00    5.362866e-01   7.100454e-03
  3.557729e+00    5.328223e-01   7.089181e-03
  3.559940e+00    5.332732e-01   7.103679e-03
  3.562150e+00    5.287495e-01   7.085162e-03
  3.564361e+00    5.197677e-01   7.037801e-03
  3.566571e+00    5.382429e-01   7.175645e-03
  3.568782e+00    5.431955e-01   7.222805e-03
  3.570992e+00    5.331461e-01   7.169408e-03
  3.573203e+00    5.295956e-01   7.159548e-03
  3.575413e+00    5.315295e-01   7.186319e-03
  3.577624e+00    5.490372e-01   7.317993e-03
  3.579834e+00    5.484311e-01   7.328017e-03
  3.582045e+00    5.448532e-01   7.318221e-03
  3.584255e+00    5.407531e-01   7.304765e-03
  3.586465e+00    5.264171e-01   7.221083e-03
  3.588676e+00    5.448221e-01   7.360536e-03
  3.590886e+00    5.329917e-01   7.293833e-03
  3.593097e+00    5.451733e-01   7.391373e-03
  3.595307e+00    5.355052e-01   7.339445e-03
  3.597518e+00    5.545355e-01   7.483193e-03
  3.599728e+00    5.321001e-01   7.344313e-03
  3.601939e+00    5.315135e-01   7.354257e-03
  3.604149e+00    5.415534e-01   7.437899e-03
  3.606360e+00    5.355329e-01   7.410554e-03
  3.608570e+00    5.457636e-01   7.495328e-03
  3.610780e+00    5.455160e-01   7.504783e-03
  3.612991e+00    5.504922e-01   7.549092e-03
  3.615201e+00    5.321771e-01   7.432254e-03
  3.617412e+00    5.331562e-01   7.446291e-03
  3.619622e+00    5.503937e-01   7.571790e-03
  3.621833e+00    5.438708e-01   7.533529e-03
  3.624043e+00    5.432292e-01   7.538704e-03
  3.626254e+00    5.534669e-01   7.619281e-03
  3.628464e+00    5.228270e-01   7.416231e-03
  3.630675e+00    5.374381e-01   7.533283e-03
  3.632885e+00    5.476936e-01   7.619489e-03
  3.635095e+00    5.381082e-01   7.566958e-03
  3.637306e+00    5.256004e-01   7.492789e-03
  3.639516e+00    5.161873e-01   7.439657e-03
  3.641727e+00    5.191606e-01   7.475419e-03
  3.643937e+00    5.147560e-01   7.457937e-03
  3.646148e+00    5.301726e-01   7.583371e-03
  3.648358e+00    5.176024e-01   7.507568e-03
  3.650569e+00    5.207373e-01   7.544856e-03
  3.652779e+00    5.131657e-01   7.504265e-03
  3.654990e+00    5.396158e-01   7.710215e-03
  3.657200e+00    5.378253e-01   7.712433e-03
  3.659410e+00    5.215944e-01   7.609974e-03
  3.661621e+00    5.174187e-01   7.594314e-03
  3.663831e+00    5.190578e-01   7.621308e-03
  3.666042e+00    5.274161e-01   7.697505e-03
  3.668252e+00    5.219240e-01   7.672433e-03
  3.670463e+00    5.229645e-01   7.695152e-03
  3.672673e+00    5.368637e-01   7.812313e-03
  3.674884e+00    5.314556e-01   7.788252e-03
  3.677094e+00    5.471303e-01   7.918004e-03
  3.679305e+00    5.363749e-01   7.855494e-03
  3.681515e+00    5.197076e-01   7.747883e-03
  3.683726e+00    5.348911e-01   7.876147e-03
  3.685936e+00    5.439577e-01   7.958554e-03
  3.688146e+00    5.174452e-01   7.777807e-03
  3.690357e+00    5.293753e-01   7.882940e-03
  3.692567e+00    5.140681e-01   7.784000e-03
  3.694778e+00    5.280050e-01   7.904924e-03
  3.696988e+00    5.170650e-01   7.838452e-03
  3.699199e+00    4.977947e-01   7.706770e-03
  3.701409e+00    5.472928e-01   8.097579e-03
  3.703620e+00    5.206475e-01   7.914274e-03
  3.705830e+00    5.133459e-01   7.874803e-03
  3.708041e+00    5.251706e-01   7.981584e-03
  3.710251e+00    5.387066e-01   8.100762e-03
  3.712461e+00    5.225106e-01   7.994785e-03
  3.714672e+00    5.002711e-01   7.839186e-03
  3.716882e+00    5.222012e-01   8.025862e-03
  3.719093e+00    5.051467e-01   7.910664e-03
  3.721303e+00    5.047250e-01   7.923996e-03
  3.723514e+00    5.074212e-01   7.962263e-03
  3.725724e+00    4.997797e-01   7.918921e-03
  3.727935e+00    5.170409e-01   8.071905e-03
  3.730145e+00    5.293995e-01   8.185362e-03
  3.732356e+00    5.233325e-01   8.156020e-03
  3.734566e+00    5.226892e-01   8.168641e-03
  3.736776e+00    5.170398e-01   8.142187e-03
  3.738987e+00    5.189448e-01   8.174943e-03
  3.741197e+00    5.324885e-01   8.299317e-03
  3.743408e+00    4.963555e-01   8.030565e-03
  3.745618e+00    5.110556e-01   8.166845e-03
  3.747829e+00    5.111015e-01   8.185304e-03
  3.750039e+00    5.247620e-01   8.312596e-03
  3.752250e+00    5.125007e-01   8.233421e-03
  3.754460e+00    4.929114e-01   8.092747e-03
  3.756671e+00    4.851921e-01   8.047463e-03
  3.758881e+00    5.009597e-01   8.195676e-03
  3.761091e+00    4.985389e-01   8.194808e-03
  3.763302e+00    5.097447e-01   8.305507e-03
  3.765512e+00    5.156425e-01   8.372818e-03
  3.767723e+00    5.052690e-01   8.307491e-03
  3.769933e+00    4.953200e-01   8.244443e-03
  3.772144e+00    4.769582e-01   8.109174e-03
  3.774354e+00    4.917195e-01   8.253245e-03
  3.776565e+00    4.990084e-01   8.333925e-03
  3.778775e+00    5.218917e-01   8.543179e-03
  3.780986e+00    5.205807e-01   8.553103e-03
  3.783196e+00    4.916009e-01   8.331605e-03
  3.785407e+00    4.883367e-01   8.324009e-03
  3.787617e+00    5.140414e-01   8.561276e-03
  3.789827e+00    5.144941e-01   8.585799e-03
  3.792038e+00    5.210574e-01   8.661679e-03
  3.794248e+00    4.832931e-01   8.362612e-03
  3.796459e+00    4.989668e-01   8.518484e-03
  3.798669e+00    5.321629e-01   8.819266e-03
  3.800880e+00    5.318645e-01   8.838974e-03
  3.803090e+00    5.038966e-01   8.625288e-03
  3.805301e+00    5.111618e-01   8.709592e-03
  3.807511e+00    5.357192e-01   8.939118e-03
  3.809722e+00    5.124757e-01   8.765637e-03
  3.811932e+00    4.894632e-01   8.588460e-03
  3.814142e+00    5.143631e-01   8.827477e-03
  3.816353e+00    4.980574e-01   8.709238e-03
  3.818563e+00    5.136595e-01   8.868047e-03
  3.820774e+00    4.944591e-01   8.723803e-03
  3.822984e+00    5.262110e-01   9.023562e-03
  3.825195e+00    4.940043e-01   8.766699e-03
  3.827405e+00    5.014495e-01   8.856514e-03
  3.829616e+00    5.053401e-01   8.915041e-03
  3.831826e+00    4.744952e-01   8.662265e-03
  3.834037e+00    4.924276e-01   8.848825e-03
  3.836247e+00    5.131776e-01   9.058427e-03
  3.838457e+00    5.071543e-01   9.030447e-03
  3.840668e+00    4.802305e-01   8.812228e-03
  3.842878e+00    4.999875e-01   9.017273e-03
  3.845089e+00    4.897321e-01   8.949758e-03
  3.847299e+00    5.084583e-01   9.145347e-03
  3.849510e+00    5.003428e-01   9.098100e-03
  3.851720e+00    5.110659e-01   9.216849e-03
  3.853931e+00    5.235233e-01   9.347963e-03
  3.856141e+00    5.272076e-01   9.400507e-03
  3.858352e+00    5.038602e-01   9.209429e-03
  3.860562e+00    5.070550e-01   9.258111e-03
  3.862772e+00    4.866807e-01   9.089659e-03
  3.864983e+00    5.159780e-01   9.379315e-03
  3.867193e+00    5.172821e-01   9.411464e-03
  3.869404e+00    4.886635e-01   9.167118e-03
  3.871614e+00    5.137075e-01   9.419437e-03
  3.873825e+00    4.969182e-01   9.284680e-03
  3.876035e+00    5.217752e-01   9.535175e-03
  3.878246e+00    5.079902e-01   9.434634e-03
  3.880456e+00    4.773956e-01   9.174610e-03
  3.882667e+00    4.848543e-01   9.275110e-03
  3.884877e+00    5.040262e-01   9.486792e-03
  3.887087e+00    5.184086e-01   9.651997e-03
  3.889298e+00    5.128148e-01   9.630792e-03
  3.891508e+00    4.956227e-01   9.498634e-03
  3.893719e+00    4.917186e-01   9.492233e-03
  3.895929e+00    4.885926e-01   9.493351e-03
  3.898140e+00    5.024714e-01   9.659219e-03
  3.900350e+00    5.211977e-01   9.870833e-03
  3.902561e+00    4.867131e-01   9.570877e-03
  3.904771e+00    4.995892e-01   9.729809e-03
  3.906982e+00    4.960008e-01   9.728134e-03
  3.909192e+00    5.156861e-01   9.953717e-03
  3.911403e+00    4.913997e-01   9.750661e-03
  3.913613e+00    4.661232e-01   9.529922e-03
  3.915823e+00    4.859925e-01   9.765703e-03
  3.918034e+00    4.826888e-01   9.767505e-03
  3.920244e+00    5.014008e-01   9.991232e-03
  3.922455e+00    4.941683e-01   9.955218e-03
  3.924665e+00    5.114614e-01   1.016518e-02
  3.926876e+00    5.099349e-01   1.018792e-02
  3.929086e+00    4.753134e-01   9.872983e-03
  3.931297e+00    4.701987e-01   9.853794e-03
  3.933507e+00    4.906139e-01   1.009449e-02
  3.935718e+00    4.675201e-01   9.882216e-03
  3.937928e+00    4.972185e-01   1.022101e-02
  3.940138e+00    5.023761e-01   1.030357e-02
  3.942349e+00    5.112523e-01   1.042493e-02
  3.944559e+00    4.770419e-01   1.009978e-02
  3.946770e+00    4.781922e-01   1.014181e-02
  3.948980e+00    4.844555e-01   1.023864e-02
  3.951191e+00    4.731067e-01   1.014852e-02
  3.953401e+00    4.661864e-01   1.010462e-02
  3.955612e+00    4.650926e-01   1.012374e-02
  3.957822e+00    4.809414e-01   1.032631e-02
  3.960033e+00    4.559327e-01   1.008584e-02
  3.962243e+00    4.833516e-01   1.041742e-02
  3.964453e+00    5.013132e-01   1.064285e-02
  3.966664e+00    4.766251e-01   1.041065e-02
  3.968874e+00    4.703466e-01   1.036979e-02
  3.971085e+00    4.698401e-01   1.038568e-02
  3.973295e+00    4.700222e-01   1.040884e-02
  3.975506e+00    4.963771e-01   1.071855e-02
  3.977716e+00    4.992853e-01   1.077220e-02
  3.979927e+00    4.881442e-01   1.067355e-02
  3.982137e+00    5.038413e-01   1.086649e-02
  3.984348e+00    4.719112e-01   1.053882e-02
  3.986558e+00    5.234417e-01   1.112242e-02
  3.988768e+00    4.768818e-01   1.063919e-02
  3.990979e+00    4.498055e-01   1.035455e-02
  3.993189e+00    4.742711e-01   1.065518e-02
  3.995400e+00    4.803095e-01   1.074630e-02
  3.997610e+00    4.867275e-01   1.084769e-02
  3.999821e+00    5.119662e-01   1.116397e-02
  4.002031e+00    5.160496e-01   1.124797e-02
  4.004242e+00    4.837409e-01   1.092877e-02
  4.006452e+00    4.529441e-01   1.061313e-02
  4.008663e+00    4.425733e-01   1.052905e-02
  4.010873e+00    4.496221e-01   1.065118e-02
  4.013084e+00    4.898464e-01   1.115852e-02
  4.015294e+00    4.734125e-01   1.101036e-02
  4.017504e+00    4.556482e-01   1.084231e-02
  4.019715e+00    4.772565e-01   1.113860e-02
  4.021925e+00    4.765516e-01   1.117311e-02
  4.024136e+00    4.815304e-01   1.127483e-02
  4.026346e+00    4.681065e-01   1.115992e-02
  4.028557e+00    5.107494e-01   1.170274e-02
  4.030767e+00    4.886083e-01   1.149223e-02
  4.032978e+00    4.899520e-01   1.155453e-02
  4.035188e+00    4.805801e-01   1.148957e-02
  4.037399e+00    4.787452e-01   1.151488e-02
  4.039609e+00    4.698976e-01   1.145521e-02
  4.041819e+00    4.680071e-01   1.147992e-02
  4.044030e+00    4.707386e-01   1.156274e-02
  4.046240e+00    4.890533e-01   1.183566e-02
  4.048451e+00    4.841301e-01   1.182689e-02
  4.050661e+00    4.804564e-01   1.183331e-02
  4.052872e+00    4.567482e-01   1.158896e-02
  4.055082e+00    5.078739e-01   1.227519e-02
  4.057293e+00    4.707484e-01   1.187129e-02
  4.059503e+00    4.581000e-01   1.176365e-02
  4.061714e+00    4.690626e-01   1.195952e-02
  4.063924e+00    4.413948e-01   1.165573e-02
  4.066134e+00    4.571657e-01   1.191795e-02
  4.068345e+00    4.390001e-01   1.173501e-02
  4.070555e+00    4.736756e-01   1.224844e-02
  4.072766e+00    4.485032e-01   1.197739e-02
  4.074976e+00    4.552246e-01   1.212668e-02
  4.077187e+00    4.999564e-01   1.277211e-02
  4.079397e+00    4.688751e-01   1.243153e-02
  4.081608e+00    5.173918e-01   1.312716e-02
  4.083818e+00    4.272875e-01   1.199123e-02
  4.086029e+00    4.800864e-01   1.277768e-02
  4.088239e+00    4.783139e-01   1.282277e-02
  4.090449e+00    4.494943e-01   1.249782e-02
  4.092660e+00    4.810899e-01   1.300068e-02
  4.094870e+00    4.839021e-01   1.311132e-02
  4.097081e+00    4.499802e-01   1.271240e-02
  4.099291e+00    4.813178e-01   1.320221e-02
  4.101502e+00    4.842553e-01   1.329182e-02
  4.103712e+00    4.968848e-01   1.351427e-02
  4.105923e+00    4.360583e-01   1.270908e-02
  4.108133e+00    4.645084e-01   1.316753e-02
  4.110344e+00    4.547267e-01   1.307817e-02
  4.112554e+00    4.417377e-01   1.294093e-02
  4.114764e+00    4.675322e-01   1.336667e-02
  4.116975e+00    4.877532e-01   1.370680e-02
  4.119185e+00    4.867935e-01   1.374885e-02
  4.121396e+00    4.953174e-01   1.392585e-02
  4.123606e+00    4.829472e-01   1.380730e-02
  4.125817e+00    4.527743e-01   1.342515e-02
  4.128027e+00    4.754986e-01   1.381568e-02
  4.130238e+00    4.994208e-01   1.421983e-02
  4.132448e+00    4.685929e-01   1.383379e-02
  4.134659e+00    4.673734e-01   1.387494e-02
  4.136869e+00    4.979644e-01   1.438588e-02
  4.139080e+00    4.888838e-01   1.431837e-02
  4.141290e+00    4.862343e-01   1.434278e-02
  4.143500e+00    4.684949e-01   1.414369e-02
  4.145711e+00    5.190218e-01   1.495628e-02
  4.147921e+00    4.778010e-01   1.441584e-02
  4.150132e+00    4.981174e-01   1.478960e-02
  4.152342e+00    5.202261e-01   1.518740e-02
  4.154553e+00    4.335510e-01   1.393038e-02
  4.156763e+00    5.085046e-01   1.516150e-02
  4.158974e+00    4.523746e-01   1.437190e-02
  4.161184e+00    5.120831e-01   1.536696e-02
  4.163395e+00    5.074155e-01   1.537473e-02
  4.165605e+00    5.139192e-01   1.555359e-02
  4.167815e+00    5.153072e-01   1.565566e-02
  4.170026e+00    5.312281e-01   1.597955e-02
  4.172236e+00    4.956141e-01   1.551817e-02
  4.174447e+00    4.696143e-01   1.518766e-02
  4.176657e+00    4.934482e-01   1.565346e-02
  4.178868e+00    5.165654e-01   1.610655e-02
  4.181078e+00    4.870766e-01   1.572834e-02
  4.183289e+00    5.098098e-01   1.618298e-02
  4.185499e+00    5.019026e-01   1.615209e-02
  4.187710e+00    4.309445e-01   1.505427e-02
  4.189920e+00    5.151638e-01   1.655865e-02
  4.192130e+00    4.964328e-01   1.635469e-02
  4.194341e+00    4.381132e-01   1.545782e-02
  4.196551e+00    4.928567e-01   1.649908e-02
  4.198762e+00    4.933695e-01   1.661268e-02
  4.200972e+00    4.658410e-01   1.624688e-02
  4.203183e+00    4.593062e-01   1.623871e-02
  4.205393e+00    4.471809e-01   1.612966e-02
  4.207604e+00    4.462328e-01   1.622270e-02
  4.209814e+00    5.003248e-01   1.729527e-02
  4.212025e+00    4.801769e-01   1.706383e-02
  4.214235e+00    5.266879e-01   1.799766e-02
  4.216445e+00    5.579694e-01   1.865832e-02
  4.218656e+00    4.737541e-01   1.732187e-02
  4.220866e+00    5.247349e-01   1.836465e-02
  4.223077e+00    4.957989e-01   1.798877e-02
  4.225287e+00    4.967273e-01   1.814727e-02
  4.227498e+00    4.035237e-01   1.648427e-02
  4.229708e+00    5.956098e-01   2.018989e-02
  4.231919e+00    5.476144e-01   1.951986e-02
  4.234129e+00    5.052632e-01   1.890715e-02
  4.236340e+00    4.661444e-01   1.831561e-02
  4.238550e+00    5.138804e-01   1.940037e-02
  4.240761e+00    4.154356e-01   1.759775e-02
  4.242971e+00    4.864736e-01   1.921690e-02
  4.245181e+00    4.905524e-01   1.947891e-02
  4.247392e+00    4.938918e-01   1.972751e-02
  4.249602e+00    5.448222e-01   2.092594e-02
  4.251813e+00    4.741389e-01   1.971356e-02
  4.254023e+00    4.335541e-01   1.904101e-02
  4.256234e+00    4.930725e-01   2.052268e-02
  4.258444e+00    5.193077e-01   2.128213e-02
  4.260655e+00    4.808982e-01   2.070545e-02
  4.262865e+00    4.650224e-01   2.059142e-02
  4.265076e+00    4.584459e-01   2.067775e-02
  4.267286e+00    5.121116e-01   2.211421e-02
  4.269496e+00    3.963406e-01   1.969151e-02
  4.271707e+00    4.466364e-01   2.116171e-02
  4.273917e+00    4.683047e-01   2.194975e-02
  4.276128e+00    4.370474e-01   2.148595e-02
  4.278338e+00    5.423681e-01   2.425483e-02
  4.280549e+00    5.550284e-01   2.488821e-02
  4.282759e+00    4.521487e-01   2.278688e-02
  4.284970e+00    4.244206e-01   2.240331e-02
  4.287180e+00    4.476644e-01   2.328418e-02
  4.289391e+00    4.668464e-01   2.395647e-02
  4.291601e+00    4.772326e-01   2.441453e-02
  4.293811e+00    5.306030e-01   2.594552e-02
  4.296022e+00    4.576439e-01   2.428924e-02
  4.298232e+00    5.007949e-01   2.562101e-02
  4.300443e+00    4.801291e-01   2.529471e-02
  4.302653e+00    3.827486e-01   2.277964e-02
  4.304864e+00    4.266598e-01   2.425847e-02
  4.307074e+00    4.595152e-01   2.540178e-02
  4.309285e+00    4.433975e-01   2.517911e-02
  4.311495e+00    3.804459e-01   2.354134e-02
  4.313706e+00    5.360048e-01   2.820594e-02
  4.315916e+00    4.305508e-01   2.552743e-02
  4.318126e+00    4.892701e-01   2.748219e-02
  4.320337e+00    4.778624e-01   2.743466e-02
  4.322547e+00    4.289045e-01   2.626668e-02
  4.324758e+00    4.557239e-01   2.735757e-02
  4.326968e+00    5.211912e-01   2.958538e-02
  4.329179e+00    4.249725e-01   2.701076e-02
  4.331389e+00    4.400347e-01   2.780102e-02
  4.333600e+00    4.866296e-01   2.958550e-02
  4.335810e+00    4.332781e-01   2.824805e-02
  4.338021e+00    5.162252e-01   3.122973e-02
  4.340231e+00    4.522637e-01   2.959625e-02
  4.342442e+00    3.886985e-01   2.780690e-02
  4.344652e+00    3.342623e-01   2.613681e-02
  4.346862e+00    3.259019e-01   2.616731e-02
  4.349073e+00    4.801785e-01   3.222644e-02
  4.351283e+00    3.817435e-01   2.916368e-02
  4.353494e+00    3.983865e-01   3.025319e-02
  4.355704e+00    4.374400e-01   3.221079e-02
  4.357915e+00    3.591525e-01   2.967348e-02
  4.360125e+00    5.220412e-01   3.638264e-02
  4.362336e+00    6.743116e-01   4.210715e-02
  4.364546e+00    3.068923e-01   2.892403e-02
  4.366757e+00    4.195799e-01   3.449089e-02
  4.368967e+00    3.623579e-01   3.269194e-02
  4.371177e+00    5.254773e-01   4.020564e-02
  4.373388e+00    5.390027e-01   4.163088e-02
  4.375598e+00    4.784446e-01   4.011781e-02
  4.377809e+00    4.219204e-01   3.862730e-02
  4.380019e+00    3.596568e-01   3.656034e-02
  4.382230e+00    2.449510e-01   3.101351e-02
  4.384440e+00    4.648819e-01   4.395250e-02
  4.386651e+00    3.571671e-01   3.971489e-02
  4.388861e+00    5.556569e-01   5.119793e-02
  4.391072e+00    4.352984e-01   4.690860e-02
  4.393282e+00    4.531012e-01   4.970652e-02
  4.395492e+00    5.359001e-01   5.630347e-02
  4.397703e+00    6.170228e-01   6.317861e-02
  4.399913e+00    4.292558e-01   5.536500e-02
  4.402124e+00    2.135717e-01   4.126357e-02
  4.404334e+00    3.291325e-01   5.445377e-02
  4.406545e+00    6.419672e-02   2.585210e-02
  4.408755e+00    2.882553e-01   5.937123e-02
  4.410966e+00    1.682872e-01   5.022671e-02
  4.413176e+00    2.218678e-01   6.526154e-02
  4.415387e+00   -2.894251e-01            nan
  4.417597e+00   -1.980365e+00            nan
  4.419807e+00    2.807437e-01   1.902519e-01
