# == pyFAI calibration ==
# Distance Sample to Detector: 0.216 m
# PONI: 1.166e-01, 1.308e-01 m
# Rotations: 0.000000 0.000000 0.000000 rad
# 
# == Fit2d calibration ==
# Distance Sample-beamCenter: 216.000 mm
# Center: x=1744.293, y=1555.000 pix
# Tilt: 0.000 deg  TiltPlanRot: 0.000 deg
# 
# Detector Eiger 9M	 PixelSize= 7.500e-05, 7.500e-05 m
#    Detector has a mask: True 
#    Detector has a dark current: False 
#    detector has a flat field: False 
# 
# Wavelength: 9.8e-11 m
# Mask applied: from detector
# Dark current applied: False
# Flat field applied: False
# Polarization factor: None
# Normalization factor: 1.0
# 
# Headers of the input frame:
# {
# "_array_data.header_convention": "SLS_1.0",
# "_array_data.header_contents": "# Detector: Dectris Eiger 9M, S/N E-18-0102\r\n# Pixel_size 75e-6 m x 75e-6 m\r\n# Silicon sensor, thickness 0.000450 m\r\n# Exposure_time 0.024997 s\r\n# Exposure_period 0.025000 s\r\n# Count_cutoff 62318 counts\r\n# Wavelength 0.980106 A\r\n# Detector_distance 0.215992 m\r\n# Beam_xy (1555, 1744) pixels\r\n# Start_angle 0.000000 deg.\r\n# Angle_increment 0.000000 deg.",
# "Content-Type": "application/octet-stream;",
# "conversions": "x-CBF_BYTE_OFFSET",
# "Content-Transfer-Encoding": "BINARY",
# "X-Binary-Size": "10166602",
# "X-Binary-ID": "1",
# "X-Binary-Element-Type": "signed 32-bit integer",
# "X-Binary-Element-Byte-Order": "LITTLE_ENDIAN",
# "Content-MD5": "7erFkfuCEoe7rgxdEbl2Hg==",
# "X-Binary-Number-of-Elements": "10166590",
# "X-Binary-Size-Fastest-Dimension": "3110",
# "X-Binary-Size-Second-Dimension": "3269",
# "X-Binary-Size-Padding": "4095"
# }
# --> H:/Proxima2a_2019-04-05/RAW_DATA/C5_gel17_position5/C5_mesh_1_data.cbf/C5_mesh_1_data.cbf000119.dat
#        q_A^-1              I           sigma 
  1.105228e-03    7.916975e-01   4.814671e-01
  3.315685e-03    9.330501e-01   3.177590e-01
  5.526141e-03    1.122876e+00   2.695492e-01
  7.736597e-03    1.119354e+00   2.273548e-01
  9.947054e-03    1.135011e+00   2.018258e-01
  1.215751e-02    1.268969e+00   1.929719e-01
  1.436797e-02    1.309160e+00   1.802903e-01
  1.657842e-02    1.062352e+00   1.511745e-01
  1.878888e-02    1.008886e+00   1.383836e-01
  2.099934e-02    1.022797e+00   1.318247e-01
  2.320979e-02    1.097214e+00   1.298609e-01
  2.542025e-02    1.165225e+00   1.278834e-01
  2.763070e-02    1.290100e+00   1.290631e-01
  2.984116e-02    1.014840e+00   1.101477e-01
  3.205162e-02    1.104805e+00   1.108994e-01
  3.426207e-02    1.220047e+00   1.127101e-01
  3.647253e-02    1.157292e+00   1.063926e-01
  3.868299e-02    1.256206e+00   1.076406e-01
  4.089344e-02    1.326170e+00   1.075673e-01
  4.310390e-02    1.137675e+00   9.703601e-02
  4.531436e-02    1.152442e+00   9.525225e-02
  4.752481e-02    1.186147e+00   9.436007e-02
  4.973527e-02    1.259506e+00   9.504994e-02
  5.194572e-02    1.279519e+00   9.374029e-02
  5.415618e-02    1.209516e+00   8.925747e-02
  5.636664e-02    1.232104e+00   8.830573e-02
  5.857709e-02    1.219593e+00   8.618309e-02
  6.078755e-02    1.248423e+00   8.559299e-02
  6.299801e-02    1.208934e+00   8.273660e-02
  6.520846e-02    1.240974e+00   8.239331e-02
  6.741892e-02    1.281797e+00   8.234922e-02
  6.962938e-02    1.271707e+00   8.071602e-02
  7.183983e-02    1.337456e+00   8.149141e-02
  7.405029e-02    1.343691e+00   8.045091e-02
  7.626074e-02    1.373363e+00   8.014621e-02
  7.847120e-02    1.220423e+00   7.447822e-02
  8.068166e-02    1.273466e+00   7.502946e-02
  8.289211e-02    1.236682e+00   7.294504e-02
  8.510257e-02    1.200588e+00   7.093269e-02
  8.731303e-02    1.235314e+00   7.103188e-02
  8.952348e-02    1.295014e+00   7.182650e-02
  9.173394e-02    1.410527e+00   7.404990e-02
  9.394439e-02    1.331045e+00   7.107974e-02
  9.615485e-02    1.267665e+00   6.856333e-02
  9.836531e-02    1.322329e+00   6.923283e-02
  1.005758e-01    1.318617e+00   6.837207e-02
  1.027862e-01    1.257129e+00   6.603555e-02
  1.049967e-01    1.216824e+00   6.427970e-02
  1.072071e-01    1.224115e+00   6.380311e-02
  1.094176e-01    1.288911e+00   6.480430e-02
  1.116280e-01    1.287136e+00   6.411386e-02
  1.138385e-01    1.321978e+00   6.434064e-02
  1.160490e-01    1.354175e+00   6.449552e-02
  1.182594e-01    1.315580e+00   6.297150e-02
  1.204699e-01    1.356043e+00   6.334281e-02
  1.226803e-01    1.390009e+00   6.354821e-02
  1.248908e-01    1.344566e+00   6.194446e-02
  1.271012e-01    1.394232e+00   6.252601e-02
  1.293117e-01    1.441187e+00   6.302372e-02
  1.315222e-01    1.422063e+00   6.207441e-02
  1.337326e-01    1.467190e+00   6.252716e-02
  1.359431e-01    1.443054e+00   6.204706e-02
  1.381535e-01    1.296862e+00   5.960977e-02
  1.403640e-01    1.371830e+00   6.157321e-02
  1.425744e-01    1.364389e+00   6.150411e-02
  1.447849e-01    1.325619e+00   6.063791e-02
  1.469953e-01    1.377439e+00   6.177306e-02
  1.492058e-01    1.341377e+00   6.088822e-02
  1.514163e-01    1.396771e+00   6.202954e-02
  1.536267e-01    1.413829e+00   6.228534e-02
  1.558372e-01    1.346281e+00   6.064505e-02
  1.580476e-01    1.391624e+00   6.150823e-02
  1.602581e-01    1.413089e+00   6.182338e-02
  1.624685e-01    1.449416e+00   6.244157e-02
  1.646790e-01    1.435305e+00   6.195846e-02
  1.668895e-01    1.422394e+00   6.150102e-02
  1.690999e-01    1.448566e+00   6.187788e-02
  1.713104e-01    1.526603e+00   6.332561e-02
  1.735208e-01    1.513842e+00   6.286430e-02
  1.757313e-01    1.485080e+00   6.206911e-02
  1.779417e-01    1.545964e+00   6.312210e-02
  1.801522e-01    1.531153e+00   6.261896e-02
  1.823626e-01    1.586393e+00   6.352630e-02
  1.845731e-01    1.666955e+00   6.490842e-02
  1.867836e-01    1.712102e+00   6.555955e-02
  1.889940e-01    1.686498e+00   6.485487e-02
  1.912045e-01    1.656280e+00   6.405658e-02
  1.934149e-01    1.697873e+00   6.463883e-02
  1.956254e-01    1.672349e+00   6.393955e-02
  1.978358e-01    1.750380e+00   6.519008e-02
  2.000463e-01    1.737626e+00   6.473690e-02
  2.022568e-01    1.707659e+00   6.396561e-02
  2.044672e-01    1.647959e+00   6.262227e-02
  2.066777e-01    1.649062e+00   6.243531e-02
  2.088881e-01    1.727199e+00   6.368829e-02
  2.110986e-01    1.757220e+00   6.401914e-02
  2.133090e-01    1.658055e+00   6.198434e-02
  2.155195e-01    1.759883e+00   6.364749e-02
  2.177300e-01    1.794500e+00   6.376553e-02
  2.199404e-01    1.768175e+00   6.162825e-02
  2.221509e-01    1.689270e+00   5.924835e-02
  2.243613e-01    1.635160e+00   5.755271e-02
  2.265718e-01    1.740154e+00   5.871733e-02
  2.287822e-01    1.757048e+00   5.841765e-02
  2.309927e-01    1.806297e+00   5.869113e-02
  2.332031e-01    1.888433e+00   5.949707e-02
  2.354136e-01    1.884520e+00   5.895369e-02
  2.376241e-01    1.906635e+00   5.883832e-02
  2.398345e-01    1.950756e+00   5.907475e-02
  2.420450e-01    1.902126e+00   5.791690e-02
  2.442554e-01    1.767936e+00   5.545193e-02
  2.464659e-01    1.841292e+00   5.621067e-02
  2.486763e-01    1.851923e+00   5.600220e-02
  2.508868e-01    1.818192e+00   5.513976e-02
  2.530973e-01    1.872709e+00   5.561339e-02
  2.553077e-01    1.867798e+00   5.520353e-02
  2.575182e-01    1.876604e+00   5.500612e-02
  2.597286e-01    1.826733e+00   5.395484e-02
  2.619391e-01    1.759891e+00   5.265363e-02
  2.641495e-01    1.724649e+00   5.183527e-02
  2.663600e-01    1.816403e+00   5.290369e-02
  2.685704e-01    1.787148e+00   5.219152e-02
  2.707809e-01    1.738656e+00   5.120530e-02
  2.729914e-01    1.693934e+00   5.027906e-02
  2.752018e-01    1.729849e+00   5.054482e-02
  2.774123e-01    1.760124e+00   5.072476e-02
  2.796227e-01    1.795213e+00   5.097449e-02
  2.818332e-01    1.703402e+00   4.940623e-02
  2.840436e-01    1.740757e+00   4.970288e-02
  2.862541e-01    1.697065e+00   4.883929e-02
  2.884646e-01    1.729078e+00   4.906379e-02
  2.906750e-01    1.732681e+00   4.888203e-02
  2.928855e-01    1.704602e+00   4.825968e-02
  2.950959e-01    1.686969e+00   4.778889e-02
  2.973064e-01    1.676996e+00   4.743325e-02
  2.995168e-01    1.649236e+00   4.682601e-02
  3.017273e-01    1.623620e+00   4.625607e-02
  3.039377e-01    1.663840e+00   4.662046e-02
  3.061482e-01    1.690035e+00   4.678276e-02
  3.083587e-01    1.678577e+00   4.642209e-02
  3.105691e-01    1.672139e+00   4.613509e-02
  3.127796e-01    1.606351e+00   4.502832e-02
  3.149900e-01    1.643142e+00   4.535128e-02
  3.172005e-01    1.616174e+00   4.479367e-02
  3.194109e-01    1.608687e+00   4.450530e-02
  3.216214e-01    1.626928e+00   4.457430e-02
  3.238319e-01    1.648259e+00   4.468781e-02
  3.260423e-01    1.627336e+00   4.422640e-02
  3.282528e-01    1.605186e+00   4.374951e-02
  3.304632e-01    1.589600e+00   4.336796e-02
  3.326737e-01    1.569428e+00   4.292376e-02
  3.348841e-01    1.612580e+00   4.334114e-02
  3.370946e-01    1.596025e+00   4.295588e-02
  3.393050e-01    1.592831e+00   4.275031e-02
  3.415155e-01    1.568802e+00   4.226710e-02
  3.437260e-01    1.603760e+00   4.257703e-02
  3.459364e-01    1.583210e+00   4.214689e-02
  3.481469e-01    1.516934e+00   4.110469e-02
  3.503573e-01    1.549875e+00   4.139724e-02
  3.525678e-01    1.559102e+00   4.137230e-02
  3.547782e-01    1.616370e+00   4.197304e-02
  3.569887e-01    1.610693e+00   4.175081e-02
  3.591992e-01    1.536863e+00   4.063844e-02
  3.614096e-01    1.509933e+00   4.014111e-02
  3.636201e-01    1.565022e+00   4.072322e-02
  3.658305e-01    1.591181e+00   4.092207e-02
  3.680410e-01    1.551082e+00   4.026421e-02
  3.702514e-01    1.511202e+00   3.960954e-02
  3.724619e-01    1.518833e+00   3.957422e-02
  3.746724e-01    1.535618e+00   3.965950e-02
  3.768828e-01    1.546346e+00   3.966389e-02
  3.790933e-01    1.549740e+00   3.957800e-02
  3.813037e-01    1.514015e+00   3.899118e-02
  3.835142e-01    1.497998e+00   3.865698e-02
  3.857246e-01    1.544243e+00   3.912212e-02
  3.879351e-01    1.571798e+00   3.934188e-02
  3.901455e-01    1.523035e+00   3.860351e-02
  3.923560e-01    1.556849e+00   3.890564e-02
  3.945665e-01    1.544805e+00   3.863196e-02
  3.967769e-01    1.569926e+00   3.882283e-02
  3.989874e-01    1.554685e+00   3.851331e-02
  4.011978e-01    1.546090e+00   3.828857e-02
  4.034083e-01    1.558072e+00   3.831868e-02
  4.056187e-01    1.544350e+00   3.803204e-02
  4.078292e-01    1.521319e+00   3.763316e-02
  4.100397e-01    1.522063e+00   3.752741e-02
  4.122501e-01    1.568985e+00   3.798747e-02
  4.144606e-01    1.544369e+00   3.757655e-02
  4.166710e-01    1.550172e+00   3.753514e-02
  4.188815e-01    1.573103e+00   3.770004e-02
  4.210919e-01    1.555965e+00   3.738425e-02
  4.233024e-01    1.542199e+00   3.710902e-02
  4.255128e-01    1.530520e+00   3.686139e-02
  4.277233e-01    1.558009e+00   3.708407e-02
  4.299338e-01    1.563275e+00   3.703982e-02
  4.321442e-01    1.525538e+00   3.648532e-02
  4.343547e-01    1.544529e+00   3.660790e-02
  4.365651e-01    1.507720e+00   3.606630e-02
  4.387756e-01    1.472974e+00   3.554847e-02
  4.409860e-01    1.495058e+00   3.571475e-02
  4.431965e-01    1.489616e+00   3.555111e-02
  4.454070e-01    1.513253e+00   3.573237e-02
  4.476174e-01    1.476319e+00   3.519673e-02
  4.498279e-01    1.455233e+00   3.484936e-02
  4.520383e-01    1.498115e+00   3.526207e-02
  4.542488e-01    1.491013e+00   3.508354e-02
  4.564592e-01    1.491638e+00   3.499674e-02
  4.586697e-01    1.522094e+00   3.525839e-02
  4.608801e-01    1.478683e+00   3.465888e-02
  4.630906e-01    1.482424e+00   3.461080e-02
  4.653011e-01    1.479261e+00   3.448295e-02
  4.675115e-01    1.507057e+00   3.471371e-02
  4.697220e-01    1.549106e+00   3.510256e-02
  4.719324e-01    1.487488e+00   3.430835e-02
  4.741429e-01    1.528373e+00   3.468705e-02
  4.763533e-01    1.482158e+00   3.407103e-02
  4.785638e-01    1.449658e+00   3.360836e-02
  4.807743e-01    1.489747e+00   3.398325e-02
  4.829847e-01    1.444438e+00   3.337796e-02
  4.851952e-01    1.498783e+00   3.391400e-02
  4.874056e-01    1.472051e+00   3.352547e-02
  4.896161e-01    1.469792e+00   3.341666e-02
  4.918265e-01    1.449476e+00   3.310249e-02
  4.940370e-01    1.436776e+00   3.287578e-02
  4.962475e-01    1.481580e+00   3.330201e-02
  4.984579e-01    1.482246e+00   3.322739e-02
  5.006684e-01    1.434217e+00   3.260495e-02
  5.028788e-01    1.398148e+00   3.211433e-02
  5.050893e-01    1.394751e+00   3.199729e-02
  5.072997e-01    1.404986e+00   3.203690e-02
  5.095102e-01    1.421803e+00   3.215088e-02
  5.117206e-01    1.407861e+00   3.191678e-02
  5.139311e-01    1.423040e+00   3.201244e-02
  5.161416e-01    1.461987e+00   3.237087e-02
  5.183520e-01    1.482532e+00   3.252007e-02
  5.205625e-01    1.463065e+00   3.223018e-02
  5.227729e-01    1.501092e+00   3.257018e-02
  5.249834e-01    1.494212e+00   3.242005e-02
  5.271938e-01    1.469507e+00   3.207587e-02
  5.294043e-01    1.475933e+00   3.207177e-02
  5.316148e-01    1.493727e+00   3.219060e-02
  5.338252e-01    1.562880e+00   3.285206e-02
  5.360357e-01    1.534366e+00   3.247691e-02
  5.382461e-01    1.508652e+00   3.213082e-02
  5.404566e-01    1.486370e+00   3.182009e-02
  5.426670e-01    1.490087e+00   3.178805e-02
  5.448775e-01    1.480030e+00   3.160982e-02
  5.470879e-01    1.505505e+00   3.180960e-02
  5.492984e-01    1.530580e+00   3.200209e-02
  5.515089e-01    1.547840e+00   3.211066e-02
  5.537193e-01    1.564446e+00   3.221132e-02
  5.559298e-01    1.559001e+00   3.208469e-02
  5.581402e-01    1.514345e+00   3.155275e-02
  5.603507e-01    1.545257e+00   3.180379e-02
  5.625611e-01    1.545177e+00   3.173395e-02
  5.647716e-01    1.510569e+00   3.130844e-02
  5.669821e-01    1.495260e+00   3.108223e-02
  5.691925e-01    1.509549e+00   3.116334e-02
  5.714030e-01    1.523572e+00   3.124102e-02
  5.736134e-01    1.480388e+00   3.072958e-02
  5.758239e-01    1.467417e+00   3.052937e-02
  5.780343e-01    1.443057e+00   3.021086e-02
  5.802448e-01    1.442328e+00   3.013999e-02
  5.824552e-01    1.446660e+00   3.012190e-02
  5.846657e-01    1.413274e+00   2.971023e-02
  5.868762e-01    1.368122e+00   2.917093e-02
  5.890866e-01    1.349800e+00   2.891480e-02
  5.912971e-01    1.406662e+00   2.945646e-02
  5.935075e-01    1.397411e+00   2.929874e-02
  5.957180e-01    1.438179e+00   2.966208e-02
  5.979284e-01    1.449730e+00   2.972017e-02
  6.001389e-01    1.430780e+00   2.946515e-02
  6.023494e-01    1.445404e+00   2.955522e-02
  6.045598e-01    1.439910e+00   2.943896e-02
  6.067703e-01    1.411147e+00   2.908482e-02
  6.089807e-01    1.404450e+00   2.895741e-02
  6.111912e-01    1.419961e+00   2.905872e-02
  6.134016e-01    1.446725e+00   2.927278e-02
  6.156121e-01    1.488792e+00   2.963631e-02
  6.178226e-01    1.458597e+00   2.927617e-02
  6.200330e-01    1.471557e+00   2.934791e-02
  6.222435e-01    1.503908e+00   2.961000e-02
  6.244539e-01    1.448686e+00   2.900439e-02
  6.266644e-01    1.443234e+00   2.889329e-02
  6.288748e-01    1.465433e+00   2.905797e-02
  6.310853e-01    1.502650e+00   2.936752e-02
  6.332957e-01    1.510151e+00   2.938389e-02
  6.355062e-01    1.511778e+00   2.934260e-02
  6.377167e-01    1.532250e+00   2.948391e-02
  6.399271e-01    1.529408e+00   2.940014e-02
  6.421376e-01    1.471016e+00   2.877839e-02
  6.443480e-01    1.461346e+00   2.862908e-02
  6.465585e-01    1.462064e+00   2.858185e-02
  6.487689e-01    1.444739e+00   2.835837e-02
  6.509794e-01    1.426968e+00   2.813025e-02
  6.531899e-01    1.415451e+00   2.796382e-02
  6.554003e-01    1.417081e+00   2.792731e-02
  6.576108e-01    1.422903e+00   2.793252e-02
  6.598212e-01    1.382282e+00   2.747979e-02
  6.620317e-01    1.393560e+00   2.754050e-02
  6.642421e-01    1.376232e+00   2.731811e-02
  6.664526e-01    1.358484e+00   2.709137e-02
  6.686630e-01    1.380157e+00   2.725615e-02
  6.708735e-01    1.389130e+00   2.729444e-02
  6.730840e-01    1.377007e+00   2.712553e-02
  6.752944e-01    1.426926e+00   2.756262e-02
  6.775049e-01    1.397453e+00   2.722696e-02
  6.797153e-01    1.395768e+00   2.716128e-02
  6.819258e-01    1.343524e+00   2.660004e-02
  6.841362e-01    1.343750e+00   2.655442e-02
  6.863467e-01    1.397503e+00   2.703185e-02
  6.885572e-01    1.384318e+00   2.685579e-02
  6.907676e-01    1.381495e+00   2.678035e-02
  6.929781e-01    1.363432e+00   2.655739e-02
  6.951885e-01    1.400877e+00   2.687193e-02
  6.973990e-01    1.399561e+00   2.681181e-02
  6.996094e-01    1.380524e+00   2.658202e-02
  7.018199e-01    1.344238e+00   2.618429e-02
  7.040303e-01    1.323943e+00   2.594023e-02
  7.062408e-01    1.362212e+00   2.626636e-02
  7.084513e-01    1.406330e+00   2.664191e-02
  7.106617e-01    1.392513e+00   2.646464e-02
  7.128722e-01    1.402780e+00   2.651607e-02
  7.150826e-01    1.365709e+00   2.611827e-02
  7.172931e-01    1.373287e+00   2.614546e-02
  7.195035e-01    1.360075e+00   2.597468e-02
  7.217140e-01    1.326204e+00   2.569458e-02
  7.239245e-01    1.320462e+00   2.584652e-02
  7.261349e-01    1.326278e+00   2.600306e-02
  7.283454e-01    1.338531e+00   2.618966e-02
  7.305558e-01    1.349922e+00   2.635084e-02
  7.327663e-01    1.364001e+00   2.652746e-02
  7.349767e-01    1.353174e+00   2.643715e-02
  7.371872e-01    1.346366e+00   2.636022e-02
  7.393976e-01    1.384924e+00   2.672163e-02
  7.416081e-01    1.383044e+00   2.668835e-02
  7.438186e-01    1.346589e+00   2.620081e-02
  7.460290e-01    1.360000e+00   2.605749e-02
  7.482395e-01    1.358154e+00   2.588083e-02
  7.504499e-01    1.375458e+00   2.591782e-02
  7.526604e-01    1.366367e+00   2.572347e-02
  7.548708e-01    1.367512e+00   2.565090e-02
  7.570813e-01    1.396196e+00   2.587053e-02
  7.592918e-01    1.341810e+00   2.532921e-02
  7.615022e-01    1.362714e+00   2.549426e-02
  7.637127e-01    1.365581e+00   2.549057e-02
  7.659231e-01    1.337785e+00   2.520030e-02
  7.681336e-01    1.369994e+00   2.547238e-02
  7.703440e-01    1.389079e+00   2.561990e-02
  7.725545e-01    1.359089e+00   2.531309e-02
  7.747650e-01    1.452454e+00   2.613145e-02
  7.769754e-01    1.383618e+00   2.545533e-02
  7.791859e-01    1.369756e+00   2.527762e-02
  7.813963e-01    1.360635e+00   2.514449e-02
  7.836068e-01    1.353893e+00   2.503406e-02
  7.858172e-01    1.379553e+00   2.522291e-02
  7.880277e-01    1.406220e+00   2.541710e-02
  7.902381e-01    1.416250e+00   2.546125e-02
  7.924486e-01    1.368343e+00   2.498054e-02
  7.946591e-01    1.393059e+00   2.516007e-02
  7.968695e-01    1.410958e+00   2.527590e-02
  7.990800e-01    1.440029e+00   2.548932e-02
  8.012904e-01    1.432544e+00   2.537901e-02
  8.035009e-01    1.459222e+00   2.556867e-02
  8.057113e-01    1.449711e+00   2.544113e-02
  8.079218e-01    1.457210e+00   2.546282e-02
  8.101323e-01    1.436480e+00   2.523815e-02
  8.123427e-01    1.457909e+00   2.538233e-02
  8.145532e-01    1.470227e+00   2.544575e-02
  8.167636e-01    1.451431e+00   2.524005e-02
  8.189741e-01    1.418403e+00   2.490963e-02
  8.211845e-01    1.400573e+00   2.471108e-02
  8.233950e-01    1.366023e+00   2.436470e-02
  8.256054e-01    1.397723e+00   2.460491e-02
  8.278159e-01    1.446110e+00   2.498589e-02
  8.300264e-01    1.440630e+00   2.489809e-02
  8.322368e-01    1.437143e+00   2.482758e-02
  8.344473e-01    1.420358e+00   2.464176e-02
  8.366577e-01    1.414596e+00   2.455219e-02
  8.388682e-01    1.402792e+00   2.441044e-02
  8.410786e-01    1.448563e+00   2.476594e-02
  8.432891e-01    1.441342e+00   2.466491e-02
  8.454996e-01    1.442339e+00   2.463438e-02
  8.477100e-01    1.443566e+00   2.460575e-02
  8.499205e-01    1.409847e+00   2.427851e-02
  8.521309e-01    1.394311e+00   2.410670e-02
  8.543414e-01    1.415911e+00   2.425479e-02
  8.565518e-01    1.413500e+00   2.419643e-02
  8.587623e-01    1.422930e+00   2.423918e-02
  8.609727e-01    1.421319e+00   2.418793e-02
  8.631832e-01    1.390446e+00   2.388688e-02
  8.653937e-01    1.370421e+00   2.367781e-02
  8.676041e-01    1.393641e+00   2.384152e-02
  8.698146e-01    1.432275e+00   2.413278e-02
  8.720250e-01    1.410615e+00   2.391313e-02
  8.742355e-01    1.447001e+00   2.418269e-02
  8.764459e-01    1.468545e+00   2.432490e-02
  8.786564e-01    1.441549e+00   2.406436e-02
  8.808669e-01    1.415852e+00   2.381275e-02
  8.830773e-01    1.399880e+00   2.364241e-02
  8.852878e-01    1.344077e+00   2.313166e-02
  8.874982e-01    1.365692e+00   2.328306e-02
  8.897087e-01    1.374289e+00   2.332132e-02
  8.919191e-01    1.379700e+00   2.333214e-02
  8.941296e-01    1.374529e+00   2.325382e-02
  8.963401e-01    1.347231e+00   2.298834e-02
  8.985505e-01    1.339289e+00   2.288665e-02
  9.007610e-01    1.382257e+00   2.321673e-02
  9.029714e-01    1.438018e+00   2.364640e-02
  9.051819e-01    1.552083e+00   2.452970e-02
  9.073923e-01    1.486493e+00   2.397053e-02
  9.096028e-01    1.425724e+00   2.344252e-02
  9.118132e-01    1.403541e+00   2.322548e-02
  9.140237e-01    1.421136e+00   2.333611e-02
  9.162342e-01    1.389466e+00   2.304241e-02
  9.184446e-01    1.371298e+00   2.285816e-02
  9.206551e-01    1.414491e+00   2.318188e-02
  9.228655e-01    1.414463e+00   2.314855e-02
  9.250760e-01    1.388736e+00   2.290414e-02
  9.272864e-01    1.374364e+00   2.275358e-02
  9.294969e-01    1.375129e+00   2.272675e-02
  9.317074e-01    1.397783e+00   2.288077e-02
  9.339178e-01    1.406277e+00   2.291889e-02
  9.361283e-01    1.406437e+00   2.288637e-02
  9.383387e-01    1.428367e+00   2.303276e-02
  9.405492e-01    1.400020e+00   2.277123e-02
  9.427596e-01    1.403247e+00   2.276461e-02
  9.449701e-01    1.426497e+00   2.292125e-02
  9.471805e-01    1.413239e+00   2.278217e-02
  9.493910e-01    1.449246e+00   2.303890e-02
  9.516015e-01    1.463457e+00   2.311927e-02
  9.538119e-01    1.519045e+00   2.352197e-02
  9.560224e-01    1.526827e+00   2.354896e-02
  9.582328e-01    1.521670e+00   2.347763e-02
  9.604433e-01    1.524244e+00   2.346419e-02
  9.626537e-01    1.563566e+00   2.373298e-02
  9.648642e-01    1.566468e+00   2.372245e-02
  9.670747e-01    1.559831e+00   2.363951e-02
  9.692851e-01    1.548983e+00   2.352584e-02
  9.714956e-01    1.583632e+00   2.375397e-02
  9.737060e-01    1.589269e+00   2.376495e-02
  9.759165e-01    1.556111e+00   2.348258e-02
  9.781269e-01    1.578418e+00   2.361934e-02
  9.803374e-01    1.586691e+00   2.364841e-02
  9.825478e-01    1.589152e+00   2.363553e-02
  9.847583e-01    1.633491e+00   2.393043e-02
  9.869688e-01    1.609504e+00   2.372232e-02
  9.891792e-01    1.584459e+00   2.350572e-02
  9.913897e-01    1.582012e+00   2.345588e-02
  9.936001e-01    1.534187e+00   2.306837e-02
  9.958106e-01    1.519555e+00   2.292691e-02
  9.980210e-01    1.459040e+00   2.243658e-02
  1.000231e+00    1.438999e+00   2.240403e-02
  1.002442e+00    1.418843e+00   2.236476e-02
  1.004652e+00    1.424425e+00   2.247123e-02
  1.006863e+00    1.426552e+00   2.253466e-02
  1.009073e+00    1.389241e+00   2.227207e-02
  1.011284e+00    1.349553e+00   2.198097e-02
  1.013494e+00    1.345267e+00   2.196778e-02
  1.015705e+00    1.370335e+00   2.219248e-02
  1.017915e+00    1.347051e+00   2.201830e-02
  1.020126e+00    1.323273e+00   2.183784e-02
  1.022336e+00    1.322580e+00   2.184288e-02
  1.024547e+00    1.332908e+00   2.193839e-02
  1.026757e+00    1.325694e+00   2.188670e-02
  1.028967e+00    1.265906e+00   2.139444e-02
  1.031178e+00    1.269770e+00   2.143263e-02
  1.033388e+00    1.292269e+00   2.162635e-02
  1.035599e+00    1.282162e+00   2.154474e-02
  1.037809e+00    1.303624e+00   2.172732e-02
  1.040020e+00    1.302513e+00   2.171924e-02
  1.042230e+00    1.301249e+00   2.171049e-02
  1.044441e+00    1.296040e+00   2.166681e-02
  1.046651e+00    1.283511e+00   2.156196e-02
  1.048862e+00    1.281962e+00   2.154823e-02
  1.051072e+00    1.281711e+00   2.154393e-02
  1.053282e+00    1.276459e+00   2.149888e-02
  1.055493e+00    1.290398e+00   2.161194e-02
  1.057703e+00    1.272250e+00   2.145804e-02
  1.059914e+00    1.281227e+00   2.152965e-02
  1.062124e+00    1.285236e+00   2.155954e-02
  1.064335e+00    1.304571e+00   2.171788e-02
  1.066545e+00    1.276725e+00   2.147930e-02
  1.068756e+00    1.248297e+00   2.123537e-02
  1.070966e+00    1.240993e+00   2.116718e-02
  1.073177e+00    1.229945e+00   2.106719e-02
  1.075387e+00    1.245746e+00   2.119728e-02
  1.077597e+00    1.257929e+00   2.129396e-02
  1.079808e+00    1.281552e+00   2.136880e-02
  1.082018e+00    1.231564e+00   2.077443e-02
  1.084229e+00    1.207658e+00   2.047173e-02
  1.086439e+00    1.247668e+00   2.072711e-02
  1.088650e+00    1.268825e+00   2.083145e-02
  1.090860e+00    1.262654e+00   2.071772e-02
  1.093071e+00    1.254743e+00   2.059487e-02
  1.095281e+00    1.253447e+00   2.053093e-02
  1.097492e+00    1.249777e+00   2.044980e-02
  1.099702e+00    1.238746e+00   2.031168e-02
  1.101912e+00    1.247078e+00   2.033443e-02
  1.104123e+00    1.218441e+00   2.005515e-02
  1.106333e+00    1.258865e+00   2.034349e-02
  1.108544e+00    1.260841e+00   2.031790e-02
  1.110754e+00    1.236436e+00   2.008025e-02
  1.112965e+00    1.216770e+00   1.988243e-02
  1.115175e+00    1.206480e+00   1.976020e-02
  1.117386e+00    1.269796e+00   2.023488e-02
  1.119596e+00    1.263560e+00   2.014934e-02
  1.121807e+00    1.222696e+00   1.978468e-02
  1.124017e+00    1.209789e+00   1.964600e-02
  1.126228e+00    1.202533e+00   1.955390e-02
  1.128438e+00    1.225985e+00   1.970926e-02
  1.130648e+00    1.227166e+00   1.968661e-02
  1.132859e+00    1.208169e+00   1.950169e-02
  1.135069e+00    1.206677e+00   1.945732e-02
  1.137280e+00    1.192782e+00   1.931441e-02
  1.139490e+00    1.140427e+00   1.885577e-02
  1.141701e+00    1.183897e+00   1.918113e-02
  1.143911e+00    1.237843e+00   1.958315e-02
  1.146122e+00    1.200207e+00   1.925331e-02
  1.148332e+00    1.216120e+00   1.935059e-02
  1.150543e+00    1.181451e+00   1.904422e-02
  1.152753e+00    1.170327e+00   1.892592e-02
  1.154963e+00    1.182367e+00   1.899419e-02
  1.157174e+00    1.198087e+00   1.909190e-02
  1.159384e+00    1.169321e+00   1.883374e-02
  1.161595e+00    1.180525e+00   1.889604e-02
  1.163805e+00    1.224849e+00   1.921983e-02
  1.166016e+00    1.188250e+00   1.890309e-02
  1.168226e+00    1.189810e+00   1.888846e-02
  1.170437e+00    1.193220e+00   1.888877e-02
  1.172647e+00    1.180853e+00   1.876377e-02
  1.174858e+00    1.146470e+00   1.846280e-02
  1.177068e+00    1.196936e+00   1.883829e-02
  1.179278e+00    1.169469e+00   1.859443e-02
  1.181489e+00    1.186777e+00   1.870627e-02
  1.183699e+00    1.191407e+00   1.871691e-02
  1.185910e+00    1.191625e+00   1.869261e-02
  1.188120e+00    1.180732e+00   1.858207e-02
  1.190331e+00    1.180816e+00   1.855776e-02
  1.192541e+00    1.172327e+00   1.846546e-02
  1.194752e+00    1.160171e+00   1.834442e-02
  1.196962e+00    1.162227e+00   1.833681e-02
  1.199173e+00    1.163540e+00   1.832256e-02
  1.201383e+00    1.156500e+00   1.824190e-02
  1.203593e+00    1.185114e+00   1.844293e-02
  1.205804e+00    1.210852e+00   1.861759e-02
  1.208014e+00    1.212376e+00   1.860385e-02
  1.210225e+00    1.182392e+00   1.834868e-02
  1.212435e+00    1.184691e+00   1.834327e-02
  1.214646e+00    1.184973e+00   1.832100e-02
  1.216856e+00    1.186518e+00   1.830905e-02
  1.219067e+00    1.189555e+00   1.830949e-02
  1.221277e+00    1.180378e+00   1.821534e-02
  1.223488e+00    1.154868e+00   1.799362e-02
  1.225698e+00    1.178525e+00   1.815183e-02
  1.227909e+00    1.184106e+00   1.816652e-02
  1.230119e+00    1.149982e+00   1.787345e-02
  1.232329e+00    1.144451e+00   1.780212e-02
  1.234540e+00    1.167402e+00   1.795155e-02
  1.236750e+00    1.178418e+00   1.800781e-02
  1.238961e+00    1.169176e+00   1.791195e-02
  1.241171e+00    1.157666e+00   1.780116e-02
  1.243382e+00    1.179663e+00   1.794751e-02
  1.245592e+00    1.165735e+00   1.781886e-02
  1.247803e+00    1.172396e+00   1.784764e-02
  1.250013e+00    1.175721e+00   1.785097e-02
  1.252224e+00    1.168923e+00   1.777765e-02
  1.254434e+00    1.162032e+00   1.770315e-02
  1.256644e+00    1.170801e+00   1.774819e-02
  1.258855e+00    1.163197e+00   1.766888e-02
  1.261065e+00    1.143714e+00   1.749876e-02
  1.263276e+00    1.161595e+00   1.761375e-02
  1.265486e+00    1.148294e+00   1.749150e-02
  1.267697e+00    1.170304e+00   1.763692e-02
  1.269907e+00    1.168666e+00   1.760345e-02
  1.272118e+00    1.174660e+00   1.762749e-02
  1.274328e+00    1.173308e+00   1.759614e-02
  1.276539e+00    1.161306e+00   1.748477e-02
  1.278749e+00    1.198905e+00   1.774456e-02
  1.280959e+00    1.191190e+00   1.766623e-02
  1.283170e+00    1.177730e+00   1.754518e-02
  1.285380e+00    1.161891e+00   1.740596e-02
  1.287591e+00    1.178517e+00   1.750947e-02
  1.289801e+00    1.184724e+00   1.753563e-02
  1.292012e+00    1.206699e+00   1.768135e-02
  1.294222e+00    1.174553e+00   1.742913e-02
  1.296433e+00    1.165121e+00   1.734448e-02
  1.298643e+00    1.171525e+00   1.737676e-02
  1.300854e+00    1.204299e+00   1.760261e-02
  1.303064e+00    1.211071e+00   1.763386e-02
  1.305274e+00    1.205890e+00   1.757584e-02
  1.307485e+00    1.164323e+00   1.725024e-02
  1.309695e+00    1.164590e+00   1.723157e-02
  1.311906e+00    1.174630e+00   1.728543e-02
  1.314116e+00    1.210350e+00   1.752659e-02
  1.316327e+00    1.224363e+00   1.760711e-02
  1.318537e+00    1.235081e+00   1.766306e-02
  1.320748e+00    1.241314e+00   1.768694e-02
  1.322958e+00    1.229182e+00   1.758068e-02
  1.325169e+00    1.245893e+00   1.767960e-02
  1.327379e+00    1.270859e+00   1.783470e-02
  1.329589e+00    1.293996e+00   1.797570e-02
  1.331800e+00    1.252254e+00   1.766347e-02
  1.334010e+00    1.229667e+00   1.748371e-02
  1.336221e+00    1.235601e+00   1.750505e-02
  1.338431e+00    1.202582e+00   1.724988e-02
  1.340642e+00    1.180928e+00   1.715388e-02
  1.342852e+00    1.163083e+00   1.711721e-02
  1.345063e+00    1.191178e+00   1.736920e-02
  1.347273e+00    1.193277e+00   1.741764e-02
  1.349484e+00    1.196058e+00   1.746397e-02
  1.351694e+00    1.180358e+00   1.737022e-02
  1.353905e+00    1.164436e+00   1.726938e-02
  1.356115e+00    1.140632e+00   1.710578e-02
  1.358325e+00    1.156493e+00   1.723661e-02
  1.360536e+00    1.170897e+00   1.735446e-02
  1.362746e+00    1.166127e+00   1.732797e-02
  1.364957e+00    1.164311e+00   1.732158e-02
  1.367167e+00    1.157936e+00   1.728075e-02
  1.369378e+00    1.145235e+00   1.719123e-02
  1.371588e+00    1.155869e+00   1.727565e-02
  1.373799e+00    1.145023e+00   1.719780e-02
  1.376009e+00    1.138018e+00   1.714823e-02
  1.378220e+00    1.119894e+00   1.701344e-02
  1.380430e+00    1.106172e+00   1.691137e-02
  1.382640e+00    1.100464e+00   1.686849e-02
  1.384851e+00    1.121258e+00   1.702793e-02
  1.387061e+00    1.118783e+00   1.700939e-02
  1.389272e+00    1.152019e+00   1.726039e-02
  1.391482e+00    1.159464e+00   1.731545e-02
  1.393693e+00    1.131936e+00   1.710785e-02
  1.395903e+00    1.109642e+00   1.693714e-02
  1.398114e+00    1.122342e+00   1.703248e-02
  1.400324e+00    1.124869e+00   1.704966e-02
  1.402535e+00    1.109670e+00   1.693192e-02
  1.404745e+00    1.104277e+00   1.688853e-02
  1.406955e+00    1.140882e+00   1.716360e-02
  1.409166e+00    1.131408e+00   1.708909e-02
  1.411376e+00    1.131189e+00   1.708449e-02
  1.413587e+00    1.113483e+00   1.694667e-02
  1.415797e+00    1.114419e+00   1.695050e-02
  1.418008e+00    1.104265e+00   1.683404e-02
  1.420218e+00    1.132779e+00   1.690858e-02
  1.422429e+00    1.129313e+00   1.680226e-02
  1.424639e+00    1.114718e+00   1.663273e-02
  1.426850e+00    1.108994e+00   1.653884e-02
  1.429060e+00    1.110898e+00   1.650723e-02
  1.431270e+00    1.100149e+00   1.638592e-02
  1.433481e+00    1.088552e+00   1.626143e-02
  1.435691e+00    1.104789e+00   1.634640e-02
  1.437902e+00    1.122869e+00   1.644533e-02
  1.440112e+00    1.109644e+00   1.631517e-02
  1.442323e+00    1.131175e+00   1.644150e-02
  1.444533e+00    1.121687e+00   1.634182e-02
  1.446744e+00    1.133680e+00   1.639953e-02
  1.448954e+00    1.149061e+00   1.648168e-02
  1.451165e+00    1.145644e+00   1.642891e-02
  1.453375e+00    1.151438e+00   1.644368e-02
  1.455586e+00    1.146573e+00   1.638216e-02
  1.457796e+00    1.129454e+00   1.623345e-02
  1.460006e+00    1.116497e+00   1.611452e-02
  1.462217e+00    1.129320e+00   1.618205e-02
  1.464427e+00    1.147861e+00   1.629001e-02
  1.466638e+00    1.157842e+00   1.633649e-02
  1.468848e+00    1.159398e+00   1.632326e-02
  1.471059e+00    1.123917e+00   1.604793e-02
  1.473269e+00    1.122754e+00   1.601670e-02
  1.475480e+00    1.110430e+00   1.590632e-02
  1.477690e+00    1.131829e+00   1.603633e-02
  1.479901e+00    1.126430e+00   1.597558e-02
  1.482111e+00    1.103367e+00   1.578942e-02
  1.484321e+00    1.103670e+00   1.577001e-02
  1.486532e+00    1.110699e+00   1.579924e-02
  1.488742e+00    1.105553e+00   1.574142e-02
  1.490953e+00    1.109669e+00   1.574951e-02
  1.493163e+00    1.122758e+00   1.582112e-02
  1.495374e+00    1.126014e+00   1.582377e-02
  1.497584e+00    1.106403e+00   1.566508e-02
  1.499795e+00    1.108447e+00   1.565924e-02
  1.502005e+00    1.110503e+00   1.565341e-02
  1.504216e+00    1.097583e+00   1.554243e-02
  1.506426e+00    1.116498e+00   1.565618e-02
  1.508636e+00    1.113419e+00   1.561534e-02
  1.510847e+00    1.106123e+00   1.554363e-02
  1.513057e+00    1.097235e+00   1.545759e-02
  1.515268e+00    1.125316e+00   1.562979e-02
  1.517478e+00    1.133688e+00   1.566391e-02
  1.519689e+00    1.164188e+00   1.584915e-02
  1.521899e+00    1.161617e+00   1.580944e-02
  1.524110e+00    1.132779e+00   1.559261e-02
  1.526320e+00    1.132161e+00   1.556973e-02
  1.528531e+00    1.115021e+00   1.543277e-02
  1.530741e+00    1.103019e+00   1.533150e-02
  1.532951e+00    1.108569e+00   1.535158e-02
  1.535162e+00    1.108484e+00   1.543254e-02
  1.537372e+00    1.091510e+00   1.537650e-02
  1.539583e+00    1.071634e+00   1.526754e-02
  1.541793e+00    1.105234e+00   1.551159e-02
  1.544004e+00    1.090156e+00   1.540568e-02
  1.546214e+00    1.074679e+00   1.529451e-02
  1.548425e+00    1.078421e+00   1.532138e-02
  1.550635e+00    1.063855e+00   1.522649e-02
  1.552846e+00    1.074939e+00   1.531458e-02
  1.555056e+00    1.093519e+00   1.540748e-02
  1.557266e+00    1.086294e+00   1.525332e-02
  1.559477e+00    1.077405e+00   1.513576e-02
  1.561687e+00    1.111297e+00   1.534300e-02
  1.563898e+00    1.097824e+00   1.523361e-02
  1.566108e+00    1.105386e+00   1.527092e-02
  1.568319e+00    1.109877e+00   1.528719e-02
  1.570529e+00    1.107926e+00   1.525000e-02
  1.572740e+00    1.124710e+00   1.533884e-02
  1.574950e+00    1.099915e+00   1.514409e-02
  1.577161e+00    1.096001e+00   1.509320e-02
  1.579371e+00    1.114247e+00   1.519592e-02
  1.581582e+00    1.124552e+00   1.524725e-02
  1.583792e+00    1.094467e+00   1.502501e-02
  1.586002e+00    1.097963e+00   1.503243e-02
  1.588213e+00    1.116120e+00   1.513986e-02
  1.590423e+00    1.153186e+00   1.536989e-02
  1.592634e+00    1.162260e+00   1.540939e-02
  1.594844e+00    1.100051e+00   1.497118e-02
  1.597055e+00    1.076642e+00   1.479195e-02
  1.599265e+00    1.085352e+00   1.483228e-02
  1.601476e+00    1.051121e+00   1.457785e-02
  1.603686e+00    1.034496e+00   1.444401e-02
  1.605897e+00    1.068313e+00   1.465948e-02
  1.608107e+00    1.068841e+00   1.464494e-02
  1.610317e+00    1.077424e+00   1.468559e-02
  1.612528e+00    1.096045e+00   1.479390e-02
  1.614738e+00    1.085390e+00   1.470402e-02
  1.616949e+00    1.080184e+00   1.465092e-02
  1.619159e+00    1.058910e+00   1.448849e-02
  1.621370e+00    1.049990e+00   1.441022e-02
  1.623580e+00    1.057985e+00   1.444786e-02
  1.625791e+00    1.043405e+00   1.433101e-02
  1.628001e+00    1.024551e+00   1.418407e-02
  1.630212e+00    1.034716e+00   1.423773e-02
  1.632422e+00    1.036752e+00   1.423500e-02
  1.634632e+00    1.019893e+00   1.410271e-02
  1.636843e+00    1.027494e+00   1.413878e-02
  1.639053e+00    1.005169e+00   1.396834e-02
  1.641264e+00    9.879656e-01   1.383258e-02
  1.643474e+00    9.999992e-01   1.390042e-02
  1.645685e+00    9.813060e-01   1.375458e-02
  1.647895e+00    9.626187e-01   1.360781e-02
  1.650106e+00    9.856161e-01   1.375367e-02
  1.652316e+00    9.881310e-01   1.375592e-02
  1.654527e+00    9.597166e-01   1.354142e-02
  1.656737e+00    9.686836e-01   1.358923e-02
  1.658947e+00    9.662376e-01   1.355702e-02
  1.661158e+00    9.798490e-01   1.363701e-02
  1.663368e+00    9.837012e-01   1.364879e-02
  1.665579e+00    9.608020e-01   1.347404e-02
  1.667789e+00    9.499258e-01   1.338258e-02
  1.670000e+00    9.472447e-01   1.334940e-02
  1.672210e+00    9.462949e-01   1.332803e-02
  1.674421e+00    9.513270e-01   1.334919e-02
  1.676631e+00    9.343696e-01   1.321509e-02
  1.678842e+00    9.178476e-01   1.308331e-02
  1.681052e+00    9.243807e-01   1.311561e-02
  1.683263e+00    9.512625e-01   1.329083e-02
  1.685473e+00    9.511244e-01   1.327569e-02
  1.687683e+00    9.299586e-01   1.311285e-02
  1.689894e+00    9.225173e-01   1.304571e-02
  1.692104e+00    9.198144e-01   1.301279e-02
  1.694315e+00    9.337649e-01   1.309756e-02
  1.696525e+00    9.226600e-01   1.300540e-02
  1.698736e+00    9.011340e-01   1.283913e-02
  1.700946e+00    9.030986e-01   1.283916e-02
  1.703157e+00    9.010223e-01   1.281088e-02
  1.705367e+00    9.043848e-01   1.282132e-02
  1.707578e+00    8.855214e-01   1.267353e-02
  1.709788e+00    8.794919e-01   1.261734e-02
  1.711998e+00    8.967546e-01   1.272665e-02
  1.714209e+00    8.816481e-01   1.260571e-02
  1.716419e+00    8.797712e-01   1.257913e-02
  1.718630e+00    8.672397e-01   1.247613e-02
  1.720840e+00    8.825847e-01   1.257287e-02
  1.723051e+00    8.809909e-01   1.254867e-02
  1.725261e+00    8.720399e-01   1.247120e-02
  1.727472e+00    8.576401e-01   1.235480e-02
  1.729682e+00    8.496621e-01   1.228488e-02
  1.731893e+00    8.581695e-01   1.233341e-02
  1.734103e+00    8.475294e-01   1.224410e-02
  1.736313e+00    8.405768e-01   1.218093e-02
  1.738524e+00    8.447071e-01   1.219816e-02
  1.740734e+00    8.403228e-01   1.215388e-02
  1.742945e+00    8.433017e-01   1.216303e-02
  1.745155e+00    8.343831e-01   1.208622e-02
  1.747366e+00    8.371796e-01   1.209373e-02
  1.749576e+00    8.360493e-01   1.207298e-02
  1.751787e+00    8.149587e-01   1.190759e-02
  1.753997e+00    8.169510e-01   1.190990e-02
  1.756208e+00    8.292663e-01   1.198717e-02
  1.758418e+00    8.077559e-01   1.181872e-02
  1.760628e+00    8.156568e-01   1.186413e-02
  1.762839e+00    8.005626e-01   1.174182e-02
  1.765049e+00    8.063992e-01   1.177251e-02
  1.767260e+00    8.108773e-01   1.179340e-02
  1.769470e+00    7.991385e-01   1.169583e-02
  1.771681e+00    7.885315e-01   1.160601e-02
  1.773891e+00    8.037868e-01   1.170573e-02
  1.776102e+00    7.958925e-01   1.163630e-02
  1.778312e+00    7.913131e-01   1.159113e-02
  1.780523e+00    7.835590e-01   1.152259e-02
  1.782733e+00    7.868995e-01   1.153549e-02
  1.784944e+00    7.902560e-01   1.154824e-02
  1.787154e+00    7.803593e-01   1.146423e-02
  1.789364e+00    7.812810e-01   1.145957e-02
  1.791575e+00    7.609162e-01   1.129787e-02
  1.793785e+00    7.659917e-01   1.132417e-02
  1.795996e+00    7.680871e-01   1.132826e-02
  1.798206e+00    7.600812e-01   1.125764e-02
  1.800417e+00    7.596180e-01   1.124268e-02
  1.802627e+00    7.741956e-01   1.133905e-02
  1.804838e+00    7.649857e-01   1.126034e-02
  1.807048e+00    7.653179e-01   1.125096e-02
  1.809259e+00    7.858546e-01   1.138829e-02
  1.811469e+00    7.634707e-01   1.121118e-02
  1.813679e+00    7.639356e-01   1.120080e-02
  1.815890e+00    7.574172e-01   1.113937e-02
  1.818100e+00    7.601013e-01   1.114519e-02
  1.820311e+00    7.287065e-01   1.089927e-02
  1.822521e+00    7.285943e-01   1.088498e-02
  1.824732e+00    7.452895e-01   1.099543e-02
  1.826942e+00    7.313303e-01   1.088078e-02
  1.829153e+00    7.422625e-01   1.095109e-02
  1.831363e+00    7.367657e-01   1.089949e-02
  1.833574e+00    7.232214e-01   1.078825e-02
  1.835784e+00    7.407269e-01   1.090753e-02
  1.837994e+00    7.669854e-01   1.108825e-02
  1.840205e+00    7.641346e-01   1.105719e-02
  1.842415e+00    7.673530e-01   1.106939e-02
  1.844626e+00    7.626964e-01   1.102497e-02
  1.846836e+00    7.400401e-01   1.084941e-02
  1.849047e+00    7.597228e-01   1.098187e-02
  1.851257e+00    7.513919e-01   1.091256e-02
  1.853468e+00    7.696348e-01   1.103592e-02
  1.855678e+00    7.593473e-01   1.095359e-02
  1.857889e+00    7.394323e-01   1.080110e-02
  1.860099e+00    7.237228e-01   1.067783e-02
  1.862309e+00    7.266362e-01   1.069144e-02
  1.864520e+00    7.296133e-01   1.070543e-02
  1.866730e+00    7.252018e-01   1.066434e-02
  1.868941e+00    7.320033e-01   1.070412e-02
  1.871151e+00    7.099236e-01   1.053104e-02
  1.873362e+00    7.289463e-01   1.066068e-02
  1.875572e+00    7.220768e-01   1.060026e-02
  1.877783e+00    7.345778e-01   1.068098e-02
  1.879993e+00    7.387534e-01   1.070087e-02
  1.882204e+00    7.354631e-01   1.066687e-02
  1.884414e+00    7.107462e-01   1.047592e-02
  1.886624e+00    7.383243e-01   1.066684e-02
  1.888835e+00    7.736936e-01   1.090885e-02
  1.891045e+00    7.652005e-01   1.083844e-02
  1.893256e+00    7.198650e-01   1.050221e-02
  1.895466e+00    7.035041e-01   1.037190e-02
  1.897677e+00    7.154964e-01   1.044983e-02
  1.899887e+00    7.387663e-01   1.060806e-02
  1.902098e+00    7.477829e-01   1.066231e-02
  1.904308e+00    7.527140e-01   1.068736e-02
  1.906519e+00    7.418199e-01   1.059949e-02
  1.908729e+00    7.142779e-01   1.039102e-02
  1.910940e+00    7.118981e-01   1.036336e-02
  1.913150e+00    7.151092e-01   1.037686e-02
  1.915360e+00    7.247730e-01   1.043678e-02
  1.917571e+00    7.043129e-01   1.027836e-02
  1.919781e+00    6.963050e-01   1.020992e-02
  1.921992e+00    6.918056e-01   1.016712e-02
  1.924202e+00    7.208812e-01   1.036846e-02
  1.926413e+00    7.014589e-01   1.021830e-02
  1.928623e+00    6.790913e-01   1.004444e-02
  1.930834e+00    6.723913e-01   9.985272e-03
  1.933044e+00    6.867583e-01   1.008155e-02
  1.935255e+00    7.023610e-01   1.018584e-02
  1.937465e+00    6.751198e-01   9.976866e-03
  1.939675e+00    6.769522e-01   9.980432e-03
  1.941886e+00    6.902157e-01   1.006822e-02
  1.944096e+00    6.791984e-01   9.978195e-03
  1.946307e+00    6.648025e-01   9.862452e-03
  1.948517e+00    6.755412e-01   9.932187e-03
  1.950728e+00    6.896985e-01   1.002621e-02
  1.952938e+00    6.656463e-01   9.840621e-03
  1.955149e+00    6.641142e-01   9.819930e-03
  1.957359e+00    6.918011e-01   1.001318e-02
  1.959570e+00    6.813273e-01   9.927029e-03
  1.961780e+00    6.803960e-01   9.911066e-03
  1.963990e+00    6.753169e-01   9.864648e-03
  1.966201e+00    6.711696e-01   9.825053e-03
  1.968411e+00    6.733918e-01   9.831922e-03
  1.970622e+00    6.645378e-01   9.757804e-03
  1.972832e+00    6.734143e-01   9.813529e-03
  1.975043e+00    6.704315e-01   9.782506e-03
  1.977253e+00    6.704262e-01   9.773267e-03
  1.979464e+00    6.679486e-01   9.745929e-03
  1.981674e+00    6.756250e-01   9.792232e-03
  1.983885e+00    6.793227e-01   9.809650e-03
  1.986095e+00    6.765402e-01   9.780516e-03
  1.988305e+00    6.721544e-01   9.739577e-03
  1.990516e+00    6.662126e-01   9.687245e-03
  1.992726e+00    6.866802e-01   9.825828e-03
  1.994937e+00    7.075936e-01   9.964690e-03
  1.997147e+00    6.815728e-01   9.770641e-03
  1.999358e+00    6.701859e-01   9.679509e-03
  2.001568e+00    6.661079e-01   9.639984e-03
  2.003779e+00    6.624759e-01   9.602618e-03
  2.005989e+00    6.791978e-01   9.711782e-03
  2.008200e+00    6.671961e-01   9.614877e-03
  2.010410e+00    6.558589e-01   9.521984e-03
  2.012621e+00    6.561237e-01   9.513089e-03
  2.014831e+00    6.554005e-01   9.497242e-03
  2.017041e+00    6.723173e-01   9.609304e-03
  2.019252e+00    6.737359e-01   9.610096e-03
  2.021462e+00    6.635988e-01   9.528686e-03
  2.023673e+00    6.577376e-01   9.477776e-03
  2.025883e+00    6.654144e-01   9.524063e-03
  2.028094e+00    6.489438e-01   9.396555e-03
  2.030304e+00    6.451316e-01   9.360136e-03
  2.032515e+00    6.356201e-01   9.282371e-03
  2.034725e+00    6.473481e-01   9.358902e-03
  2.036936e+00    6.379231e-01   9.281953e-03
  2.039146e+00    6.396931e-01   9.286027e-03
  2.041356e+00    6.404957e-01   9.282964e-03
  2.043567e+00    6.597313e-01   9.412637e-03
  2.045777e+00    6.494233e-01   9.330254e-03
  2.047988e+00    6.379500e-01   9.238843e-03
  2.050198e+00    6.506543e-01   9.322552e-03
  2.052409e+00    6.418614e-01   9.252275e-03
  2.054619e+00    6.565955e-01   9.350967e-03
  2.056830e+00    6.563603e-01   9.342600e-03
  2.059040e+00    6.403506e-01   9.221014e-03
  2.061251e+00    6.547822e-01   9.317564e-03
  2.063461e+00    6.415298e-01   9.215772e-03
  2.065671e+00    6.501418e-01   9.269286e-03
  2.067882e+00    6.377752e-01   9.172412e-03
  2.070092e+00    6.471182e-01   9.230771e-03
  2.072303e+00    6.743828e-01   9.414553e-03
  2.074513e+00    6.416344e-01   9.174487e-03
  2.076724e+00    6.239829e-01   9.038732e-03
  2.078934e+00    6.194496e-01   8.997621e-03
  2.081145e+00    6.249111e-01   9.028859e-03
  2.083355e+00    6.322095e-01   9.072965e-03
  2.085566e+00    6.331186e-01   9.071258e-03
  2.087776e+00    6.221781e-01   8.983816e-03
  2.089986e+00    6.285956e-01   9.021918e-03
  2.092197e+00    6.239823e-01   8.980530e-03
  2.094407e+00    6.108791e-01   8.877321e-03
  2.096618e+00    6.120031e-01   8.877356e-03
  2.098828e+00    6.353617e-01   9.036532e-03
  2.101039e+00    6.509224e-01   9.138051e-03
  2.103249e+00    6.420831e-01   9.067687e-03
  2.105460e+00    6.234142e-01   8.926548e-03
  2.107670e+00    6.198465e-01   8.892924e-03
  2.109881e+00    6.018097e-01   8.754237e-03
  2.112091e+00    6.144462e-01   8.837392e-03
  2.114301e+00    6.352568e-01   8.977580e-03
  2.116512e+00    6.058689e-01   8.759441e-03
  2.118722e+00    6.064904e-01   8.755806e-03
  2.120933e+00    6.040195e-01   8.729873e-03
  2.123143e+00    5.896314e-01   8.617174e-03
  2.125354e+00    6.066337e-01   8.732710e-03
  2.127564e+00    6.094790e-01   8.745090e-03
  2.129775e+00    6.012879e-01   8.678154e-03
  2.131985e+00    6.217825e-01   8.816330e-03
  2.134196e+00    6.164286e-01   8.770335e-03
  2.136406e+00    6.158843e-01   8.758319e-03
  2.138617e+00    6.383893e-01   8.908844e-03
  2.140827e+00    6.989837e-01   9.338067e-03
  2.143037e+00    6.392039e-01   8.973093e-03
  2.145248e+00    6.030255e-01   8.735770e-03
  2.147458e+00    5.893987e-01   8.650341e-03
  2.149669e+00    6.042397e-01   8.769557e-03
  2.151879e+00    6.078706e-01   8.804454e-03
  2.154090e+00    6.039656e-01   8.782913e-03
  2.156300e+00    5.920160e-01   8.701678e-03
  2.158511e+00    5.857565e-01   8.660390e-03
  2.160721e+00    5.825685e-01   8.641195e-03
  2.162932e+00    5.908278e-01   8.705676e-03
  2.165142e+00    5.951216e-01   8.740034e-03
  2.167352e+00    5.992382e-01   8.772932e-03
  2.169563e+00    5.889883e-01   8.699372e-03
  2.171773e+00    5.794460e-01   8.630842e-03
  2.173984e+00    5.930786e-01   8.733090e-03
  2.176194e+00    5.801702e-01   8.638637e-03
  2.178405e+00    5.806671e-01   8.642963e-03
  2.180615e+00    5.785934e-01   8.628143e-03
  2.182826e+00    5.770403e-01   8.617175e-03
  2.185036e+00    5.838168e-01   8.667655e-03
  2.187247e+00    5.892003e-01   8.707507e-03
  2.189457e+00    5.633753e-01   8.514177e-03
  2.191667e+00    5.578293e-01   8.471979e-03
  2.193878e+00    5.896939e-01   8.710070e-03
  2.196088e+00    5.892690e-01   8.706316e-03
  2.198299e+00    5.964028e-01   8.757807e-03
  2.200509e+00    6.078100e-01   8.840207e-03
  2.202720e+00    5.789329e-01   8.626596e-03
  2.204930e+00    5.627054e-01   8.503675e-03
  2.207141e+00    5.770752e-01   8.610557e-03
  2.209351e+00    5.941325e-01   8.735118e-03
  2.211562e+00    5.962849e-01   8.749417e-03
  2.213772e+00    5.772245e-01   8.557213e-03
  2.215982e+00    5.802031e-01   8.538293e-03
  2.218193e+00    5.783859e-01   8.497500e-03
  2.220403e+00    5.719739e-01   8.427625e-03
  2.222614e+00    5.798767e-01   8.466214e-03
  2.224824e+00    5.750635e-01   8.413098e-03
  2.227035e+00    5.834885e-01   8.458259e-03
  2.229245e+00    5.725842e-01   8.363180e-03
  2.231456e+00    5.690917e-01   8.323263e-03
  2.233666e+00    5.646880e-01   8.277145e-03
  2.235877e+00    5.754987e-01   8.342773e-03
  2.238087e+00    5.821126e-01   8.378029e-03
  2.240298e+00    5.621796e-01   8.220711e-03
  2.242508e+00    5.828876e-01   8.356617e-03
  2.244718e+00    5.702817e-01   8.251184e-03
  2.246929e+00    5.614161e-01   8.173559e-03
  2.249139e+00    5.615128e-01   8.162919e-03
  2.251350e+00    5.667039e-01   8.189761e-03
  2.253560e+00    5.714872e-01   8.213542e-03
  2.255771e+00    5.686516e-01   8.182603e-03
  2.257981e+00    5.613053e-01   8.119314e-03
  2.260192e+00    5.758313e-01   8.213343e-03
  2.262402e+00    5.553065e-01   8.055744e-03
  2.264613e+00    5.359603e-01   7.904423e-03
  2.266823e+00    5.507613e-01   8.003327e-03
  2.269033e+00    5.535409e-01   8.014029e-03
  2.271244e+00    5.695472e-01   8.119416e-03
  2.273454e+00    5.761583e-01   8.156868e-03
  2.275665e+00    5.574477e-01   8.013858e-03
  2.277875e+00    5.431508e-01   7.901429e-03
  2.280086e+00    5.473888e-01   7.923038e-03
  2.282296e+00    5.612651e-01   8.014156e-03
  2.284507e+00    5.669029e-01   8.044917e-03
  2.286717e+00    5.544553e-01   7.947415e-03
  2.288928e+00    5.522559e-01   7.922592e-03
  2.291138e+00    5.618715e-01   7.982539e-03
  2.293348e+00    5.795698e-01   8.098325e-03
  2.295559e+00    5.581494e-01   7.938669e-03
  2.297769e+00    5.503559e-01   7.874582e-03
  2.299980e+00    5.470827e-01   7.842569e-03
  2.302190e+00    5.656050e-01   7.965727e-03
  2.304401e+00    5.675403e-01   7.970667e-03
  2.306611e+00    5.415550e-01   7.777690e-03
  2.308822e+00    5.374584e-01   7.740571e-03
  2.311032e+00    5.424067e-01   7.770234e-03
  2.313243e+00    5.403189e-01   7.749563e-03
  2.315453e+00    5.314028e-01   7.678494e-03
  2.317663e+00    5.403880e-01   7.734799e-03
  2.319874e+00    5.408847e-01   7.730366e-03
  2.322084e+00    5.498061e-01   7.785586e-03
  2.324295e+00    5.480034e-01   7.765243e-03
  2.326505e+00    5.424297e-01   7.717350e-03
  2.328716e+00    5.390723e-01   7.685579e-03
  2.330926e+00    5.535194e-01   7.779748e-03
  2.333137e+00    5.518073e-01   7.759937e-03
  2.335347e+00    5.430041e-01   7.689638e-03
  2.337558e+00    5.313842e-01   7.599403e-03
  2.339768e+00    5.296752e-01   7.579383e-03
  2.341979e+00    5.310462e-01   7.581545e-03
  2.344189e+00    5.365989e-01   7.613389e-03
  2.346399e+00    5.367272e-01   7.606494e-03
  2.348610e+00    5.328674e-01   7.571349e-03
  2.350820e+00    5.321116e-01   7.558494e-03
  2.353031e+00    5.257751e-01   7.505799e-03
  2.355241e+00    5.488704e-01   7.661377e-03
  2.357452e+00    5.532932e-01   7.684316e-03
  2.359662e+00    5.425611e-01   7.601813e-03
  2.361873e+00    5.318432e-01   7.518787e-03
  2.364083e+00    5.263239e-01   7.472364e-03
  2.366294e+00    5.378801e-01   7.546433e-03
  2.368504e+00    5.322433e-01   7.499360e-03
  2.370714e+00    5.280896e-01   7.462647e-03
  2.372925e+00    5.177003e-01   7.381522e-03
  2.375135e+00    5.361436e-01   7.504393e-03
  2.377346e+00    5.190946e-01   7.376897e-03
  2.379556e+00    5.273144e-01   7.427761e-03
  2.381767e+00    5.254903e-01   7.407709e-03
  2.383977e+00    5.149729e-01   7.325958e-03
  2.386188e+00    5.139924e-01   7.311785e-03
  2.388398e+00    5.091173e-01   7.269789e-03
  2.390609e+00    5.312130e-01   7.418700e-03
  2.392819e+00    5.343398e-01   7.433279e-03
  2.395029e+00    5.281972e-01   7.383330e-03
  2.397240e+00    5.188423e-01   7.310420e-03
  2.399450e+00    5.106338e-01   7.245257e-03
  2.401661e+00    5.141432e-01   7.263041e-03
  2.403871e+00    5.174461e-01   7.279209e-03
  2.406082e+00    5.298695e-01   7.359140e-03
  2.408292e+00    5.289288e-01   7.345363e-03
  2.410503e+00    4.961837e-01   7.107594e-03
  2.412713e+00    5.078500e-01   7.183516e-03
  2.414924e+00    5.156342e-01   7.231468e-03
  2.417134e+00    5.132919e-01   7.207992e-03
  2.419344e+00    5.040416e-01   7.135973e-03
  2.421555e+00    5.198986e-01   7.240362e-03
  2.423765e+00    5.089735e-01   7.157092e-03
  2.425976e+00    5.137906e-01   7.183635e-03
  2.428186e+00    5.248194e-01   7.253575e-03
  2.430397e+00    5.290287e-01   7.275567e-03
  2.432607e+00    5.039387e-01   7.094266e-03
  2.434818e+00    4.974283e-01   7.041377e-03
  2.437028e+00    4.800049e-01   6.910542e-03
  2.439239e+00    4.920087e-01   6.989443e-03
  2.441449e+00    4.923619e-01   6.985376e-03
  2.443659e+00    4.893846e-01   6.957559e-03
  2.445870e+00    4.727951e-01   6.849586e-03
  2.448080e+00    4.801866e-01   6.934477e-03
  2.450291e+00    4.783438e-01   6.936300e-03
  2.452501e+00    4.902134e-01   7.032110e-03
  2.454712e+00    4.829606e-01   6.987651e-03
  2.456922e+00    4.771994e-01   6.951893e-03
  2.459133e+00    4.842138e-01   7.007814e-03
  2.461343e+00    4.785976e-01   6.971060e-03
  2.463554e+00    4.698172e-01   6.909978e-03
  2.465764e+00    4.728961e-01   6.935474e-03
  2.467975e+00    4.696763e-01   6.913890e-03
  2.470185e+00    4.801437e-01   6.992617e-03
  2.472395e+00    4.627070e-01   6.865582e-03
  2.474606e+00    4.715609e-01   6.932400e-03
  2.476816e+00    4.618753e-01   6.861511e-03
  2.479027e+00    4.669690e-01   6.900019e-03
  2.481237e+00    4.565486e-01   6.822870e-03
  2.483448e+00    4.474817e-01   6.755025e-03
  2.485658e+00    4.613666e-01   6.858905e-03
  2.487869e+00    4.623864e-01   6.866511e-03
  2.490079e+00    4.676484e-01   6.905014e-03
  2.492290e+00    4.529136e-01   6.794943e-03
  2.494500e+00    4.492270e-01   6.766571e-03
  2.496710e+00    4.469854e-01   6.749030e-03
  2.498921e+00    4.421718e-01   6.711684e-03
  2.501131e+00    4.501721e-01   6.771266e-03
  2.503342e+00    4.463530e-01   6.741317e-03
  2.505552e+00    4.580459e-01   6.827995e-03
  2.507763e+00    4.439012e-01   6.720467e-03
  2.509973e+00    4.430338e-01   6.712595e-03
  2.512184e+00    4.510322e-01   6.771435e-03
  2.514394e+00    4.366781e-01   6.654306e-03
  2.516605e+00    4.446968e-01   6.671851e-03
  2.518815e+00    4.293948e-01   6.530480e-03
  2.521025e+00    4.317997e-01   6.529732e-03
  2.523236e+00    4.361581e-01   6.546216e-03
  2.525446e+00    4.401546e-01   6.561862e-03
  2.527657e+00    4.312785e-01   6.482136e-03
  2.529867e+00    4.460727e-01   6.579292e-03
  2.532078e+00    4.366633e-01   6.495830e-03
  2.534288e+00    4.494353e-01   6.577294e-03
  2.536499e+00    4.332270e-01   6.446750e-03
  2.538709e+00    4.272623e-01   6.392292e-03
  2.540920e+00    4.498902e-01   6.549507e-03
  2.543130e+00    4.427739e-01   6.487981e-03
  2.545340e+00    4.426269e-01   6.477660e-03
  2.547551e+00    4.440865e-01   6.479156e-03
  2.549761e+00    4.629469e-01   6.606287e-03
  2.551972e+00    4.939954e-01   6.815108e-03
  2.554182e+00    4.833960e-01   6.732811e-03
  2.556393e+00    4.620754e-01   6.574065e-03
  2.558603e+00    4.553380e-01   6.517493e-03
  2.560814e+00    4.396367e-01   6.396122e-03
  2.563024e+00    4.433442e-01   6.415104e-03
  2.565235e+00    4.557160e-01   6.495086e-03
  2.567445e+00    4.531764e-01   6.468031e-03
  2.569656e+00    4.546607e-01   6.469497e-03
  2.571866e+00    4.393706e-01   6.351170e-03
  2.574076e+00    4.375021e-01   6.329112e-03
  2.576287e+00    4.490370e-01   6.404234e-03
  2.578497e+00    4.555623e-01   6.443235e-03
  2.580708e+00    4.445135e-01   6.357119e-03
  2.582918e+00    4.461999e-01   6.361927e-03
  2.585129e+00    4.511543e-01   6.389897e-03
  2.587339e+00    4.429287e-01   6.324260e-03
  2.589550e+00    4.404720e-01   6.299698e-03
  2.591760e+00    4.315307e-01   6.228311e-03
  2.593971e+00    4.356144e-01   6.250775e-03
  2.596181e+00    4.273586e-01   6.185580e-03
  2.598391e+00    4.328112e-01   6.220128e-03
  2.600602e+00    4.258349e-01   6.164389e-03
  2.602812e+00    4.229629e-01   6.136707e-03
  2.605023e+00    4.255683e-01   6.149016e-03
  2.607233e+00    4.174930e-01   6.083928e-03
  2.609444e+00    4.370252e-01   6.217899e-03
  2.611654e+00    4.175059e-01   6.070830e-03
  2.613865e+00    4.218778e-01   6.096080e-03
  2.616075e+00    4.246891e-01   6.109841e-03
  2.618286e+00    4.332747e-01   6.164795e-03
  2.620496e+00    4.254981e-01   6.103103e-03
  2.622706e+00    4.186350e-01   6.048426e-03
  2.624917e+00    4.318960e-01   6.138075e-03
  2.627127e+00    4.321356e-01   6.134477e-03
  2.629338e+00    4.132859e-01   5.993759e-03
  2.631548e+00    4.248413e-01   6.071306e-03
  2.633759e+00    4.302002e-01   6.102869e-03
  2.635969e+00    4.378600e-01   6.150707e-03
  2.638180e+00    4.324701e-01   6.106259e-03
  2.640390e+00    4.350431e-01   6.118231e-03
  2.642601e+00    4.375646e-01   6.129727e-03
  2.644811e+00    4.301390e-01   6.070920e-03
  2.647021e+00    4.168420e-01   5.970362e-03
  2.649232e+00    4.111763e-01   5.923542e-03
  2.651442e+00    4.238475e-01   6.008137e-03
  2.653653e+00    4.148206e-01   5.937619e-03
  2.655863e+00    4.294673e-01   6.035317e-03
  2.658074e+00    4.316656e-01   6.044600e-03
  2.660284e+00    4.228626e-01   5.976791e-03
  2.662495e+00    4.115646e-01   5.890273e-03
  2.664705e+00    4.157275e-01   5.913960e-03
  2.666916e+00    4.107825e-01   5.872810e-03
  2.669126e+00    4.278108e-01   5.987289e-03
  2.671337e+00    4.261714e-01   5.969725e-03
  2.673547e+00    4.096300e-01   5.846925e-03
  2.675757e+00    4.055765e-01   5.812054e-03
  2.677968e+00    4.197462e-01   5.906707e-03
  2.680178e+00    4.268088e-01   5.950266e-03
  2.682389e+00    4.098184e-01   5.824775e-03
  2.684599e+00    4.187007e-01   5.881872e-03
  2.686810e+00    4.136900e-01   5.840502e-03
  2.689020e+00    4.236259e-01   5.904388e-03
  2.691231e+00    4.202780e-01   5.875199e-03
  2.693441e+00    4.156491e-01   5.837094e-03
  2.695652e+00    4.145485e-01   5.823371e-03
  2.697862e+00    4.121332e-01   5.800563e-03
  2.700072e+00    4.099879e-01   5.779884e-03
  2.702283e+00    4.181271e-01   5.831220e-03
  2.704493e+00    4.101942e-01   5.769884e-03
  2.706704e+00    4.136182e-01   5.788020e-03
  2.708914e+00    4.014398e-01   5.696776e-03
  2.711125e+00    4.121746e-01   5.766665e-03
  2.713335e+00    4.217975e-01   5.827955e-03
  2.715546e+00    4.173974e-01   5.791498e-03
  2.717756e+00    4.061596e-01   5.707626e-03
  2.719967e+00    3.992947e-01   5.653542e-03
  2.722177e+00    4.143373e-01   5.753381e-03
  2.724387e+00    4.144615e-01   5.748626e-03
  2.726598e+00    4.130020e-01   5.732897e-03
  2.728808e+00    4.085756e-01   5.696457e-03
  2.731019e+00    4.072721e-01   5.681736e-03
  2.733229e+00    4.176902e-01   5.748567e-03
  2.735440e+00    3.996214e-01   5.617170e-03
  2.737650e+00    4.051577e-01   5.650408e-03
  2.739861e+00    4.070171e-01   5.657820e-03
  2.742071e+00    3.881888e-01   5.520245e-03
  2.744282e+00    3.999273e-01   5.597393e-03
  2.746492e+00    3.991010e-01   5.586124e-03
  2.748702e+00    4.051108e-01   5.622616e-03
  2.750913e+00    4.039041e-01   5.608930e-03
  2.753123e+00    4.058556e-01   5.616847e-03
  2.755334e+00    4.053043e-01   5.607454e-03
  2.757544e+00    4.034224e-01   5.589162e-03
  2.759755e+00    4.001811e-01   5.561289e-03
  2.761965e+00    4.060803e-01   5.596633e-03
  2.764176e+00    4.110436e-01   5.625198e-03
  2.766386e+00    4.026504e-01   5.562159e-03
  2.768597e+00    3.953676e-01   5.506307e-03
  2.770807e+00    3.867328e-01   5.440573e-03
  2.773017e+00    3.953792e-01   5.495604e-03
  2.775228e+00    4.175456e-01   5.642173e-03
  2.777438e+00    4.005525e-01   5.520871e-03
  2.779649e+00    4.044633e-01   5.542319e-03
  2.781859e+00    4.067601e-01   5.552718e-03
  2.784070e+00    3.991649e-01   5.495276e-03
  2.786280e+00    4.050068e-01   5.530025e-03
  2.788491e+00    3.991951e-01   5.484867e-03
  2.790701e+00    4.056542e-01   5.523850e-03
  2.792912e+00    4.040652e-01   5.507537e-03
  2.795122e+00    3.961078e-01   5.447796e-03
  2.797333e+00    4.091183e-01   5.531381e-03
  2.799543e+00    4.050009e-01   5.498087e-03
  2.801753e+00    3.944287e-01   5.420502e-03
  2.803964e+00    4.047982e-01   5.486072e-03
  2.806174e+00    3.974656e-01   5.430522e-03
  2.808385e+00    4.104222e-01   5.512017e-03
  2.810595e+00    4.022588e-01   5.450604e-03
  2.812806e+00    4.021239e-01   5.443607e-03
  2.815016e+00    4.075498e-01   5.475803e-03
  2.817227e+00    4.074826e-01   5.499401e-03
  2.819437e+00    3.904342e-01   5.393195e-03
  2.821648e+00    3.889607e-01   5.385073e-03
  2.823858e+00    3.869072e-01   5.375664e-03
  2.826068e+00    3.912535e-01   5.410295e-03
  2.828279e+00    3.973120e-01   5.455726e-03
  2.830489e+00    4.129039e-01   5.564884e-03
  2.832700e+00    3.945062e-01   5.441830e-03
  2.834910e+00    3.807119e-01   5.347696e-03
  2.837121e+00    3.964987e-01   5.459002e-03
  2.839331e+00    4.062357e-01   5.526781e-03
  2.841542e+00    3.928650e-01   5.435991e-03
  2.843752e+00    3.909229e-01   5.423253e-03
  2.845963e+00    4.077241e-01   5.538934e-03
  2.848173e+00    3.954536e-01   5.455033e-03
  2.850383e+00    3.908057e-01   5.423158e-03
  2.852594e+00    3.858333e-01   5.388470e-03
  2.854804e+00    3.872378e-01   5.397793e-03
  2.857015e+00    4.056186e-01   5.524014e-03
  2.859225e+00    4.071088e-01   5.533942e-03
  2.861436e+00    3.934056e-01   5.439394e-03
  2.863646e+00    3.932325e-01   5.438230e-03
  2.865857e+00    3.942694e-01   5.445715e-03
  2.868067e+00    3.894822e-01   5.412742e-03
  2.870278e+00    4.062333e-01   5.527607e-03
  2.872488e+00    3.830571e-01   5.366543e-03
  2.874698e+00    4.063231e-01   5.526127e-03
  2.876909e+00    3.997417e-01   5.479991e-03
  2.879119e+00    3.933335e-01   5.434365e-03
  2.881330e+00    3.903837e-01   5.412623e-03
  2.883540e+00    3.661032e-01   5.240352e-03
  2.885751e+00    3.920534e-01   5.421361e-03
  2.887961e+00    3.942930e-01   5.435092e-03
  2.890172e+00    4.023290e-01   5.488714e-03
  2.892382e+00    3.933015e-01   5.425112e-03
  2.894593e+00    3.996585e-01   5.467089e-03
  2.896803e+00    3.871649e-01   5.379150e-03
  2.899014e+00    3.829247e-01   5.347857e-03
  2.901224e+00    3.845976e-01   5.357725e-03
  2.903434e+00    3.776037e-01   5.306996e-03
  2.905645e+00    3.915874e-01   5.402334e-03
  2.907855e+00    3.938451e-01   5.415931e-03
  2.910066e+00    3.900147e-01   5.387626e-03
  2.912276e+00    3.904999e-01   5.389019e-03
  2.914487e+00    3.888415e-01   5.375303e-03
  2.916697e+00    3.744374e-01   5.272792e-03
  2.918908e+00    3.854059e-01   5.347617e-03
  2.921118e+00    3.880260e-01   5.363290e-03
  2.923329e+00    3.766634e-01   5.282084e-03
  2.925539e+00    3.821599e-01   5.318379e-03
  2.927749e+00    3.909724e-01   5.377228e-03
  2.929960e+00    3.897467e-01   5.366227e-03
  2.932170e+00    3.826652e-01   5.315139e-03
  2.934381e+00    3.812630e-01   5.303135e-03
  2.936591e+00    3.891387e-01   5.355251e-03
  2.938802e+00    3.908861e-01   5.364763e-03
  2.941012e+00    3.883898e-01   5.345444e-03
  2.943223e+00    3.852910e-01   5.321602e-03
  2.945433e+00    3.804945e-01   5.284970e-03
  2.947644e+00    3.771785e-01   5.258113e-03
  2.949854e+00    3.721308e-01   5.218957e-03
  2.952064e+00    3.837529e-01   5.295943e-03
  2.954275e+00    3.710347e-01   5.203472e-03
  2.956485e+00    3.869406e-01   5.309952e-03
  2.958696e+00    3.902444e-01   5.328546e-03
  2.960906e+00    3.807487e-01   5.259479e-03
  2.963117e+00    3.891258e-01   5.312898e-03
  2.965327e+00    3.712454e-01   5.185845e-03
  2.967538e+00    3.792904e-01   5.239083e-03
  2.969748e+00    3.794989e-01   5.237941e-03
  2.971959e+00    3.871133e-01   5.287338e-03
  2.974169e+00    3.801230e-01   5.237025e-03
  2.976379e+00    3.898237e-01   5.300703e-03
  2.978590e+00    4.014484e-01   5.376237e-03
  2.980800e+00    3.785582e-01   5.218157e-03
  2.983011e+00    3.802094e-01   5.226951e-03
  2.985221e+00    3.921455e-01   5.305434e-03
  2.987432e+00    3.869658e-01   5.267425e-03
  2.989642e+00    3.852368e-01   5.253202e-03
  2.991853e+00    3.852335e-01   5.250172e-03
  2.994063e+00    3.807064e-01   5.216571e-03
  2.996274e+00    3.757409e-01   5.179532e-03
  2.998484e+00    3.752636e-01   5.173796e-03
  3.000694e+00    3.786737e-01   5.194097e-03
  3.002905e+00    3.708228e-01   5.137309e-03
  3.005115e+00    3.719703e-01   5.142543e-03
  3.007326e+00    3.740023e-01   5.153715e-03
  3.009536e+00    3.805749e-01   5.195829e-03
  3.011747e+00    3.751490e-01   5.155987e-03
  3.013957e+00    3.954398e-01   5.290627e-03
  3.016168e+00    3.793597e-01   5.178955e-03
  3.018378e+00    3.871989e-01   5.229396e-03
  3.020589e+00    3.781178e-01   5.164760e-03
  3.022799e+00    3.763870e-01   5.150043e-03
  3.025010e+00    3.743462e-01   5.133118e-03
  3.027220e+00    3.822887e-01   5.184426e-03
  3.029430e+00    3.872457e-01   5.214920e-03
  3.031641e+00    3.876126e-01   5.214498e-03
  3.033851e+00    3.774001e-01   5.142124e-03
  3.036062e+00    3.763679e-01   5.132561e-03
  3.038272e+00    3.693190e-01   5.081008e-03
  3.040483e+00    3.913645e-01   5.227481e-03
  3.042693e+00    3.838176e-01   5.173811e-03
  3.044904e+00    3.862487e-01   5.186466e-03
  3.047114e+00    3.758598e-01   5.111848e-03
  3.049325e+00    3.709956e-01   5.074664e-03
  3.051535e+00    3.851970e-01   5.166816e-03
  3.053745e+00    3.878953e-01   5.180476e-03
  3.055956e+00    3.815078e-01   5.133467e-03
  3.058166e+00    3.746388e-01   5.083121e-03
  3.060377e+00    3.707961e-01   5.052662e-03
  3.062587e+00    3.804865e-01   5.114025e-03
  3.064798e+00    3.669449e-01   5.018348e-03
  3.067008e+00    3.657733e-01   5.006046e-03
  3.069219e+00    3.774375e-01   5.081109e-03
  3.071429e+00    3.753204e-01   5.063641e-03
  3.073640e+00    3.665388e-01   5.001042e-03
  3.075850e+00    3.762010e-01   5.063239e-03
  3.078060e+00    3.844979e-01   5.115892e-03
  3.080271e+00    3.876706e-01   5.133735e-03
  3.082481e+00    3.807953e-01   5.084847e-03
  3.084692e+00    3.933035e-01   5.164495e-03
  3.086902e+00    3.765758e-01   5.050532e-03
  3.089113e+00    3.707268e-01   5.007896e-03
  3.091323e+00    3.693559e-01   4.995550e-03
  3.093534e+00    3.890561e-01   5.123911e-03
  3.095744e+00    3.755333e-01   5.030979e-03
  3.097955e+00    3.846265e-01   5.088225e-03
  3.100165e+00    3.953598e-01   5.155618e-03
  3.102375e+00    3.802573e-01   5.053043e-03
  3.104586e+00    3.822474e-01   5.062990e-03
  3.106796e+00    3.847201e-01   5.076090e-03
  3.109007e+00    3.771875e-01   5.023198e-03
  3.111217e+00    3.682849e-01   4.960203e-03
  3.113428e+00    3.704399e-01   4.971574e-03
  3.115638e+00    3.750394e-01   4.999378e-03
  3.117849e+00    3.684979e-01   4.952212e-03
  3.120059e+00    3.714693e-01   4.968946e-03
  3.122270e+00    3.810467e-01   5.029597e-03
  3.124480e+00    3.754152e-01   4.988918e-03
  3.126691e+00    3.689187e-01   4.942292e-03
  3.128901e+00    3.738319e-01   4.972245e-03
  3.131111e+00    3.830013e-01   5.029285e-03
  3.133322e+00    3.668163e-01   4.918764e-03
  3.135532e+00    3.785058e-01   4.993346e-03
  3.137743e+00    3.784670e-01   4.989915e-03
  3.139953e+00    3.702942e-01   4.932355e-03
  3.142164e+00    3.674185e-01   4.924112e-03
  3.144374e+00    3.743410e-01   4.996417e-03
  3.146585e+00    3.732338e-01   5.002393e-03
  3.148795e+00    3.775256e-01   5.041033e-03
  3.151006e+00    3.707260e-01   5.003249e-03
  3.153216e+00    3.845355e-01   5.102258e-03
  3.155426e+00    3.661298e-01   4.984390e-03
  3.157637e+00    3.718747e-01   5.028411e-03
  3.159847e+00    3.723980e-01   5.036440e-03
  3.162058e+00    3.742517e-01   5.053043e-03
  3.164268e+00    3.725625e-01   5.045358e-03
  3.166479e+00    3.697677e-01   5.029760e-03
  3.168689e+00    3.658315e-01   5.005989e-03
  3.170900e+00    3.515609e-01   4.910202e-03
  3.173110e+00    3.718466e-01   5.052534e-03
  3.175321e+00    3.705696e-01   5.046136e-03
  3.177531e+00    3.735952e-01   5.069225e-03
  3.179741e+00    3.692043e-01   5.041266e-03
  3.181952e+00    3.693053e-01   5.043863e-03
  3.184162e+00    3.681085e-01   5.037740e-03
  3.186373e+00    3.535804e-01   4.938729e-03
  3.188583e+00    3.660370e-01   5.026616e-03
  3.190794e+00    3.601063e-01   4.987336e-03
  3.193004e+00    3.510938e-01   4.925619e-03
  3.195215e+00    3.543731e-01   4.949956e-03
  3.197425e+00    3.554386e-01   4.958461e-03
  3.199636e+00    3.482661e-01   4.907494e-03
  3.201846e+00    3.581761e-01   4.976280e-03
  3.204056e+00    3.540912e-01   4.948617e-03
  3.206267e+00    3.495869e-01   4.917819e-03
  3.208477e+00    3.590422e-01   4.984708e-03
  3.210688e+00    3.497473e-01   4.920536e-03
  3.212898e+00    3.615050e-01   5.003063e-03
  3.215109e+00    3.582109e-01   4.980914e-03
  3.217319e+00    3.713493e-01   5.072024e-03
  3.219530e+00    3.628952e-01   5.014337e-03
  3.221740e+00    3.557476e-01   4.965195e-03
  3.223951e+00    3.521261e-01   4.940301e-03
  3.226161e+00    3.571575e-01   4.975623e-03
  3.228372e+00    3.629742e-01   5.016469e-03
  3.230582e+00    3.570220e-01   4.975302e-03
  3.232792e+00    3.582829e-01   4.984288e-03
  3.235003e+00    3.572814e-01   4.977522e-03
  3.237213e+00    3.623631e-01   5.012898e-03
  3.239424e+00    3.612257e-01   5.005027e-03
  3.241634e+00    3.556130e-01   4.966113e-03
  3.243845e+00    3.522650e-01   4.942730e-03
  3.246055e+00    3.695274e-01   5.062146e-03
  3.248266e+00    3.531294e-01   4.948732e-03
  3.250476e+00    3.594610e-01   4.992627e-03
  3.252687e+00    3.465562e-01   4.902103e-03
  3.254897e+00    3.713738e-01   5.074474e-03
  3.257107e+00    3.579099e-01   4.981397e-03
  3.259318e+00    3.520477e-01   4.940191e-03
  3.261528e+00    3.589111e-01   4.987983e-03
  3.263739e+00    3.566450e-01   4.971702e-03
  3.265949e+00    3.584990e-01   4.984510e-03
  3.268160e+00    3.487512e-01   4.915890e-03
  3.270370e+00    3.426541e-01   4.872270e-03
  3.272581e+00    3.537919e-01   4.950574e-03
  3.274791e+00    3.517382e-01   4.935698e-03
  3.277002e+00    3.548872e-01   4.957228e-03
  3.279212e+00    3.461569e-01   4.895540e-03
  3.281422e+00    3.522089e-01   4.937612e-03
  3.283633e+00    3.508636e-01   4.927572e-03
  3.285843e+00    3.531171e-01   4.943044e-03
  3.288054e+00    3.577779e-01   4.974709e-03
  3.290264e+00    3.521751e-01   4.935308e-03
  3.292475e+00    3.632250e-01   5.011367e-03
  3.294685e+00    3.594775e-01   4.984869e-03
  3.296896e+00    3.555845e-01   4.957107e-03
  3.299106e+00    3.531397e-01   4.939531e-03
  3.301317e+00    3.628950e-01   5.006335e-03
  3.303527e+00    3.521377e-01   4.931163e-03
  3.305737e+00    3.637403e-01   5.010760e-03
  3.307948e+00    3.488590e-01   4.906609e-03
  3.310158e+00    3.527177e-01   4.932859e-03
  3.312369e+00    3.564400e-01   4.958024e-03
  3.314579e+00    3.552147e-01   4.948667e-03
  3.316790e+00    3.425350e-01   4.858907e-03
  3.319000e+00    3.496727e-01   4.908165e-03
  3.321211e+00    3.551121e-01   4.945646e-03
  3.323421e+00    3.583744e-01   4.967229e-03
  3.325632e+00    3.353327e-01   4.804075e-03
  3.327842e+00    3.428142e-01   4.856556e-03
  3.330052e+00    3.495333e-01   4.902916e-03
  3.332263e+00    3.616362e-01   4.986179e-03
  3.334473e+00    3.608983e-01   4.980220e-03
  3.336684e+00    3.505469e-01   4.907157e-03
  3.338894e+00    3.432378e-01   4.854934e-03
  3.341105e+00    3.449718e-01   4.866109e-03
  3.343315e+00    3.534782e-01   4.924678e-03
  3.345526e+00    3.463425e-01   4.873916e-03
  3.347736e+00    3.395476e-01   4.824596e-03
  3.349947e+00    3.416499e-01   4.838667e-03
  3.352157e+00    3.470594e-01   4.875740e-03
  3.354368e+00    3.604792e-01   4.967927e-03
  3.356578e+00    3.567724e-01   4.941374e-03
  3.358788e+00    3.494599e-01   4.889270e-03
  3.360999e+00    3.471687e-01   4.872087e-03
  3.363209e+00    3.389634e-01   4.813217e-03
  3.365420e+00    3.518377e-01   4.902408e-03
  3.367630e+00    3.305433e-01   4.750850e-03
  3.369841e+00    3.287885e-01   4.736914e-03
  3.372051e+00    3.277835e-01   4.727944e-03
  3.374262e+00    3.372366e-01   4.793423e-03
  3.376472e+00    3.474459e-01   4.863210e-03
  3.378683e+00    3.568958e-01   4.926579e-03
  3.380893e+00    3.333540e-01   4.759256e-03
  3.383103e+00    3.274453e-01   4.714455e-03
  3.385314e+00    3.272928e-01   4.711405e-03
  3.387524e+00    3.394700e-01   4.795747e-03
  3.389735e+00    3.457433e-01   4.837466e-03
  3.391945e+00    3.401242e-01   4.794663e-03
  3.394156e+00    3.450603e-01   4.825478e-03
  3.396366e+00    3.362125e-01   4.760134e-03
  3.398577e+00    3.322199e-01   4.729020e-03
  3.400787e+00    3.479516e-01   4.850684e-03
  3.402998e+00    3.339861e-01   4.786696e-03
  3.405208e+00    3.364607e-01   4.823186e-03
  3.407418e+00    3.370123e-01   4.841661e-03
  3.409629e+00    3.222769e-01   4.747103e-03
  3.411839e+00    3.267636e-01   4.790693e-03
  3.414050e+00    3.322020e-01   4.840464e-03
  3.416260e+00    3.241093e-01   4.789870e-03
  3.418471e+00    3.243549e-01   4.800242e-03
  3.420681e+00    3.206793e-01   4.780641e-03
  3.422892e+00    3.236158e-01   4.809757e-03
  3.425102e+00    3.217544e-01   4.803014e-03
  3.427313e+00    3.053512e-01   4.685342e-03
  3.429523e+00    3.220931e-01   4.818524e-03
  3.431733e+00    3.174566e-01   4.789766e-03
  3.433944e+00    3.102329e-01   4.740790e-03
  3.436154e+00    3.118377e-01   4.758651e-03
  3.438365e+00    3.018384e-01   4.687021e-03
  3.440575e+00    3.062037e-01   4.726095e-03
  3.442786e+00    3.163045e-01   4.808526e-03
  3.444996e+00    2.996506e-01   4.685159e-03
  3.447207e+00    2.913138e-01   4.624175e-03
  3.449417e+00    2.860017e-01   4.617632e-03
  3.451628e+00    3.006241e-01   4.760753e-03
  3.453838e+00    3.125747e-01   4.873991e-03
  3.456049e+00    3.055877e-01   4.841028e-03
  3.458259e+00    2.944651e-01   4.771775e-03
  3.460469e+00    3.032158e-01   4.860157e-03
  3.462680e+00    2.916451e-01   4.783528e-03
  3.464890e+00    2.899894e-01   4.785747e-03
  3.467101e+00    3.122620e-01   4.982241e-03
  3.469311e+00    3.110465e-01   4.987712e-03
  3.471522e+00    3.226715e-01   5.095252e-03
  3.473732e+00    3.350516e-01   5.207106e-03
  3.475943e+00    3.324597e-01   5.201540e-03
  3.478153e+00    3.315191e-01   5.208470e-03
  3.480364e+00    3.332893e-01   5.236290e-03
  3.482574e+00    3.375042e-01   5.283320e-03
  3.484784e+00    3.529214e-01   5.416433e-03
  3.486995e+00    3.554279e-01   5.449590e-03
  3.489205e+00    3.544493e-01   5.455507e-03
  3.491416e+00    3.766076e-01   5.637437e-03
  3.493626e+00    3.743541e-01   5.634120e-03
  3.495837e+00    3.722071e-01   5.631482e-03
  3.498047e+00    3.793196e-01   5.698400e-03
  3.500258e+00    3.871359e-01   5.770328e-03
  3.502468e+00    3.993789e-01   5.874382e-03
  3.504679e+00    4.043341e-01   5.924272e-03
  3.506889e+00    4.163440e-01   6.025278e-03
  3.509099e+00    3.995937e-01   5.916054e-03
  3.511310e+00    4.014959e-01   5.943397e-03
  3.513520e+00    4.157145e-01   6.061103e-03
  3.515731e+00    4.210055e-01   6.112927e-03
  3.517941e+00    4.393329e-01   6.258179e-03
  3.520152e+00    4.275943e-01   6.187315e-03
  3.522362e+00    4.230525e-01   6.167685e-03
  3.524573e+00    4.361362e-01   6.275553e-03
  3.526783e+00    4.586525e-01   6.448196e-03
  3.528994e+00    4.510447e-01   6.405925e-03
  3.531204e+00    4.519835e-01   6.424176e-03
  3.533414e+00    4.431280e-01   6.372044e-03
  3.535625e+00    4.630984e-01   6.525612e-03
  3.537835e+00    4.601865e-01   6.516326e-03
  3.540046e+00    4.584282e-01   6.512136e-03
  3.542256e+00    4.704708e-01   6.604183e-03
  3.544467e+00    4.642354e-01   6.567346e-03
  3.546677e+00    4.655382e-01   6.583631e-03
  3.548888e+00    4.697538e-01   6.620371e-03
  3.551098e+00    4.757027e-01   6.669066e-03
  3.553309e+00    4.621095e-01   6.580663e-03
  3.555519e+00    4.421304e-01   6.447073e-03
  3.557729e+00    4.511762e-01   6.523450e-03
  3.559940e+00    4.675068e-01   6.651221e-03
  3.562150e+00    4.702904e-01   6.682006e-03
  3.564361e+00    4.746556e-01   6.725478e-03
  3.566571e+00    4.594851e-01   6.629903e-03
  3.568782e+00    4.631062e-01   6.669126e-03
  3.570992e+00    4.709337e-01   6.738124e-03
  3.573203e+00    4.621433e-01   6.688094e-03
  3.575413e+00    4.470700e-01   6.590713e-03
  3.577624e+00    4.536874e-01   6.652268e-03
  3.579834e+00    4.654718e-01   6.751034e-03
  3.582045e+00    4.593711e-01   6.719688e-03
  3.584255e+00    4.586268e-01   6.727206e-03
  3.586465e+00    4.653856e-01   6.789592e-03
  3.588676e+00    4.651439e-01   6.801052e-03
  3.590886e+00    4.618514e-01   6.789676e-03
  3.593097e+00    4.462228e-01   6.687004e-03
  3.595307e+00    4.764817e-01   6.923161e-03
  3.597518e+00    4.765481e-01   6.937064e-03
  3.599728e+00    4.645781e-01   6.862525e-03
  3.601939e+00    4.597928e-01   6.840103e-03
  3.604149e+00    4.760305e-01   6.973435e-03
  3.606360e+00    4.734569e-01   6.967830e-03
  3.608570e+00    4.751101e-01   6.993351e-03
  3.610780e+00    4.721351e-01   6.981825e-03
  3.612991e+00    4.654036e-01   6.941193e-03
  3.615201e+00    4.686364e-01   6.974428e-03
  3.617412e+00    4.603440e-01   6.919211e-03
  3.619622e+00    4.564487e-01   6.895358e-03
  3.621833e+00    4.522427e-01   6.869714e-03
  3.624043e+00    4.581368e-01   6.923088e-03
  3.626254e+00    4.742621e-01   7.053051e-03
  3.628464e+00    4.666930e-01   7.006794e-03
  3.630675e+00    4.780272e-01   7.104755e-03
  3.632885e+00    4.414494e-01   6.840646e-03
  3.635095e+00    4.568143e-01   6.971977e-03
  3.637306e+00    4.537508e-01   6.961820e-03
  3.639516e+00    4.507742e-01   6.952303e-03
  3.641727e+00    4.544662e-01   6.994163e-03
  3.643937e+00    4.665078e-01   7.099835e-03
  3.646148e+00    4.481445e-01   6.972096e-03
  3.648358e+00    4.567631e-01   7.052572e-03
  3.650569e+00    4.554080e-01   7.055693e-03
  3.652779e+00    4.723502e-01   7.199651e-03
  3.654990e+00    4.734553e-01   7.222135e-03
  3.657200e+00    4.730428e-01   7.233013e-03
  3.659410e+00    4.726213e-01   7.243885e-03
  3.661621e+00    4.698865e-01   7.237158e-03
  3.663831e+00    4.523238e-01   7.114492e-03
  3.666042e+00    4.768690e-01   7.319342e-03
  3.668252e+00    4.742907e-01   7.313947e-03
  3.670463e+00    4.742049e-01   7.327677e-03
  3.672673e+00    4.489902e-01   7.144413e-03
  3.674884e+00    4.596075e-01   7.242682e-03
  3.677094e+00    4.727125e-01   7.359861e-03
  3.679305e+00    4.633700e-01   7.301317e-03
  3.681515e+00    4.579815e-01   7.273288e-03
  3.683726e+00    4.437264e-01   7.173613e-03
  3.685936e+00    4.502617e-01   7.240735e-03
  3.688146e+00    4.727256e-01   7.434123e-03
  3.690357e+00    4.546154e-01   7.305110e-03
  3.692567e+00    4.545262e-01   7.319381e-03
  3.694778e+00    4.501239e-01   7.298669e-03
  3.696988e+00    4.352590e-01   7.191690e-03
  3.699199e+00    4.476477e-01   7.308318e-03
  3.701409e+00    4.408903e-01   7.267931e-03
  3.703620e+00    4.624873e-01   7.459120e-03
  3.705830e+00    4.600859e-01   7.455099e-03
  3.708041e+00    4.683960e-01   7.537839e-03
  3.710251e+00    4.535385e-01   7.432881e-03
  3.712461e+00    4.673192e-01   7.560743e-03
  3.714672e+00    4.618337e-01   7.532024e-03
  3.716882e+00    4.619724e-01   7.548844e-03
  3.719093e+00    4.491947e-01   7.459694e-03
  3.721303e+00    4.518993e-01   7.497901e-03
  3.723514e+00    4.467573e-01   7.471149e-03
  3.725724e+00    4.587931e-01   7.587224e-03
  3.727935e+00    4.657804e-01   7.661364e-03
  3.730145e+00    4.576204e-01   7.610288e-03
  3.732356e+00    4.390709e-01   7.470594e-03
  3.734566e+00    4.454390e-01   7.540879e-03
  3.736776e+00    4.323612e-01   7.445641e-03
  3.738987e+00    4.539030e-01   7.645528e-03
  3.741197e+00    4.232614e-01   7.399336e-03
  3.743408e+00    4.451411e-01   7.604948e-03
  3.745618e+00    4.211974e-01   7.414184e-03
  3.747829e+00    4.510283e-01   7.689233e-03
  3.750039e+00    4.477707e-01   7.678603e-03
  3.752250e+00    4.603053e-01   7.802879e-03
  3.754460e+00    4.354748e-01   7.606681e-03
  3.756671e+00    4.369728e-01   7.637117e-03
  3.758881e+00    4.460534e-01   7.733530e-03
  3.761091e+00    4.372559e-01   7.674603e-03
  3.763302e+00    4.420492e-01   7.734365e-03
  3.765512e+00    4.391765e-01   7.727106e-03
  3.767723e+00    4.470703e-01   7.814431e-03
  3.769933e+00    4.431969e-01   7.798589e-03
  3.772144e+00    4.285456e-01   7.686589e-03
  3.774354e+00    4.353561e-01   7.765833e-03
  3.776565e+00    4.578953e-01   7.983224e-03
  3.778775e+00    4.515088e-01   7.946282e-03
  3.780986e+00    4.584020e-01   8.026005e-03
  3.783196e+00    4.456168e-01   7.932412e-03
  3.785407e+00    4.544641e-01   8.030147e-03
  3.787617e+00    4.552786e-01   8.057063e-03
  3.789827e+00    4.475563e-01   8.007844e-03
  3.792038e+00    4.551376e-01   8.095245e-03
  3.794248e+00    4.326141e-01   7.912053e-03
  3.796459e+00    4.402506e-01   8.001576e-03
  3.798669e+00    4.192840e-01   7.828277e-03
  3.800880e+00    4.290111e-01   7.938414e-03
  3.803090e+00    4.396472e-01   8.056656e-03
  3.805301e+00    4.463068e-01   8.138325e-03
  3.807511e+00    4.518403e-01   8.209558e-03
  3.809722e+00    4.490015e-01   8.204814e-03
  3.811932e+00    4.421856e-01   8.163174e-03
  3.814142e+00    4.307108e-01   8.077821e-03
  3.816353e+00    4.300489e-01   8.092799e-03
  3.818563e+00    4.621901e-01   8.411979e-03
  3.820774e+00    4.568852e-01   8.385832e-03
  3.822984e+00    4.318786e-01   8.174838e-03
  3.825195e+00    4.356576e-01   8.232741e-03
  3.827405e+00    4.473964e-01   8.365508e-03
  3.829616e+00    4.454526e-01   8.370151e-03
  3.831826e+00    4.258382e-01   8.206179e-03
  3.834037e+00    4.193891e-01   8.166248e-03
  3.836247e+00    4.279973e-01   8.272551e-03
  3.838457e+00    4.404323e-01   8.415444e-03
  3.840668e+00    4.471769e-01   8.503537e-03
  3.842878e+00    4.418655e-01   8.476993e-03
  3.845089e+00    4.363118e-01   8.447551e-03
  3.847299e+00    4.465135e-01   8.570169e-03
  3.849510e+00    4.439968e-01   8.570528e-03
  3.851720e+00    4.567877e-01   8.713650e-03
  3.853931e+00    4.309428e-01   8.481272e-03
  3.856141e+00    4.225477e-01   8.415868e-03
  3.858352e+00    4.225153e-01   8.433295e-03
  3.860562e+00    4.364277e-01   8.589164e-03
  3.862772e+00    4.111059e-01   8.354183e-03
  3.864983e+00    4.284618e-01   8.546975e-03
  3.867193e+00    4.146914e-01   8.426630e-03
  3.869404e+00    4.367464e-01   8.666471e-03
  3.871614e+00    4.142077e-01   8.458166e-03
  3.873825e+00    4.538032e-01   8.872745e-03
  3.876035e+00    4.216970e-01   8.572131e-03
  3.878246e+00    4.336174e-01   8.716605e-03
  3.880456e+00    4.336223e-01   8.743880e-03
  3.882667e+00    4.374891e-01   8.810447e-03
  3.884877e+00    4.303728e-01   8.766331e-03
  3.887087e+00    3.963775e-01   8.439846e-03
  3.889298e+00    4.244530e-01   8.761868e-03
  3.891508e+00    4.185786e-01   8.729183e-03
  3.893719e+00    4.367611e-01   8.945989e-03
  3.895929e+00    4.414508e-01   9.023769e-03
  3.898140e+00    4.397791e-01   9.036660e-03
  3.900350e+00    4.374768e-01   9.043312e-03
  3.902561e+00    4.255975e-01   8.949796e-03
  3.904771e+00    4.392302e-01   9.123154e-03
  3.906982e+00    4.245795e-01   9.000599e-03
  3.909192e+00    4.221389e-01   9.005718e-03
  3.911403e+00    4.045848e-01   8.847509e-03
  3.913613e+00    4.161137e-01   9.004194e-03
  3.915823e+00    4.218426e-01   9.098387e-03
  3.918034e+00    4.401737e-01   9.327415e-03
  3.920244e+00    4.334939e-01   9.290097e-03
  3.922455e+00    4.160306e-01   9.134289e-03
  3.924665e+00    4.118635e-01   9.121913e-03
  3.926876e+00    4.194241e-01   9.239635e-03
  3.929086e+00    4.339801e-01   9.433909e-03
  3.931297e+00    4.185131e-01   9.296462e-03
  3.933507e+00    4.213369e-01   9.354704e-03
  3.935718e+00    4.174213e-01   9.337733e-03
  3.937928e+00    4.103640e-01   9.285490e-03
  3.940138e+00    4.242990e-01   9.469179e-03
  3.942349e+00    4.201442e-01   9.450446e-03
  3.944559e+00    3.993495e-01   9.240811e-03
  3.946770e+00    4.185096e-01   9.487757e-03
  3.948980e+00    4.104823e-01   9.424676e-03
  3.951191e+00    4.104950e-01   9.453071e-03
  3.953401e+00    4.047167e-01   9.414949e-03
  3.955612e+00    4.027968e-01   9.421434e-03
  3.957822e+00    4.232700e-01   9.687303e-03
  3.960033e+00    4.276879e-01   9.768517e-03
  3.962243e+00    4.319077e-01   9.847456e-03
  3.964453e+00    4.075397e-01   9.595976e-03
  3.966664e+00    4.216778e-01   9.792174e-03
  3.968874e+00    4.280532e-01   9.892498e-03
  3.971085e+00    4.387906e-01   1.003667e-02
  3.973295e+00    4.062674e-01   9.677228e-03
  3.975506e+00    4.355349e-01   1.004014e-02
  3.977716e+00    4.432591e-01   1.014987e-02
  3.979927e+00    4.270286e-01   9.983084e-03
  3.982137e+00    3.909354e-01   9.571798e-03
  3.984348e+00    4.113883e-01   9.839869e-03
  3.986558e+00    4.153123e-01   9.907255e-03
  3.988768e+00    4.343044e-01   1.015301e-02
  3.990979e+00    4.331424e-01   1.016098e-02
  3.993189e+00    4.311141e-01   1.015887e-02
  3.995400e+00    4.047500e-01   9.864895e-03
  3.997610e+00    4.268636e-01   1.015869e-02
  3.999821e+00    4.418323e-01   1.037112e-02
  4.002031e+00    4.240573e-01   1.019633e-02
  4.004242e+00    4.302341e-01   1.030647e-02
  4.006452e+00    4.213968e-01   1.023688e-02
  4.008663e+00    4.488187e-01   1.060312e-02
  4.010873e+00    4.543160e-01   1.070660e-02
  4.013084e+00    4.214197e-01   1.034993e-02
  4.015294e+00    4.318240e-01   1.051554e-02
  4.017504e+00    4.311013e-01   1.054619e-02
  4.019715e+00    4.262073e-01   1.052611e-02
  4.021925e+00    4.204631e-01   1.049502e-02
  4.024136e+00    3.995711e-01   1.027059e-02
  4.026346e+00    4.210705e-01   1.058448e-02
  4.028557e+00    4.125189e-01   1.051736e-02
  4.030767e+00    3.996089e-01   1.039289e-02
  4.032978e+00    4.186867e-01   1.068128e-02
  4.035188e+00    3.926278e-01   1.038509e-02
  4.037399e+00    4.218994e-01   1.080967e-02
  4.039609e+00    4.187585e-01   1.081386e-02
  4.041819e+00    3.767283e-01   1.029984e-02
  4.044030e+00    3.909376e-01   1.053713e-02
  4.046240e+00    4.215221e-01   1.098808e-02
  4.048451e+00    4.198497e-01   1.101390e-02
  4.050661e+00    3.946501e-01   1.072469e-02
  4.052872e+00    3.869615e-01   1.066689e-02
  4.055082e+00    4.199716e-01   1.116245e-02
  4.057293e+00    4.390571e-01   1.146457e-02
  4.059503e+00    4.250518e-01   1.133158e-02
  4.061714e+00    4.366347e-01   1.153863e-02
  4.063924e+00    4.174606e-01   1.133529e-02
  4.066134e+00    4.189126e-01   1.140845e-02
  4.068345e+00    3.958773e-01   1.114381e-02
  4.070555e+00    4.212986e-01   1.155144e-02
  4.072766e+00    3.947132e-01   1.123621e-02
  4.074976e+00    3.813209e-01   1.109880e-02
  4.077187e+00    4.350912e-01   1.191461e-02
  4.079397e+00    4.033955e-01   1.153105e-02
  4.081608e+00    4.304008e-01   1.197271e-02
  4.083818e+00    4.168896e-01   1.184454e-02
  4.086029e+00    4.032580e-01   1.171074e-02
  4.088239e+00    3.846176e-01   1.149842e-02
  4.090449e+00    3.980820e-01   1.176121e-02
  4.092660e+00    4.570815e-01   1.267227e-02
  4.094870e+00    4.320203e-01   1.238844e-02
  4.097081e+00    4.095092e-01   1.212744e-02
  4.099291e+00    4.084404e-01   1.216166e-02
  4.101502e+00    4.637251e-01   1.300689e-02
  4.103712e+00    4.468528e-01   1.281580e-02
  4.105923e+00    4.486002e-01   1.289055e-02
  4.108133e+00    3.710796e-01   1.176932e-02
  4.110344e+00    4.062145e-01   1.236058e-02
  4.112554e+00    4.141198e-01   1.252989e-02
  4.114764e+00    4.153735e-01   1.259918e-02
  4.116975e+00    4.225836e-01   1.275811e-02
  4.119185e+00    4.654834e-01   1.344447e-02
  4.121396e+00    4.370747e-01   1.308162e-02
  4.123606e+00    4.336388e-01   1.308349e-02
  4.125817e+00    4.465963e-01   1.333315e-02
  4.128027e+00    4.567141e-01   1.354023e-02
  4.130238e+00    4.131411e-01   1.293316e-02
  4.132448e+00    4.493411e-01   1.354664e-02
  4.134659e+00    3.810853e-01   1.252910e-02
  4.136869e+00    4.175599e-01   1.317325e-02
  4.139080e+00    4.043474e-01   1.302176e-02
  4.141290e+00    4.078571e-01   1.313599e-02
  4.143500e+00    4.069625e-01   1.318206e-02
  4.145711e+00    4.233847e-01   1.350833e-02
  4.147921e+00    3.549763e-01   1.242569e-02
  4.150132e+00    3.808315e-01   1.293156e-02
  4.152342e+00    4.121133e-01   1.351744e-02
  4.154553e+00    4.495797e-01   1.418558e-02
  4.156763e+00    4.378973e-01   1.406963e-02
  4.158974e+00    4.124340e-01   1.372282e-02
  4.161184e+00    4.414496e-01   1.426773e-02
  4.163395e+00    4.095115e-01   1.381222e-02
  4.165605e+00    4.040121e-01   1.379043e-02
  4.167815e+00    3.997030e-01   1.378839e-02
  4.170026e+00    4.043205e-01   1.394080e-02
  4.172236e+00    3.903052e-01   1.377107e-02
  4.174447e+00    4.337683e-01   1.459635e-02
  4.176657e+00    4.189911e-01   1.442428e-02
  4.178868e+00    4.318330e-01   1.472632e-02
  4.181078e+00    4.030762e-01   1.430798e-02
  4.183289e+00    3.725708e-01   1.383446e-02
  4.185499e+00    4.096729e-01   1.459270e-02
  4.187710e+00    4.402413e-01   1.521569e-02
  4.189920e+00    3.995874e-01   1.458367e-02
  4.192130e+00    4.230404e-01   1.509707e-02
  4.194341e+00    4.309479e-01   1.533108e-02
  4.196551e+00    3.790297e-01   1.446902e-02
  4.198762e+00    4.214984e-01   1.535488e-02
  4.200972e+00    4.344791e-01   1.569041e-02
  4.203183e+00    3.970290e-01   1.509783e-02
  4.205393e+00    4.352697e-01   1.591342e-02
  4.207604e+00    4.599334e-01   1.646990e-02
  4.209814e+00    3.992502e-01   1.545006e-02
  4.212025e+00    4.072782e-01   1.571500e-02
  4.214235e+00    4.326940e-01   1.631290e-02
  4.216445e+00    4.157943e-01   1.610667e-02
  4.218656e+00    4.350027e-01   1.659837e-02
  4.220866e+00    4.105937e-01   1.624498e-02
  4.223077e+00    4.479339e-01   1.709850e-02
  4.225287e+00    4.166272e-01   1.661933e-02
  4.227498e+00    4.451841e-01   1.731461e-02
  4.229708e+00    4.338042e-01   1.723069e-02
  4.231919e+00    4.179479e-01   1.705279e-02
  4.234129e+00    4.453521e-01   1.775077e-02
  4.236340e+00    3.955979e-01   1.687292e-02
  4.238550e+00    4.083312e-01   1.729342e-02
  4.240761e+00    4.795173e-01   1.890626e-02
  4.242971e+00    4.492984e-01   1.846829e-02
  4.245181e+00    4.514103e-01   1.868564e-02
  4.247392e+00    4.327019e-01   1.846506e-02
  4.249602e+00    4.326040e-01   1.864666e-02
  4.251813e+00    4.147775e-01   1.843828e-02
  4.254023e+00    4.142463e-01   1.861223e-02
  4.256234e+00    3.483824e-01   1.725114e-02
  4.258444e+00    3.429111e-01   1.729362e-02
  4.260655e+00    4.267076e-01   1.950362e-02
  4.262865e+00    4.165760e-01   1.948964e-02
  4.265076e+00    3.894219e-01   1.905768e-02
  4.267286e+00    4.300550e-01   2.026467e-02
  4.269496e+00    4.078079e-01   1.997491e-02
  4.271707e+00    4.197142e-01   2.051404e-02
  4.273917e+00    4.154753e-01   2.067478e-02
  4.276128e+00    3.885305e-01   2.025821e-02
  4.278338e+00    4.023200e-01   2.089014e-02
  4.280549e+00    4.490915e-01   2.238738e-02
  4.282759e+00    4.046287e-01   2.155570e-02
  4.284970e+00    4.154298e-01   2.216499e-02
  4.287180e+00    3.745140e-01   2.129709e-02
  4.289391e+00    4.428432e-01   2.333262e-02
  4.291601e+00    4.858775e-01   2.463467e-02
  4.293811e+00    4.923848e-01   2.499387e-02
  4.296022e+00    4.774511e-01   2.480918e-02
  4.298232e+00    4.291144e-01   2.371694e-02
  4.300443e+00    4.241396e-01   2.377363e-02
  4.302653e+00    4.084226e-01   2.353090e-02
  4.304864e+00    4.670972e-01   2.538207e-02
  4.307074e+00    4.537582e-01   2.524253e-02
  4.309285e+00    4.539321e-01   2.547663e-02
  4.311495e+00    3.788713e-01   2.349295e-02
  4.313706e+00    3.500837e-01   2.279436e-02
  4.315916e+00    4.950871e-01   2.737381e-02
  4.318126e+00    4.743267e-01   2.705990e-02
  4.320337e+00    3.810950e-01   2.450057e-02
  4.322547e+00    4.126911e-01   2.576502e-02
  4.324758e+00    4.087741e-01   2.591028e-02
  4.326968e+00    3.975324e-01   2.583887e-02
  4.329179e+00    4.005322e-01   2.622150e-02
  4.331389e+00    4.548374e-01   2.826517e-02
  4.333600e+00    4.045653e-01   2.697548e-02
  4.335810e+00    4.166339e-01   2.770098e-02
  4.338021e+00    3.700885e-01   2.644133e-02
  4.340231e+00    4.735913e-01   3.028687e-02
  4.342442e+00    3.899180e-01   2.785033e-02
  4.344652e+00    2.115642e-01   2.079456e-02
  4.346862e+00    2.755633e-01   2.406209e-02
  4.349073e+00    2.757705e-01   2.442210e-02
  4.351283e+00    3.175741e-01   2.659938e-02
  4.353494e+00    3.354501e-01   2.776061e-02
  4.355704e+00    3.200248e-01   2.755053e-02
  4.357915e+00    4.495592e-01   3.319805e-02
  4.360125e+00    3.821725e-01   3.113117e-02
  4.362336e+00    3.933208e-01   3.215722e-02
  4.364546e+00    3.858843e-01   3.243273e-02
  4.366757e+00    3.722933e-01   3.248969e-02
  4.368967e+00    4.328871e-01   3.573279e-02
  4.371177e+00    3.393912e-01   3.231248e-02
  4.373388e+00    4.951884e-01   3.990104e-02
  4.375598e+00    4.676522e-01   3.966308e-02
  4.377809e+00    3.022289e-01   3.269312e-02
  4.380019e+00    2.853446e-01   3.256328e-02
  4.382230e+00    2.306317e-01   3.009377e-02
  4.384440e+00    4.233301e-01   4.194213e-02
  4.386651e+00    4.092465e-01   4.251211e-02
  4.388861e+00    4.403203e-01   4.557482e-02
  4.391072e+00    4.725453e-01   4.887285e-02
  4.393282e+00    3.572804e-01   4.414134e-02
  4.395492e+00    3.223145e-01   4.366387e-02
  4.397703e+00    3.572584e-01   4.807485e-02
  4.399913e+00    3.330907e-01   4.877118e-02
  4.402124e+00    2.763441e-01   4.693466e-02
  4.404334e+00    2.632262e-01   4.869925e-02
  4.406545e+00    3.585693e-01   6.106569e-02
  4.408755e+00    3.973009e-01   6.971289e-02
  4.410966e+00    3.525718e-01   7.268555e-02
  4.413176e+00    1.396862e-01   5.178166e-02
  4.415387e+00   -6.110491e-01            nan
  4.417597e+00   -1.668258e+00            nan
  4.419807e+00   -3.766224e-01            nan
