# == pyFAI calibration ==
# Distance Sample to Detector: 0.216 m
# PONI: 1.166e-01, 1.308e-01 m
# Rotations: 0.000000 0.000000 0.000000 rad
# 
# == Fit2d calibration ==
# Distance Sample-beamCenter: 216.000 mm
# Center: x=1744.293, y=1555.000 pix
# Tilt: 0.000 deg  TiltPlanRot: 0.000 deg
# 
# Detector Eiger 9M	 PixelSize= 7.500e-05, 7.500e-05 m
#    Detector has a mask: True 
#    Detector has a dark current: False 
#    detector has a flat field: False 
# 
# Wavelength: 9.8e-11 m
# Mask applied: from detector
# Dark current applied: False
# Flat field applied: False
# Polarization factor: None
# Normalization factor: 1.0
# 
# Headers of the input frame:
# {
# "_array_data.header_convention": "SLS_1.0",
# "_array_data.header_contents": "# Detector: Dectris Eiger 9M, S/N E-18-0102\r\n# Pixel_size 75e-6 m x 75e-6 m\r\n# Silicon sensor, thickness 0.000450 m\r\n# Exposure_time 0.024997 s\r\n# Exposure_period 0.025000 s\r\n# Count_cutoff 62318 counts\r\n# Wavelength 0.980106 A\r\n# Detector_distance 0.215992 m\r\n# Beam_xy (1555, 1744) pixels\r\n# Start_angle 0.000000 deg.\r\n# Angle_increment 0.000000 deg.",
# "Content-Type": "application/octet-stream;",
# "conversions": "x-CBF_BYTE_OFFSET",
# "Content-Transfer-Encoding": "BINARY",
# "X-Binary-Size": "10166594",
# "X-Binary-ID": "1",
# "X-Binary-Element-Type": "signed 32-bit integer",
# "X-Binary-Element-Byte-Order": "LITTLE_ENDIAN",
# "Content-MD5": "de1drRIjL4808tcbs6B9ug==",
# "X-Binary-Number-of-Elements": "10166590",
# "X-Binary-Size-Fastest-Dimension": "3110",
# "X-Binary-Size-Second-Dimension": "3269",
# "X-Binary-Size-Padding": "4095"
# }
# --> H:/Proxima2a_2019-04-05/RAW_DATA/C5_gel17_position5/C5_mesh_1_data.cbf/C5_mesh_1_data.cbf000078.dat
#        q_A^-1              I           sigma 
  1.105228e-03    1.069220e+00   5.595263e-01
  3.315685e-03    1.410057e+00   3.906283e-01
  5.526141e-03    1.637612e+00   3.255199e-01
  7.736597e-03    1.663260e+00   2.771406e-01
  9.947054e-03    1.663370e+00   2.443268e-01
  1.215751e-02    1.405404e+00   2.030810e-01
  1.436797e-02    1.401574e+00   1.865451e-01
  1.657842e-02    1.455081e+00   1.769245e-01
  1.878888e-02    1.412189e+00   1.637231e-01
  2.099934e-02    1.209062e+00   1.433265e-01
  2.320979e-02    1.419786e+00   1.477217e-01
  2.542025e-02    1.437890e+00   1.420602e-01
  2.763070e-02    1.226563e+00   1.258448e-01
  2.984116e-02    1.422924e+00   1.304269e-01
  3.205162e-02    1.457394e+00   1.273722e-01
  3.426207e-02    1.388921e+00   1.202579e-01
  3.647253e-02    1.311872e+00   1.132754e-01
  3.868299e-02    1.292334e+00   1.091775e-01
  4.089344e-02    1.580267e+00   1.174210e-01
  4.310390e-02    1.537394e+00   1.128019e-01
  4.531436e-02    1.387104e+00   1.045010e-01
  4.752481e-02    1.380673e+00   1.018039e-01
  4.973527e-02    1.458004e+00   1.022660e-01
  5.194572e-02    1.481679e+00   1.008742e-01
  5.415618e-02    1.426702e+00   9.694055e-02
  5.636664e-02    1.364772e+00   9.293840e-02
  5.857709e-02    1.414314e+00   9.280845e-02
  6.078755e-02    1.352752e+00   8.909769e-02
  6.299801e-02    1.464448e+00   9.106120e-02
  6.520846e-02    1.488310e+00   9.023133e-02
  6.741892e-02    1.569505e+00   9.112366e-02
  6.962938e-02    1.520087e+00   8.824714e-02
  7.183983e-02    1.472832e+00   8.551627e-02
  7.405029e-02    1.400019e+00   8.211987e-02
  7.626074e-02    1.517287e+00   8.424113e-02
  7.847120e-02    1.470881e+00   8.176414e-02
  8.068166e-02    1.480526e+00   8.089959e-02
  8.289211e-02    1.517593e+00   8.080615e-02
  8.510257e-02    1.430443e+00   7.742561e-02
  8.731303e-02    1.526786e+00   7.896848e-02
  8.952348e-02    1.531724e+00   7.811563e-02
  9.173394e-02    1.458842e+00   7.530745e-02
  9.394439e-02    1.440529e+00   7.394526e-02
  9.615485e-02    1.460094e+00   7.358343e-02
  9.836531e-02    1.582850e+00   7.574645e-02
  1.005758e-01    1.555592e+00   7.426210e-02
  1.027862e-01    1.571332e+00   7.382812e-02
  1.049967e-01    1.622665e+00   7.422913e-02
  1.072071e-01    1.595214e+00   7.283502e-02
  1.094176e-01    1.491012e+00   6.970002e-02
  1.116280e-01    1.536684e+00   7.005385e-02
  1.138385e-01    1.439736e+00   6.714518e-02
  1.160490e-01    1.560515e+00   6.923503e-02
  1.182594e-01    1.603827e+00   6.952873e-02
  1.204699e-01    1.540995e+00   6.752449e-02
  1.226803e-01    1.598961e+00   6.815744e-02
  1.248908e-01    1.606398e+00   6.770770e-02
  1.271012e-01    1.629211e+00   6.758992e-02
  1.293117e-01    1.651421e+00   6.746410e-02
  1.315222e-01    1.572041e+00   6.526573e-02
  1.337326e-01    1.563192e+00   6.454040e-02
  1.359431e-01    1.569886e+00   6.471634e-02
  1.381535e-01    1.545852e+00   6.508103e-02
  1.403640e-01    1.541174e+00   6.526306e-02
  1.425744e-01    1.608835e+00   6.678680e-02
  1.447849e-01    1.592938e+00   6.647133e-02
  1.469953e-01    1.560151e+00   6.574249e-02
  1.492058e-01    1.539415e+00   6.522824e-02
  1.514163e-01    1.509969e+00   6.449414e-02
  1.536267e-01    1.547089e+00   6.515458e-02
  1.558372e-01    1.588891e+00   6.588316e-02
  1.580476e-01    1.650742e+00   6.699031e-02
  1.602581e-01    1.696599e+00   6.774191e-02
  1.624685e-01    1.724451e+00   6.810872e-02
  1.646790e-01    1.658656e+00   6.660496e-02
  1.668895e-01    1.676816e+00   6.677518e-02
  1.690999e-01    1.682747e+00   6.669230e-02
  1.713104e-01    1.716140e+00   6.714177e-02
  1.735208e-01    1.690121e+00   6.642363e-02
  1.757313e-01    1.766783e+00   6.770055e-02
  1.779417e-01    1.765602e+00   6.745718e-02
  1.801522e-01    1.877832e+00   6.934654e-02
  1.823626e-01    1.874810e+00   6.906005e-02
  1.845731e-01    1.794436e+00   6.734467e-02
  1.867836e-01    1.818568e+00   6.756718e-02
  1.889940e-01    1.978587e+00   7.024689e-02
  1.912045e-01    2.004727e+00   7.047328e-02
  1.934149e-01    2.012385e+00   7.037144e-02
  1.956254e-01    1.957619e+00   6.917836e-02
  1.978358e-01    1.951201e+00   6.882819e-02
  2.000463e-01    2.035980e+00   7.007455e-02
  2.022568e-01    2.090216e+00   7.076877e-02
  2.044672e-01    2.044611e+00   6.975269e-02
  2.066777e-01    2.027949e+00   6.923731e-02
  2.088881e-01    1.977105e+00   6.814021e-02
  2.110986e-01    1.958247e+00   6.758190e-02
  2.133090e-01    1.918031e+00   6.666693e-02
  2.155195e-01    1.960744e+00   6.718154e-02
  2.177300e-01    1.909033e+00   6.576897e-02
  2.199404e-01    1.857151e+00   6.315979e-02
  2.221509e-01    2.047570e+00   6.522977e-02
  2.243613e-01    2.080005e+00   6.491097e-02
  2.265718e-01    1.972978e+00   6.252210e-02
  2.287822e-01    2.025964e+00   6.272899e-02
  2.309927e-01    2.108576e+00   6.341216e-02
  2.332031e-01    2.094058e+00   6.265260e-02
  2.354136e-01    2.142858e+00   6.286476e-02
  2.376241e-01    2.219822e+00   6.348712e-02
  2.398345e-01    2.209253e+00   6.286708e-02
  2.420450e-01    2.134907e+00   6.135855e-02
  2.442554e-01    2.156114e+00   6.123773e-02
  2.464659e-01    2.150888e+00   6.075284e-02
  2.486763e-01    2.127745e+00   6.002793e-02
  2.508868e-01    2.154017e+00   6.001636e-02
  2.530973e-01    2.174120e+00   5.992198e-02
  2.553077e-01    2.105533e+00   5.861150e-02
  2.575182e-01    2.168002e+00   5.912274e-02
  2.597286e-01    2.072547e+00   5.747049e-02
  2.619391e-01    2.164263e+00   5.839025e-02
  2.641495e-01    2.102433e+00   5.723162e-02
  2.663600e-01    2.108752e+00   5.700234e-02
  2.685704e-01    2.135600e+00   5.705313e-02
  2.707809e-01    2.104643e+00   5.633746e-02
  2.729914e-01    2.016001e+00   5.485098e-02
  2.752018e-01    2.030797e+00   5.476534e-02
  2.774123e-01    1.961464e+00   5.354743e-02
  2.796227e-01    1.914141e+00   5.263588e-02
  2.818332e-01    1.987654e+00   5.336951e-02
  2.840436e-01    2.009580e+00   5.340296e-02
  2.862541e-01    1.947866e+00   5.232384e-02
  2.884646e-01    1.884677e+00   5.122385e-02
  2.906750e-01    1.944567e+00   5.178469e-02
  2.928855e-01    1.874052e+00   5.060153e-02
  2.950959e-01    1.979156e+00   5.176225e-02
  2.973064e-01    1.974317e+00   5.146661e-02
  2.995168e-01    1.897602e+00   5.022826e-02
  3.017273e-01    1.960180e+00   5.082467e-02
  3.039377e-01    1.946113e+00   5.042023e-02
  3.061482e-01    1.962039e+00   5.040713e-02
  3.083587e-01    1.907376e+00   4.948485e-02
  3.105691e-01    1.924710e+00   4.949687e-02
  3.127796e-01    1.901599e+00   4.899197e-02
  3.149900e-01    1.822338e+00   4.776026e-02
  3.172005e-01    1.873248e+00   4.822476e-02
  3.194109e-01    1.910406e+00   4.849967e-02
  3.216214e-01    1.911961e+00   4.832146e-02
  3.238319e-01    1.883350e+00   4.776852e-02
  3.260423e-01    1.898879e+00   4.777401e-02
  3.282528e-01    1.843717e+00   4.688758e-02
  3.304632e-01    1.823699e+00   4.645169e-02
  3.326737e-01    1.844079e+00   4.652826e-02
  3.348841e-01    1.829582e+00   4.616529e-02
  3.370946e-01    1.895329e+00   4.681067e-02
  3.393050e-01    1.843243e+00   4.598814e-02
  3.415155e-01    1.777340e+00   4.498871e-02
  3.437260e-01    1.781180e+00   4.487037e-02
  3.459364e-01    1.827600e+00   4.528316e-02
  3.481469e-01    1.802949e+00   4.481257e-02
  3.503573e-01    1.797437e+00   4.458102e-02
  3.525678e-01    1.797945e+00   4.442841e-02
  3.547782e-01    1.855727e+00   4.497354e-02
  3.569887e-01    1.803061e+00   4.417372e-02
  3.591992e-01    1.817875e+00   4.419785e-02
  3.614096e-01    1.789264e+00   4.369665e-02
  3.636201e-01    1.808026e+00   4.377076e-02
  3.658305e-01    1.832884e+00   4.392032e-02
  3.680410e-01    1.791410e+00   4.327121e-02
  3.702514e-01    1.782206e+00   4.301479e-02
  3.724619e-01    1.756236e+00   4.255480e-02
  3.746724e-01    1.821640e+00   4.319534e-02
  3.768828e-01    1.861826e+00   4.352226e-02
  3.790933e-01    1.772592e+00   4.232812e-02
  3.813037e-01    1.774715e+00   4.221487e-02
  3.835142e-01    1.848780e+00   4.294524e-02
  3.857246e-01    1.798999e+00   4.222602e-02
  3.879351e-01    1.714830e+00   4.109295e-02
  3.901455e-01    1.774541e+00   4.166915e-02
  3.923560e-01    1.820688e+00   4.207337e-02
  3.945665e-01    1.814342e+00   4.186677e-02
  3.967769e-01    1.811860e+00   4.170711e-02
  3.989874e-01    1.855516e+00   4.207479e-02
  4.011978e-01    1.755631e+00   4.080081e-02
  4.034083e-01    1.761971e+00   4.074890e-02
  4.056187e-01    1.794538e+00   4.099708e-02
  4.078292e-01    1.796941e+00   4.090039e-02
  4.100397e-01    1.771587e+00   4.048679e-02
  4.122501e-01    1.806109e+00   4.075709e-02
  4.144606e-01    1.822264e+00   4.081755e-02
  4.166710e-01    1.827157e+00   4.075078e-02
  4.188815e-01    1.825068e+00   4.060719e-02
  4.210919e-01    1.773778e+00   3.991521e-02
  4.233024e-01    1.782299e+00   3.989327e-02
  4.255128e-01    1.816406e+00   4.015675e-02
  4.277233e-01    1.821536e+00   4.009789e-02
  4.299338e-01    1.848302e+00   4.027517e-02
  4.321442e-01    1.864899e+00   4.033987e-02
  4.343547e-01    1.761615e+00   3.909600e-02
  4.365651e-01    1.757110e+00   3.893505e-02
  4.387756e-01    1.733263e+00   3.856164e-02
  4.409860e-01    1.797532e+00   3.916126e-02
  4.431965e-01    1.804160e+00   3.912493e-02
  4.454070e-01    1.741574e+00   3.833339e-02
  4.476174e-01    1.753944e+00   3.836363e-02
  4.498279e-01    1.809153e+00   3.885675e-02
  4.520383e-01    1.768464e+00   3.831188e-02
  4.542488e-01    1.704382e+00   3.750991e-02
  4.564592e-01    1.688287e+00   3.723224e-02
  4.586697e-01    1.707031e+00   3.733898e-02
  4.608801e-01    1.702055e+00   3.718466e-02
  4.630906e-01    1.715338e+00   3.723061e-02
  4.653011e-01    1.728125e+00   3.727087e-02
  4.675115e-01    1.699848e+00   3.686732e-02
  4.697220e-01    1.707874e+00   3.685750e-02
  4.719324e-01    1.724161e+00   3.693705e-02
  4.741429e-01    1.686680e+00   3.643920e-02
  4.763533e-01    1.666895e+00   3.613202e-02
  4.785638e-01    1.760950e+00   3.704143e-02
  4.807743e-01    1.708335e+00   3.639111e-02
  4.829847e-01    1.750632e+00   3.674578e-02
  4.851952e-01    1.740869e+00   3.655048e-02
  4.874056e-01    1.665760e+00   3.566314e-02
  4.896161e-01    1.665780e+00   3.557491e-02
  4.918265e-01    1.656424e+00   3.538679e-02
  4.940370e-01    1.631009e+00   3.502754e-02
  4.962475e-01    1.688855e+00   3.555526e-02
  4.984579e-01    1.678930e+00   3.536328e-02
  5.006684e-01    1.649018e+00   3.496139e-02
  5.028788e-01    1.699242e+00   3.540379e-02
  5.050893e-01    1.699839e+00   3.532391e-02
  5.072997e-01    1.684719e+00   3.508152e-02
  5.095102e-01    1.646603e+00   3.459934e-02
  5.117206e-01    1.712161e+00   3.519746e-02
  5.139311e-01    1.744691e+00   3.544619e-02
  5.161416e-01    1.656735e+00   3.445955e-02
  5.183520e-01    1.641189e+00   3.421596e-02
  5.205625e-01    1.674145e+00   3.447684e-02
  5.227729e-01    1.682640e+00   3.448357e-02
  5.249834e-01    1.711545e+00   3.469777e-02
  5.271938e-01    1.675724e+00   3.425265e-02
  5.294043e-01    1.700253e+00   3.442279e-02
  5.316148e-01    1.726463e+00   3.460766e-02
  5.338252e-01    1.774029e+00   3.500098e-02
  5.360357e-01    1.736101e+00   3.454600e-02
  5.382461e-01    1.738580e+00   3.449250e-02
  5.404566e-01    1.724884e+00   3.427818e-02
  5.426670e-01    1.737860e+00   3.432934e-02
  5.448775e-01    1.747537e+00   3.434788e-02
  5.470879e-01    1.778927e+00   3.457771e-02
  5.492984e-01    1.771230e+00   3.442609e-02
  5.515089e-01    1.778918e+00   3.442423e-02
  5.537193e-01    1.741768e+00   3.398784e-02
  5.559298e-01    1.761010e+00   3.410008e-02
  5.581402e-01    1.787660e+00   3.428207e-02
  5.603507e-01    1.796767e+00   3.429449e-02
  5.625611e-01    1.783989e+00   3.409817e-02
  5.647716e-01    1.784893e+00   3.403276e-02
  5.669821e-01    1.783601e+00   3.394709e-02
  5.691925e-01    1.811131e+00   3.413464e-02
  5.714030e-01    1.801336e+00   3.396965e-02
  5.736134e-01    1.716802e+00   3.309247e-02
  5.758239e-01    1.704257e+00   3.290096e-02
  5.780343e-01    1.692516e+00   3.271806e-02
  5.802448e-01    1.718678e+00   3.290095e-02
  5.824552e-01    1.672830e+00   3.239105e-02
  5.846657e-01    1.670896e+00   3.230483e-02
  5.868762e-01    1.641030e+00   3.194817e-02
  5.890866e-01    1.613702e+00   3.161531e-02
  5.912971e-01    1.620574e+00   3.161695e-02
  5.935075e-01    1.645646e+00   3.179474e-02
  5.957180e-01    1.670238e+00   3.196571e-02
  5.979284e-01    1.664555e+00   3.184614e-02
  6.001389e-01    1.660077e+00   3.173851e-02
  6.023494e-01    1.656595e+00   3.164084e-02
  6.045598e-01    1.651068e+00   3.152369e-02
  6.067703e-01    1.649349e+00   3.144392e-02
  6.089807e-01    1.658384e+00   3.146653e-02
  6.111912e-01    1.708683e+00   3.187639e-02
  6.134016e-01    1.665922e+00   3.141222e-02
  6.156121e-01    1.656694e+00   3.126283e-02
  6.178226e-01    1.699325e+00   3.159982e-02
  6.200330e-01    1.703864e+00   3.157957e-02
  6.222435e-01    1.702271e+00   3.150228e-02
  6.244539e-01    1.722691e+00   3.162861e-02
  6.266644e-01    1.747678e+00   3.179503e-02
  6.288748e-01    1.694376e+00   3.124550e-02
  6.310853e-01    1.695981e+00   3.119959e-02
  6.332957e-01    1.696180e+00   3.114116e-02
  6.355062e-01    1.721009e+00   3.130734e-02
  6.377167e-01    1.668452e+00   3.076645e-02
  6.399271e-01    1.704091e+00   3.103372e-02
  6.421376e-01    1.726517e+00   3.117764e-02
  6.443480e-01    1.718433e+00   3.104538e-02
  6.465585e-01    1.711259e+00   3.092184e-02
  6.487689e-01    1.700611e+00   3.076726e-02
  6.509794e-01    1.700137e+00   3.070497e-02
  6.531899e-01    1.642930e+00   3.012720e-02
  6.554003e-01    1.633585e+00   2.998490e-02
  6.576108e-01    1.611963e+00   2.973035e-02
  6.598212e-01    1.613744e+00   2.969149e-02
  6.620317e-01    1.668981e+00   3.013940e-02
  6.642421e-01    1.619321e+00   2.963271e-02
  6.664526e-01    1.631385e+00   2.968807e-02
  6.686630e-01    1.624300e+00   2.956879e-02
  6.708735e-01    1.609019e+00   2.937536e-02
  6.730840e-01    1.633333e+00   2.954253e-02
  6.752944e-01    1.616318e+00   2.933481e-02
  6.775049e-01    1.604422e+00   2.917359e-02
  6.797153e-01    1.601097e+00   2.909057e-02
  6.819258e-01    1.643719e+00   2.942207e-02
  6.841362e-01    1.595298e+00   2.893336e-02
  6.863467e-01    1.572608e+00   2.867540e-02
  6.885572e-01    1.580674e+00   2.869732e-02
  6.907676e-01    1.588812e+00   2.871956e-02
  6.929781e-01    1.574325e+00   2.853749e-02
  6.951885e-01    1.632127e+00   2.900519e-02
  6.973990e-01    1.636116e+00   2.898929e-02
  6.996094e-01    1.597587e+00   2.859551e-02
  7.018199e-01    1.604557e+00   2.860752e-02
  7.040303e-01    1.591687e+00   2.844251e-02
  7.062408e-01    1.598119e+00   2.845001e-02
  7.084513e-01    1.579143e+00   2.823141e-02
  7.106617e-01    1.588957e+00   2.826978e-02
  7.128722e-01    1.596438e+00   2.828723e-02
  7.150826e-01    1.606846e+00   2.833038e-02
  7.172931e-01    1.602497e+00   2.824324e-02
  7.195035e-01    1.585907e+00   2.804837e-02
  7.217140e-01    1.570376e+00   2.796007e-02
  7.239245e-01    1.529337e+00   2.781576e-02
  7.261349e-01    1.569221e+00   2.828454e-02
  7.283454e-01    1.564447e+00   2.831367e-02
  7.305558e-01    1.573172e+00   2.844647e-02
  7.327663e-01    1.577199e+00   2.852539e-02
  7.349767e-01    1.573603e+00   2.850924e-02
  7.371872e-01    1.561297e+00   2.838639e-02
  7.393976e-01    1.575820e+00   2.850384e-02
  7.416081e-01    1.575225e+00   2.848228e-02
  7.438186e-01    1.604482e+00   2.859990e-02
  7.460290e-01    1.566190e+00   2.796311e-02
  7.482395e-01    1.567466e+00   2.780371e-02
  7.504499e-01    1.568170e+00   2.767398e-02
  7.526604e-01    1.557341e+00   2.746234e-02
  7.548708e-01    1.566875e+00   2.745708e-02
  7.570813e-01    1.555165e+00   2.730364e-02
  7.592918e-01    1.560626e+00   2.731650e-02
  7.615022e-01    1.596804e+00   2.759728e-02
  7.637127e-01    1.601415e+00   2.760403e-02
  7.659231e-01    1.584404e+00   2.742494e-02
  7.681336e-01    1.569429e+00   2.726347e-02
  7.703440e-01    1.593329e+00   2.743887e-02
  7.725545e-01    1.597668e+00   2.744509e-02
  7.747650e-01    1.638796e+00   2.775715e-02
  7.769754e-01    1.597036e+00   2.734816e-02
  7.791859e-01    1.579510e+00   2.714411e-02
  7.813963e-01    1.580396e+00   2.709910e-02
  7.836068e-01    1.603951e+00   2.724799e-02
  7.858172e-01    1.616005e+00   2.729905e-02
  7.880277e-01    1.605798e+00   2.716096e-02
  7.902381e-01    1.578720e+00   2.688202e-02
  7.924486e-01    1.623068e+00   2.720651e-02
  7.946591e-01    1.592627e+00   2.690198e-02
  7.968695e-01    1.579174e+00   2.674019e-02
  7.990800e-01    1.624394e+00   2.707186e-02
  8.012904e-01    1.650337e+00   2.724001e-02
  8.035009e-01    1.602026e+00   2.679058e-02
  8.057113e-01    1.614419e+00   2.684749e-02
  8.079218e-01    1.629472e+00   2.692582e-02
  8.101323e-01    1.686418e+00   2.734576e-02
  8.123427e-01    1.633837e+00   2.687021e-02
  8.145532e-01    1.647832e+00   2.693886e-02
  8.167636e-01    1.633412e+00   2.677564e-02
  8.189741e-01    1.661921e+00   2.696326e-02
  8.211845e-01    1.637186e+00   2.671702e-02
  8.233950e-01    1.615428e+00   2.649572e-02
  8.256054e-01    1.651963e+00   2.674925e-02
  8.278159e-01    1.667485e+00   2.683027e-02
  8.300264e-01    1.672020e+00   2.682321e-02
  8.322368e-01    1.658221e+00   2.666890e-02
  8.344473e-01    1.671062e+00   2.672817e-02
  8.366577e-01    1.675724e+00   2.672238e-02
  8.388682e-01    1.637705e+00   2.637528e-02
  8.410786e-01    1.637999e+00   2.633558e-02
  8.432891e-01    1.659961e+00   2.646946e-02
  8.454996e-01    1.615042e+00   2.606753e-02
  8.477100e-01    1.650841e+00   2.631302e-02
  8.499205e-01    1.642965e+00   2.620896e-02
  8.521309e-01    1.642554e+00   2.616483e-02
  8.543414e-01    1.623707e+00   2.597369e-02
  8.565518e-01    1.649923e+00   2.614176e-02
  8.587623e-01    1.647593e+00   2.608264e-02
  8.609727e-01    1.657120e+00   2.611737e-02
  8.631832e-01    1.634404e+00   2.589777e-02
  8.653937e-01    1.618548e+00   2.573222e-02
  8.676041e-01    1.606485e+00   2.559746e-02
  8.698146e-01    1.603228e+00   2.553244e-02
  8.720250e-01    1.634868e+00   2.574383e-02
  8.742355e-01    1.613437e+00   2.553562e-02
  8.764459e-01    1.588773e+00   2.530104e-02
  8.786564e-01    1.615939e+00   2.547838e-02
  8.808669e-01    1.602492e+00   2.533369e-02
  8.830773e-01    1.583480e+00   2.514506e-02
  8.852878e-01    1.608518e+00   2.530505e-02
  8.874982e-01    1.620512e+00   2.536238e-02
  8.897087e-01    1.626841e+00   2.537387e-02
  8.919191e-01    1.600659e+00   2.513111e-02
  8.941296e-01    1.588100e+00   2.499519e-02
  8.963401e-01    1.608605e+00   2.511949e-02
  8.985505e-01    1.625455e+00   2.521347e-02
  9.007610e-01    1.602245e+00   2.499604e-02
  9.029714e-01    1.610913e+00   2.502761e-02
  9.051819e-01    1.547276e+00   2.449169e-02
  9.073923e-01    1.556779e+00   2.453068e-02
  9.096028e-01    1.574108e+00   2.463222e-02
  9.118132e-01    1.584396e+00   2.467653e-02
  9.140237e-01    1.619121e+00   2.490865e-02
  9.162342e-01    1.625474e+00   2.492263e-02
  9.184446e-01    1.603589e+00   2.471850e-02
  9.206551e-01    1.562878e+00   2.436754e-02
  9.228655e-01    1.580873e+00   2.447238e-02
  9.250760e-01    1.581101e+00   2.443901e-02
  9.272864e-01    1.583484e+00   2.442338e-02
  9.294969e-01    1.588080e+00   2.442314e-02
  9.317074e-01    1.589986e+00   2.440326e-02
  9.339178e-01    1.614998e+00   2.456086e-02
  9.361283e-01    1.617752e+00   2.454557e-02
  9.383387e-01    1.588098e+00   2.428648e-02
  9.405492e-01    1.619320e+00   2.448979e-02
  9.427596e-01    1.667214e+00   2.481355e-02
  9.449701e-01    1.689589e+00   2.494557e-02
  9.471805e-01    1.682145e+00   2.485530e-02
  9.493910e-01    1.703739e+00   2.497999e-02
  9.516015e-01    1.705951e+00   2.496131e-02
  9.538119e-01    1.724072e+00   2.505915e-02
  9.560224e-01    1.732353e+00   2.508390e-02
  9.582328e-01    1.722551e+00   2.497928e-02
  9.604433e-01    1.747368e+00   2.512295e-02
  9.626537e-01    1.748614e+00   2.509811e-02
  9.648642e-01    1.818793e+00   2.556173e-02
  9.670747e-01    1.830128e+00   2.560592e-02
  9.692851e-01    1.821676e+00   2.551277e-02
  9.714956e-01    1.823342e+00   2.548843e-02
  9.737060e-01    1.816466e+00   2.540691e-02
  9.759165e-01    1.842310e+00   2.555093e-02
  9.781269e-01    1.856479e+00   2.561545e-02
  9.803374e-01    1.835885e+00   2.543776e-02
  9.825478e-01    1.808018e+00   2.521065e-02
  9.847583e-01    1.801992e+00   2.513442e-02
  9.869688e-01    1.796623e+00   2.506335e-02
  9.891792e-01    1.746089e+00   2.467554e-02
  9.913897e-01    1.720571e+00   2.446148e-02
  9.936001e-01    1.749027e+00   2.463066e-02
  9.958106e-01    1.714415e+00   2.435259e-02
  9.980210e-01    1.675493e+00   2.404332e-02
  1.000231e+00    1.682268e+00   2.422385e-02
  1.002442e+00    1.662413e+00   2.420844e-02
  1.004652e+00    1.620028e+00   2.396450e-02
  1.006863e+00    1.615350e+00   2.397951e-02
  1.009073e+00    1.616183e+00   2.402242e-02
  1.011284e+00    1.580323e+00   2.378618e-02
  1.013494e+00    1.589023e+00   2.387521e-02
  1.015705e+00    1.605703e+00   2.402287e-02
  1.017915e+00    1.636476e+00   2.426869e-02
  1.020126e+00    1.580770e+00   2.386821e-02
  1.022336e+00    1.549644e+00   2.364366e-02
  1.024547e+00    1.551272e+00   2.366731e-02
  1.026757e+00    1.524119e+00   2.346757e-02
  1.028967e+00    1.547200e+00   2.365226e-02
  1.031178e+00    1.563526e+00   2.378297e-02
  1.033388e+00    1.521875e+00   2.346910e-02
  1.035599e+00    1.517795e+00   2.344101e-02
  1.037809e+00    1.562133e+00   2.378423e-02
  1.040020e+00    1.528465e+00   2.352780e-02
  1.042230e+00    1.598626e+00   2.406371e-02
  1.044441e+00    1.630156e+00   2.429966e-02
  1.046651e+00    1.610083e+00   2.414976e-02
  1.048862e+00    1.585601e+00   2.396464e-02
  1.051072e+00    1.596372e+00   2.404347e-02
  1.053282e+00    1.580437e+00   2.392218e-02
  1.055493e+00    1.607207e+00   2.411947e-02
  1.057703e+00    1.606051e+00   2.410923e-02
  1.059914e+00    1.585070e+00   2.394685e-02
  1.062124e+00    1.571410e+00   2.383925e-02
  1.064335e+00    1.621606e+00   2.421341e-02
  1.066545e+00    1.623070e+00   2.421810e-02
  1.068756e+00    1.575714e+00   2.385830e-02
  1.070966e+00    1.601307e+00   2.404446e-02
  1.073177e+00    1.582890e+00   2.389956e-02
  1.075387e+00    1.517144e+00   2.339263e-02
  1.077597e+00    1.487633e+00   2.315670e-02
  1.079808e+00    1.491554e+00   2.305320e-02
  1.082018e+00    1.495392e+00   2.289168e-02
  1.084229e+00    1.453914e+00   2.246220e-02
  1.086439e+00    1.454442e+00   2.237883e-02
  1.088650e+00    1.464599e+00   2.238093e-02
  1.090860e+00    1.432246e+00   2.206524e-02
  1.093071e+00    1.437637e+00   2.204480e-02
  1.095281e+00    1.442240e+00   2.202290e-02
  1.097492e+00    1.430767e+00   2.188050e-02
  1.099702e+00    1.435095e+00   2.186225e-02
  1.101912e+00    1.442221e+00   2.186758e-02
  1.104123e+00    1.398322e+00   2.148462e-02
  1.106333e+00    1.419024e+00   2.159885e-02
  1.108544e+00    1.422240e+00   2.157919e-02
  1.110754e+00    1.393442e+00   2.131708e-02
  1.112965e+00    1.414782e+00   2.143923e-02
  1.115175e+00    1.450593e+00   2.166729e-02
  1.117386e+00    1.412662e+00   2.134288e-02
  1.119596e+00    1.399760e+00   2.120751e-02
  1.121807e+00    1.368629e+00   2.093208e-02
  1.124017e+00    1.381421e+00   2.099337e-02
  1.126228e+00    1.393352e+00   2.104822e-02
  1.128438e+00    1.390001e+00   2.098627e-02
  1.130648e+00    1.397159e+00   2.100595e-02
  1.132859e+00    1.374649e+00   2.080195e-02
  1.135069e+00    1.379734e+00   2.080583e-02
  1.137280e+00    1.366555e+00   2.067351e-02
  1.139490e+00    1.361847e+00   2.060509e-02
  1.141701e+00    1.389497e+00   2.078004e-02
  1.143911e+00    1.398667e+00   2.081648e-02
  1.146122e+00    1.366242e+00   2.054193e-02
  1.148332e+00    1.364265e+00   2.049535e-02
  1.150543e+00    1.355356e+00   2.039774e-02
  1.152753e+00    1.349980e+00   2.032670e-02
  1.154963e+00    1.343026e+00   2.024357e-02
  1.157174e+00    1.377721e+00   2.047318e-02
  1.159384e+00    1.374451e+00   2.041900e-02
  1.161595e+00    1.364949e+00   2.031851e-02
  1.163805e+00    1.348909e+00   2.016972e-02
  1.166016e+00    1.348557e+00   2.013786e-02
  1.168226e+00    1.398340e+00   2.047689e-02
  1.170437e+00    1.383283e+00   2.033756e-02
  1.172647e+00    1.393694e+00   2.038475e-02
  1.174858e+00    1.392765e+00   2.034957e-02
  1.177068e+00    1.389553e+00   2.029757e-02
  1.179278e+00    1.384108e+00   2.022894e-02
  1.181489e+00    1.367522e+00   2.008030e-02
  1.183699e+00    1.365270e+00   2.003611e-02
  1.185910e+00    1.366409e+00   2.001661e-02
  1.188120e+00    1.376263e+00   2.006177e-02
  1.190331e+00    1.374244e+00   2.002010e-02
  1.192541e+00    1.382039e+00   2.004915e-02
  1.194752e+00    1.363804e+00   1.988928e-02
  1.196962e+00    1.387240e+00   2.003337e-02
  1.199173e+00    1.381655e+00   1.996620e-02
  1.201383e+00    1.366961e+00   1.983241e-02
  1.203593e+00    1.379945e+00   1.990128e-02
  1.205804e+00    1.366095e+00   1.977510e-02
  1.208014e+00    1.337754e+00   1.954215e-02
  1.210225e+00    1.368913e+00   1.974292e-02
  1.212435e+00    1.356674e+00   1.962963e-02
  1.214646e+00    1.368188e+00   1.968645e-02
  1.216856e+00    1.365837e+00   1.964391e-02
  1.219067e+00    1.384455e+00   1.975257e-02
  1.221277e+00    1.350669e+00   1.948504e-02
  1.223488e+00    1.353382e+00   1.947881e-02
  1.225698e+00    1.370505e+00   1.957455e-02
  1.227909e+00    1.340887e+00   1.933181e-02
  1.230119e+00    1.327974e+00   1.920691e-02
  1.232329e+00    1.327174e+00   1.917066e-02
  1.234540e+00    1.323810e+00   1.911636e-02
  1.236750e+00    1.327555e+00   1.911336e-02
  1.238961e+00    1.358658e+00   1.930891e-02
  1.241171e+00    1.355426e+00   1.926171e-02
  1.243382e+00    1.337356e+00   1.910947e-02
  1.245592e+00    1.345896e+00   1.914633e-02
  1.247803e+00    1.345421e+00   1.911935e-02
  1.250013e+00    1.336431e+00   1.903192e-02
  1.252224e+00    1.354603e+00   1.913758e-02
  1.254434e+00    1.366181e+00   1.919534e-02
  1.256644e+00    1.326387e+00   1.889069e-02
  1.258855e+00    1.355858e+00   1.907609e-02
  1.261065e+00    1.348224e+00   1.899895e-02
  1.263276e+00    1.341509e+00   1.892873e-02
  1.265486e+00    1.343339e+00   1.891879e-02
  1.267697e+00    1.336260e+00   1.884598e-02
  1.269907e+00    1.342054e+00   1.886417e-02
  1.272118e+00    1.316974e+00   1.866478e-02
  1.274328e+00    1.306333e+00   1.856686e-02
  1.276539e+00    1.318924e+00   1.863359e-02
  1.278749e+00    1.331998e+00   1.870358e-02
  1.280959e+00    1.329566e+00   1.866413e-02
  1.283170e+00    1.334841e+00   1.867883e-02
  1.285380e+00    1.330779e+00   1.862808e-02
  1.287591e+00    1.341935e+00   1.868404e-02
  1.289801e+00    1.345392e+00   1.868691e-02
  1.292012e+00    1.355200e+00   1.873776e-02
  1.294222e+00    1.343790e+00   1.864253e-02
  1.296433e+00    1.341355e+00   1.861006e-02
  1.298643e+00    1.349962e+00   1.865322e-02
  1.300854e+00    1.340195e+00   1.856926e-02
  1.303064e+00    1.333270e+00   1.850212e-02
  1.305274e+00    1.349442e+00   1.859255e-02
  1.307485e+00    1.357976e+00   1.862964e-02
  1.309695e+00    1.353050e+00   1.857357e-02
  1.311906e+00    1.330928e+00   1.839954e-02
  1.314116e+00    1.345177e+00   1.847701e-02
  1.316327e+00    1.334079e+00   1.837908e-02
  1.318537e+00    1.363560e+00   1.855903e-02
  1.320748e+00    1.366852e+00   1.855977e-02
  1.322958e+00    1.335263e+00   1.832363e-02
  1.325169e+00    1.332941e+00   1.828681e-02
  1.327379e+00    1.334829e+00   1.827803e-02
  1.329589e+00    1.400623e+00   1.870164e-02
  1.331800e+00    1.369803e+00   1.847391e-02
  1.334010e+00    1.355562e+00   1.835691e-02
  1.336221e+00    1.378115e+00   1.848701e-02
  1.338431e+00    1.363246e+00   1.836606e-02
  1.340642e+00    1.339450e+00   1.826896e-02
  1.342852e+00    1.352110e+00   1.845584e-02
  1.345063e+00    1.358746e+00   1.855073e-02
  1.347273e+00    1.357317e+00   1.857630e-02
  1.349484e+00    1.358804e+00   1.861425e-02
  1.351694e+00    1.339300e+00   1.850279e-02
  1.353905e+00    1.345357e+00   1.856253e-02
  1.356115e+00    1.346206e+00   1.858344e-02
  1.358325e+00    1.330707e+00   1.848935e-02
  1.360536e+00    1.334261e+00   1.852559e-02
  1.362746e+00    1.343317e+00   1.859789e-02
  1.364957e+00    1.353203e+00   1.867388e-02
  1.367167e+00    1.334125e+00   1.854890e-02
  1.369378e+00    1.332662e+00   1.854471e-02
  1.371588e+00    1.308377e+00   1.838003e-02
  1.373799e+00    1.282669e+00   1.820216e-02
  1.376009e+00    1.300084e+00   1.832863e-02
  1.378220e+00    1.318190e+00   1.845835e-02
  1.380430e+00    1.269262e+00   1.811521e-02
  1.382640e+00    1.288640e+00   1.825383e-02
  1.384851e+00    1.313323e+00   1.842871e-02
  1.387061e+00    1.270642e+00   1.812707e-02
  1.389272e+00    1.280443e+00   1.819704e-02
  1.391482e+00    1.303886e+00   1.836221e-02
  1.393693e+00    1.285500e+00   1.823142e-02
  1.395903e+00    1.277364e+00   1.817212e-02
  1.398114e+00    1.280720e+00   1.819460e-02
  1.400324e+00    1.287686e+00   1.824189e-02
  1.402535e+00    1.286987e+00   1.823459e-02
  1.404745e+00    1.279361e+00   1.817815e-02
  1.406955e+00    1.267956e+00   1.809423e-02
  1.409166e+00    1.304722e+00   1.835134e-02
  1.411376e+00    1.286003e+00   1.821611e-02
  1.413587e+00    1.255933e+00   1.799808e-02
  1.415797e+00    1.262324e+00   1.804029e-02
  1.418008e+00    1.238774e+00   1.782987e-02
  1.420218e+00    1.243528e+00   1.771585e-02
  1.422429e+00    1.268811e+00   1.780980e-02
  1.424639e+00    1.247159e+00   1.759308e-02
  1.426850e+00    1.252924e+00   1.757935e-02
  1.429060e+00    1.250659e+00   1.751485e-02
  1.431270e+00    1.262826e+00   1.755565e-02
  1.433481e+00    1.265992e+00   1.753676e-02
  1.435691e+00    1.291911e+00   1.767661e-02
  1.437902e+00    1.277151e+00   1.753878e-02
  1.440112e+00    1.282004e+00   1.753654e-02
  1.442323e+00    1.277591e+00   1.747322e-02
  1.444533e+00    1.228545e+00   1.710252e-02
  1.446744e+00    1.254474e+00   1.725109e-02
  1.448954e+00    1.276786e+00   1.737358e-02
  1.451165e+00    1.266554e+00   1.727410e-02
  1.453375e+00    1.271509e+00   1.727981e-02
  1.455586e+00    1.265862e+00   1.721326e-02
  1.457796e+00    1.273589e+00   1.723818e-02
  1.460006e+00    1.281317e+00   1.726300e-02
  1.462217e+00    1.291224e+00   1.730320e-02
  1.464427e+00    1.279948e+00   1.720176e-02
  1.466638e+00    1.286338e+00   1.721915e-02
  1.468848e+00    1.276276e+00   1.712628e-02
  1.471059e+00    1.261549e+00   1.700216e-02
  1.473269e+00    1.270288e+00   1.703656e-02
  1.475480e+00    1.269305e+00   1.700619e-02
  1.477690e+00    1.281111e+00   1.706113e-02
  1.479901e+00    1.306616e+00   1.720594e-02
  1.482111e+00    1.266069e+00   1.691356e-02
  1.484321e+00    1.247666e+00   1.676725e-02
  1.486532e+00    1.236948e+00   1.667299e-02
  1.488742e+00    1.270284e+00   1.687346e-02
  1.490953e+00    1.272726e+00   1.686702e-02
  1.493163e+00    1.263476e+00   1.678332e-02
  1.495374e+00    1.271080e+00   1.681217e-02
  1.497584e+00    1.296389e+00   1.695680e-02
  1.499795e+00    1.278368e+00   1.681673e-02
  1.502005e+00    1.260306e+00   1.667581e-02
  1.504216e+00    1.253396e+00   1.660904e-02
  1.506426e+00    1.253714e+00   1.659037e-02
  1.508636e+00    1.254092e+00   1.657245e-02
  1.510847e+00    1.252003e+00   1.653687e-02
  1.513057e+00    1.249129e+00   1.649284e-02
  1.515268e+00    1.266906e+00   1.658397e-02
  1.517478e+00    1.246188e+00   1.642272e-02
  1.519689e+00    1.252604e+00   1.644000e-02
  1.521899e+00    1.246921e+00   1.637963e-02
  1.524110e+00    1.251915e+00   1.639205e-02
  1.526320e+00    1.255182e+00   1.639384e-02
  1.528531e+00    1.260878e+00   1.641113e-02
  1.530741e+00    1.267451e+00   1.643459e-02
  1.532951e+00    1.239064e+00   1.623001e-02
  1.535162e+00    1.214918e+00   1.615647e-02
  1.537372e+00    1.242443e+00   1.640518e-02
  1.539583e+00    1.242685e+00   1.644095e-02
  1.541793e+00    1.249930e+00   1.649575e-02
  1.544004e+00    1.263779e+00   1.658714e-02
  1.546214e+00    1.234298e+00   1.639105e-02
  1.548425e+00    1.223272e+00   1.631792e-02
  1.550635e+00    1.230399e+00   1.637501e-02
  1.552846e+00    1.229358e+00   1.637768e-02
  1.555056e+00    1.235005e+00   1.637392e-02
  1.557266e+00    1.254170e+00   1.638960e-02
  1.559477e+00    1.246298e+00   1.627893e-02
  1.561687e+00    1.237277e+00   1.618933e-02
  1.563898e+00    1.215927e+00   1.603208e-02
  1.566108e+00    1.228466e+00   1.609867e-02
  1.568319e+00    1.244601e+00   1.618844e-02
  1.570529e+00    1.233801e+00   1.609302e-02
  1.572740e+00    1.244233e+00   1.613329e-02
  1.574950e+00    1.227108e+00   1.599576e-02
  1.577161e+00    1.233626e+00   1.601280e-02
  1.579371e+00    1.242363e+00   1.604578e-02
  1.581582e+00    1.257542e+00   1.612363e-02
  1.583792e+00    1.254237e+00   1.608435e-02
  1.586002e+00    1.215857e+00   1.581892e-02
  1.588213e+00    1.222264e+00   1.584344e-02
  1.590423e+00    1.242276e+00   1.595257e-02
  1.592634e+00    1.251567e+00   1.599042e-02
  1.594844e+00    1.256941e+00   1.600319e-02
  1.597055e+00    1.239671e+00   1.587242e-02
  1.599265e+00    1.232480e+00   1.580566e-02
  1.601476e+00    1.244759e+00   1.586386e-02
  1.603686e+00    1.247648e+00   1.586244e-02
  1.605897e+00    1.213081e+00   1.562121e-02
  1.608107e+00    1.216426e+00   1.562333e-02
  1.610317e+00    1.221321e+00   1.563557e-02
  1.612528e+00    1.217265e+00   1.559052e-02
  1.614738e+00    1.207525e+00   1.550928e-02
  1.616949e+00    1.199785e+00   1.544071e-02
  1.619159e+00    1.206878e+00   1.546770e-02
  1.621370e+00    1.200081e+00   1.540577e-02
  1.623580e+00    1.168652e+00   1.518472e-02
  1.625791e+00    1.183953e+00   1.526571e-02
  1.628001e+00    1.192720e+00   1.530396e-02
  1.630212e+00    1.158666e+00   1.506639e-02
  1.632422e+00    1.160257e+00   1.505904e-02
  1.634632e+00    1.150113e+00   1.497598e-02
  1.636843e+00    1.166667e+00   1.506592e-02
  1.639053e+00    1.134954e+00   1.484274e-02
  1.641264e+00    1.140345e+00   1.486107e-02
  1.643474e+00    1.144899e+00   1.487346e-02
  1.645685e+00    1.138599e+00   1.481595e-02
  1.647895e+00    1.154525e+00   1.490262e-02
  1.650106e+00    1.115141e+00   1.462953e-02
  1.652316e+00    1.123639e+00   1.466881e-02
  1.654527e+00    1.125785e+00   1.466629e-02
  1.656737e+00    1.111610e+00   1.455730e-02
  1.658947e+00    1.099352e+00   1.446074e-02
  1.661158e+00    1.129606e+00   1.464210e-02
  1.663368e+00    1.098945e+00   1.442617e-02
  1.665579e+00    1.100257e+00   1.441875e-02
  1.667789e+00    1.114809e+00   1.449757e-02
  1.670000e+00    1.134818e+00   1.461147e-02
  1.672210e+00    1.094695e+00   1.433506e-02
  1.674421e+00    1.092424e+00   1.430493e-02
  1.676631e+00    1.096270e+00   1.431427e-02
  1.678842e+00    1.058031e+00   1.404694e-02
  1.681052e+00    1.066460e+00   1.408754e-02
  1.683263e+00    1.093113e+00   1.424737e-02
  1.685473e+00    1.067223e+00   1.406262e-02
  1.687683e+00    1.060534e+00   1.400320e-02
  1.689894e+00    1.064873e+00   1.401618e-02
  1.692104e+00    1.060146e+00   1.397022e-02
  1.694315e+00    1.067953e+00   1.400709e-02
  1.696525e+00    1.061558e+00   1.395001e-02
  1.698736e+00    1.067162e+00   1.397191e-02
  1.700946e+00    1.078260e+00   1.402914e-02
  1.703157e+00    1.041776e+00   1.377522e-02
  1.705367e+00    1.049088e+00   1.380899e-02
  1.707578e+00    1.037830e+00   1.372020e-02
  1.709788e+00    1.049580e+00   1.378352e-02
  1.711998e+00    1.029114e+00   1.363356e-02
  1.714209e+00    1.023905e+00   1.358468e-02
  1.716419e+00    1.021420e+00   1.355400e-02
  1.718630e+00    1.038565e+00   1.365297e-02
  1.720840e+00    1.017116e+00   1.349715e-02
  1.723051e+00    1.025464e+00   1.353853e-02
  1.725261e+00    1.033255e+00   1.357514e-02
  1.727472e+00    1.004355e+00   1.336984e-02
  1.729682e+00    9.976188e-01   1.331160e-02
  1.731893e+00    1.009878e+00   1.337922e-02
  1.734103e+00    1.015418e+00   1.340206e-02
  1.736313e+00    9.879381e-01   1.320558e-02
  1.738524e+00    9.926919e-01   1.322354e-02
  1.740734e+00    9.768021e-01   1.310375e-02
  1.742945e+00    9.825358e-01   1.312877e-02
  1.745155e+00    9.792573e-01   1.309351e-02
  1.747366e+00    9.691617e-01   1.301216e-02
  1.749576e+00    9.799414e-01   1.307068e-02
  1.751787e+00    9.938790e-01   1.314991e-02
  1.753997e+00    9.491441e-01   1.283739e-02
  1.756208e+00    9.391818e-01   1.275689e-02
  1.758418e+00    9.395518e-01   1.274649e-02
  1.760628e+00    9.445379e-01   1.276709e-02
  1.762839e+00    9.560740e-01   1.283166e-02
  1.765049e+00    9.287202e-01   1.263390e-02
  1.767260e+00    9.462484e-01   1.273981e-02
  1.769470e+00    9.407163e-01   1.268966e-02
  1.771681e+00    9.333573e-01   1.262691e-02
  1.773891e+00    9.282302e-01   1.257928e-02
  1.776102e+00    9.402812e-01   1.264785e-02
  1.778312e+00    9.464561e-01   1.267655e-02
  1.780523e+00    9.653201e-01   1.278939e-02
  1.782733e+00    9.509969e-01   1.268138e-02
  1.784944e+00    9.525433e-01   1.267869e-02
  1.787154e+00    9.263024e-01   1.249033e-02
  1.789364e+00    9.274099e-01   1.248534e-02
  1.791575e+00    9.160955e-01   1.239648e-02
  1.793785e+00    9.259014e-01   1.245023e-02
  1.795996e+00    9.250141e-01   1.243171e-02
  1.798206e+00    9.324389e-01   1.246889e-02
  1.800417e+00    9.337699e-01   1.246500e-02
  1.802627e+00    9.292912e-01   1.242302e-02
  1.804838e+00    9.633920e-01   1.263646e-02
  1.807048e+00    9.434452e-01   1.249191e-02
  1.809259e+00    8.991270e-01   1.218141e-02
  1.811469e+00    9.013212e-01   1.218133e-02
  1.813679e+00    8.764874e-01   1.199759e-02
  1.815890e+00    8.677940e-01   1.192344e-02
  1.818100e+00    8.858032e-01   1.203150e-02
  1.820311e+00    9.093154e-01   1.217525e-02
  1.822521e+00    8.775198e-01   1.194576e-02
  1.824732e+00    8.689592e-01   1.187271e-02
  1.826942e+00    8.734676e-01   1.189120e-02
  1.829153e+00    8.863761e-01   1.196709e-02
  1.831363e+00    8.729792e-01   1.186432e-02
  1.833574e+00    8.793015e-01   1.189555e-02
  1.835784e+00    8.751835e-01   1.185627e-02
  1.837994e+00    8.611381e-01   1.174914e-02
  1.840205e+00    8.631739e-01   1.175191e-02
  1.842415e+00    8.610371e-01   1.172567e-02
  1.844626e+00    8.783208e-01   1.183115e-02
  1.846836e+00    8.960381e-01   1.193829e-02
  1.849047e+00    8.920670e-01   1.190001e-02
  1.851257e+00    8.823132e-01   1.182510e-02
  1.853468e+00    8.964220e-01   1.191031e-02
  1.855678e+00    8.890738e-01   1.185236e-02
  1.857889e+00    8.855113e-01   1.181996e-02
  1.860099e+00    8.748065e-01   1.173958e-02
  1.862309e+00    8.709434e-01   1.170504e-02
  1.864520e+00    9.092925e-01   1.195112e-02
  1.866730e+00    8.918356e-01   1.182626e-02
  1.868941e+00    9.219937e-01   1.201318e-02
  1.871151e+00    9.402780e-01   1.211972e-02
  1.873362e+00    9.893099e-01   1.241949e-02
  1.875572e+00    9.675028e-01   1.227020e-02
  1.877783e+00    9.022877e-01   1.183766e-02
  1.879993e+00    8.900085e-01   1.174536e-02
  1.882204e+00    9.039039e-01   1.182544e-02
  1.884414e+00    8.699260e-01   1.158982e-02
  1.886624e+00    8.514215e-01   1.145475e-02
  1.888835e+00    8.471099e-01   1.141471e-02
  1.891045e+00    8.401262e-01   1.135667e-02
  1.893256e+00    8.408660e-01   1.135056e-02
  1.895466e+00    8.508060e-01   1.140619e-02
  1.897677e+00    8.558010e-01   1.142858e-02
  1.899887e+00    8.515488e-01   1.138905e-02
  1.902098e+00    8.394012e-01   1.129665e-02
  1.904308e+00    8.510534e-01   1.136404e-02
  1.906519e+00    8.652749e-01   1.144755e-02
  1.908729e+00    8.365503e-01   1.124529e-02
  1.910940e+00    8.477228e-01   1.130886e-02
  1.913150e+00    8.444366e-01   1.127622e-02
  1.915360e+00    8.358099e-01   1.120777e-02
  1.917571e+00    8.331562e-01   1.117903e-02
  1.919781e+00    8.187317e-01   1.107117e-02
  1.921992e+00    8.168376e-01   1.104775e-02
  1.924202e+00    8.095482e-01   1.098763e-02
  1.926413e+00    8.216249e-01   1.105896e-02
  1.928623e+00    8.115560e-01   1.098045e-02
  1.930834e+00    8.210804e-01   1.103422e-02
  1.933044e+00    8.237841e-01   1.104163e-02
  1.935255e+00    8.147342e-01   1.097046e-02
  1.937465e+00    7.947575e-01   1.082480e-02
  1.939675e+00    8.182395e-01   1.097263e-02
  1.941886e+00    8.173148e-01   1.095608e-02
  1.944096e+00    7.959476e-01   1.080179e-02
  1.946307e+00    8.052484e-01   1.085434e-02
  1.948517e+00    8.095777e-01   1.087297e-02
  1.950728e+00    8.014814e-01   1.080822e-02
  1.952938e+00    7.798796e-01   1.065158e-02
  1.955149e+00    7.905774e-01   1.071419e-02
  1.957359e+00    7.718112e-01   1.057639e-02
  1.959570e+00    7.815356e-01   1.063200e-02
  1.961780e+00    8.082101e-01   1.080193e-02
  1.963990e+00    7.907702e-01   1.067464e-02
  1.966201e+00    8.029810e-01   1.074660e-02
  1.968411e+00    7.971244e-01   1.069714e-02
  1.970622e+00    7.930140e-01   1.065940e-02
  1.972832e+00    7.976720e-01   1.068061e-02
  1.975043e+00    7.965546e-01   1.066303e-02
  1.977253e+00    7.852290e-01   1.057700e-02
  1.979464e+00    8.020001e-01   1.067919e-02
  1.981674e+00    8.082175e-01   1.071010e-02
  1.983885e+00    8.126882e-01   1.072945e-02
  1.986095e+00    8.190271e-01   1.076129e-02
  1.988305e+00    8.011748e-01   1.063332e-02
  1.990516e+00    7.943544e-01   1.057795e-02
  1.992726e+00    7.712415e-01   1.041330e-02
  1.994937e+00    7.723182e-01   1.041044e-02
  1.997147e+00    8.012696e-01   1.059389e-02
  1.999358e+00    7.937233e-01   1.053394e-02
  2.001568e+00    7.694371e-01   1.036073e-02
  2.003779e+00    7.589961e-01   1.027839e-02
  2.005989e+00    7.658961e-01   1.031301e-02
  2.008200e+00    7.537529e-01   1.021954e-02
  2.010410e+00    7.605568e-01   1.025387e-02
  2.012621e+00    7.704381e-01   1.030854e-02
  2.014831e+00    7.746848e-01   1.032539e-02
  2.017041e+00    7.741879e-01   1.031166e-02
  2.019252e+00    7.550758e-01   1.017369e-02
  2.021462e+00    7.595112e-01   1.019405e-02
  2.023673e+00    7.767540e-01   1.029965e-02
  2.025883e+00    7.669584e-01   1.022496e-02
  2.028094e+00    7.542692e-01   1.013043e-02
  2.030304e+00    7.750865e-01   1.025966e-02
  2.032515e+00    7.549747e-01   1.011642e-02
  2.034725e+00    7.745652e-01   1.023727e-02
  2.036936e+00    7.654184e-01   1.016729e-02
  2.039146e+00    7.675759e-01   1.017196e-02
  2.041356e+00    7.716755e-01   1.018934e-02
  2.043567e+00    7.730508e-01   1.018901e-02
  2.045777e+00    7.600607e-01   1.009378e-02
  2.047988e+00    7.564705e-01   1.006051e-02
  2.050198e+00    7.620139e-01   1.008884e-02
  2.052409e+00    7.660466e-01   1.010778e-02
  2.054619e+00    7.448200e-01   9.959402e-03
  2.056830e+00    7.768505e-01   1.016400e-02
  2.059040e+00    7.732485e-01   1.013280e-02
  2.061251e+00    7.582248e-01   1.002659e-02
  2.063461e+00    7.584877e-01   1.002068e-02
  2.065671e+00    7.434782e-01   9.912360e-03
  2.067882e+00    7.390214e-01   9.873641e-03
  2.070092e+00    7.514495e-01   9.947099e-03
  2.072303e+00    7.550793e-01   9.961919e-03
  2.074513e+00    7.411249e-01   9.860132e-03
  2.076724e+00    7.547667e-01   9.940933e-03
  2.078934e+00    7.412599e-01   9.842623e-03
  2.081145e+00    7.342592e-01   9.786963e-03
  2.083355e+00    7.597498e-01   9.946129e-03
  2.085566e+00    7.532275e-01   9.894365e-03
  2.087776e+00    7.413522e-01   9.806554e-03
  2.089986e+00    7.172604e-01   9.637224e-03
  2.092197e+00    7.106016e-01   9.583602e-03
  2.094407e+00    7.133350e-01   9.592912e-03
  2.096618e+00    7.407061e-01   9.766295e-03
  2.098828e+00    7.217929e-01   9.631603e-03
  2.101039e+00    7.137548e-01   9.568931e-03
  2.103249e+00    7.202539e-01   9.603800e-03
  2.105460e+00    7.169757e-01   9.572987e-03
  2.107670e+00    7.182791e-01   9.573021e-03
  2.109881e+00    7.211458e-01   9.582958e-03
  2.112091e+00    7.266440e-01   9.610455e-03
  2.114301e+00    7.252152e-01   9.592194e-03
  2.116512e+00    7.260785e-01   9.589102e-03
  2.118722e+00    7.222896e-01   9.555222e-03
  2.120933e+00    7.173840e-01   9.513881e-03
  2.123143e+00    7.139457e-01   9.482158e-03
  2.125354e+00    7.203377e-01   9.515988e-03
  2.127564e+00    7.066510e-01   9.416463e-03
  2.129775e+00    7.134773e-01   9.453135e-03
  2.131985e+00    7.093941e-01   9.417011e-03
  2.134196e+00    7.108093e-01   9.417831e-03
  2.136406e+00    7.034269e-01   9.360111e-03
  2.138617e+00    7.057366e-01   9.367028e-03
  2.140827e+00    7.028705e-01   9.363993e-03
  2.143037e+00    6.927692e-01   9.341463e-03
  2.145248e+00    7.093328e-01   9.474532e-03
  2.147458e+00    7.124180e-01   9.510336e-03
  2.149669e+00    7.133787e-01   9.528693e-03
  2.151879e+00    7.288640e-01   9.640957e-03
  2.154090e+00    7.005515e-01   9.459171e-03
  2.156300e+00    7.083243e-01   9.518120e-03
  2.158511e+00    7.090390e-01   9.528277e-03
  2.160721e+00    7.125940e-01   9.556994e-03
  2.162932e+00    7.053055e-01   9.511747e-03
  2.165142e+00    7.100279e-01   9.546601e-03
  2.167352e+00    7.056497e-01   9.520040e-03
  2.169563e+00    7.159349e-01   9.591158e-03
  2.171773e+00    7.065328e-01   9.530454e-03
  2.173984e+00    6.984288e-01   9.477041e-03
  2.176194e+00    6.924013e-01   9.437278e-03
  2.178405e+00    6.778391e-01   9.338179e-03
  2.180615e+00    6.835982e-01   9.378455e-03
  2.182826e+00    6.925153e-01   9.440077e-03
  2.185036e+00    6.924655e-01   9.439828e-03
  2.187247e+00    6.924497e-01   9.439630e-03
  2.189457e+00    7.098780e-01   9.557298e-03
  2.191667e+00    6.954675e-01   9.459620e-03
  2.193878e+00    6.950697e-01   9.456337e-03
  2.196088e+00    6.824963e-01   9.369734e-03
  2.198299e+00    6.888610e-01   9.412229e-03
  2.200509e+00    6.841733e-01   9.379102e-03
  2.202720e+00    6.646648e-01   9.243282e-03
  2.204930e+00    6.740271e-01   9.306890e-03
  2.207141e+00    6.909973e-01   9.422218e-03
  2.209351e+00    6.986011e-01   9.472011e-03
  2.211562e+00    6.988919e-01   9.472338e-03
  2.213772e+00    6.892101e-01   9.350515e-03
  2.215982e+00    6.729538e-01   9.195468e-03
  2.218193e+00    6.891949e-01   9.275832e-03
  2.220403e+00    6.793675e-01   9.184807e-03
  2.222614e+00    6.845376e-01   9.198572e-03
  2.224824e+00    6.761986e-01   9.122929e-03
  2.227035e+00    6.829020e-01   9.150501e-03
  2.229245e+00    6.591235e-01   8.972943e-03
  2.231456e+00    6.593042e-01   8.958712e-03
  2.233666e+00    6.809345e-01   9.089259e-03
  2.235877e+00    6.729505e-01   9.021539e-03
  2.238087e+00    6.785269e-01   9.045261e-03
  2.240298e+00    6.820152e-01   9.054597e-03
  2.242508e+00    6.773002e-01   9.008016e-03
  2.244718e+00    6.832877e-01   9.031760e-03
  2.246929e+00    6.702416e-01   8.930705e-03
  2.249139e+00    6.685407e-01   8.906947e-03
  2.251350e+00    6.606793e-01   8.842778e-03
  2.253560e+00    6.613749e-01   8.835924e-03
  2.255771e+00    6.764275e-01   8.924386e-03
  2.257981e+00    6.604606e-01   8.807306e-03
  2.260192e+00    6.564518e-01   8.769491e-03
  2.262402e+00    6.523191e-01   8.731078e-03
  2.264613e+00    6.591818e-01   8.766107e-03
  2.266823e+00    6.507092e-01   8.699271e-03
  2.269033e+00    6.656687e-01   8.788299e-03
  2.271244e+00    6.550772e-01   8.707787e-03
  2.273454e+00    6.545531e-01   8.694084e-03
  2.275665e+00    6.395948e-01   8.584050e-03
  2.277875e+00    6.565490e-01   8.687162e-03
  2.280086e+00    6.728156e-01   8.783994e-03
  2.282296e+00    6.802714e-01   8.822983e-03
  2.284507e+00    6.621531e-01   8.694537e-03
  2.286717e+00    6.720018e-01   8.749388e-03
  2.288928e+00    6.614829e-01   8.670752e-03
  2.291138e+00    6.370497e-01   8.499830e-03
  2.293348e+00    6.456116e-01   8.547264e-03
  2.295559e+00    6.568776e-01   8.612216e-03
  2.297769e+00    6.469752e-01   8.537854e-03
  2.299980e+00    6.458118e-01   8.520897e-03
  2.302190e+00    6.481009e-01   8.526894e-03
  2.304401e+00    6.355861e-01   8.434968e-03
  2.306611e+00    6.346017e-01   8.419351e-03
  2.308822e+00    6.505774e-01   8.516286e-03
  2.311032e+00    6.478790e-01   8.492170e-03
  2.313243e+00    6.692518e-01   8.624746e-03
  2.315453e+00    6.502710e-01   8.493981e-03
  2.317663e+00    6.584122e-01   8.537791e-03
  2.319874e+00    6.392853e-01   8.404184e-03
  2.322084e+00    6.510518e-01   8.472160e-03
  2.324295e+00    6.522818e-01   8.471900e-03
  2.326505e+00    6.388088e-01   8.374942e-03
  2.328716e+00    6.521940e-01   8.453605e-03
  2.330926e+00    6.525719e-01   8.447208e-03
  2.333137e+00    6.510171e-01   8.428700e-03
  2.335347e+00    6.504392e-01   8.416024e-03
  2.337558e+00    6.419704e-01   8.352822e-03
  2.339768e+00    6.191688e-01   8.194710e-03
  2.341979e+00    6.274616e-01   8.241097e-03
  2.344189e+00    6.395662e-01   8.311811e-03
  2.346399e+00    6.411020e-01   8.313255e-03
  2.348610e+00    6.361006e-01   8.272315e-03
  2.350820e+00    6.231308e-01   8.179436e-03
  2.353031e+00    6.257716e-01   8.188515e-03
  2.355241e+00    6.248639e-01   8.174577e-03
  2.357452e+00    6.317592e-01   8.211128e-03
  2.359662e+00    6.347317e-01   8.222193e-03
  2.361873e+00    6.328736e-01   8.201903e-03
  2.364083e+00    6.269996e-01   8.155759e-03
  2.366294e+00    6.503623e-01   8.298071e-03
  2.368504e+00    6.396214e-01   8.221115e-03
  2.370714e+00    6.251052e-01   8.119242e-03
  2.372925e+00    6.103802e-01   8.015075e-03
  2.375135e+00    6.293052e-01   8.130277e-03
  2.377346e+00    6.311327e-01   8.134111e-03
  2.379556e+00    6.258864e-01   8.092298e-03
  2.381767e+00    6.275268e-01   8.094993e-03
  2.383977e+00    6.345318e-01   8.132041e-03
  2.386188e+00    6.156270e-01   8.002095e-03
  2.388398e+00    6.106521e-01   7.961778e-03
  2.390609e+00    6.197386e-01   8.013055e-03
  2.392819e+00    6.232179e-01   8.027709e-03
  2.395029e+00    6.179308e-01   7.985900e-03
  2.397240e+00    6.169104e-01   7.971422e-03
  2.399450e+00    6.208799e-01   7.989179e-03
  2.401661e+00    6.102539e-01   7.912843e-03
  2.403871e+00    6.248674e-01   7.999183e-03
  2.406082e+00    6.152930e-01   7.930198e-03
  2.408292e+00    6.157870e-01   7.925547e-03
  2.410503e+00    6.112732e-01   7.888943e-03
  2.412713e+00    6.129738e-01   7.892062e-03
  2.414924e+00    6.235409e-01   7.952220e-03
  2.417134e+00    6.048917e-01   7.824759e-03
  2.419344e+00    6.164849e-01   7.891891e-03
  2.421555e+00    6.220314e-01   7.919691e-03
  2.423765e+00    5.900270e-01   7.705929e-03
  2.425976e+00    5.827988e-01   7.650854e-03
  2.428186e+00    6.123732e-01   7.835298e-03
  2.430397e+00    5.958920e-01   7.721660e-03
  2.432607e+00    6.009796e-01   7.747248e-03
  2.434818e+00    6.011350e-01   7.740674e-03
  2.437028e+00    5.916963e-01   7.672534e-03
  2.439239e+00    5.801547e-01   7.589754e-03
  2.441449e+00    5.926266e-01   7.663704e-03
  2.443659e+00    5.897650e-01   7.637845e-03
  2.445870e+00    5.859337e-01   7.625192e-03
  2.448080e+00    5.928386e-01   7.705097e-03
  2.450291e+00    5.859358e-01   7.676843e-03
  2.452501e+00    5.836971e-01   7.673391e-03
  2.454712e+00    5.792976e-01   7.652897e-03
  2.456922e+00    5.897934e-01   7.728635e-03
  2.459133e+00    5.743590e-01   7.632317e-03
  2.461343e+00    5.762938e-01   7.649541e-03
  2.463554e+00    5.749685e-01   7.644236e-03
  2.465764e+00    5.728840e-01   7.633548e-03
  2.467975e+00    5.655070e-01   7.586520e-03
  2.470185e+00    5.600801e-01   7.552308e-03
  2.472395e+00    5.520843e-01   7.499410e-03
  2.474606e+00    5.525355e-01   7.504026e-03
  2.476816e+00    5.551372e-01   7.522420e-03
  2.479027e+00    5.453570e-01   7.456707e-03
  2.481237e+00    5.439932e-01   7.447646e-03
  2.483448e+00    5.609444e-01   7.563101e-03
  2.485658e+00    5.351537e-01   7.387063e-03
  2.487869e+00    5.456737e-01   7.459336e-03
  2.490079e+00    5.354058e-01   7.388319e-03
  2.492290e+00    5.339281e-01   7.377681e-03
  2.494500e+00    5.425417e-01   7.436199e-03
  2.496710e+00    5.408375e-01   7.423841e-03
  2.498921e+00    5.497259e-01   7.483566e-03
  2.501131e+00    5.413392e-01   7.425332e-03
  2.503342e+00    5.317297e-01   7.357859e-03
  2.505552e+00    5.319701e-01   7.358375e-03
  2.507763e+00    5.386528e-01   7.403043e-03
  2.509973e+00    5.252728e-01   7.309124e-03
  2.512184e+00    5.224377e-01   7.287765e-03
  2.514394e+00    5.185746e-01   7.251481e-03
  2.516605e+00    5.205172e-01   7.218260e-03
  2.518815e+00    5.197822e-01   7.185007e-03
  2.521025e+00    5.193748e-01   7.161333e-03
  2.523236e+00    5.329494e-01   7.236223e-03
  2.525446e+00    5.338662e-01   7.226708e-03
  2.527657e+00    5.253423e-01   7.154189e-03
  2.529867e+00    5.095397e-01   7.031801e-03
  2.532078e+00    5.192344e-01   7.083403e-03
  2.534288e+00    5.188201e-01   7.066786e-03
  2.536499e+00    5.275930e-01   7.114298e-03
  2.538709e+00    5.353945e-01   7.155611e-03
  2.540920e+00    5.271721e-01   7.089765e-03
  2.543130e+00    5.383450e-01   7.154000e-03
  2.545340e+00    5.132431e-01   6.975281e-03
  2.547551e+00    5.057964e-01   6.914683e-03
  2.549761e+00    5.113186e-01   6.942860e-03
  2.551972e+00    5.266041e-01   7.036466e-03
  2.554182e+00    5.123726e-01   6.931654e-03
  2.556393e+00    5.171657e-01   6.954923e-03
  2.558603e+00    5.190057e-01   6.958232e-03
  2.560814e+00    5.225459e-01   6.973190e-03
  2.563024e+00    5.110143e-01   6.887322e-03
  2.565235e+00    5.165759e-01   6.915205e-03
  2.567445e+00    5.073255e-01   6.843566e-03
  2.569656e+00    5.171587e-01   6.899819e-03
  2.571866e+00    5.161123e-01   6.883518e-03
  2.574076e+00    5.173260e-01   6.882320e-03
  2.576287e+00    5.167882e-01   6.870413e-03
  2.578497e+00    5.116626e-01   6.828445e-03
  2.580708e+00    5.129607e-01   6.829041e-03
  2.582918e+00    5.043501e-01   6.763794e-03
  2.585129e+00    5.008931e-01   6.732936e-03
  2.587339e+00    5.083506e-01   6.775214e-03
  2.589550e+00    5.002913e-01   6.713855e-03
  2.591760e+00    5.151218e-01   6.804856e-03
  2.593971e+00    5.166696e-01   6.807539e-03
  2.596181e+00    5.003220e-01   6.692816e-03
  2.598391e+00    5.027180e-01   6.703669e-03
  2.600602e+00    4.966738e-01   6.657393e-03
  2.602812e+00    5.134302e-01   6.761219e-03
  2.605023e+00    5.093263e-01   6.726963e-03
  2.607233e+00    4.975163e-01   6.641455e-03
  2.609444e+00    5.015779e-01   6.661312e-03
  2.611654e+00    5.044596e-01   6.673119e-03
  2.613865e+00    5.042073e-01   6.664432e-03
  2.616075e+00    5.015326e-01   6.639620e-03
  2.618286e+00    5.080805e-01   6.675815e-03
  2.620496e+00    4.952193e-01   6.584144e-03
  2.622706e+00    4.914962e-01   6.553691e-03
  2.624917e+00    5.078124e-01   6.655699e-03
  2.627127e+00    5.036314e-01   6.622518e-03
  2.629338e+00    5.037100e-01   6.617056e-03
  2.631548e+00    5.005803e-01   6.590312e-03
  2.633759e+00    4.974300e-01   6.562434e-03
  2.635969e+00    5.083776e-01   6.627503e-03
  2.638180e+00    5.008845e-01   6.571534e-03
  2.640390e+00    4.987357e-01   6.550811e-03
  2.642601e+00    5.014866e-01   6.562187e-03
  2.644811e+00    5.096326e-01   6.608134e-03
  2.647021e+00    5.011293e-01   6.546208e-03
  2.649232e+00    5.054002e-01   6.567270e-03
  2.651442e+00    5.046374e-01   6.555784e-03
  2.653653e+00    5.110344e-01   6.590335e-03
  2.655863e+00    5.094368e-01   6.573259e-03
  2.658074e+00    4.979603e-01   6.492196e-03
  2.660284e+00    4.926056e-01   6.450872e-03
  2.662495e+00    4.766679e-01   6.339037e-03
  2.664705e+00    5.043985e-01   6.514195e-03
  2.666916e+00    5.018597e-01   6.491295e-03
  2.669126e+00    4.936171e-01   6.431323e-03
  2.671337e+00    5.028400e-01   6.484492e-03
  2.673547e+00    4.923124e-01   6.409901e-03
  2.675757e+00    5.011742e-01   6.460818e-03
  2.677968e+00    5.082521e-01   6.499702e-03
  2.680178e+00    4.926070e-01   6.392466e-03
  2.682389e+00    4.977695e-01   6.419455e-03
  2.684599e+00    4.916435e-01   6.373656e-03
  2.686810e+00    4.931906e-01   6.377053e-03
  2.689020e+00    4.914833e-01   6.359730e-03
  2.691231e+00    4.991363e-01   6.402703e-03
  2.693441e+00    4.938907e-01   6.362807e-03
  2.695652e+00    4.954510e-01   6.366299e-03
  2.697862e+00    4.932527e-01   6.345792e-03
  2.700072e+00    4.944673e-01   6.347495e-03
  2.702283e+00    4.918579e-01   6.324489e-03
  2.704493e+00    4.822986e-01   6.256494e-03
  2.706704e+00    4.830532e-01   6.255005e-03
  2.708914e+00    4.846142e-01   6.259152e-03
  2.711125e+00    4.832118e-01   6.243893e-03
  2.713335e+00    4.859798e-01   6.255645e-03
  2.715546e+00    4.847065e-01   6.241019e-03
  2.717756e+00    4.755016e-01   6.175648e-03
  2.719967e+00    4.861806e-01   6.238388e-03
  2.722177e+00    4.887351e-01   6.248632e-03
  2.724387e+00    4.696543e-01   6.119417e-03
  2.726598e+00    4.763547e-01   6.156922e-03
  2.728808e+00    4.890336e-01   6.232133e-03
  2.731019e+00    4.845071e-01   6.197132e-03
  2.733229e+00    4.712483e-01   6.105987e-03
  2.735440e+00    4.879169e-01   6.206769e-03
  2.737650e+00    4.755972e-01   6.121940e-03
  2.739861e+00    4.723442e-01   6.094956e-03
  2.742071e+00    4.843268e-01   6.166033e-03
  2.744282e+00    4.856382e-01   6.168105e-03
  2.746492e+00    4.814806e-01   6.135633e-03
  2.748702e+00    4.737452e-01   6.080283e-03
  2.750913e+00    4.753023e-01   6.084513e-03
  2.753123e+00    4.829437e-01   6.127093e-03
  2.755334e+00    4.855609e-01   6.137575e-03
  2.757544e+00    4.871060e-01   6.141556e-03
  2.759755e+00    4.898562e-01   6.152931e-03
  2.761965e+00    4.746622e-01   6.050810e-03
  2.764176e+00    4.807335e-01   6.083382e-03
  2.766386e+00    4.827695e-01   6.090453e-03
  2.768597e+00    4.737563e-01   6.027511e-03
  2.770807e+00    4.687477e-01   5.989735e-03
  2.773017e+00    4.693360e-01   5.987582e-03
  2.775228e+00    4.843676e-01   6.076904e-03
  2.777438e+00    4.784835e-01   6.034073e-03
  2.779649e+00    4.746730e-01   6.004120e-03
  2.781859e+00    4.794246e-01   6.028328e-03
  2.784070e+00    4.812071e-01   6.033630e-03
  2.786280e+00    4.869611e-01   6.063781e-03
  2.788491e+00    4.811909e-01   6.021881e-03
  2.790701e+00    4.767159e-01   5.988172e-03
  2.792912e+00    4.748741e-01   5.970627e-03
  2.795122e+00    4.774255e-01   5.980919e-03
  2.797333e+00    4.841311e-01   6.017142e-03
  2.799543e+00    4.828909e-01   6.003537e-03
  2.801753e+00    4.849396e-01   6.010352e-03
  2.803964e+00    4.748735e-01   5.941980e-03
  2.806174e+00    4.662221e-01   5.881515e-03
  2.808385e+00    4.688781e-01   5.891481e-03
  2.810595e+00    4.776254e-01   5.939304e-03
  2.812806e+00    4.716881e-01   5.895685e-03
  2.815016e+00    4.719072e-01   5.892314e-03
  2.817227e+00    4.786484e-01   5.960303e-03
  2.819437e+00    4.748110e-01   5.947470e-03
  2.821648e+00    4.612238e-01   5.864021e-03
  2.823858e+00    4.553843e-01   5.832001e-03
  2.826068e+00    4.699946e-01   5.929775e-03
  2.828279e+00    4.615578e-01   5.880321e-03
  2.830489e+00    4.679180e-01   5.924008e-03
  2.832700e+00    4.657977e-01   5.913111e-03
  2.834910e+00    4.607663e-01   5.883135e-03
  2.837121e+00    4.829188e-01   6.024610e-03
  2.839331e+00    4.792463e-01   6.002932e-03
  2.841542e+00    4.674599e-01   5.929646e-03
  2.843752e+00    4.757264e-01   5.982636e-03
  2.845963e+00    4.746057e-01   5.975996e-03
  2.848173e+00    4.644520e-01   5.911806e-03
  2.850383e+00    4.725886e-01   5.963645e-03
  2.852594e+00    4.735975e-01   5.969951e-03
  2.854804e+00    4.613380e-01   5.891664e-03
  2.857015e+00    4.765667e-01   5.987670e-03
  2.859225e+00    4.777073e-01   5.994595e-03
  2.861436e+00    4.578365e-01   5.867942e-03
  2.863646e+00    4.710169e-01   5.951834e-03
  2.865857e+00    4.741296e-01   5.971827e-03
  2.868067e+00    4.691718e-01   5.940728e-03
  2.870278e+00    4.640477e-01   5.907860e-03
  2.872488e+00    4.618664e-01   5.892796e-03
  2.874698e+00    4.665289e-01   5.921414e-03
  2.876909e+00    4.629408e-01   5.897269e-03
  2.879119e+00    4.694955e-01   5.937240e-03
  2.881330e+00    4.688209e-01   5.931503e-03
  2.883540e+00    4.485987e-01   5.800794e-03
  2.885751e+00    4.538382e-01   5.832937e-03
  2.887961e+00    4.605576e-01   5.874090e-03
  2.890172e+00    4.529970e-01   5.824067e-03
  2.892382e+00    4.563534e-01   5.843820e-03
  2.894593e+00    4.602473e-01   5.866881e-03
  2.896803e+00    4.542242e-01   5.826402e-03
  2.899014e+00    4.633847e-01   5.882930e-03
  2.901224e+00    4.564909e-01   5.837041e-03
  2.903434e+00    4.442438e-01   5.756291e-03
  2.905645e+00    4.574164e-01   5.838790e-03
  2.907855e+00    4.455006e-01   5.760169e-03
  2.910066e+00    4.424199e-01   5.738172e-03
  2.912276e+00    4.613330e-01   5.857412e-03
  2.914487e+00    4.527414e-01   5.800189e-03
  2.916697e+00    4.522206e-01   5.794632e-03
  2.918908e+00    4.563771e-01   5.819187e-03
  2.921118e+00    4.604912e-01   5.842684e-03
  2.923329e+00    4.555168e-01   5.808714e-03
  2.925539e+00    4.537198e-01   5.794985e-03
  2.927749e+00    4.594475e-01   5.829122e-03
  2.929960e+00    4.647074e-01   5.859583e-03
  2.932170e+00    4.677638e-01   5.876485e-03
  2.934381e+00    4.574956e-01   5.809193e-03
  2.936591e+00    4.509996e-01   5.765218e-03
  2.938802e+00    4.537117e-01   5.779827e-03
  2.941012e+00    4.619524e-01   5.829734e-03
  2.943223e+00    4.518102e-01   5.762702e-03
  2.945433e+00    4.463522e-01   5.724087e-03
  2.947644e+00    4.636325e-01   5.829655e-03
  2.949854e+00    4.638097e-01   5.826476e-03
  2.952064e+00    4.489233e-01   5.728017e-03
  2.954275e+00    4.515543e-01   5.740378e-03
  2.956485e+00    4.566801e-01   5.768665e-03
  2.958696e+00    4.680361e-01   5.835515e-03
  2.960906e+00    4.612350e-01   5.788761e-03
  2.963117e+00    4.595325e-01   5.773556e-03
  2.965327e+00    4.370892e-01   5.626977e-03
  2.967538e+00    4.478839e-01   5.693131e-03
  2.969748e+00    4.497861e-01   5.702425e-03
  2.971959e+00    4.464290e-01   5.677983e-03
  2.974169e+00    4.491017e-01   5.692389e-03
  2.976379e+00    4.434217e-01   5.653381e-03
  2.978590e+00    4.658974e-01   5.791717e-03
  2.980800e+00    4.574664e-01   5.736290e-03
  2.983011e+00    4.597268e-01   5.747596e-03
  2.985221e+00    4.521658e-01   5.697014e-03
  2.987432e+00    4.532124e-01   5.700478e-03
  2.989642e+00    4.679028e-01   5.789464e-03
  2.991853e+00    4.690686e-01   5.793349e-03
  2.994063e+00    4.558779e-01   5.708395e-03
  2.996274e+00    4.539653e-01   5.693231e-03
  2.998484e+00    4.587544e-01   5.720448e-03
  3.000694e+00    4.618213e-01   5.736069e-03
  3.002905e+00    4.544953e-01   5.687445e-03
  3.005115e+00    4.659324e-01   5.755536e-03
  3.007326e+00    4.447881e-01   5.620319e-03
  3.009536e+00    4.552172e-01   5.682545e-03
  3.011747e+00    4.554721e-01   5.681221e-03
  3.013957e+00    4.541691e-01   5.669905e-03
  3.016168e+00    4.586819e-01   5.694723e-03
  3.018378e+00    4.565693e-01   5.678546e-03
  3.020589e+00    4.519323e-01   5.646422e-03
  3.022799e+00    4.553176e-01   5.664365e-03
  3.025010e+00    4.623192e-01   5.704459e-03
  3.027220e+00    4.702929e-01   5.750284e-03
  3.029430e+00    4.544975e-01   5.649652e-03
  3.031641e+00    4.486488e-01   5.610029e-03
  3.033851e+00    4.553688e-01   5.648385e-03
  3.036062e+00    4.535640e-01   5.634371e-03
  3.038272e+00    4.623016e-01   5.684772e-03
  3.040483e+00    4.533762e-01   5.626411e-03
  3.042693e+00    4.478087e-01   5.588498e-03
  3.044904e+00    4.503088e-01   5.600056e-03
  3.047114e+00    4.515003e-01   5.602652e-03
  3.049325e+00    4.421814e-01   5.540181e-03
  3.051535e+00    4.363697e-01   5.499325e-03
  3.053745e+00    4.477494e-01   5.565830e-03
  3.055956e+00    4.580535e-01   5.624906e-03
  3.058166e+00    4.450223e-01   5.540080e-03
  3.060377e+00    4.626882e-01   5.644125e-03
  3.062587e+00    4.708604e-01   5.689036e-03
  3.064798e+00    4.445548e-01   5.523615e-03
  3.067008e+00    4.457912e-01   5.526563e-03
  3.069219e+00    4.471414e-01   5.530422e-03
  3.071429e+00    4.565091e-01   5.584524e-03
  3.073640e+00    4.485172e-01   5.532112e-03
  3.075850e+00    4.365731e-01   5.454409e-03
  3.078060e+00    4.580558e-01   5.583840e-03
  3.080271e+00    4.592432e-01   5.587584e-03
  3.082481e+00    4.544201e-01   5.554690e-03
  3.084692e+00    4.492028e-01   5.519339e-03
  3.086902e+00    4.474593e-01   5.505362e-03
  3.089113e+00    4.474692e-01   5.501859e-03
  3.091323e+00    4.526655e-01   5.530326e-03
  3.093534e+00    4.514498e-01   5.519494e-03
  3.095744e+00    4.503973e-01   5.509695e-03
  3.097955e+00    4.443429e-01   5.468976e-03
  3.100165e+00    4.543740e-01   5.527022e-03
  3.102375e+00    4.423058e-01   5.449722e-03
  3.104586e+00    4.454843e-01   5.465777e-03
  3.106796e+00    4.499045e-01   5.489299e-03
  3.109007e+00    4.410499e-01   5.431818e-03
  3.111217e+00    4.353801e-01   5.393140e-03
  3.113428e+00    4.377601e-01   5.404471e-03
  3.115638e+00    4.414859e-01   5.424202e-03
  3.117849e+00    4.398879e-01   5.410681e-03
  3.120059e+00    4.346635e-01   5.375018e-03
  3.122270e+00    4.493364e-01   5.461730e-03
  3.124480e+00    4.458122e-01   5.436570e-03
  3.126691e+00    4.510761e-01   5.464987e-03
  3.128901e+00    4.577226e-01   5.501933e-03
  3.131111e+00    4.438586e-01   5.414136e-03
  3.133322e+00    4.430450e-01   5.405737e-03
  3.135532e+00    4.418539e-01   5.395056e-03
  3.137743e+00    4.416113e-01   5.390107e-03
  3.139953e+00    4.473027e-01   5.421035e-03
  3.142164e+00    4.370770e-01   5.370651e-03
  3.144374e+00    4.471202e-01   5.460555e-03
  3.146585e+00    4.532943e-01   5.512859e-03
  3.148795e+00    4.514360e-01   5.512458e-03
  3.151006e+00    4.347737e-01   5.418246e-03
  3.153216e+00    4.432415e-01   5.477874e-03
  3.155426e+00    4.550463e-01   5.556773e-03
  3.157637e+00    4.441488e-01   5.495376e-03
  3.159847e+00    4.453063e-01   5.507434e-03
  3.162058e+00    4.455663e-01   5.513481e-03
  3.164268e+00    4.412748e-01   5.490974e-03
  3.166479e+00    4.224637e-01   5.376216e-03
  3.168689e+00    4.337692e-01   5.451025e-03
  3.170900e+00    4.271822e-01   5.412605e-03
  3.173110e+00    4.245649e-01   5.398819e-03
  3.175321e+00    4.438671e-01   5.522685e-03
  3.177531e+00    4.433683e-01   5.522353e-03
  3.179741e+00    4.308514e-01   5.445899e-03
  3.181952e+00    4.236468e-01   5.402237e-03
  3.184162e+00    4.355283e-01   5.479660e-03
  3.186373e+00    4.404864e-01   5.512357e-03
  3.188583e+00    4.428718e-01   5.529083e-03
  3.190794e+00    4.300974e-01   5.450497e-03
  3.193004e+00    4.244282e-01   5.415685e-03
  3.195215e+00    4.261328e-01   5.428016e-03
  3.197425e+00    4.307884e-01   5.458795e-03
  3.199636e+00    4.215066e-01   5.398929e-03
  3.201846e+00    4.134860e-01   5.346701e-03
  3.204056e+00    4.301175e-01   5.454061e-03
  3.206267e+00    4.370777e-01   5.498871e-03
  3.208477e+00    4.386581e-01   5.509738e-03
  3.210688e+00    4.315594e-01   5.465798e-03
  3.212898e+00    4.381274e-01   5.507834e-03
  3.215109e+00    4.341470e-01   5.483509e-03
  3.217319e+00    4.375781e-01   5.505763e-03
  3.219530e+00    4.275017e-01   5.442414e-03
  3.221740e+00    4.268698e-01   5.438925e-03
  3.223951e+00    4.315649e-01   5.469228e-03
  3.226161e+00    4.246228e-01   5.425268e-03
  3.228372e+00    4.137513e-01   5.355866e-03
  3.230582e+00    4.313050e-01   5.468441e-03
  3.232792e+00    4.252998e-01   5.430470e-03
  3.235003e+00    4.180387e-01   5.384145e-03
  3.237213e+00    4.232625e-01   5.417795e-03
  3.239424e+00    4.250120e-01   5.428977e-03
  3.241634e+00    4.229267e-01   5.415761e-03
  3.243845e+00    4.357245e-01   5.497154e-03
  3.246055e+00    4.328793e-01   5.478917e-03
  3.248266e+00    4.225019e-01   5.413042e-03
  3.250476e+00    4.341781e-01   5.487007e-03
  3.252687e+00    4.375058e-01   5.507944e-03
  3.254897e+00    4.213114e-01   5.404908e-03
  3.257107e+00    4.379788e-01   5.510459e-03
  3.259318e+00    4.323294e-01   5.474581e-03
  3.261528e+00    4.264785e-01   5.437267e-03
  3.263739e+00    4.262926e-01   5.435530e-03
  3.265949e+00    4.271197e-01   5.440665e-03
  3.268160e+00    4.291530e-01   5.453192e-03
  3.270370e+00    4.186261e-01   5.385386e-03
  3.272581e+00    4.282363e-01   5.446564e-03
  3.274791e+00    4.137835e-01   5.353360e-03
  3.277002e+00    4.200939e-01   5.393443e-03
  3.279212e+00    4.333406e-01   5.477459e-03
  3.281422e+00    4.251535e-01   5.424874e-03
  3.283633e+00    4.297049e-01   5.453153e-03
  3.285843e+00    4.255430e-01   5.426354e-03
  3.288054e+00    4.249144e-01   5.421399e-03
  3.290264e+00    4.175146e-01   5.373683e-03
  3.292475e+00    4.312712e-01   5.460626e-03
  3.294685e+00    4.369311e-01   5.495712e-03
  3.296896e+00    4.382746e-01   5.503405e-03
  3.299106e+00    4.156858e-01   5.359149e-03
  3.301317e+00    4.191581e-01   5.380437e-03
  3.303527e+00    4.288439e-01   5.441786e-03
  3.305737e+00    4.225570e-01   5.400731e-03
  3.307948e+00    4.231898e-01   5.404064e-03
  3.310158e+00    4.384979e-01   5.500104e-03
  3.312369e+00    4.256056e-01   5.417754e-03
  3.314579e+00    4.222596e-01   5.395496e-03
  3.316790e+00    4.304783e-01   5.447041e-03
  3.319000e+00    4.226923e-01   5.396382e-03
  3.321211e+00    4.253275e-01   5.412548e-03
  3.323421e+00    4.272836e-01   5.423790e-03
  3.325632e+00    4.274021e-01   5.423624e-03
  3.327842e+00    4.254581e-01   5.410393e-03
  3.330052e+00    4.209342e-01   5.380445e-03
  3.332263e+00    4.209084e-01   5.379294e-03
  3.334473e+00    4.134375e-01   5.330424e-03
  3.336684e+00    4.205208e-01   5.374623e-03
  3.338894e+00    4.269314e-01   5.414589e-03
  3.341105e+00    4.225812e-01   5.385731e-03
  3.343315e+00    4.260483e-01   5.406632e-03
  3.345526e+00    4.138018e-01   5.327471e-03
  3.347736e+00    4.138749e-01   5.326537e-03
  3.349947e+00    4.237814e-01   5.388970e-03
  3.352157e+00    4.228353e-01   5.381780e-03
  3.354368e+00    4.250132e-01   5.394305e-03
  3.356578e+00    4.214240e-01   5.370472e-03
  3.358788e+00    4.278328e-01   5.409813e-03
  3.360999e+00    4.154814e-01   5.329899e-03
  3.363209e+00    4.242847e-01   5.385052e-03
  3.365420e+00    4.048087e-01   5.258515e-03
  3.367630e+00    4.222650e-01   5.369659e-03
  3.369841e+00    4.191574e-01   5.348447e-03
  3.372051e+00    4.203326e-01   5.353940e-03
  3.374262e+00    4.157369e-01   5.322176e-03
  3.376472e+00    4.126925e-01   5.300214e-03
  3.378683e+00    4.129631e-01   5.299443e-03
  3.380893e+00    4.113577e-01   5.286820e-03
  3.383103e+00    4.223715e-01   5.354388e-03
  3.385314e+00    4.098917e-01   5.272492e-03
  3.387524e+00    4.133884e-01   5.292198e-03
  3.389735e+00    4.131839e-01   5.288260e-03
  3.391945e+00    4.048814e-01   5.231238e-03
  3.394156e+00    4.103464e-01   5.262184e-03
  3.396366e+00    4.202650e-01   5.321978e-03
  3.398577e+00    4.192372e-01   5.312407e-03
  3.400787e+00    3.900162e-01   5.135518e-03
  3.402998e+00    4.105764e-01   5.307225e-03
  3.405208e+00    4.179268e-01   5.375503e-03
  3.407418e+00    4.084778e-01   5.330316e-03
  3.409629e+00    3.966827e-01   5.266691e-03
  3.411839e+00    4.032304e-01   5.321801e-03
  3.414050e+00    3.996685e-01   5.309269e-03
  3.416260e+00    3.904603e-01   5.257367e-03
  3.418471e+00    3.965402e-01   5.307570e-03
  3.420681e+00    3.843229e-01   5.233575e-03
  3.422892e+00    3.950544e-01   5.314190e-03
  3.425102e+00    3.902871e-01   5.289838e-03
  3.427313e+00    3.890260e-01   5.288499e-03
  3.429523e+00    3.930143e-01   5.322641e-03
  3.431733e+00    3.812004e-01   5.248669e-03
  3.433944e+00    3.800362e-01   5.247080e-03
  3.436154e+00    3.967653e-01   5.367673e-03
  3.438365e+00    4.002039e-01   5.396966e-03
  3.440575e+00    3.917390e-01   5.345596e-03
  3.442786e+00    3.800757e-01   5.271027e-03
  3.444996e+00    3.921160e-01   5.359479e-03
  3.447207e+00    3.818457e-01   5.294173e-03
  3.449417e+00    3.781145e-01   5.309410e-03
  3.451628e+00    3.665773e-01   5.257132e-03
  3.453838e+00    3.671089e-01   5.282091e-03
  3.456049e+00    3.661416e-01   5.298997e-03
  3.458259e+00    3.696390e-01   5.346269e-03
  3.460469e+00    3.684960e-01   5.357846e-03
  3.462680e+00    3.688163e-01   5.379303e-03
  3.464890e+00    3.580065e-01   5.317484e-03
  3.467101e+00    3.695369e-01   5.419920e-03
  3.469311e+00    3.790896e-01   5.506300e-03
  3.471522e+00    3.832473e-01   5.552974e-03
  3.473732e+00    3.974592e-01   5.671340e-03
  3.475943e+00    3.877735e-01   5.617629e-03
  3.478153e+00    4.154551e-01   5.830648e-03
  3.480364e+00    4.257351e-01   5.918097e-03
  3.482574e+00    4.127009e-01   5.842348e-03
  3.484784e+00    4.110485e-01   5.845485e-03
  3.486995e+00    4.193638e-01   5.919478e-03
  3.489205e+00    4.271319e-01   5.988803e-03
  3.491416e+00    4.304569e-01   6.027007e-03
  3.493626e+00    4.476413e-01   6.160962e-03
  3.495837e+00    4.569493e-01   6.239719e-03
  3.498047e+00    4.402044e-01   6.138737e-03
  3.500258e+00    4.631186e-01   6.311215e-03
  3.502468e+00    4.612429e-01   6.313010e-03
  3.504679e+00    4.559560e-01   6.291095e-03
  3.506889e+00    4.766989e-01   6.447216e-03
  3.509099e+00    4.917571e-01   6.562918e-03
  3.511310e+00    4.910285e-01   6.572754e-03
  3.513520e+00    4.835345e-01   6.536870e-03
  3.515731e+00    4.725425e-01   6.476287e-03
  3.517941e+00    4.850448e-01   6.575680e-03
  3.520152e+00    5.193779e-01   6.819100e-03
  3.522362e+00    5.152864e-01   6.806898e-03
  3.524573e+00    5.120970e-01   6.800161e-03
  3.526783e+00    5.094386e-01   6.795823e-03
  3.528994e+00    5.200333e-01   6.878400e-03
  3.531204e+00    5.228326e-01   6.909369e-03
  3.533414e+00    5.186566e-01   6.893696e-03
  3.535625e+00    5.359898e-01   7.020431e-03
  3.537835e+00    5.280100e-01   6.980021e-03
  3.540046e+00    5.407175e-01   7.072496e-03
  3.542256e+00    5.500732e-01   7.141054e-03
  3.544467e+00    5.532308e-01   7.169252e-03
  3.546677e+00    5.537665e-01   7.180459e-03
  3.548888e+00    5.298923e-01   7.031408e-03
  3.551098e+00    5.266740e-01   7.017252e-03
  3.553309e+00    5.336396e-01   7.071640e-03
  3.555519e+00    5.318043e-01   7.070707e-03
  3.557729e+00    5.198911e-01   7.002641e-03
  3.559940e+00    5.328202e-01   7.100651e-03
  3.562150e+00    5.361807e-01   7.134761e-03
  3.564361e+00    5.295283e-01   7.103571e-03
  3.566571e+00    5.473951e-01   7.236400e-03
  3.568782e+00    5.441716e-01   7.229298e-03
  3.570992e+00    5.513490e-01   7.290754e-03
  3.573203e+00    5.595499e-01   7.359247e-03
  3.575413e+00    5.525351e-01   7.326961e-03
  3.577624e+00    5.372567e-01   7.239065e-03
  3.579834e+00    5.414202e-01   7.281009e-03
  3.582045e+00    5.443163e-01   7.314636e-03
  3.584255e+00    5.450435e-01   7.333663e-03
  3.586465e+00    5.406434e-01   7.318014e-03
  3.588676e+00    5.318868e-01   7.272624e-03
  3.590886e+00    5.376256e-01   7.325483e-03
  3.593097e+00    5.422488e-01   7.371522e-03
  3.595307e+00    5.474461e-01   7.420818e-03
  3.597518e+00    5.277067e-01   7.299944e-03
  3.599728e+00    5.366291e-01   7.375484e-03
  3.601939e+00    5.393108e-01   7.408028e-03
  3.604149e+00    5.276889e-01   7.342037e-03
  3.606360e+00    5.403417e-01   7.443768e-03
  3.608570e+00    5.584173e-01   7.581694e-03
  3.610780e+00    5.651121e-01   7.638411e-03
  3.612991e+00    5.519052e-01   7.558786e-03
  3.615201e+00    5.477518e-01   7.540191e-03
  3.617412e+00    5.511476e-01   7.570935e-03
  3.619622e+00    5.554332e-01   7.606323e-03
  3.621833e+00    5.498217e-01   7.574708e-03
  3.624043e+00    5.228020e-01   7.395572e-03
  3.626254e+00    5.545327e-01   7.626599e-03
  3.628464e+00    5.523272e-01   7.622588e-03
  3.630675e+00    5.291235e-01   7.474802e-03
  3.632885e+00    5.369566e-01   7.544413e-03
  3.635095e+00    5.554672e-01   7.688026e-03
  3.637306e+00    5.507485e-01   7.669949e-03
  3.639516e+00    5.318649e-01   7.551781e-03
  3.641727e+00    5.417920e-01   7.636620e-03
  3.643937e+00    5.351827e-01   7.604496e-03
  3.646148e+00    5.198606e-01   7.509252e-03
  3.648358e+00    5.269840e-01   7.575308e-03
  3.650569e+00    5.450897e-01   7.719229e-03
  3.652779e+00    5.492485e-01   7.763649e-03
  3.654990e+00    5.337989e-01   7.668559e-03
  3.657200e+00    5.355268e-01   7.695915e-03
  3.659410e+00    5.267614e-01   7.647560e-03
  3.661621e+00    5.488315e-01   7.821473e-03
  3.663831e+00    5.190578e-01   7.621280e-03
  3.666042e+00    5.342094e-01   7.746926e-03
  3.668252e+00    5.332722e-01   7.755389e-03
  3.670463e+00    5.269802e-01   7.724686e-03
  3.672673e+00    5.129442e-01   7.636257e-03
  3.674884e+00    5.363095e-01   7.823730e-03
  3.677094e+00    5.421739e-01   7.882105e-03
  3.679305e+00    5.282331e-01   7.795604e-03
  3.681515e+00    5.135770e-01   7.702091e-03
  3.683726e+00    5.122184e-01   7.707419e-03
  3.685936e+00    5.363629e-01   7.902775e-03
  3.688146e+00    5.343477e-01   7.903796e-03
  3.690357e+00    5.431839e-01   7.985077e-03
  3.692567e+00    5.109931e-01   7.760745e-03
  3.694778e+00    5.088264e-01   7.759992e-03
  3.696988e+00    5.242763e-01   7.892922e-03
  3.699199e+00    5.257894e-01   7.920515e-03
  3.701409e+00    5.322574e-01   7.985617e-03
  3.703620e+00    5.103087e-01   7.835275e-03
  3.705830e+00    5.292318e-01   7.995699e-03
  3.708041e+00    5.226204e-01   7.962199e-03
  3.710251e+00    5.218148e-01   7.972732e-03
  3.712461e+00    5.327138e-01   8.072460e-03
  3.714672e+00    5.222321e-01   8.009423e-03
  3.716882e+00    5.189244e-01   8.000642e-03
  3.719093e+00    5.321332e-01   8.119150e-03
  3.721303e+00    5.453169e-01   8.236530e-03
  3.723514e+00    5.308494e-01   8.144002e-03
  3.725724e+00    5.139432e-01   8.030323e-03
  3.727935e+00    5.366380e-01   8.223472e-03
  3.730145e+00    5.236205e-01   8.140617e-03
  3.732356e+00    5.299793e-01   8.207581e-03
  3.734566e+00    5.539906e-01   8.409687e-03
  3.736776e+00    5.266734e-01   8.217708e-03
  3.738987e+00    5.331817e-01   8.286322e-03
  3.741197e+00    5.228953e-01   8.224260e-03
  3.743408e+00    5.187355e-01   8.209565e-03
  3.745618e+00    4.992628e-01   8.072098e-03
  3.747829e+00    5.023601e-01   8.114987e-03
  3.750039e+00    5.198017e-01   8.273211e-03
  3.752250e+00    4.974313e-01   8.111471e-03
  3.754460e+00    4.917541e-01   8.083224e-03
  3.756671e+00    5.273668e-01   8.389918e-03
  3.758881e+00    5.177975e-01   8.332301e-03
  3.761091e+00    5.079999e-01   8.272205e-03
  3.763302e+00    5.145386e-01   8.344484e-03
  3.765512e+00    4.976600e-01   8.225544e-03
  3.767723e+00    5.133030e-01   8.373266e-03
  3.769933e+00    5.210600e-01   8.455878e-03
  3.772144e+00    5.116158e-01   8.398674e-03
  3.774354e+00    4.958458e-01   8.287826e-03
  3.776565e+00    4.948086e-01   8.298771e-03
  3.778775e+00    5.199129e-01   8.526963e-03
  3.780986e+00    5.027165e-01   8.405055e-03
  3.783196e+00    5.163282e-01   8.538527e-03
  3.785407e+00    5.193020e-01   8.583916e-03
  3.787617e+00    5.009869e-01   8.451880e-03
  3.789827e+00    5.134928e-01   8.577419e-03
  3.792038e+00    5.149473e-01   8.610726e-03
  3.794248e+00    5.102074e-01   8.592335e-03
  3.796459e+00    5.124672e-01   8.632935e-03
  3.798669e+00    4.981622e-01   8.532942e-03
  3.800880e+00    4.964609e-01   8.539679e-03
  3.803090e+00    5.027887e-01   8.615782e-03
  3.805301e+00    5.278639e-01   8.850777e-03
  3.807511e+00    5.209129e-01   8.814713e-03
  3.809722e+00    5.155360e-01   8.791704e-03
  3.811932e+00    4.852548e-01   8.551529e-03
  3.814142e+00    4.986807e-01   8.691851e-03
  3.816353e+00    5.064454e-01   8.782266e-03
  3.818563e+00    4.984399e-01   8.735700e-03
  3.820774e+00    5.013337e-01   8.784182e-03
  3.822984e+00    4.969255e-01   8.768908e-03
  3.825195e+00    5.162919e-01   8.962264e-03
  3.827405e+00    5.149456e-01   8.974881e-03
  3.829616e+00    4.862905e-01   8.745401e-03
  3.831826e+00    5.178901e-01   9.049704e-03
  3.834037e+00    4.978441e-01   8.897401e-03
  3.836247e+00    5.011063e-01   8.951247e-03
  3.838457e+00    4.866802e-01   8.846292e-03
  3.840668e+00    4.993536e-01   8.985927e-03
  3.842878e+00    5.151815e-01   9.153264e-03
  3.845089e+00    5.040333e-01   9.079537e-03
  3.847299e+00    4.886139e-01   8.965094e-03
  3.849510e+00    5.017796e-01   9.111160e-03
  3.851720e+00    5.013896e-01   9.129155e-03
  3.853931e+00    5.143565e-01   9.265790e-03
  3.856141e+00    5.105864e-01   9.251117e-03
  3.858352e+00    5.108602e-01   9.273150e-03
  3.860562e+00    5.019084e-01   9.211061e-03
  3.862772e+00    4.820591e-01   9.046378e-03
  3.864983e+00    4.964783e-01   9.200387e-03
  3.867193e+00    5.104242e-01   9.348863e-03
  3.869404e+00    4.867926e-01   9.149552e-03
  3.871614e+00    5.140095e-01   9.422194e-03
  3.873825e+00    5.051141e-01   9.360969e-03
  3.876035e+00    4.702235e-01   9.051949e-03
  3.878246e+00    4.988371e-01   9.349132e-03
  3.880456e+00    5.151300e-01   9.530314e-03
  3.882667e+00    4.971422e-01   9.391928e-03
  3.884877e+00    5.060586e-01   9.505929e-03
  3.887087e+00    5.101219e-01   9.574568e-03
  3.889298e+00    4.949235e-01   9.461253e-03
  3.891508e+00    5.065746e-01   9.603032e-03
  3.893719e+00    4.968453e-01   9.541526e-03
  3.895929e+00    4.961559e-01   9.566557e-03
  3.898140e+00    5.205590e-01   9.831578e-03
  3.900350e+00    5.112499e-01   9.776169e-03
  3.902561e+00    4.954513e-01   9.656427e-03
  3.904771e+00    4.966474e-01   9.701048e-03
  3.906982e+00    5.181810e-01   9.943366e-03
  3.909192e+00    5.041249e-01   9.841506e-03
  3.911403e+00    5.005063e-01   9.840522e-03
  3.913613e+00    4.850132e-01   9.721220e-03
  3.915823e+00    4.683897e-01   9.587174e-03
  3.918034e+00    4.975781e-01   9.916979e-03
  3.920244e+00    5.139915e-01   1.011591e-02
  3.922455e+00    5.018759e-01   1.003253e-02
  3.924665e+00    5.135705e-01   1.018617e-02
  3.926876e+00    4.779901e-01   9.863737e-03
  3.929086e+00    4.960391e-01   1.008579e-02
  3.931297e+00    4.960926e-01   1.012155e-02
  3.933507e+00    5.165603e-01   1.035799e-02
  3.935718e+00    4.798982e-01   1.001216e-02
  3.937928e+00    4.865120e-01   1.011037e-02
  3.940138e+00    4.660000e-01   9.923641e-03
  3.942349e+00    4.944101e-01   1.025171e-02
  3.944559e+00    4.937967e-01   1.027555e-02
  3.946770e+00    4.920784e-01   1.028804e-02
  3.948980e+00    4.671499e-01   1.005416e-02
  3.951191e+00    4.811524e-01   1.023431e-02
  3.953401e+00    5.002162e-01   1.046695e-02
  3.955612e+00    4.963361e-01   1.045823e-02
  3.957822e+00    5.186518e-01   1.072355e-02
  3.960033e+00    4.932135e-01   1.049012e-02
  3.962243e+00    5.126810e-01   1.072876e-02
  3.964453e+00    5.148770e-01   1.078597e-02
  3.966664e+00    4.954231e-01   1.061384e-02
  3.968874e+00    5.147475e-01   1.084822e-02
  3.971085e+00    4.972327e-01   1.068418e-02
  3.973295e+00    4.978097e-01   1.071220e-02
  3.975506e+00    4.666907e-01   1.039309e-02
  3.977716e+00    5.131748e-01   1.092095e-02
  3.979927e+00    4.744426e-01   1.052270e-02
  3.982137e+00    5.153102e-01   1.098952e-02
  3.984348e+00    4.998246e-01   1.084592e-02
  3.986558e+00    5.217488e-01   1.110446e-02
  3.988768e+00    5.176560e-01   1.108467e-02
  3.990979e+00    5.142414e-01   1.107134e-02
  3.993189e+00    5.312172e-01   1.127683e-02
  3.995400e+00    5.111391e-01   1.108584e-02
  3.997610e+00    4.836953e-01   1.081388e-02
  3.999821e+00    4.936403e-01   1.096229e-02
  4.002031e+00    5.162746e-01   1.125045e-02
  4.004242e+00    4.778984e-01   1.086252e-02
  4.006452e+00    4.754211e-01   1.087325e-02
  4.008663e+00    4.920079e-01   1.110154e-02
  4.010873e+00    5.119293e-01   1.136517e-02
  4.013084e+00    5.082950e-01   1.136678e-02
  4.015294e+00    4.937516e-01   1.124434e-02
  4.017504e+00    4.830405e-01   1.116344e-02
  4.019715e+00    5.168398e-01   1.159139e-02
  4.021925e+00    4.788556e-01   1.120008e-02
  4.024136e+00    4.866134e-01   1.133413e-02
  4.026346e+00    4.727548e-01   1.121534e-02
  4.028557e+00    4.561701e-01   1.105974e-02
  4.030767e+00    5.153056e-01   1.180191e-02
  4.032978e+00    5.063608e-01   1.174639e-02
  4.035188e+00    4.990122e-01   1.170789e-02
  4.037399e+00    4.911384e-01   1.166302e-02
  4.039609e+00    5.021035e-01   1.184111e-02
  4.041819e+00    4.848316e-01   1.168456e-02
  4.044030e+00    4.626514e-01   1.146294e-02
  4.046240e+00    4.909431e-01   1.185843e-02
  4.048451e+00    4.938018e-01   1.194456e-02
  4.050661e+00    4.880237e-01   1.192608e-02
  4.052872e+00    4.802199e-01   1.188296e-02
  4.055082e+00    4.850857e-01   1.199672e-02
  4.057293e+00    4.935462e-01   1.215514e-02
  4.059503e+00    5.044165e-01   1.234424e-02
  4.061714e+00    4.854150e-01   1.216613e-02
  4.063924e+00    4.866331e-01   1.223837e-02
  4.066134e+00    5.017830e-01   1.248597e-02
  4.068345e+00    4.673867e-01   1.210859e-02
  4.070555e+00    4.801500e-01   1.233185e-02
  4.072766e+00    4.956535e-01   1.259117e-02
  4.074976e+00    4.729140e-01   1.236025e-02
  4.077187e+00    5.296687e-01   1.314586e-02
  4.079397e+00    5.012985e-01   1.285435e-02
  4.081608e+00    5.440472e-01   1.346092e-02
  4.083818e+00    4.703001e-01   1.258042e-02
  4.086029e+00    4.865893e-01   1.286393e-02
  4.088239e+00    4.761697e-01   1.279389e-02
  4.090449e+00    5.230288e-01   1.348140e-02
  4.092660e+00    4.789903e-01   1.297240e-02
  4.094870e+00    4.781021e-01   1.303225e-02
  4.097081e+00    5.052436e-01   1.347065e-02
  4.099291e+00    5.133747e-01   1.363467e-02
  4.101502e+00    4.988141e-01   1.349024e-02
  4.103712e+00    4.758675e-01   1.322536e-02
  4.105923e+00    4.594742e-01   1.304568e-02
  4.108133e+00    4.869134e-01   1.348141e-02
  4.110344e+00    4.995820e-01   1.370805e-02
  4.112554e+00    4.600498e-01   1.320641e-02
  4.114764e+00    4.865198e-01   1.363552e-02
  4.116975e+00    5.176277e-01   1.412022e-02
  4.119185e+00    4.964756e-01   1.388489e-02
  4.121396e+00    4.602695e-01   1.342414e-02
  4.123606e+00    4.936967e-01   1.396017e-02
  4.125817e+00    5.014855e-01   1.412883e-02
  4.128027e+00    5.027582e-01   1.420614e-02
  4.130238e+00    5.301509e-01   1.465088e-02
  4.132448e+00    4.732673e-01   1.390244e-02
  4.134659e+00    4.976473e-01   1.431745e-02
  4.136869e+00    5.110672e-01   1.457393e-02
  4.139080e+00    4.806122e-01   1.419662e-02
  4.141290e+00    4.887978e-01   1.438067e-02
  4.143500e+00    5.117242e-01   1.478165e-02
  4.145711e+00    5.089391e-01   1.481041e-02
  4.147921e+00    4.953103e-01   1.467767e-02
  4.150132e+00    5.252651e-01   1.518715e-02
  4.152342e+00    5.030980e-01   1.493534e-02
  4.154553e+00    4.842911e-01   1.472316e-02
  4.156763e+00    4.771459e-01   1.468631e-02
  4.158974e+00    5.090236e-01   1.524532e-02
  4.161184e+00    4.709205e-01   1.473650e-02
  4.163395e+00    4.735138e-01   1.485230e-02
  4.165605e+00    4.814990e-01   1.505505e-02
  4.167815e+00    4.214415e-01   1.415837e-02
  4.170026e+00    4.410338e-01   1.455982e-02
  4.172236e+00    5.035247e-01   1.564118e-02
  4.174447e+00    4.949907e-01   1.559291e-02
  4.176657e+00    4.420413e-01   1.481561e-02
  4.178868e+00    5.150305e-01   1.608248e-02
  4.181078e+00    5.350452e-01   1.648454e-02
  4.183289e+00    5.466830e-01   1.675825e-02
  4.185499e+00    4.733597e-01   1.568572e-02
  4.187710e+00    4.789646e-01   1.587126e-02
  4.189920e+00    4.245631e-01   1.503235e-02
  4.192130e+00    4.812162e-01   1.610165e-02
  4.194341e+00    4.985492e-01   1.648984e-02
  4.196551e+00    4.919510e-01   1.648378e-02
  4.198762e+00    4.960496e-01   1.665760e-02
  4.200972e+00    4.650974e-01   1.623411e-02
  4.203183e+00    4.965087e-01   1.688353e-02
  4.205393e+00    5.075664e-01   1.718435e-02
  4.207604e+00    5.230409e-01   1.756341e-02
  4.209814e+00    4.956388e-01   1.721423e-02
  4.212025e+00    4.820293e-01   1.709667e-02
  4.214235e+00    4.245482e-01   1.615839e-02
  4.216445e+00    5.570734e-01   1.864357e-02
  4.218656e+00    4.741265e-01   1.732850e-02
  4.220866e+00    4.963373e-01   1.786100e-02
  4.223077e+00    5.098284e-01   1.824099e-02
  4.225287e+00    5.382139e-01   1.889008e-02
  4.227498e+00    4.747503e-01   1.788025e-02
  4.229708e+00    4.526630e-01   1.760114e-02
  4.231919e+00    5.042500e-01   1.873090e-02
  4.234129e+00    4.990654e-01   1.879080e-02
  4.236340e+00    4.356298e-01   1.770617e-02
  4.238550e+00    4.629555e-01   1.841392e-02
  4.240761e+00    4.903619e-01   1.911863e-02
  4.242971e+00    4.987607e-01   1.945835e-02
  4.245181e+00    4.852588e-01   1.937345e-02
  4.247392e+00    5.597851e-01   2.100236e-02
  4.249602e+00    5.146698e-01   2.033879e-02
  4.251813e+00    5.300173e-01   2.084275e-02
  4.254023e+00    4.766974e-01   1.996613e-02
  4.256234e+00    5.021353e-01   2.071072e-02
  4.258444e+00    5.076806e-01   2.104218e-02
  4.260655e+00    5.581819e-01   2.230708e-02
  4.262865e+00    5.542156e-01   2.247986e-02
  4.265076e+00    4.817662e-01   2.119695e-02
  4.267286e+00    5.513269e-01   2.294506e-02
  4.269496e+00    4.677479e-01   2.139272e-02
  4.271707e+00    5.070844e-01   2.254835e-02
  4.273917e+00    5.516742e-01   2.382358e-02
  4.276128e+00    4.416276e-01   2.159814e-02
  4.278338e+00    5.426459e-01   2.426073e-02
  4.280549e+00    5.405781e-01   2.456261e-02
  4.282759e+00    4.356832e-01   2.236723e-02
  4.284970e+00    4.804164e-01   2.383599e-02
  4.287180e+00    5.081892e-01   2.480843e-02
  4.289391e+00    4.559709e-01   2.367596e-02
  4.291601e+00    4.112936e-01   2.266579e-02
  4.293811e+00    4.246745e-01   2.321162e-02
  4.296022e+00    3.931282e-01   2.251184e-02
  4.298232e+00    4.805538e-01   2.509805e-02
  4.300443e+00    5.023608e-01   2.587346e-02
  4.302653e+00    4.132202e-01   2.366876e-02
  4.304864e+00    4.550444e-01   2.505282e-02
  4.307074e+00    4.950372e-01   2.636528e-02
  4.309285e+00    4.443741e-01   2.520687e-02
  4.311495e+00    3.732326e-01   2.331719e-02
  4.313706e+00    4.248342e-01   2.511036e-02
  4.315916e+00    4.507426e-01   2.611960e-02
  4.318126e+00    5.074309e-01   2.798752e-02
  4.320337e+00    4.072874e-01   2.532815e-02
  4.322547e+00    3.657981e-01   2.425786e-02
  4.324758e+00    3.812899e-01   2.502386e-02
  4.326968e+00    4.019980e-01   2.598293e-02
  4.329179e+00    4.247058e-01   2.700203e-02
  4.331389e+00    4.580706e-01   2.836531e-02
  4.333600e+00    5.493029e-01   3.143207e-02
  4.335810e+00    4.644434e-01   2.924742e-02
  4.338021e+00    4.673616e-01   2.971396e-02
  4.340231e+00    5.051571e-01   3.128031e-02
  4.342442e+00    3.492498e-01   2.635773e-02
  4.344652e+00    3.606467e-01   2.714870e-02
  4.346862e+00    4.266450e-01   2.994055e-02
  4.349073e+00    4.215530e-01   3.019574e-02
  4.351283e+00    4.511632e-01   3.170410e-02
  4.353494e+00    4.932723e-01   3.366283e-02
  4.355704e+00    4.886441e-01   3.404394e-02
  4.357915e+00    4.321252e-01   3.254762e-02
  4.360125e+00    4.800084e-01   3.488879e-02
  4.362336e+00    6.059049e-01   3.991316e-02
  4.364546e+00    3.945995e-01   3.279522e-02
  4.366757e+00    6.004938e-01   4.126380e-02
  4.368967e+00    4.516586e-01   3.649922e-02
  4.371177e+00    6.324637e-01   4.410987e-02
  4.373388e+00    4.434993e-01   3.776291e-02
  4.375598e+00    4.710678e-01   3.980700e-02
  4.377809e+00    4.254147e-01   3.878489e-02
  4.380019e+00    3.237815e-01   3.469037e-02
  4.382230e+00    2.471926e-01   3.115338e-02
  4.384440e+00    3.789350e-01   3.968356e-02
  4.386651e+00    4.650479e-01   4.531695e-02
  4.388861e+00    4.805343e-01   4.761232e-02
  4.391072e+00    5.663315e-01   5.350252e-02
  4.393282e+00    4.757802e-01   5.093940e-02
  4.395492e+00    4.939985e-01   5.405672e-02
  4.397703e+00    4.394142e-01   5.331802e-02
  4.399913e+00    2.829639e-01   4.494698e-02
  4.402124e+00    5.121105e-01   6.389999e-02
  4.404334e+00    4.768832e-01   6.554234e-02
  4.406545e+00    2.696880e-01   5.296571e-02
  4.408755e+00    2.944949e-01   6.001591e-02
  4.410966e+00    3.962208e-01   7.705012e-02
  4.413176e+00    1.012052e-01   4.410026e-02
  4.415387e+00   -8.221054e-01            nan
  4.417597e+00   -1.995053e+00            nan
  4.419807e+00    1.372970e-01   1.330704e-01
