# == pyFAI calibration ==
# Distance Sample to Detector: 0.216 m
# PONI: 1.166e-01, 1.308e-01 m
# Rotations: 0.000000 0.000000 0.000000 rad
# 
# == Fit2d calibration ==
# Distance Sample-beamCenter: 216.000 mm
# Center: x=1744.293, y=1555.000 pix
# Tilt: 0.000 deg  TiltPlanRot: 0.000 deg
# 
# Detector Eiger 9M	 PixelSize= 7.500e-05, 7.500e-05 m
#    Detector has a mask: True 
#    Detector has a dark current: False 
#    detector has a flat field: False 
# 
# Wavelength: 9.8e-11 m
# Mask applied: from detector
# Dark current applied: False
# Flat field applied: False
# Polarization factor: None
# Normalization factor: 1.0
# 
# Headers of the input frame:
# {
# "_array_data.header_convention": "SLS_1.0",
# "_array_data.header_contents": "# Detector: Dectris Eiger 9M, S/N E-18-0102\r\n# Pixel_size 75e-6 m x 75e-6 m\r\n# Silicon sensor, thickness 0.000450 m\r\n# Exposure_time 0.024997 s\r\n# Exposure_period 0.025000 s\r\n# Count_cutoff 62318 counts\r\n# Wavelength 0.980106 A\r\n# Detector_distance 0.215992 m\r\n# Beam_xy (1555, 1744) pixels\r\n# Start_angle 0.000000 deg.\r\n# Angle_increment 0.000000 deg.",
# "Content-Type": "application/octet-stream;",
# "conversions": "x-CBF_BYTE_OFFSET",
# "Content-Transfer-Encoding": "BINARY",
# "X-Binary-Size": "10166594",
# "X-Binary-ID": "1",
# "X-Binary-Element-Type": "signed 32-bit integer",
# "X-Binary-Element-Byte-Order": "LITTLE_ENDIAN",
# "Content-MD5": "sDSfPr02gm0o5oCNqcEiXg==",
# "X-Binary-Number-of-Elements": "10166590",
# "X-Binary-Size-Fastest-Dimension": "3110",
# "X-Binary-Size-Second-Dimension": "3269",
# "X-Binary-Size-Padding": "4095"
# }
# --> H:/Proxima2a_2019-04-05/RAW_DATA/C5_gel17_position5/C5_mesh_1_data.cbf/C5_mesh_1_data.cbf000061.dat
#        q_A^-1              I           sigma 
  1.105228e-03    1.198313e+00   5.923413e-01
  3.315685e-03    1.161585e+00   3.545447e-01
  5.526141e-03    1.083862e+00   2.648250e-01
  7.736597e-03    1.447727e+00   2.585613e-01
  9.947054e-03    1.501813e+00   2.321584e-01
  1.215751e-02    1.463878e+00   2.072627e-01
  1.436797e-02    1.396503e+00   1.862073e-01
  1.657842e-02    1.254485e+00   1.642771e-01
  1.878888e-02    1.285084e+00   1.561814e-01
  2.099934e-02    1.514285e+00   1.604005e-01
  2.320979e-02    1.657946e+00   1.596313e-01
  2.542025e-02    1.569398e+00   1.484144e-01
  2.763070e-02    1.457900e+00   1.372000e-01
  2.984116e-02    1.307879e+00   1.250433e-01
  3.205162e-02    1.317015e+00   1.210825e-01
  3.426207e-02    1.445656e+00   1.226895e-01
  3.647253e-02    1.223877e+00   1.094104e-01
  3.868299e-02    1.265083e+00   1.080202e-01
  4.089344e-02    1.370488e+00   1.093499e-01
  4.310390e-02    1.318721e+00   1.044721e-01
  4.531436e-02    1.371476e+00   1.039106e-01
  4.752481e-02    1.439575e+00   1.039528e-01
  4.973527e-02    1.394351e+00   1.000087e-01
  5.194572e-02    1.344206e+00   9.608061e-02
  5.415618e-02    1.420569e+00   9.673197e-02
  5.636664e-02    1.397878e+00   9.405886e-02
  5.857709e-02    1.473978e+00   9.474581e-02
  6.078755e-02    1.506518e+00   9.402525e-02
  6.299801e-02    1.469944e+00   9.123193e-02
  6.520846e-02    1.352795e+00   8.602542e-02
  6.741892e-02    1.464342e+00   8.801791e-02
  6.962938e-02    1.462048e+00   8.654603e-02
  7.183983e-02    1.483408e+00   8.582274e-02
  7.405029e-02    1.441623e+00   8.333110e-02
  7.626074e-02    1.359108e+00   7.972918e-02
  7.847120e-02    1.472690e+00   8.181438e-02
  8.068166e-02    1.392509e+00   7.845803e-02
  8.289211e-02    1.385550e+00   7.721076e-02
  8.510257e-02    1.391698e+00   7.636985e-02
  8.731303e-02    1.375865e+00   7.496397e-02
  8.952348e-02    1.421931e+00   7.526390e-02
  9.173394e-02    1.570894e+00   7.814609e-02
  9.394439e-02    1.506882e+00   7.562909e-02
  9.615485e-02    1.543697e+00   7.566076e-02
  9.836531e-02    1.450585e+00   7.251271e-02
  1.005758e-01    1.387706e+00   7.014039e-02
  1.027862e-01    1.444957e+00   7.079706e-02
  1.049967e-01    1.435077e+00   6.980679e-02
  1.072071e-01    1.421066e+00   6.874448e-02
  1.094176e-01    1.433394e+00   6.834003e-02
  1.116280e-01    1.461879e+00   6.832746e-02
  1.138385e-01    1.512465e+00   6.882020e-02
  1.160490e-01    1.485044e+00   6.754008e-02
  1.182594e-01    1.464560e+00   6.644142e-02
  1.204699e-01    1.458021e+00   6.568141e-02
  1.226803e-01    1.492226e+00   6.584332e-02
  1.248908e-01    1.498512e+00   6.539457e-02
  1.271012e-01    1.522424e+00   6.533727e-02
  1.293117e-01    1.567385e+00   6.572516e-02
  1.315222e-01    1.503039e+00   6.381731e-02
  1.337326e-01    1.522616e+00   6.369726e-02
  1.359431e-01    1.593786e+00   6.520709e-02
  1.381535e-01    1.517609e+00   6.448378e-02
  1.403640e-01    1.541928e+00   6.527901e-02
  1.425744e-01    1.517263e+00   6.485830e-02
  1.447849e-01    1.435412e+00   6.309911e-02
  1.469953e-01    1.504606e+00   6.456160e-02
  1.492058e-01    1.527947e+00   6.498485e-02
  1.514163e-01    1.568412e+00   6.573037e-02
  1.536267e-01    1.543895e+00   6.508733e-02
  1.558372e-01    1.498058e+00   6.397227e-02
  1.580476e-01    1.581381e+00   6.556780e-02
  1.602581e-01    1.594698e+00   6.567607e-02
  1.624685e-01    1.645949e+00   6.654041e-02
  1.646790e-01    1.649460e+00   6.642008e-02
  1.668895e-01    1.662256e+00   6.648465e-02
  1.690999e-01    1.678417e+00   6.660643e-02
  1.713104e-01    1.677530e+00   6.638219e-02
  1.735208e-01    1.744773e+00   6.748903e-02
  1.757313e-01    1.776571e+00   6.788783e-02
  1.779417e-01    1.895773e+00   6.989963e-02
  1.801522e-01    1.875232e+00   6.929853e-02
  1.823626e-01    1.854483e+00   6.868463e-02
  1.845731e-01    1.995027e+00   7.100901e-02
  1.867836e-01    2.009758e+00   7.103020e-02
  1.889940e-01    1.931839e+00   6.941207e-02
  1.912045e-01    1.938404e+00   6.929774e-02
  1.934149e-01    1.925459e+00   6.883479e-02
  1.956254e-01    1.961139e+00   6.924051e-02
  1.978358e-01    2.061393e+00   7.074499e-02
  2.000463e-01    2.080355e+00   7.083412e-02
  2.022568e-01    2.011780e+00   6.942824e-02
  2.044672e-01    1.979776e+00   6.863784e-02
  2.066777e-01    2.066275e+00   6.988851e-02
  2.088881e-01    1.944732e+00   6.758007e-02
  2.110986e-01    1.900476e+00   6.657754e-02
  2.133090e-01    1.958529e+00   6.736706e-02
  2.155195e-01    1.934718e+00   6.673418e-02
  2.177300e-01    1.985968e+00   6.708113e-02
  2.199404e-01    1.943347e+00   6.460891e-02
  2.221509e-01    1.875172e+00   6.242338e-02
  2.243613e-01    1.967254e+00   6.312712e-02
  2.265718e-01    1.961443e+00   6.233906e-02
  2.287822e-01    1.998602e+00   6.230393e-02
  2.309927e-01    2.111116e+00   6.345034e-02
  2.332031e-01    2.091893e+00   6.262023e-02
  2.354136e-01    2.137523e+00   6.278646e-02
  2.376241e-01    2.149663e+00   6.247580e-02
  2.398345e-01    2.050616e+00   6.056792e-02
  2.420450e-01    2.072073e+00   6.044886e-02
  2.442554e-01    2.044988e+00   5.963876e-02
  2.464659e-01    2.051041e+00   5.932597e-02
  2.486763e-01    2.104543e+00   5.969972e-02
  2.508868e-01    2.085088e+00   5.904831e-02
  2.530973e-01    2.062808e+00   5.836784e-02
  2.553077e-01    2.158739e+00   5.934742e-02
  2.575182e-01    2.065863e+00   5.771327e-02
  2.597286e-01    2.045920e+00   5.710014e-02
  2.619391e-01    2.041607e+00   5.671152e-02
  2.641495e-01    2.033693e+00   5.628824e-02
  2.663600e-01    2.086988e+00   5.670742e-02
  2.685704e-01    2.069657e+00   5.616538e-02
  2.707809e-01    2.036338e+00   5.541573e-02
  2.729914e-01    1.988391e+00   5.447409e-02
  2.752018e-01    1.925491e+00   5.332652e-02
  2.774123e-01    1.998782e+00   5.405441e-02
  2.796227e-01    1.994029e+00   5.372306e-02
  2.818332e-01    1.911095e+00   5.233159e-02
  2.840436e-01    1.956649e+00   5.269497e-02
  2.862541e-01    1.895167e+00   5.161116e-02
  2.884646e-01    1.940841e+00   5.198151e-02
  2.906750e-01    1.918522e+00   5.143673e-02
  2.928855e-01    1.943075e+00   5.152494e-02
  2.950959e-01    1.942238e+00   5.127725e-02
  2.973064e-01    1.918122e+00   5.072884e-02
  2.995168e-01    1.951648e+00   5.093854e-02
  3.017273e-01    1.906839e+00   5.012837e-02
  3.039377e-01    1.905586e+00   4.989248e-02
  3.061482e-01    1.915642e+00   4.980756e-02
  3.083587e-01    1.894295e+00   4.931486e-02
  3.105691e-01    1.871429e+00   4.880697e-02
  3.127796e-01    1.844231e+00   4.824730e-02
  3.149900e-01    1.885910e+00   4.858616e-02
  3.172005e-01    1.908892e+00   4.868141e-02
  3.194109e-01    1.920363e+00   4.862593e-02
  3.216214e-01    1.852042e+00   4.755826e-02
  3.238319e-01    1.785555e+00   4.651177e-02
  3.260423e-01    1.819846e+00   4.676922e-02
  3.282528e-01    1.845660e+00   4.691227e-02
  3.304632e-01    1.872718e+00   4.707183e-02
  3.326737e-01    1.877002e+00   4.694178e-02
  3.348841e-01    1.841892e+00   4.632035e-02
  3.370946e-01    1.787328e+00   4.545741e-02
  3.393050e-01    1.863972e+00   4.624598e-02
  3.415155e-01    1.864196e+00   4.607488e-02
  3.437260e-01    1.837591e+00   4.557537e-02
  3.459364e-01    1.763431e+00   4.448109e-02
  3.481469e-01    1.740620e+00   4.403115e-02
  3.503573e-01    1.804519e+00   4.466874e-02
  3.525678e-01    1.816154e+00   4.465283e-02
  3.547782e-01    1.813834e+00   4.446301e-02
  3.569887e-01    1.808650e+00   4.424211e-02
  3.591992e-01    1.805063e+00   4.404182e-02
  3.614096e-01    1.796044e+00   4.377934e-02
  3.636201e-01    1.780567e+00   4.343712e-02
  3.658305e-01    1.761709e+00   4.305910e-02
  3.680410e-01    1.767638e+00   4.298317e-02
  3.702514e-01    1.725000e+00   4.231878e-02
  3.724619e-01    1.777808e+00   4.281535e-02
  3.746724e-01    1.802685e+00   4.297005e-02
  3.768828e-01    1.756921e+00   4.227835e-02
  3.790933e-01    1.728276e+00   4.179565e-02
  3.813037e-01    1.784635e+00   4.233268e-02
  3.835142e-01    1.741395e+00   4.167937e-02
  3.857246e-01    1.722087e+00   4.131352e-02
  3.879351e-01    1.738846e+00   4.137968e-02
  3.901455e-01    1.738280e+00   4.124125e-02
  3.923560e-01    1.727076e+00   4.097746e-02
  3.945665e-01    1.749373e+00   4.111035e-02
  3.967769e-01    1.738971e+00   4.085958e-02
  3.989874e-01    1.729996e+00   4.062675e-02
  4.011978e-01    1.729486e+00   4.049584e-02
  4.034083e-01    1.753384e+00   4.064948e-02
  4.056187e-01    1.736069e+00   4.032368e-02
  4.078292e-01    1.781828e+00   4.072802e-02
  4.100397e-01    1.763011e+00   4.038871e-02
  4.122501e-01    1.758890e+00   4.022077e-02
  4.144606e-01    1.804616e+00   4.061942e-02
  4.166710e-01    1.820195e+00   4.067307e-02
  4.188815e-01    1.799322e+00   4.031975e-02
  4.210919e-01    1.778323e+00   3.996631e-02
  4.233024e-01    1.754238e+00   3.957798e-02
  4.255128e-01    1.807287e+00   4.005582e-02
  4.277233e-01    1.811098e+00   3.998284e-02
  4.299338e-01    1.738023e+00   3.905521e-02
  4.321442e-01    1.756751e+00   3.915269e-02
  4.343547e-01    1.797721e+00   3.949463e-02
  4.365651e-01    1.716784e+00   3.848568e-02
  4.387756e-01    1.740004e+00   3.863656e-02
  4.409860e-01    1.754083e+00   3.868509e-02
  4.431965e-01    1.732864e+00   3.834408e-02
  4.454070e-01    1.714433e+00   3.803350e-02
  4.476174e-01    1.744608e+00   3.826141e-02
  4.498279e-01    1.676218e+00   3.740193e-02
  4.520383e-01    1.684440e+00   3.739065e-02
  4.542488e-01    1.634440e+00   3.673223e-02
  4.564592e-01    1.653571e+00   3.684743e-02
  4.586697e-01    1.688304e+00   3.713360e-02
  4.608801e-01    1.712108e+00   3.729430e-02
  4.630906e-01    1.664240e+00   3.667191e-02
  4.653011e-01    1.658718e+00   3.651473e-02
  4.675115e-01    1.666834e+00   3.650755e-02
  4.697220e-01    1.654926e+00   3.628168e-02
  4.719324e-01    1.688027e+00   3.654793e-02
  4.741429e-01    1.666231e+00   3.621764e-02
  4.763533e-01    1.670079e+00   3.616650e-02
  4.785638e-01    1.651750e+00   3.587458e-02
  4.807743e-01    1.685442e+00   3.614642e-02
  4.829847e-01    1.715727e+00   3.637761e-02
  4.851952e-01    1.718912e+00   3.631923e-02
  4.874056e-01    1.648852e+00   3.548170e-02
  4.896161e-01    1.637577e+00   3.527246e-02
  4.918265e-01    1.660914e+00   3.543469e-02
  4.940370e-01    1.688589e+00   3.564049e-02
  4.962475e-01    1.685648e+00   3.552150e-02
  4.984579e-01    1.694985e+00   3.553193e-02
  5.006684e-01    1.697292e+00   3.546944e-02
  5.028788e-01    1.661510e+00   3.500852e-02
  5.050893e-01    1.689242e+00   3.521362e-02
  5.072997e-01    1.671281e+00   3.494133e-02
  5.095102e-01    1.635167e+00   3.447898e-02
  5.117206e-01    1.638522e+00   3.443224e-02
  5.139311e-01    1.694407e+00   3.493164e-02
  5.161416e-01    1.677270e+00   3.467244e-02
  5.183520e-01    1.630260e+00   3.410184e-02
  5.205625e-01    1.669049e+00   3.442431e-02
  5.227729e-01    1.616855e+00   3.380279e-02
  5.249834e-01    1.622362e+00   3.378166e-02
  5.271938e-01    1.699902e+00   3.449886e-02
  5.294043e-01    1.697499e+00   3.439491e-02
  5.316148e-01    1.707868e+00   3.442077e-02
  5.338252e-01    1.751594e+00   3.477898e-02
  5.360357e-01    1.701823e+00   3.420325e-02
  5.382461e-01    1.699799e+00   3.410563e-02
  5.404566e-01    1.672979e+00   3.375849e-02
  5.426670e-01    1.681501e+00   3.376811e-02
  5.448775e-01    1.704007e+00   3.391739e-02
  5.470879e-01    1.794161e+00   3.472544e-02
  5.492984e-01    1.791071e+00   3.461840e-02
  5.515089e-01    1.735782e+00   3.400430e-02
  5.537193e-01    1.712555e+00   3.370160e-02
  5.559298e-01    1.744950e+00   3.394424e-02
  5.581402e-01    1.759567e+00   3.401162e-02
  5.603507e-01    1.798133e+00   3.430753e-02
  5.625611e-01    1.749457e+00   3.376655e-02
  5.647716e-01    1.723314e+00   3.344055e-02
  5.669821e-01    1.735934e+00   3.349040e-02
  5.691925e-01    1.725722e+00   3.332007e-02
  5.714030e-01    1.721034e+00   3.320384e-02
  5.736134e-01    1.724542e+00   3.316697e-02
  5.758239e-01    1.707377e+00   3.293106e-02
  5.780343e-01    1.687183e+00   3.266649e-02
  5.802448e-01    1.660876e+00   3.234296e-02
  5.824552e-01    1.643829e+00   3.210904e-02
  5.846657e-01    1.632650e+00   3.193296e-02
  5.868762e-01    1.610475e+00   3.164935e-02
  5.890866e-01    1.588104e+00   3.136355e-02
  5.912971e-01    1.620235e+00   3.161364e-02
  5.935075e-01    1.617244e+00   3.151918e-02
  5.957180e-01    1.606387e+00   3.134875e-02
  5.979284e-01    1.631152e+00   3.152497e-02
  6.001389e-01    1.620033e+00   3.135339e-02
  6.023494e-01    1.610365e+00   3.119621e-02
  6.045598e-01    1.629459e+00   3.131672e-02
  6.067703e-01    1.678891e+00   3.172426e-02
  6.089807e-01    1.678787e+00   3.165951e-02
  6.111912e-01    1.661286e+00   3.143118e-02
  6.134016e-01    1.614821e+00   3.092669e-02
  6.156121e-01    1.608637e+00   3.080606e-02
  6.178226e-01    1.632523e+00   3.097249e-02
  6.200330e-01    1.616520e+00   3.075950e-02
  6.222435e-01    1.687188e+00   3.136239e-02
  6.244539e-01    1.706365e+00   3.147840e-02
  6.266644e-01    1.682443e+00   3.119599e-02
  6.288748e-01    1.680353e+00   3.111590e-02
  6.310853e-01    1.708385e+00   3.131349e-02
  6.332957e-01    1.703251e+00   3.120602e-02
  6.355062e-01    1.699715e+00   3.111305e-02
  6.377167e-01    1.659781e+00   3.068640e-02
  6.399271e-01    1.641993e+00   3.046304e-02
  6.421376e-01    1.665326e+00   3.062015e-02
  6.443480e-01    1.668499e+00   3.059102e-02
  6.465585e-01    1.677562e+00   3.061586e-02
  6.487689e-01    1.664262e+00   3.043669e-02
  6.509794e-01    1.626609e+00   3.003366e-02
  6.531899e-01    1.587277e+00   2.961253e-02
  6.554003e-01    1.596315e+00   2.964088e-02
  6.576108e-01    1.574879e+00   2.938637e-02
  6.598212e-01    1.580899e+00   2.938778e-02
  6.620317e-01    1.588193e+00   2.940090e-02
  6.642421e-01    1.560085e+00   2.908567e-02
  6.664526e-01    1.582984e+00   2.924435e-02
  6.686630e-01    1.607004e+00   2.941093e-02
  6.708735e-01    1.582017e+00   2.912786e-02
  6.730840e-01    1.556844e+00   2.884250e-02
  6.752944e-01    1.551518e+00   2.874075e-02
  6.775049e-01    1.591053e+00   2.905179e-02
  6.797153e-01    1.589500e+00   2.898502e-02
  6.819258e-01    1.582306e+00   2.886720e-02
  6.841362e-01    1.595305e+00   2.893341e-02
  6.863467e-01    1.577913e+00   2.872373e-02
  6.885572e-01    1.540674e+00   2.833190e-02
  6.907676e-01    1.574623e+00   2.859101e-02
  6.929781e-01    1.578887e+00   2.857882e-02
  6.951885e-01    1.574895e+00   2.849213e-02
  6.973990e-01    1.540836e+00   2.813252e-02
  6.996094e-01    1.527957e+00   2.796542e-02
  7.018199e-01    1.546049e+00   2.808111e-02
  7.040303e-01    1.582253e+00   2.835810e-02
  7.062408e-01    1.608369e+00   2.854109e-02
  7.084513e-01    1.604564e+00   2.845774e-02
  7.106617e-01    1.556076e+00   2.797577e-02
  7.128722e-01    1.544248e+00   2.782100e-02
  7.150826e-01    1.565789e+00   2.796611e-02
  7.172931e-01    1.493893e+00   2.726941e-02
  7.195035e-01    1.531493e+00   2.756296e-02
  7.217140e-01    1.532266e+00   2.761872e-02
  7.239245e-01    1.529452e+00   2.781679e-02
  7.261349e-01    1.541646e+00   2.803494e-02
  7.283454e-01    1.505074e+00   2.777119e-02
  7.305558e-01    1.534941e+00   2.809869e-02
  7.327663e-01    1.566444e+00   2.842795e-02
  7.349767e-01    1.599954e+00   2.874694e-02
  7.371872e-01    1.559235e+00   2.836764e-02
  7.393976e-01    1.548967e+00   2.825994e-02
  7.416081e-01    1.585277e+00   2.857301e-02
  7.438186e-01    1.564462e+00   2.824097e-02
  7.460290e-01    1.547049e+00   2.779171e-02
  7.482395e-01    1.573488e+00   2.785707e-02
  7.504499e-01    1.564662e+00   2.764301e-02
  7.526604e-01    1.555859e+00   2.744926e-02
  7.548708e-01    1.541856e+00   2.723699e-02
  7.570813e-01    1.564733e+00   2.738749e-02
  7.592918e-01    1.532401e+00   2.706837e-02
  7.615022e-01    1.528822e+00   2.700342e-02
  7.637127e-01    1.558744e+00   2.723378e-02
  7.659231e-01    1.555714e+00   2.717550e-02
  7.681336e-01    1.538883e+00   2.699685e-02
  7.703440e-01    1.561285e+00   2.716154e-02
  7.725545e-01    1.576325e+00   2.726118e-02
  7.747650e-01    1.605095e+00   2.747025e-02
  7.769754e-01    1.560439e+00   2.703299e-02
  7.791859e-01    1.559910e+00   2.697517e-02
  7.813963e-01    1.604206e+00   2.730245e-02
  7.836068e-01    1.609985e+00   2.729922e-02
  7.858172e-01    1.542637e+00   2.667216e-02
  7.880277e-01    1.536632e+00   2.656956e-02
  7.902381e-01    1.574110e+00   2.684274e-02
  7.924486e-01    1.582734e+00   2.686634e-02
  7.946591e-01    1.573081e+00   2.673639e-02
  7.968695e-01    1.581619e+00   2.676089e-02
  7.990800e-01    1.567160e+00   2.659067e-02
  8.012904e-01    1.584243e+00   2.668896e-02
  8.035009e-01    1.614270e+00   2.689275e-02
  8.057113e-01    1.608730e+00   2.680017e-02
  8.079218e-01    1.609058e+00   2.675662e-02
  8.101323e-01    1.605697e+00   2.668330e-02
  8.123427e-01    1.594872e+00   2.654786e-02
  8.145532e-01    1.579171e+00   2.637165e-02
  8.167636e-01    1.620162e+00   2.666680e-02
  8.189741e-01    1.640314e+00   2.678741e-02
  8.211845e-01    1.637315e+00   2.671806e-02
  8.233950e-01    1.649934e+00   2.677720e-02
  8.256054e-01    1.666684e+00   2.686818e-02
  8.278159e-01    1.640409e+00   2.661157e-02
  8.300264e-01    1.603814e+00   2.627041e-02
  8.322368e-01    1.614337e+00   2.631365e-02
  8.344473e-01    1.637886e+00   2.646153e-02
  8.366577e-01    1.617723e+00   2.625584e-02
  8.388682e-01    1.611233e+00   2.616124e-02
  8.410786e-01    1.603942e+00   2.606037e-02
  8.432891e-01    1.656260e+00   2.643992e-02
  8.454996e-01    1.647406e+00   2.632742e-02
  8.477100e-01    1.628805e+00   2.613683e-02
  8.499205e-01    1.633503e+00   2.613337e-02
  8.521309e-01    1.636226e+00   2.611438e-02
  8.543414e-01    1.599780e+00   2.578160e-02
  8.565518e-01    1.589558e+00   2.565911e-02
  8.587623e-01    1.592396e+00   2.564200e-02
  8.609727e-01    1.598367e+00   2.565021e-02
  8.631832e-01    1.581949e+00   2.547877e-02
  8.653937e-01    1.588040e+00   2.548856e-02
  8.676041e-01    1.564641e+00   2.526190e-02
  8.698146e-01    1.547820e+00   2.508735e-02
  8.720250e-01    1.575246e+00   2.527004e-02
  8.742355e-01    1.636847e+00   2.572019e-02
  8.764459e-01    1.631854e+00   2.564179e-02
  8.786564e-01    1.593991e+00   2.530477e-02
  8.808669e-01    1.580965e+00   2.516296e-02
  8.830773e-01    1.577549e+00   2.509791e-02
  8.852878e-01    1.570281e+00   2.500249e-02
  8.874982e-01    1.580512e+00   2.504740e-02
  8.897087e-01    1.575222e+00   2.496807e-02
  8.919191e-01    1.589894e+00   2.504646e-02
  8.941296e-01    1.585301e+00   2.497315e-02
  8.963401e-01    1.539857e+00   2.457687e-02
  8.985505e-01    1.593630e+00   2.496539e-02
  9.007610e-01    1.611606e+00   2.506897e-02
  9.029714e-01    1.559238e+00   2.462290e-02
  9.051819e-01    1.603043e+00   2.492913e-02
  9.073923e-01    1.592639e+00   2.481162e-02
  9.096028e-01    1.583593e+00   2.470631e-02
  9.118132e-01    1.580041e+00   2.464262e-02
  9.140237e-01    1.526298e+00   2.418411e-02
  9.162342e-01    1.548119e+00   2.432237e-02
  9.184446e-01    1.609898e+00   2.476705e-02
  9.206551e-01    1.604876e+00   2.469278e-02
  9.228655e-01    1.564324e+00   2.434396e-02
  9.250760e-01    1.572191e+00   2.437005e-02
  9.272864e-01    1.580557e+00   2.440079e-02
  9.294969e-01    1.594271e+00   2.447070e-02
  9.317074e-01    1.616513e+00   2.460599e-02
  9.339178e-01    1.606698e+00   2.449769e-02
  9.361283e-01    1.595968e+00   2.437974e-02
  9.383387e-01    1.617032e+00   2.450672e-02
  9.405492e-01    1.639276e+00   2.464025e-02
  9.427596e-01    1.624352e+00   2.449252e-02
  9.449701e-01    1.640023e+00   2.457694e-02
  9.471805e-01    1.628490e+00   2.445569e-02
  9.493910e-01    1.647126e+00   2.456146e-02
  9.516015e-01    1.685454e+00   2.481090e-02
  9.538119e-01    1.699235e+00   2.487800e-02
  9.560224e-01    1.696600e+00   2.482370e-02
  9.582328e-01    1.729156e+00   2.502710e-02
  9.604433e-01    1.773350e+00   2.530905e-02
  9.626537e-01    1.743410e+00   2.506073e-02
  9.648642e-01    1.792555e+00   2.537669e-02
  9.670747e-01    1.778551e+00   2.524252e-02
  9.692851e-01    1.788231e+00   2.527748e-02
  9.714956e-01    1.812270e+00   2.541092e-02
  9.737060e-01    1.806096e+00   2.533428e-02
  9.759165e-01    1.831988e+00   2.547925e-02
  9.781269e-01    1.843041e+00   2.552257e-02
  9.803374e-01    1.882048e+00   2.575556e-02
  9.825478e-01    1.954654e+00   2.621304e-02
  9.847583e-01    1.937547e+00   2.606265e-02
  9.869688e-01    1.914241e+00   2.587076e-02
  9.891792e-01    1.915274e+00   2.584332e-02
  9.913897e-01    1.987757e+00   2.629227e-02
  9.936001e-01    1.912464e+00   2.575578e-02
  9.958106e-01    1.852401e+00   2.531366e-02
  9.980210e-01    1.760658e+00   2.464681e-02
  1.000231e+00    1.744218e+00   2.466584e-02
  1.002442e+00    1.751401e+00   2.484794e-02
  1.004652e+00    1.662344e+00   2.427548e-02
  1.006863e+00    1.621995e+00   2.402879e-02
  1.009073e+00    1.605635e+00   2.394392e-02
  1.011284e+00    1.584150e+00   2.381495e-02
  1.013494e+00    1.578826e+00   2.379849e-02
  1.015705e+00    1.559363e+00   2.367370e-02
  1.017915e+00    1.560764e+00   2.370064e-02
  1.020126e+00    1.567272e+00   2.376607e-02
  1.022336e+00    1.531440e+00   2.350440e-02
  1.024547e+00    1.507269e+00   2.332922e-02
  1.026757e+00    1.500803e+00   2.328738e-02
  1.028967e+00    1.469461e+00   2.305041e-02
  1.031178e+00    1.496711e+00   2.326924e-02
  1.033388e+00    1.472582e+00   2.308589e-02
  1.035599e+00    1.470459e+00   2.307258e-02
  1.037809e+00    1.508802e+00   2.337471e-02
  1.040020e+00    1.488001e+00   2.321430e-02
  1.042230e+00    1.453294e+00   2.294385e-02
  1.044441e+00    1.469459e+00   2.307088e-02
  1.046651e+00    1.464228e+00   2.302995e-02
  1.048862e+00    1.470474e+00   2.307824e-02
  1.051072e+00    1.470175e+00   2.307356e-02
  1.053282e+00    1.456590e+00   2.296577e-02
  1.055493e+00    1.457127e+00   2.296574e-02
  1.057703e+00    1.468836e+00   2.305634e-02
  1.059914e+00    1.471651e+00   2.307418e-02
  1.062124e+00    1.436562e+00   2.279347e-02
  1.064335e+00    1.439632e+00   2.281441e-02
  1.066545e+00    1.447547e+00   2.287112e-02
  1.068756e+00    1.451489e+00   2.289854e-02
  1.070966e+00    1.444770e+00   2.283901e-02
  1.073177e+00    1.438803e+00   2.278583e-02
  1.075387e+00    1.437225e+00   2.276814e-02
  1.077597e+00    1.418092e+00   2.260898e-02
  1.079808e+00    1.404551e+00   2.237074e-02
  1.082018e+00    1.402051e+00   2.216575e-02
  1.084229e+00    1.400944e+00   2.204921e-02
  1.086439e+00    1.406778e+00   2.200908e-02
  1.088650e+00    1.452999e+00   2.229212e-02
  1.090860e+00    1.417719e+00   2.195304e-02
  1.093071e+00    1.425935e+00   2.195490e-02
  1.095281e+00    1.421826e+00   2.186649e-02
  1.097492e+00    1.398847e+00   2.163504e-02
  1.099702e+00    1.420923e+00   2.175404e-02
  1.101912e+00    1.398339e+00   2.153234e-02
  1.104123e+00    1.403817e+00   2.152676e-02
  1.106333e+00    1.400572e+00   2.145799e-02
  1.108544e+00    1.395434e+00   2.137484e-02
  1.110754e+00    1.384874e+00   2.125144e-02
  1.112965e+00    1.379892e+00   2.117325e-02
  1.115175e+00    1.390289e+00   2.121210e-02
  1.117386e+00    1.397270e+00   2.122631e-02
  1.119596e+00    1.356712e+00   2.087883e-02
  1.121807e+00    1.373444e+00   2.096887e-02
  1.124017e+00    1.381663e+00   2.099522e-02
  1.126228e+00    1.370775e+00   2.087699e-02
  1.128438e+00    1.351219e+00   2.069145e-02
  1.130648e+00    1.330359e+00   2.049764e-02
  1.132859e+00    1.368625e+00   2.075631e-02
  1.135069e+00    1.368528e+00   2.072118e-02
  1.137280e+00    1.336539e+00   2.044520e-02
  1.139490e+00    1.340344e+00   2.044178e-02
  1.141701e+00    1.349135e+00   2.047600e-02
  1.143911e+00    1.375118e+00   2.064047e-02
  1.146122e+00    1.360825e+00   2.050116e-02
  1.148332e+00    1.361226e+00   2.047251e-02
  1.150543e+00    1.352914e+00   2.037936e-02
  1.152753e+00    1.306482e+00   1.999654e-02
  1.154963e+00    1.318149e+00   2.005521e-02
  1.157174e+00    1.348152e+00   2.025229e-02
  1.159384e+00    1.329542e+00   2.008265e-02
  1.161595e+00    1.320827e+00   1.998740e-02
  1.163805e+00    1.357897e+00   2.023679e-02
  1.166016e+00    1.337976e+00   2.005873e-02
  1.168226e+00    1.296224e+00   1.971505e-02
  1.170437e+00    1.332279e+00   1.995908e-02
  1.172647e+00    1.347736e+00   2.004583e-02
  1.174858e+00    1.354975e+00   2.007159e-02
  1.177068e+00    1.371544e+00   2.016559e-02
  1.179278e+00    1.363244e+00   2.007592e-02
  1.181489e+00    1.366324e+00   2.007148e-02
  1.183699e+00    1.350815e+00   1.992976e-02
  1.185910e+00    1.340466e+00   1.982569e-02
  1.188120e+00    1.325364e+00   1.968729e-02
  1.190331e+00    1.370655e+00   1.999394e-02
  1.192541e+00    1.375108e+00   1.999881e-02
  1.194752e+00    1.361532e+00   1.987271e-02
  1.196962e+00    1.352910e+00   1.978394e-02
  1.199173e+00    1.335082e+00   1.962679e-02
  1.201383e+00    1.340144e+00   1.963691e-02
  1.203593e+00    1.327732e+00   1.952115e-02
  1.205804e+00    1.316812e+00   1.941511e-02
  1.208014e+00    1.338368e+00   1.954663e-02
  1.210225e+00    1.318098e+00   1.937304e-02
  1.212435e+00    1.313086e+00   1.931171e-02
  1.214646e+00    1.324541e+00   1.936991e-02
  1.216856e+00    1.319408e+00   1.930716e-02
  1.219067e+00    1.320278e+00   1.928931e-02
  1.221277e+00    1.318847e+00   1.925413e-02
  1.223488e+00    1.328944e+00   1.930214e-02
  1.225698e+00    1.335698e+00   1.932438e-02
  1.227909e+00    1.334925e+00   1.928878e-02
  1.230119e+00    1.319212e+00   1.914345e-02
  1.232329e+00    1.298893e+00   1.896530e-02
  1.234540e+00    1.320449e+00   1.909206e-02
  1.236750e+00    1.332081e+00   1.914593e-02
  1.238961e+00    1.306989e+00   1.893821e-02
  1.241171e+00    1.304931e+00   1.889952e-02
  1.243382e+00    1.318065e+00   1.897113e-02
  1.245592e+00    1.338838e+00   1.909607e-02
  1.247803e+00    1.336527e+00   1.905604e-02
  1.250013e+00    1.337037e+00   1.903624e-02
  1.252224e+00    1.329170e+00   1.895708e-02
  1.254434e+00    1.352193e+00   1.909680e-02
  1.256644e+00    1.352931e+00   1.907879e-02
  1.258855e+00    1.341703e+00   1.897625e-02
  1.261065e+00    1.326533e+00   1.884551e-02
  1.263276e+00    1.309832e+00   1.870390e-02
  1.265486e+00    1.302295e+00   1.862754e-02
  1.267697e+00    1.331690e+00   1.881371e-02
  1.269907e+00    1.350623e+00   1.892430e-02
  1.272118e+00    1.338188e+00   1.881451e-02
  1.274328e+00    1.367011e+00   1.899315e-02
  1.276539e+00    1.385531e+00   1.909831e-02
  1.278749e+00    1.368574e+00   1.895864e-02
  1.280959e+00    1.348111e+00   1.879387e-02
  1.283170e+00    1.329937e+00   1.864447e-02
  1.285380e+00    1.344510e+00   1.872395e-02
  1.287591e+00    1.340091e+00   1.867119e-02
  1.289801e+00    1.338921e+00   1.864191e-02
  1.292012e+00    1.343554e+00   1.865707e-02
  1.294222e+00    1.328079e+00   1.853323e-02
  1.296433e+00    1.324816e+00   1.849497e-02
  1.298643e+00    1.337120e+00   1.856429e-02
  1.300854e+00    1.341591e+00   1.857891e-02
  1.303064e+00    1.342244e+00   1.856429e-02
  1.305274e+00    1.327964e+00   1.844400e-02
  1.307485e+00    1.312564e+00   1.831551e-02
  1.309695e+00    1.315676e+00   1.831524e-02
  1.311906e+00    1.312360e+00   1.827075e-02
  1.314116e+00    1.335631e+00   1.841132e-02
  1.316327e+00    1.384117e+00   1.872058e-02
  1.318537e+00    1.364392e+00   1.856470e-02
  1.320748e+00    1.412237e+00   1.886537e-02
  1.322958e+00    1.376335e+00   1.860330e-02
  1.325169e+00    1.367004e+00   1.851899e-02
  1.327379e+00    1.362414e+00   1.846596e-02
  1.329589e+00    1.363464e+00   1.845190e-02
  1.331800e+00    1.383880e+00   1.856857e-02
  1.334010e+00    1.395269e+00   1.862383e-02
  1.336221e+00    1.399157e+00   1.862762e-02
  1.338431e+00    1.385447e+00   1.851499e-02
  1.340642e+00    1.377534e+00   1.852686e-02
  1.342852e+00    1.367378e+00   1.855975e-02
  1.345063e+00    1.367777e+00   1.861228e-02
  1.347273e+00    1.323640e+00   1.834442e-02
  1.349484e+00    1.320724e+00   1.835155e-02
  1.351694e+00    1.318748e+00   1.836028e-02
  1.353905e+00    1.318571e+00   1.837682e-02
  1.356115e+00    1.340077e+00   1.854108e-02
  1.358325e+00    1.321175e+00   1.842302e-02
  1.360536e+00    1.311590e+00   1.836753e-02
  1.362746e+00    1.319291e+00   1.843082e-02
  1.364957e+00    1.331587e+00   1.852413e-02
  1.367167e+00    1.315595e+00   1.841963e-02
  1.369378e+00    1.309732e+00   1.838447e-02
  1.371588e+00    1.321448e+00   1.847163e-02
  1.373799e+00    1.284520e+00   1.821528e-02
  1.376009e+00    1.271044e+00   1.812280e-02
  1.378220e+00    1.270492e+00   1.812130e-02
  1.380430e+00    1.293131e+00   1.828473e-02
  1.382640e+00    1.324679e+00   1.850732e-02
  1.384851e+00    1.296414e+00   1.830970e-02
  1.387061e+00    1.279818e+00   1.819242e-02
  1.389272e+00    1.254843e+00   1.801422e-02
  1.391482e+00    1.273967e+00   1.815031e-02
  1.393693e+00    1.268752e+00   1.811226e-02
  1.395903e+00    1.261556e+00   1.805933e-02
  1.398114e+00    1.299282e+00   1.832598e-02
  1.400324e+00    1.280184e+00   1.818868e-02
  1.402535e+00    1.288284e+00   1.824380e-02
  1.404745e+00    1.271689e+00   1.812355e-02
  1.406955e+00    1.290141e+00   1.825185e-02
  1.409166e+00    1.260439e+00   1.803726e-02
  1.411376e+00    1.273743e+00   1.812903e-02
  1.413587e+00    1.291194e+00   1.824900e-02
  1.415797e+00    1.268214e+00   1.808232e-02
  1.418008e+00    1.260528e+00   1.798574e-02
  1.420218e+00    1.255033e+00   1.779765e-02
  1.422429e+00    1.251718e+00   1.768942e-02
  1.424639e+00    1.264848e+00   1.771740e-02
  1.426850e+00    1.276047e+00   1.774083e-02
  1.429060e+00    1.299706e+00   1.785498e-02
  1.431270e+00    1.305087e+00   1.784701e-02
  1.433481e+00    1.285730e+00   1.767293e-02
  1.435691e+00    1.284916e+00   1.762869e-02
  1.437902e+00    1.292904e+00   1.764661e-02
  1.440112e+00    1.279356e+00   1.751845e-02
  1.442323e+00    1.272561e+00   1.743877e-02
  1.444533e+00    1.285232e+00   1.749262e-02
  1.446744e+00    1.290718e+00   1.749856e-02
  1.448954e+00    1.270074e+00   1.732784e-02
  1.451165e+00    1.266201e+00   1.727171e-02
  1.453375e+00    1.249305e+00   1.712825e-02
  1.455586e+00    1.271177e+00   1.724936e-02
  1.457796e+00    1.279493e+00   1.727807e-02
  1.460006e+00    1.317091e+00   1.750234e-02
  1.462217e+00    1.311882e+00   1.744106e-02
  1.464427e+00    1.284248e+00   1.723064e-02
  1.466638e+00    1.258348e+00   1.703078e-02
  1.468848e+00    1.294508e+00   1.724815e-02
  1.471059e+00    1.270660e+00   1.706346e-02
  1.473269e+00    1.259835e+00   1.696630e-02
  1.475480e+00    1.270244e+00   1.701250e-02
  1.477690e+00    1.280358e+00   1.705611e-02
  1.479901e+00    1.294466e+00   1.712575e-02
  1.482111e+00    1.288130e+00   1.706028e-02
  1.484321e+00    1.270073e+00   1.691713e-02
  1.486532e+00    1.264213e+00   1.685575e-02
  1.488742e+00    1.221962e+00   1.654943e-02
  1.490953e+00    1.240941e+00   1.665504e-02
  1.493163e+00    1.251563e+00   1.670401e-02
  1.495374e+00    1.232002e+00   1.655174e-02
  1.497584e+00    1.242981e+00   1.660382e-02
  1.499795e+00    1.227331e+00   1.647761e-02
  1.502005e+00    1.239590e+00   1.653820e-02
  1.504216e+00    1.219651e+00   1.638393e-02
  1.506426e+00    1.217781e+00   1.635088e-02
  1.508636e+00    1.256380e+00   1.658756e-02
  1.510847e+00    1.237761e+00   1.644255e-02
  1.513057e+00    1.221209e+00   1.630748e-02
  1.515268e+00    1.256747e+00   1.651732e-02
  1.517478e+00    1.249728e+00   1.644604e-02
  1.519689e+00    1.239331e+00   1.635266e-02
  1.521899e+00    1.248019e+00   1.638683e-02
  1.524110e+00    1.221941e+00   1.619465e-02
  1.526320e+00    1.247372e+00   1.634273e-02
  1.528531e+00    1.255016e+00   1.637295e-02
  1.530741e+00    1.232279e+00   1.620495e-02
  1.532951e+00    1.252917e+00   1.632045e-02
  1.535162e+00    1.265785e+00   1.649124e-02
  1.537372e+00    1.223095e+00   1.627696e-02
  1.539583e+00    1.203874e+00   1.618218e-02
  1.541793e+00    1.220747e+00   1.630203e-02
  1.544004e+00    1.223826e+00   1.632285e-02
  1.546214e+00    1.226400e+00   1.633851e-02
  1.548425e+00    1.216625e+00   1.627352e-02
  1.550635e+00    1.212181e+00   1.625335e-02
  1.552846e+00    1.218062e+00   1.630224e-02
  1.555056e+00    1.224765e+00   1.630592e-02
  1.557266e+00    1.219677e+00   1.616265e-02
  1.559477e+00    1.236354e+00   1.621385e-02
  1.561687e+00    1.259491e+00   1.633401e-02
  1.563898e+00    1.249143e+00   1.624958e-02
  1.566108e+00    1.245456e+00   1.620961e-02
  1.568319e+00    1.243214e+00   1.617942e-02
  1.570529e+00    1.235269e+00   1.610259e-02
  1.572740e+00    1.210530e+00   1.591329e-02
  1.574950e+00    1.236077e+00   1.605410e-02
  1.577161e+00    1.266340e+00   1.622373e-02
  1.579371e+00    1.280875e+00   1.629258e-02
  1.581582e+00    1.282085e+00   1.628021e-02
  1.583792e+00    1.287958e+00   1.629912e-02
  1.586002e+00    1.304116e+00   1.638300e-02
  1.588213e+00    1.272499e+00   1.616578e-02
  1.590423e+00    1.235181e+00   1.590694e-02
  1.592634e+00    1.251612e+00   1.599070e-02
  1.594844e+00    1.263925e+00   1.604760e-02
  1.597055e+00    1.253860e+00   1.596300e-02
  1.599265e+00    1.224432e+00   1.575395e-02
  1.601476e+00    1.247719e+00   1.588271e-02
  1.603686e+00    1.237156e+00   1.579560e-02
  1.605897e+00    1.242823e+00   1.581154e-02
  1.608107e+00    1.246899e+00   1.581782e-02
  1.610317e+00    1.253951e+00   1.584304e-02
  1.612528e+00    1.247499e+00   1.578298e-02
  1.614738e+00    1.221483e+00   1.559865e-02
  1.616949e+00    1.222250e+00   1.558461e-02
  1.619159e+00    1.227373e+00   1.559846e-02
  1.621370e+00    1.240162e+00   1.566093e-02
  1.623580e+00    1.218472e+00   1.550499e-02
  1.625791e+00    1.266803e+00   1.579081e-02
  1.628001e+00    1.234371e+00   1.556890e-02
  1.630212e+00    1.173721e+00   1.516397e-02
  1.632422e+00    1.177289e+00   1.516915e-02
  1.634632e+00    1.197361e+00   1.528050e-02
  1.636843e+00    1.183146e+00   1.517196e-02
  1.639053e+00    1.154224e+00   1.496823e-02
  1.641264e+00    1.154323e+00   1.495186e-02
  1.643474e+00    1.156964e+00   1.495164e-02
  1.645685e+00    1.115561e+00   1.466530e-02
  1.647895e+00    1.141094e+00   1.481568e-02
  1.650106e+00    1.137179e+00   1.477336e-02
  1.652316e+00    1.120312e+00   1.464710e-02
  1.654527e+00    1.121937e+00   1.464121e-02
  1.656737e+00    1.119962e+00   1.461186e-02
  1.658947e+00    1.109955e+00   1.453032e-02
  1.661158e+00    1.112125e+00   1.452835e-02
  1.663368e+00    1.093343e+00   1.438936e-02
  1.665579e+00    1.097435e+00   1.440025e-02
  1.667789e+00    1.093441e+00   1.435797e-02
  1.670000e+00    1.081846e+00   1.426636e-02
  1.672210e+00    1.091907e+00   1.431678e-02
  1.674421e+00    1.085756e+00   1.426121e-02
  1.676631e+00    1.073916e+00   1.416758e-02
  1.678842e+00    1.072584e+00   1.414320e-02
  1.681052e+00    1.078625e+00   1.416768e-02
  1.683263e+00    1.063522e+00   1.405321e-02
  1.685473e+00    1.050325e+00   1.395084e-02
  1.687683e+00    1.063585e+00   1.402332e-02
  1.689894e+00    1.067980e+00   1.403661e-02
  1.692104e+00    1.054679e+00   1.393415e-02
  1.694315e+00    1.056879e+00   1.393428e-02
  1.696525e+00    1.042390e+00   1.382349e-02
  1.698736e+00    1.038833e+00   1.378524e-02
  1.700946e+00    1.033645e+00   1.373582e-02
  1.703157e+00    1.025928e+00   1.367003e-02
  1.705367e+00    1.021409e+00   1.362562e-02
  1.707578e+00    9.985638e-01   1.345815e-02
  1.709788e+00    1.015503e+00   1.355791e-02
  1.711998e+00    1.029260e+00   1.363452e-02
  1.714209e+00    1.026507e+00   1.360192e-02
  1.716419e+00    1.050241e+00   1.374390e-02
  1.718630e+00    1.033230e+00   1.361786e-02
  1.720840e+00    1.018660e+00   1.350739e-02
  1.723051e+00    1.015125e+00   1.347012e-02
  1.725261e+00    9.916775e-01   1.329920e-02
  1.727472e+00    9.808009e-01   1.321214e-02
  1.729682e+00    9.774712e-01   1.317650e-02
  1.731893e+00    9.780685e-01   1.316684e-02
  1.734103e+00    9.570477e-01   1.301116e-02
  1.736313e+00    9.750495e-01   1.311914e-02
  1.738524e+00    9.920046e-01   1.321897e-02
  1.740734e+00    9.805261e-01   1.312870e-02
  1.742945e+00    9.927263e-01   1.319668e-02
  1.745155e+00    9.797618e-01   1.309689e-02
  1.747366e+00    9.644477e-01   1.298047e-02
  1.749576e+00    9.710705e-01   1.301140e-02
  1.751787e+00    9.395048e-01   1.278514e-02
  1.753997e+00    9.424145e-01   1.279179e-02
  1.756208e+00    9.214227e-01   1.263570e-02
  1.758418e+00    9.222000e-01   1.262825e-02
  1.760628e+00    9.447606e-01   1.276858e-02
  1.762839e+00    9.328477e-01   1.267486e-02
  1.765049e+00    9.089378e-01   1.249861e-02
  1.767260e+00    9.126366e-01   1.251152e-02
  1.769470e+00    9.059576e-01   1.245300e-02
  1.771681e+00    9.188616e-01   1.252847e-02
  1.773891e+00    9.253234e-01   1.255956e-02
  1.776102e+00    8.986087e-01   1.236441e-02
  1.778312e+00    9.040197e-01   1.238912e-02
  1.780523e+00    8.977808e-01   1.233386e-02
  1.782733e+00    9.059818e-01   1.237761e-02
  1.784944e+00    8.997186e-01   1.232211e-02
  1.787154e+00    8.796256e-01   1.217157e-02
  1.789364e+00    8.817730e-01   1.217426e-02
  1.791575e+00    9.019212e-01   1.230021e-02
  1.793785e+00    8.853063e-01   1.217424e-02
  1.795996e+00    8.802879e-01   1.212745e-02
  1.798206e+00    8.578723e-01   1.195995e-02
  1.800417e+00    8.668836e-01   1.201025e-02
  1.802627e+00    8.758857e-01   1.206079e-02
  1.804838e+00    8.662828e-01   1.198267e-02
  1.807048e+00    9.035684e-01   1.222503e-02
  1.809259e+00    8.969144e-01   1.216642e-02
  1.811469e+00    8.878832e-01   1.209019e-02
  1.813679e+00    8.803434e-01   1.202394e-02
  1.815890e+00    8.827038e-01   1.202543e-02
  1.818100e+00    8.603052e-01   1.185709e-02
  1.820311e+00    8.465707e-01   1.174768e-02
  1.822521e+00    8.632612e-01   1.184829e-02
  1.824732e+00    8.594288e-01   1.180742e-02
  1.826942e+00    8.739583e-01   1.189455e-02
  1.829153e+00    8.732937e-01   1.187843e-02
  1.831363e+00    8.677884e-01   1.182901e-02
  1.833574e+00    8.634143e-01   1.178758e-02
  1.835784e+00    8.787010e-01   1.188007e-02
  1.837994e+00    8.811139e-01   1.188462e-02
  1.840205e+00    8.870447e-01   1.191330e-02
  1.842415e+00    8.653110e-01   1.175475e-02
  1.844626e+00    8.758498e-01   1.181448e-02
  1.846836e+00    9.174646e-01   1.208017e-02
  1.849047e+00    8.827446e-01   1.183770e-02
  1.851257e+00    8.678734e-01   1.172793e-02
  1.853468e+00    8.882943e-01   1.185618e-02
  1.855678e+00    8.664901e-01   1.170088e-02
  1.857889e+00    8.463191e-01   1.155542e-02
  1.860099e+00    8.328529e-01   1.145462e-02
  1.862309e+00    8.396701e-01   1.149298e-02
  1.864520e+00    8.347126e-01   1.145052e-02
  1.866730e+00    8.621190e-01   1.162755e-02
  1.868941e+00    8.736869e-01   1.169424e-02
  1.871151e+00    8.571117e-01   1.157135e-02
  1.873362e+00    8.744195e-01   1.167609e-02
  1.875572e+00    8.592439e-01   1.156334e-02
  1.877783e+00    8.460818e-01   1.146301e-02
  1.879993e+00    8.498446e-01   1.147728e-02
  1.882204e+00    8.805622e-01   1.167175e-02
  1.884414e+00    8.349757e-01   1.135461e-02
  1.886624e+00    8.340243e-01   1.133711e-02
  1.888835e+00    8.557210e-01   1.147256e-02
  1.891045e+00    8.800707e-01   1.162350e-02
  1.893256e+00    8.547586e-01   1.144397e-02
  1.895466e+00    8.423913e-01   1.134965e-02
  1.897677e+00    8.403112e-01   1.132467e-02
  1.899887e+00    8.486521e-01   1.136967e-02
  1.902098e+00    8.663543e-01   1.147656e-02
  1.904308e+00    8.441458e-01   1.131786e-02
  1.906519e+00    8.438044e-01   1.130462e-02
  1.908729e+00    8.372642e-01   1.125008e-02
  1.910940e+00    8.391635e-01   1.125161e-02
  1.913150e+00    8.339257e-01   1.120582e-02
  1.915360e+00    8.323917e-01   1.118484e-02
  1.917571e+00    8.271389e-01   1.113858e-02
  1.919781e+00    8.483922e-01   1.126991e-02
  1.921992e+00    8.468474e-01   1.124886e-02
  1.924202e+00    8.486704e-01   1.125001e-02
  1.926413e+00    8.174265e-01   1.103067e-02
  1.928623e+00    8.250598e-01   1.107143e-02
  1.930834e+00    8.174772e-01   1.101000e-02
  1.933044e+00    7.978797e-01   1.086663e-02
  1.935255e+00    8.001189e-01   1.087161e-02
  1.937465e+00    7.986488e-01   1.085127e-02
  1.939675e+00    8.187135e-01   1.097582e-02
  1.941886e+00    8.064577e-01   1.088307e-02
  1.944096e+00    7.997103e-01   1.082728e-02
  1.946307e+00    7.696283e-01   1.061157e-02
  1.948517e+00    7.939453e-01   1.076747e-02
  1.950728e+00    7.977893e-01   1.078330e-02
  1.952938e+00    7.870864e-01   1.070069e-02
  1.955149e+00    7.873361e-01   1.069220e-02
  1.957359e+00    8.055059e-01   1.080478e-02
  1.959570e+00    7.670141e-01   1.053279e-02
  1.961780e+00    7.607378e-01   1.047988e-02
  1.963990e+00    7.838052e-01   1.062751e-02
  1.966201e+00    8.045370e-01   1.075701e-02
  1.968411e+00    7.926544e-01   1.066711e-02
  1.970622e+00    7.882841e-01   1.062756e-02
  1.972832e+00    7.839730e-01   1.058852e-02
  1.975043e+00    7.790470e-01   1.054518e-02
  1.977253e+00    7.904004e-01   1.061177e-02
  1.979464e+00    7.848961e-01   1.056472e-02
  1.981674e+00    7.784639e-01   1.051110e-02
  1.983885e+00    7.797441e-01   1.050973e-02
  1.986095e+00    7.831341e-01   1.052284e-02
  1.988305e+00    7.845985e-01   1.052275e-02
  1.990516e+00    7.820650e-01   1.049579e-02
  1.992726e+00    7.922678e-01   1.055428e-02
  1.994937e+00    7.803235e-01   1.046428e-02
  1.997147e+00    7.671809e-01   1.036610e-02
  1.999358e+00    7.831482e-01   1.046350e-02
  2.001568e+00    7.884122e-01   1.048771e-02
  2.003779e+00    7.658486e-01   1.032467e-02
  2.005989e+00    7.660707e-01   1.031420e-02
  2.008200e+00    7.585005e-01   1.025167e-02
  2.010410e+00    7.554331e-01   1.021928e-02
  2.012621e+00    7.506738e-01   1.017548e-02
  2.014831e+00    7.387562e-01   1.008311e-02
  2.017041e+00    7.551249e-01   1.018390e-02
  2.019252e+00    7.684644e-01   1.026348e-02
  2.021462e+00    7.749720e-01   1.029729e-02
  2.023673e+00    7.796988e-01   1.031916e-02
  2.025883e+00    7.687172e-01   1.023668e-02
  2.028094e+00    7.613437e-01   1.017784e-02
  2.030304e+00    7.495547e-01   1.008926e-02
  2.032515e+00    7.518117e-01   1.009519e-02
  2.034725e+00    7.431731e-01   1.002769e-02
  2.036936e+00    7.557763e-01   1.010303e-02
  2.039146e+00    7.542480e-01   1.008325e-02
  2.041356e+00    7.767190e-01   1.022259e-02
  2.043567e+00    7.790726e-01   1.022861e-02
  2.045777e+00    8.122889e-01   1.043481e-02
  2.047988e+00    7.938833e-01   1.030630e-02
  2.050198e+00    7.854470e-01   1.024280e-02
  2.052409e+00    7.521552e-01   1.001572e-02
  2.054619e+00    7.443902e-01   9.956536e-03
  2.056830e+00    7.490621e-01   9.980566e-03
  2.059040e+00    7.387896e-01   9.904441e-03
  2.061251e+00    7.504550e-01   9.975083e-03
  2.063461e+00    7.502803e-01   9.966314e-03
  2.065671e+00    7.433919e-01   9.911777e-03
  2.067882e+00    7.449093e-01   9.912900e-03
  2.070092e+00    7.576945e-01   9.988350e-03
  2.072303e+00    7.585666e-01   9.984894e-03
  2.074513e+00    7.303790e-01   9.788403e-03
  2.076724e+00    7.343950e-01   9.805846e-03
  2.078934e+00    7.434015e-01   9.856815e-03
  2.081145e+00    7.281726e-01   9.746335e-03
  2.083355e+00    7.398539e-01   9.815027e-03
  2.085566e+00    7.416165e-01   9.817806e-03
  2.087776e+00    7.406257e-01   9.801739e-03
  2.089986e+00    7.297876e-01   9.721021e-03
  2.092197e+00    7.278368e-01   9.699118e-03
  2.094407e+00    7.211024e-01   9.645015e-03
  2.096618e+00    7.082916e-01   9.550222e-03
  2.098828e+00    7.168798e-01   9.598739e-03
  2.101039e+00    7.275987e-01   9.661286e-03
  2.103249e+00    7.252677e-01   9.637183e-03
  2.105460e+00    7.130268e-01   9.546593e-03
  2.107670e+00    6.885693e-01   9.372948e-03
  2.109881e+00    7.007082e-01   9.446194e-03
  2.112091e+00    7.065396e-01   9.476563e-03
  2.114301e+00    7.127859e-01   9.509648e-03
  2.116512e+00    7.061797e-01   9.456785e-03
  2.118722e+00    7.092750e-01   9.468748e-03
  2.120933e+00    6.969320e-01   9.377290e-03
  2.123143e+00    6.958838e-01   9.361446e-03
  2.125354e+00    7.052305e-01   9.415662e-03
  2.127564e+00    7.087427e-01   9.430403e-03
  2.129775e+00    6.985096e-01   9.353446e-03
  2.131985e+00    6.782801e-01   9.208198e-03
  2.134196e+00    6.847458e-01   9.243530e-03
  2.136406e+00    6.935352e-01   9.294065e-03
  2.138617e+00    7.004628e-01   9.331965e-03
  2.140827e+00    6.881137e-01   9.265172e-03
  2.143037e+00    6.813136e-01   9.263897e-03
  2.145248e+00    6.984436e-01   9.401542e-03
  2.147458e+00    6.979726e-01   9.413416e-03
  2.149669e+00    7.019478e-01   9.452055e-03
  2.151879e+00    6.853055e-01   9.348429e-03
  2.154090e+00    6.950632e-01   9.422030e-03
  2.156300e+00    6.973236e-01   9.443938e-03
  2.158511e+00    6.945496e-01   9.430411e-03
  2.160721e+00    6.784173e-01   9.325007e-03
  2.162932e+00    6.814954e-01   9.349822e-03
  2.165142e+00    6.995477e-01   9.475868e-03
  2.167352e+00    6.786596e-01   9.336227e-03
  2.169563e+00    6.839442e-01   9.374405e-03
  2.171773e+00    6.861138e-01   9.391722e-03
  2.173984e+00    6.890588e-01   9.413265e-03
  2.176194e+00    6.709595e-01   9.289988e-03
  2.178405e+00    6.863195e-01   9.396403e-03
  2.180615e+00    6.785000e-01   9.343428e-03
  2.182826e+00    6.766413e-01   9.331261e-03
  2.185036e+00    6.833155e-01   9.377243e-03
  2.187247e+00    6.824962e-01   9.371560e-03
  2.189457e+00    6.830244e-01   9.374785e-03
  2.191667e+00    6.798791e-01   9.352991e-03
  2.193878e+00    6.836820e-01   9.378558e-03
  2.196088e+00    6.669869e-01   9.262669e-03
  2.198299e+00    6.674423e-01   9.264749e-03
  2.200509e+00    6.769630e-01   9.329536e-03
  2.202720e+00    6.808490e-01   9.355132e-03
  2.204930e+00    6.633630e-01   9.232994e-03
  2.207141e+00    6.621743e-01   9.223615e-03
  2.209351e+00    6.620718e-01   9.221037e-03
  2.211562e+00    6.842544e-01   9.372608e-03
  2.213772e+00    6.790487e-01   9.281339e-03
  2.215982e+00    6.635175e-01   9.130768e-03
  2.218193e+00    6.600105e-01   9.077323e-03
  2.220403e+00    6.545815e-01   9.015680e-03
  2.222614e+00    6.735115e-01   9.124201e-03
  2.224824e+00    6.689045e-01   9.073589e-03
  2.227035e+00    6.685739e-01   9.053979e-03
  2.229245e+00    6.764284e-01   9.089975e-03
  2.231456e+00    6.707851e-01   9.036372e-03
  2.233666e+00    6.704304e-01   9.018893e-03
  2.235877e+00    6.665441e-01   8.978484e-03
  2.238087e+00    6.727183e-01   9.006469e-03
  2.240298e+00    6.679278e-01   8.960600e-03
  2.242508e+00    6.537579e-01   8.850079e-03
  2.244718e+00    6.521110e-01   8.823314e-03
  2.246929e+00    6.526230e-01   8.812522e-03
  2.249139e+00    6.484441e-01   8.772055e-03
  2.251350e+00    6.556325e-01   8.808945e-03
  2.253560e+00    6.586762e-01   8.817859e-03
  2.255771e+00    6.589485e-01   8.808344e-03
  2.257981e+00    6.445078e-01   8.700288e-03
  2.260192e+00    6.460486e-01   8.699720e-03
  2.262402e+00    6.412420e-01   8.656637e-03
  2.264613e+00    6.527036e-01   8.722911e-03
  2.266823e+00    6.430113e-01   8.647670e-03
  2.269033e+00    6.575372e-01   8.734440e-03
  2.271244e+00    6.699984e-01   8.806393e-03
  2.273454e+00    6.770848e-01   8.842453e-03
  2.275665e+00    6.650754e-01   8.753368e-03
  2.277875e+00    6.646132e-01   8.740376e-03
  2.280086e+00    6.500073e-01   8.633839e-03
  2.282296e+00    6.437694e-01   8.582992e-03
  2.284507e+00    6.488628e-01   8.606842e-03
  2.286717e+00    6.575270e-01   8.654644e-03
  2.288928e+00    6.593146e-01   8.656515e-03
  2.291138e+00    6.560497e-01   8.625649e-03
  2.293348e+00    6.504724e-01   8.579393e-03
  2.295559e+00    6.520856e-01   8.580750e-03
  2.297769e+00    6.426610e-01   8.509336e-03
  2.299980e+00    6.567374e-01   8.592668e-03
  2.302190e+00    6.433083e-01   8.495317e-03
  2.304401e+00    6.359394e-01   8.437308e-03
  2.306611e+00    6.312521e-01   8.397114e-03
  2.308822e+00    6.366682e-01   8.424746e-03
  2.311032e+00    6.402264e-01   8.441868e-03
  2.313243e+00    6.603187e-01   8.566995e-03
  2.315453e+00    6.285453e-01   8.350889e-03
  2.317663e+00    6.298176e-01   8.350327e-03
  2.319874e+00    6.314375e-01   8.352434e-03
  2.322084e+00    6.312686e-01   8.342450e-03
  2.324295e+00    6.495329e-01   8.454032e-03
  2.326505e+00    6.337476e-01   8.341699e-03
  2.328716e+00    6.323674e-01   8.324116e-03
  2.330926e+00    6.365700e-01   8.342994e-03
  2.333137e+00    6.351795e-01   8.325549e-03
  2.335347e+00    6.274248e-01   8.265795e-03
  2.337558e+00    6.215203e-01   8.218703e-03
  2.339768e+00    6.196632e-01   8.197973e-03
  2.341979e+00    6.277200e-01   8.242795e-03
  2.344189e+00    6.263579e-01   8.225543e-03
  2.346399e+00    6.192994e-01   8.170671e-03
  2.348610e+00    6.314408e-01   8.241955e-03
  2.350820e+00    6.181768e-01   8.146854e-03
  2.353031e+00    6.154699e-01   8.120841e-03
  2.355241e+00    6.224505e-01   8.158769e-03
  2.357452e+00    6.151223e-01   8.102293e-03
  2.359662e+00    6.353743e-01   8.226345e-03
  2.361873e+00    6.337312e-01   8.207452e-03
  2.364083e+00    6.295052e-01   8.172059e-03
  2.366294e+00    6.206045e-01   8.106008e-03
  2.368504e+00    6.159468e-01   8.067525e-03
  2.370714e+00    6.174845e-01   8.069593e-03
  2.372925e+00    6.091313e-01   8.006878e-03
  2.375135e+00    6.129376e-01   8.023856e-03
  2.377346e+00    6.151465e-01   8.030428e-03
  2.379556e+00    6.123663e-01   8.004421e-03
  2.381767e+00    6.049899e-01   7.948306e-03
  2.383977e+00    6.136546e-01   7.997128e-03
  2.386188e+00    6.268516e-01   8.074710e-03
  2.388398e+00    5.873376e-01   7.808337e-03
  2.390609e+00    5.950716e-01   7.851954e-03
  2.392819e+00    6.059848e-01   7.915932e-03
  2.395029e+00    6.185716e-01   7.990044e-03
  2.397240e+00    5.999098e-01   7.860825e-03
  2.399450e+00    5.899103e-01   7.787376e-03
  2.401661e+00    5.897395e-01   7.778716e-03
  2.403871e+00    5.940404e-01   7.799361e-03
  2.406082e+00    6.113762e-01   7.904910e-03
  2.408292e+00    6.021385e-01   7.837232e-03
  2.410503e+00    5.962348e-01   7.791290e-03
  2.412713e+00    6.027942e-01   7.826269e-03
  2.414924e+00    5.940533e-01   7.761905e-03
  2.417134e+00    6.111808e-01   7.865318e-03
  2.419344e+00    6.053693e-01   7.820424e-03
  2.421555e+00    6.142260e-01   7.869844e-03
  2.423765e+00    6.007183e-01   7.775411e-03
  2.425976e+00    6.002546e-01   7.764607e-03
  2.428186e+00    5.999997e-01   7.755734e-03
  2.430397e+00    5.864264e-01   7.660087e-03
  2.432607e+00    5.818789e-01   7.623151e-03
  2.434818e+00    5.796964e-01   7.601381e-03
  2.437028e+00    5.811624e-01   7.603920e-03
  2.439239e+00    5.946822e-01   7.684194e-03
  2.441449e+00    5.829763e-01   7.601067e-03
  2.443659e+00    5.702564e-01   7.510443e-03
  2.445870e+00    5.822461e-01   7.601174e-03
  2.448080e+00    5.690034e-01   7.548618e-03
  2.450291e+00    5.755897e-01   7.608750e-03
  2.452501e+00    5.735341e-01   7.606313e-03
  2.454712e+00    5.448187e-01   7.421662e-03
  2.456922e+00    5.592375e-01   7.525774e-03
  2.459133e+00    5.517305e-01   7.480452e-03
  2.461343e+00    5.543255e-01   7.502318e-03
  2.463554e+00    5.537598e-01   7.501937e-03
  2.465764e+00    5.499668e-01   7.479295e-03
  2.467975e+00    5.539173e-01   7.508383e-03
  2.470185e+00    5.444354e-01   7.446077e-03
  2.472395e+00    5.404640e-01   7.420054e-03
  2.474606e+00    5.526434e-01   7.504764e-03
  2.476816e+00    5.414284e-01   7.428972e-03
  2.479027e+00    5.302329e-01   7.352573e-03
  2.481237e+00    5.418744e-01   7.433135e-03
  2.483448e+00    5.352243e-01   7.387680e-03
  2.485658e+00    5.482058e-01   7.476592e-03
  2.487869e+00    5.445449e-01   7.451617e-03
  2.490079e+00    5.290275e-01   7.344184e-03
  2.492290e+00    5.317079e-01   7.362310e-03
  2.494500e+00    5.369247e-01   7.397640e-03
  2.496710e+00    5.399888e-01   7.417981e-03
  2.498921e+00    5.475628e-01   7.468841e-03
  2.501131e+00    5.316522e-01   7.358595e-03
  2.503342e+00    5.127502e-01   7.225366e-03
  2.505552e+00    5.070157e-01   7.183718e-03
  2.507763e+00    5.052389e-01   7.169737e-03
  2.509973e+00    5.140148e-01   7.230378e-03
  2.512184e+00    5.166900e-01   7.247549e-03
  2.514394e+00    5.256801e-01   7.301002e-03
  2.516605e+00    5.139466e-01   7.172544e-03
  2.518815e+00    5.244160e-01   7.216962e-03
  2.521025e+00    5.281279e-01   7.221440e-03
  2.523236e+00    5.207702e-01   7.153066e-03
  2.525446e+00    5.084466e-01   7.052566e-03
  2.527657e+00    5.154661e-01   7.086616e-03
  2.529867e+00    5.185374e-01   7.093613e-03
  2.532078e+00    5.118148e-01   7.032617e-03
  2.534288e+00    5.111365e-01   7.014266e-03
  2.536499e+00    5.076223e-01   6.978354e-03
  2.538709e+00    5.072684e-01   6.965119e-03
  2.540920e+00    5.260334e-01   7.082095e-03
  2.543130e+00    5.240139e-01   7.058144e-03
  2.545340e+00    5.136607e-01   6.978105e-03
  2.547551e+00    5.039477e-01   6.902047e-03
  2.549761e+00    5.053257e-01   6.902047e-03
  2.551972e+00    5.129723e-01   6.944797e-03
  2.554182e+00    5.104356e-01   6.918536e-03
  2.556393e+00    5.076900e-01   6.890912e-03
  2.558603e+00    5.053266e-01   6.865920e-03
  2.560814e+00    5.028625e-01   6.840609e-03
  2.563024e+00    5.036861e-01   6.837736e-03
  2.565235e+00    5.089507e-01   6.863991e-03
  2.567445e+00    5.013008e-01   6.802800e-03
  2.569656e+00    5.026299e-01   6.802229e-03
  2.571866e+00    5.012103e-01   6.783396e-03
  2.574076e+00    5.160552e-01   6.873852e-03
  2.576287e+00    5.177778e-01   6.876995e-03
  2.578497e+00    5.083181e-01   6.806093e-03
  2.580708e+00    5.155827e-01   6.846464e-03
  2.582918e+00    4.914187e-01   6.676536e-03
  2.585129e+00    4.906227e-01   6.663532e-03
  2.587339e+00    5.015475e-01   6.729739e-03
  2.589550e+00    4.993925e-01   6.707811e-03
  2.591760e+00    5.041682e-01   6.732133e-03
  2.593971e+00    4.994941e-01   6.693428e-03
  2.596181e+00    4.916616e-01   6.634630e-03
  2.598391e+00    5.016341e-01   6.696425e-03
  2.600602e+00    5.110671e-01   6.753188e-03
  2.602812e+00    4.954520e-01   6.641787e-03
  2.605023e+00    4.951350e-01   6.632586e-03
  2.607233e+00    4.860213e-01   6.564277e-03
  2.609444e+00    4.972160e-01   6.632286e-03
  2.611654e+00    4.981910e-01   6.631533e-03
  2.613865e+00    5.004637e-01   6.639642e-03
  2.616075e+00    4.919877e-01   6.576134e-03
  2.618286e+00    5.045379e-01   6.652504e-03
  2.620496e+00    4.804161e-01   6.485005e-03
  2.622706e+00    4.839135e-01   6.502912e-03
  2.624917e+00    5.035372e-01   6.627629e-03
  2.627127e+00    5.116624e-01   6.675109e-03
  2.629338e+00    5.010105e-01   6.599301e-03
  2.631548e+00    4.974926e-01   6.569967e-03
  2.633759e+00    4.919251e-01   6.526012e-03
  2.635969e+00    4.975339e-01   6.556443e-03
  2.638180e+00    5.118454e-01   6.643044e-03
  2.640390e+00    4.869761e-01   6.473130e-03
  2.642601e+00    4.937413e-01   6.511318e-03
  2.644811e+00    5.000036e-01   6.545411e-03
  2.647021e+00    4.871692e-01   6.454379e-03
  2.649232e+00    4.836727e-01   6.424563e-03
  2.651442e+00    4.892479e-01   6.455041e-03
  2.653653e+00    5.041486e-01   6.545777e-03
  2.655863e+00    4.864255e-01   6.423095e-03
  2.658074e+00    4.841473e-01   6.401516e-03
  2.660284e+00    4.839852e-01   6.394160e-03
  2.662495e+00    4.951716e-01   6.460905e-03
  2.664705e+00    4.941226e-01   6.447514e-03
  2.666916e+00    4.697382e-01   6.280125e-03
  2.669126e+00    4.721893e-01   6.290180e-03
  2.671337e+00    4.863661e-01   6.377379e-03
  2.673547e+00    4.910333e-01   6.401566e-03
  2.675757e+00    4.871891e-01   6.370055e-03
  2.677968e+00    4.813148e-01   6.325107e-03
  2.680178e+00    4.633025e-01   6.199419e-03
  2.682389e+00    4.913623e-01   6.377990e-03
  2.684599e+00    4.858453e-01   6.335973e-03
  2.686810e+00    4.833559e-01   6.313148e-03
  2.689020e+00    4.905446e-01   6.353650e-03
  2.691231e+00    4.784069e-01   6.268344e-03
  2.693441e+00    4.730084e-01   6.226845e-03
  2.695652e+00    4.693992e-01   6.196661e-03
  2.697862e+00    4.828170e-01   6.278296e-03
  2.700072e+00    4.845375e-01   6.283445e-03
  2.702283e+00    4.754039e-01   6.217808e-03
  2.704493e+00    4.680088e-01   6.163091e-03
  2.706704e+00    4.907264e-01   6.304487e-03
  2.708914e+00    4.838504e-01   6.254232e-03
  2.711125e+00    4.747238e-01   6.188800e-03
  2.713335e+00    4.730209e-01   6.171694e-03
  2.715546e+00    4.664735e-01   6.122508e-03
  2.717756e+00    4.749950e-01   6.172339e-03
  2.719967e+00    4.786595e-01   6.189965e-03
  2.722177e+00    4.813972e-01   6.201524e-03
  2.724387e+00    4.899539e-01   6.250276e-03
  2.726598e+00    4.773584e-01   6.163406e-03
  2.728808e+00    4.640908e-01   6.071143e-03
  2.731019e+00    4.658629e-01   6.076701e-03
  2.733229e+00    4.686479e-01   6.089136e-03
  2.735440e+00    4.691416e-01   6.086178e-03
  2.737650e+00    4.641477e-01   6.047791e-03
  2.739861e+00    4.751669e-01   6.113145e-03
  2.742071e+00    4.805380e-01   6.141867e-03
  2.744282e+00    4.761040e-01   6.107260e-03
  2.746492e+00    4.819003e-01   6.138303e-03
  2.748702e+00    4.738625e-01   6.081039e-03
  2.750913e+00    4.816146e-01   6.124780e-03
  2.753123e+00    4.759319e-01   6.082460e-03
  2.755334e+00    4.786465e-01   6.093718e-03
  2.757544e+00    4.645182e-01   5.997479e-03
  2.759755e+00    4.713596e-01   6.035642e-03
  2.761965e+00    4.739748e-01   6.046413e-03
  2.764176e+00    4.753083e-01   6.048985e-03
  2.766386e+00    4.581742e-01   5.933263e-03
  2.768597e+00    4.657223e-01   5.976178e-03
  2.770807e+00    4.667120e-01   5.976721e-03
  2.773017e+00    4.754135e-01   6.026221e-03
  2.775228e+00    4.976422e-01   6.159601e-03
  2.777438e+00    4.814712e-01   6.052900e-03
  2.779649e+00    4.584147e-01   5.900400e-03
  2.781859e+00    4.654934e-01   5.940092e-03
  2.784070e+00    4.662119e-01   5.938884e-03
  2.786280e+00    4.607696e-01   5.898451e-03
  2.788491e+00    4.775639e-01   5.999136e-03
  2.790701e+00    4.664245e-01   5.923191e-03
  2.792912e+00    4.800665e-01   6.003173e-03
  2.795122e+00    4.659083e-01   5.908342e-03
  2.797333e+00    4.537552e-01   5.825334e-03
  2.799543e+00    4.650863e-01   5.891809e-03
  2.801753e+00    4.720651e-01   5.930025e-03
  2.803964e+00    4.759978e-01   5.949007e-03
  2.806174e+00    4.759300e-01   5.942432e-03
  2.808385e+00    4.569741e-01   5.816232e-03
  2.810595e+00    4.578115e-01   5.814797e-03
  2.812806e+00    4.769244e-01   5.928318e-03
  2.815016e+00    4.700306e-01   5.880581e-03
  2.817227e+00    4.755839e-01   5.941203e-03
  2.819437e+00    4.649575e-01   5.885433e-03
  2.821648e+00    4.662448e-01   5.895839e-03
  2.823858e+00    4.642794e-01   5.888681e-03
  2.826068e+00    4.702607e-01   5.931465e-03
  2.828279e+00    4.587292e-01   5.862269e-03
  2.830489e+00    4.684333e-01   5.927269e-03
  2.832700e+00    4.705911e-01   5.943457e-03
  2.834910e+00    4.703460e-01   5.943989e-03
  2.837121e+00    4.645005e-01   5.908619e-03
  2.839331e+00    4.678331e-01   5.930996e-03
  2.841542e+00    4.657105e-01   5.918551e-03
  2.843752e+00    4.602801e-01   5.884715e-03
  2.845963e+00    4.647841e-01   5.913830e-03
  2.848173e+00    4.612705e-01   5.891526e-03
  2.850383e+00    4.618724e-01   5.895655e-03
  2.852594e+00    4.478181e-01   5.805186e-03
  2.854804e+00    4.659229e-01   5.920861e-03
  2.857015e+00    4.659991e-01   5.920934e-03
  2.859225e+00    4.494935e-01   5.814872e-03
  2.861436e+00    4.546799e-01   5.847663e-03
  2.863646e+00    4.746694e-01   5.974873e-03
  2.865857e+00    4.656208e-01   5.917989e-03
  2.868067e+00    4.629854e-01   5.901447e-03
  2.870278e+00    4.587227e-01   5.873857e-03
  2.872488e+00    4.655910e-01   5.916506e-03
  2.874698e+00    4.556437e-01   5.851939e-03
  2.876909e+00    4.488005e-01   5.806505e-03
  2.879119e+00    4.567500e-01   5.856094e-03
  2.881330e+00    4.607039e-01   5.879920e-03
  2.883540e+00    4.508184e-01   5.815133e-03
  2.885751e+00    4.398767e-01   5.742522e-03
  2.887961e+00    4.465800e-01   5.784252e-03
  2.890172e+00    4.541177e-01   5.831268e-03
  2.892382e+00    4.655701e-01   5.902534e-03
  2.894593e+00    4.710512e-01   5.935340e-03
  2.896803e+00    4.683654e-01   5.916402e-03
  2.899014e+00    4.524011e-01   5.812803e-03
  2.901224e+00    4.612081e-01   5.867107e-03
  2.903434e+00    4.608342e-01   5.862799e-03
  2.905645e+00    4.443556e-01   5.754819e-03
  2.907855e+00    4.558772e-01   5.826863e-03
  2.910066e+00    4.656807e-01   5.887082e-03
  2.912276e+00    4.546369e-01   5.814769e-03
  2.914487e+00    4.494096e-01   5.778794e-03
  2.916697e+00    4.589455e-01   5.837546e-03
  2.918908e+00    4.588039e-01   5.834667e-03
  2.921118e+00    4.561293e-01   5.814932e-03
  2.923329e+00    4.474144e-01   5.756827e-03
  2.925539e+00    4.507373e-01   5.775905e-03
  2.927749e+00    4.529468e-01   5.787727e-03
  2.929960e+00    4.645599e-01   5.858660e-03
  2.932170e+00    4.631063e-01   5.847161e-03
  2.934381e+00    4.584281e-01   5.815090e-03
  2.936591e+00    4.677911e-01   5.871559e-03
  2.938802e+00    4.511352e-01   5.763421e-03
  2.941012e+00    4.380671e-01   5.677011e-03
  2.943223e+00    4.463710e-01   5.727915e-03
  2.945433e+00    4.501967e-01   5.748671e-03
  2.947644e+00    4.493419e-01   5.739124e-03
  2.949854e+00    4.400459e-01   5.675244e-03
  2.952064e+00    4.569374e-01   5.778909e-03
  2.954275e+00    4.540020e-01   5.755914e-03
  2.956485e+00    4.527422e-01   5.743747e-03
  2.958696e+00    4.435932e-01   5.681103e-03
  2.960906e+00    4.491138e-01   5.712177e-03
  2.963117e+00    4.536158e-01   5.736270e-03
  2.965327e+00    4.553352e-01   5.743213e-03
  2.967538e+00    4.546510e-01   5.735986e-03
  2.969748e+00    4.487391e-01   5.695786e-03
  2.971959e+00    4.419562e-01   5.649468e-03
  2.974169e+00    4.574796e-01   5.745227e-03
  2.976379e+00    4.648462e-01   5.788357e-03
  2.978590e+00    4.578646e-01   5.741580e-03
  2.980800e+00    4.666353e-01   5.793467e-03
  2.983011e+00    4.561682e-01   5.725332e-03
  2.985221e+00    4.446168e-01   5.649251e-03
  2.987432e+00    4.442948e-01   5.644129e-03
  2.989642e+00    4.417920e-01   5.625609e-03
  2.991853e+00    4.377658e-01   5.596708e-03
  2.994063e+00    4.411301e-01   5.615290e-03
  2.996274e+00    4.497020e-01   5.666431e-03
  2.998484e+00    4.465449e-01   5.643815e-03
  3.000694e+00    4.429837e-01   5.617866e-03
  3.002905e+00    4.442167e-01   5.622764e-03
  3.005115e+00    4.496880e-01   5.654324e-03
  3.007326e+00    4.391021e-01   5.584250e-03
  3.009536e+00    4.553576e-01   5.683443e-03
  3.011747e+00    4.383881e-01   5.573654e-03
  3.013957e+00    4.416463e-01   5.591199e-03
  3.016168e+00    4.364178e-01   5.554792e-03
  3.018378e+00    4.410752e-01   5.581341e-03
  3.020589e+00    4.560290e-01   5.671975e-03
  3.022799e+00    4.403421e-01   5.570420e-03
  3.025010e+00    4.542254e-01   5.654320e-03
  3.027220e+00    4.463471e-01   5.601980e-03
  3.029430e+00    4.510188e-01   5.627975e-03
  3.031641e+00    4.520433e-01   5.631214e-03
  3.033851e+00    4.463211e-01   5.591999e-03
  3.036062e+00    4.330204e-01   5.505294e-03
  3.038272e+00    4.490842e-01   5.602915e-03
  3.040483e+00    4.487968e-01   5.597913e-03
  3.042693e+00    4.457705e-01   5.575774e-03
  3.044904e+00    4.469194e-01   5.578930e-03
  3.047114e+00    4.534836e-01   5.614946e-03
  3.049325e+00    4.371965e-01   5.508879e-03
  3.051535e+00    4.264550e-01   5.436487e-03
  3.053745e+00    4.407099e-01   5.521908e-03
  3.055956e+00    4.347857e-01   5.480176e-03
  3.058166e+00    4.473146e-01   5.554328e-03
  3.060377e+00    4.408340e-01   5.509230e-03
  3.062587e+00    4.401186e-01   5.500178e-03
  3.064798e+00    4.443163e-01   5.522125e-03
  3.067008e+00    4.505859e-01   5.556195e-03
  3.069219e+00    4.491777e-01   5.543020e-03
  3.071429e+00    4.340914e-01   5.445688e-03
  3.073640e+00    4.354752e-01   5.451062e-03
  3.075850e+00    4.338059e-01   5.437103e-03
  3.078060e+00    4.386807e-01   5.464477e-03
  3.080271e+00    4.469261e-01   5.512137e-03
  3.082481e+00    4.367832e-01   5.445835e-03
  3.084692e+00    4.285411e-01   5.390896e-03
  3.086902e+00    4.447962e-01   5.488955e-03
  3.089113e+00    4.529105e-01   5.535205e-03
  3.091323e+00    4.445727e-01   5.480671e-03
  3.093534e+00    4.402162e-01   5.450398e-03
  3.095744e+00    4.377640e-01   5.431856e-03
  3.097955e+00    4.508775e-01   5.509051e-03
  3.100165e+00    4.525082e-01   5.515661e-03
  3.102375e+00    4.504721e-01   5.499791e-03
  3.104586e+00    4.479372e-01   5.480815e-03
  3.106796e+00    4.392586e-01   5.423970e-03
  3.109007e+00    4.381450e-01   5.413893e-03
  3.111217e+00    4.374330e-01   5.405837e-03
  3.113428e+00    4.449079e-01   5.448402e-03
  3.115638e+00    4.574090e-01   5.521165e-03
  3.117849e+00    4.373165e-01   5.394840e-03
  3.120059e+00    4.437623e-01   5.430999e-03
  3.122270e+00    4.511068e-01   5.472468e-03
  3.124480e+00    4.474868e-01   5.446784e-03
  3.126691e+00    4.424328e-01   5.412362e-03
  3.128901e+00    4.479223e-01   5.442720e-03
  3.131111e+00    4.279107e-01   5.315997e-03
  3.133322e+00    4.265013e-01   5.303820e-03
  3.135532e+00    4.379752e-01   5.371332e-03
  3.137743e+00    4.449512e-01   5.410450e-03
  3.139953e+00    4.523045e-01   5.451254e-03
  3.142164e+00    4.390565e-01   5.382812e-03
  3.144374e+00    4.350523e-01   5.386354e-03
  3.146585e+00    4.351644e-01   5.401505e-03
  3.148795e+00    4.478292e-01   5.490377e-03
  3.151006e+00    4.437632e-01   5.473961e-03
  3.153216e+00    4.395208e-01   5.454853e-03
  3.155426e+00    4.421342e-01   5.477370e-03
  3.157637e+00    4.190897e-01   5.338108e-03
  3.159847e+00    4.266793e-01   5.390998e-03
  3.162058e+00    4.467899e-01   5.521058e-03
  3.164268e+00    4.384708e-01   5.473484e-03
  3.166479e+00    4.333107e-01   5.444798e-03
  3.168689e+00    4.431439e-01   5.509604e-03
  3.170900e+00    4.381014e-01   5.481351e-03
  3.173110e+00    4.383264e-01   5.485630e-03
  3.175321e+00    4.308736e-01   5.441251e-03
  3.177531e+00    4.439852e-01   5.526188e-03
  3.179741e+00    4.433771e-01   5.524492e-03
  3.181952e+00    4.278882e-01   5.429212e-03
  3.184162e+00    4.423066e-01   5.522138e-03
  3.186373e+00    4.238176e-01   5.407086e-03
  3.188583e+00    4.152852e-01   5.354089e-03
  3.190794e+00    4.308874e-01   5.455492e-03
  3.193004e+00    4.322321e-01   5.465238e-03
  3.195215e+00    4.324401e-01   5.468052e-03
  3.197425e+00    4.286512e-01   5.445237e-03
  3.199636e+00    4.287395e-01   5.445044e-03
  3.201846e+00    4.349426e-01   5.483684e-03
  3.204056e+00    4.253354e-01   5.423673e-03
  3.206267e+00    4.349441e-01   5.485427e-03
  3.208477e+00    4.259955e-01   5.429629e-03
  3.210688e+00    4.273995e-01   5.439408e-03
  3.212898e+00    4.271934e-01   5.438654e-03
  3.215109e+00    4.246461e-01   5.423173e-03
  3.217319e+00    4.247913e-01   5.424738e-03
  3.219530e+00    4.223007e-01   5.409193e-03
  3.221740e+00    4.158966e-01   5.368568e-03
  3.223951e+00    4.232633e-01   5.416368e-03
  3.226161e+00    4.191213e-01   5.390000e-03
  3.228372e+00    4.209698e-01   5.402399e-03
  3.230582e+00    4.202667e-01   5.398001e-03
  3.232792e+00    4.276057e-01   5.445171e-03
  3.235003e+00    4.288272e-01   5.453174e-03
  3.237213e+00    4.327060e-01   5.477899e-03
  3.239424e+00    4.284047e-01   5.450606e-03
  3.241634e+00    4.177092e-01   5.382255e-03
  3.243845e+00    4.172396e-01   5.379293e-03
  3.246055e+00    4.195490e-01   5.393890e-03
  3.248266e+00    4.157745e-01   5.369775e-03
  3.250476e+00    4.289117e-01   5.453648e-03
  3.252687e+00    4.127449e-01   5.349800e-03
  3.254897e+00    4.150807e-01   5.364788e-03
  3.257107e+00    4.169390e-01   5.376488e-03
  3.259318e+00    4.120132e-01   5.344389e-03
  3.261528e+00    4.236841e-01   5.419420e-03
  3.263739e+00    4.208440e-01   5.400677e-03
  3.265949e+00    4.183663e-01   5.384629e-03
  3.268160e+00    4.196062e-01   5.392197e-03
  3.270370e+00    4.237441e-01   5.418196e-03
  3.272581e+00    4.235780e-01   5.416872e-03
  3.274791e+00    4.100067e-01   5.328863e-03
  3.277002e+00    4.184568e-01   5.382939e-03
  3.279212e+00    4.103032e-01   5.329876e-03
  3.281422e+00    4.010794e-01   5.269045e-03
  3.283633e+00    4.096074e-01   5.324101e-03
  3.285843e+00    4.171063e-01   5.372285e-03
  3.288054e+00    4.088106e-01   5.317681e-03
  3.290264e+00    4.142406e-01   5.352571e-03
  3.292475e+00    4.042032e-01   5.286492e-03
  3.294685e+00    4.261440e-01   5.427447e-03
  3.296896e+00    4.227018e-01   5.404731e-03
  3.299106e+00    4.068167e-01   5.301677e-03
  3.301317e+00    4.031562e-01   5.276748e-03
  3.303527e+00    4.151669e-01   5.354308e-03
  3.305737e+00    4.153284e-01   5.354316e-03
  3.307948e+00    4.177270e-01   5.369094e-03
  3.310158e+00    4.154445e-01   5.353552e-03
  3.312369e+00    4.321831e-01   5.459460e-03
  3.314579e+00    4.121987e-01   5.330848e-03
  3.316790e+00    4.109152e-01   5.321830e-03
  3.319000e+00    4.087539e-01   5.306663e-03
  3.321211e+00    4.045947e-01   5.278985e-03
  3.323421e+00    4.130255e-01   5.332524e-03
  3.325632e+00    4.094616e-01   5.308578e-03
  3.327842e+00    4.172399e-01   5.357857e-03
  3.330052e+00    4.318305e-01   5.449662e-03
  3.332263e+00    4.353886e-01   5.471017e-03
  3.334473e+00    4.314077e-01   5.445045e-03
  3.336684e+00    4.201392e-01   5.372197e-03
  3.338894e+00    4.168877e-01   5.350529e-03
  3.341105e+00    4.153730e-01   5.339607e-03
  3.343315e+00    4.198257e-01   5.366984e-03
  3.345526e+00    4.186583e-01   5.358638e-03
  3.347736e+00    4.199453e-01   5.365470e-03
  3.349947e+00    4.191314e-01   5.359326e-03
  3.352157e+00    4.122051e-01   5.313701e-03
  3.354368e+00    4.013609e-01   5.242068e-03
  3.356578e+00    4.072494e-01   5.279383e-03
  3.358788e+00    4.087741e-01   5.287919e-03
  3.360999e+00    4.205742e-01   5.362469e-03
  3.363209e+00    4.117060e-01   5.304637e-03
  3.365420e+00    3.901589e-01   5.162482e-03
  3.367630e+00    4.031624e-01   5.246788e-03
  3.369841e+00    4.096029e-01   5.287143e-03
  3.372051e+00    4.054093e-01   5.258051e-03
  3.374262e+00    4.111413e-01   5.292660e-03
  3.376472e+00    4.120967e-01   5.296383e-03
  3.378683e+00    4.160610e-01   5.319297e-03
  3.380893e+00    4.219597e-01   5.354502e-03
  3.383103e+00    4.093588e-01   5.271279e-03
  3.385314e+00    4.033490e-01   5.230230e-03
  3.387524e+00    4.204728e-01   5.337346e-03
  3.389735e+00    4.114001e-01   5.276844e-03
  3.391945e+00    4.059832e-01   5.238349e-03
  3.394156e+00    4.040307e-01   5.221535e-03
  3.396366e+00    4.171434e-01   5.302177e-03
  3.398577e+00    4.106832e-01   5.257923e-03
  3.400787e+00    4.114977e-01   5.275045e-03
  3.402998e+00    4.026968e-01   5.256077e-03
  3.405208e+00    3.872530e-01   5.174472e-03
  3.407418e+00    3.813941e-01   5.150574e-03
  3.409629e+00    3.972746e-01   5.270609e-03
  3.411839e+00    3.845089e-01   5.196786e-03
  3.414050e+00    3.942347e-01   5.273056e-03
  3.416260e+00    3.770783e-01   5.166481e-03
  3.418471e+00    3.981418e-01   5.318271e-03
  3.420681e+00    3.850705e-01   5.238673e-03
  3.422892e+00    3.799770e-01   5.211791e-03
  3.425102e+00    3.825811e-01   5.237381e-03
  3.427313e+00    3.709379e-01   5.164070e-03
  3.429523e+00    3.793517e-01   5.229298e-03
  3.431733e+00    3.706459e-01   5.175508e-03
  3.433944e+00    3.663541e-01   5.151757e-03
  3.436154e+00    3.788954e-01   5.245408e-03
  3.438365e+00    3.753570e-01   5.226742e-03
  3.440575e+00    3.703862e-01   5.197874e-03
  3.442786e+00    3.727084e-01   5.219683e-03
  3.444996e+00    3.710366e-01   5.213442e-03
  3.447207e+00    3.562387e-01   5.113570e-03
  3.449417e+00    3.684117e-01   5.240844e-03
  3.451628e+00    3.637775e-01   5.237004e-03
  3.453838e+00    3.612915e-01   5.240075e-03
  3.456049e+00    3.586060e-01   5.244186e-03
  3.458259e+00    3.743156e-01   5.379986e-03
  3.460469e+00    3.515454e-01   5.233163e-03
  3.462680e+00    3.721331e-01   5.403435e-03
  3.464890e+00    3.692181e-01   5.400101e-03
  3.467101e+00    3.554317e-01   5.315489e-03
  3.469311e+00    3.789811e-01   5.505507e-03
  3.471522e+00    3.724750e-01   5.474372e-03
  3.473732e+00    3.955402e-01   5.657624e-03
  3.475943e+00    3.823252e-01   5.578038e-03
  3.478153e+00    3.852335e-01   5.614580e-03
  3.480364e+00    3.893572e-01   5.659608e-03
  3.482574e+00    4.099964e-01   5.823150e-03
  3.484784e+00    4.195573e-01   5.905671e-03
  3.486995e+00    4.253601e-01   5.961662e-03
  3.489205e+00    4.190840e-01   5.932116e-03
  3.491416e+00    4.275984e-01   6.006964e-03
  3.493626e+00    4.381424e-01   6.095240e-03
  3.495837e+00    4.445629e-01   6.154567e-03
  3.498047e+00    4.407719e-01   6.142693e-03
  3.500258e+00    4.549506e-01   6.255326e-03
  3.502468e+00    4.599741e-01   6.304296e-03
  3.504679e+00    4.637139e-01   6.344409e-03
  3.506889e+00    4.649930e-01   6.367550e-03
  3.509099e+00    4.829397e-01   6.503840e-03
  3.511310e+00    4.820147e-01   6.512140e-03
  3.513520e+00    4.765058e-01   6.489171e-03
  3.515731e+00    4.804301e-01   6.530107e-03
  3.517941e+00    4.973527e-01   6.658598e-03
  3.520152e+00    5.070465e-01   6.737671e-03
  3.522362e+00    5.058441e-01   6.744248e-03
  3.524573e+00    5.085291e-01   6.776417e-03
  3.526783e+00    5.093837e-01   6.795464e-03
  3.528994e+00    5.098479e-01   6.810711e-03
  3.531204e+00    5.159250e-01   6.863552e-03
  3.533414e+00    5.241969e-01   6.930448e-03
  3.535625e+00    5.268987e-01   6.960629e-03
  3.537835e+00    5.231385e-01   6.947751e-03
  3.540046e+00    5.184329e-01   6.925233e-03
  3.542256e+00    5.276307e-01   6.993853e-03
  3.544467e+00    5.514468e-01   7.157681e-03
  3.546677e+00    5.495445e-01   7.153024e-03
  3.548888e+00    5.337759e-01   7.057142e-03
  3.551098e+00    5.178630e-01   6.958288e-03
  3.553309e+00    5.376348e-01   7.098061e-03
  3.555519e+00    5.266898e-01   7.036645e-03
  3.557729e+00    5.290685e-01   7.064156e-03
  3.559940e+00    5.243917e-01   7.044306e-03
  3.562150e+00    5.270758e-01   7.073885e-03
  3.564361e+00    5.356812e-01   7.144728e-03
  3.566571e+00    5.402306e-01   7.188919e-03
  3.568782e+00    5.223512e-01   7.082883e-03
  3.570992e+00    5.239061e-01   7.106969e-03
  3.573203e+00    5.381767e-01   7.217319e-03
  3.575413e+00    5.280441e-01   7.162733e-03
  3.577624e+00    5.298994e-01   7.189342e-03
  3.579834e+00    5.177622e-01   7.120172e-03
  3.582045e+00    5.307004e-01   7.222555e-03
  3.584255e+00    5.230227e-01   7.183988e-03
  3.586465e+00    5.360575e-01   7.286901e-03
  3.588676e+00    5.265104e-01   7.235778e-03
  3.590886e+00    5.438110e-01   7.367513e-03
  3.593097e+00    5.303206e-01   7.289993e-03
  3.595307e+00    5.207189e-01   7.237401e-03
  3.597518e+00    5.430986e-01   7.405612e-03
  3.599728e+00    5.503461e-01   7.469168e-03
  3.601939e+00    5.350586e-01   7.378756e-03
  3.604149e+00    5.473597e-01   7.477641e-03
  3.606360e+00    5.248289e-01   7.336154e-03
  3.608570e+00    5.333846e-01   7.409803e-03
  3.610780e+00    5.304636e-01   7.400572e-03
  3.612991e+00    5.175022e-01   7.319366e-03
  3.615201e+00    5.340230e-01   7.445100e-03
  3.617412e+00    5.309722e-01   7.431083e-03
  3.619622e+00    5.200790e-01   7.360294e-03
  3.621833e+00    5.214561e-01   7.376689e-03
  3.624043e+00    5.227966e-01   7.395515e-03
  3.626254e+00    5.466643e-01   7.572331e-03
  3.628464e+00    5.126373e-01   7.343611e-03
  3.630675e+00    5.178156e-01   7.394485e-03
  3.632885e+00    5.311670e-01   7.503625e-03
  3.635095e+00    5.376641e-01   7.563837e-03
  3.637306e+00    5.501435e-01   7.665702e-03
  3.639516e+00    5.434034e-01   7.633279e-03
  3.641727e+00    5.314400e-01   7.563312e-03
  3.643937e+00    5.274987e-01   7.549693e-03
  3.646148e+00    5.422666e-01   7.669365e-03
  3.648358e+00    5.353459e-01   7.635158e-03
  3.650569e+00    5.414343e-01   7.693338e-03
  3.652779e+00    5.233514e-01   7.578393e-03
  3.654990e+00    5.214695e-01   7.579487e-03
  3.657200e+00    5.361003e-01   7.700028e-03
  3.659410e+00    5.343567e-01   7.702489e-03
  3.661621e+00    5.290922e-01   7.679531e-03
  3.663831e+00    5.232772e-01   7.652220e-03
  3.666042e+00    5.064007e-01   7.542602e-03
  3.668252e+00    5.196283e-01   7.655507e-03
  3.670463e+00    5.120881e-01   7.614780e-03
  3.672673e+00    4.993996e-01   7.534777e-03
  3.674884e+00    5.214128e-01   7.714263e-03
  3.677094e+00    5.508794e-01   7.945133e-03
  3.679305e+00    5.095683e-01   7.656655e-03
  3.681515e+00    5.155689e-01   7.716999e-03
  3.683726e+00    5.230695e-01   7.788603e-03
  3.685936e+00    5.237714e-01   7.809502e-03
  3.688146e+00    5.157812e-01   7.765270e-03
  3.690357e+00    5.231092e-01   7.836145e-03
  3.692567e+00    5.088761e-01   7.744601e-03
  3.694778e+00    5.318328e-01   7.933511e-03
  3.696988e+00    5.369412e-01   7.987671e-03
  3.699199e+00    5.046425e-01   7.759654e-03
  3.701409e+00    5.174938e-01   7.874052e-03
  3.703620e+00    5.165524e-01   7.883062e-03
  3.705830e+00    5.088964e-01   7.840594e-03
  3.708041e+00    5.179749e-01   7.926732e-03
  3.710251e+00    5.051458e-01   7.844361e-03
  3.712461e+00    4.974541e-01   7.800740e-03
  3.714672e+00    5.149019e-01   7.952967e-03
  3.716882e+00    5.187309e-01   7.999158e-03
  3.719093e+00    5.451978e-01   8.218250e-03
  3.721303e+00    5.311109e-01   8.128528e-03
  3.723514e+00    5.061842e-01   7.952546e-03
  3.725724e+00    5.072850e-01   7.978139e-03
  3.727935e+00    5.193455e-01   8.089916e-03
  3.730145e+00    5.160538e-01   8.081544e-03
  3.732356e+00    5.092897e-01   8.045847e-03
  3.734566e+00    5.073946e-01   8.048208e-03
  3.736776e+00    5.198424e-01   8.164210e-03
  3.738987e+00    4.957033e-01   7.989830e-03
  3.741197e+00    5.041668e-01   8.075594e-03
  3.743408e+00    5.029492e-01   8.083682e-03
  3.745618e+00    5.115801e-01   8.171028e-03
  3.747829e+00    5.116094e-01   8.189385e-03
  3.750039e+00    5.369664e-01   8.408712e-03
  3.752250e+00    4.917856e-01   8.065308e-03
  3.754460e+00    5.220897e-01   8.328776e-03
  3.756671e+00    5.275481e-01   8.391418e-03
  3.758881e+00    5.234309e-01   8.377457e-03
  3.761091e+00    5.124024e-01   8.307998e-03
  3.763302e+00    5.086304e-01   8.296449e-03
  3.765512e+00    4.935701e-01   8.191633e-03
  3.767723e+00    4.970677e-01   8.239824e-03
  3.769933e+00    5.133111e-01   8.392742e-03
  3.772144e+00    5.220751e-01   8.484088e-03
  3.774354e+00    5.024185e-01   8.342556e-03
  3.776565e+00    4.996581e-01   8.339366e-03
  3.778775e+00    5.001335e-01   8.363187e-03
  3.780986e+00    4.891200e-01   8.290632e-03
  3.783196e+00    5.116256e-01   8.499558e-03
  3.785407e+00    5.148596e-01   8.547117e-03
  3.787617e+00    5.048131e-01   8.484073e-03
  3.789827e+00    5.061831e-01   8.516199e-03
  3.792038e+00    4.917900e-01   8.414916e-03
  3.794248e+00    4.750535e-01   8.291028e-03
  3.796459e+00    4.765998e-01   8.325325e-03
  3.798669e+00    4.999963e-01   8.548584e-03
  3.800880e+00    5.142077e-01   8.690990e-03
  3.803090e+00    5.056984e-01   8.640701e-03
  3.805301e+00    5.107754e-01   8.706300e-03
  3.807511e+00    5.045706e-01   8.675351e-03
  3.809722e+00    5.095000e-01   8.740095e-03
  3.811932e+00    5.090464e-01   8.758651e-03
  3.814142e+00    4.829859e-01   8.553974e-03
  3.816353e+00    4.859797e-01   8.602995e-03
  3.818563e+00    4.940090e-01   8.696784e-03
  3.820774e+00    4.877901e-01   8.664755e-03
  3.822984e+00    4.922487e-01   8.727496e-03
  3.825195e+00    5.015708e-01   8.833608e-03
  3.827405e+00    4.951640e-01   8.800794e-03
  3.829616e+00    5.086440e-01   8.944121e-03
  3.831826e+00    5.022939e-01   8.912417e-03
  3.834037e+00    5.043133e-01   8.955003e-03
  3.836247e+00    4.977123e-01   8.920894e-03
  3.838457e+00    4.903663e-01   8.879692e-03
  3.840668e+00    4.756700e-01   8.770279e-03
  3.842878e+00    5.192497e-01   9.189327e-03
  3.845089e+00    4.884387e-01   8.937964e-03
  3.847299e+00    4.566658e-01   8.667095e-03
  3.849510e+00    4.945506e-01   9.045209e-03
  3.851720e+00    5.070534e-01   9.180597e-03
  3.853931e+00    4.771172e-01   8.924108e-03
  3.856141e+00    4.973553e-01   9.130481e-03
  3.858352e+00    4.744890e-01   8.936890e-03
  3.860562e+00    5.035090e-01   9.225758e-03
  3.862772e+00    4.798118e-01   9.025238e-03
  3.864983e+00    4.865430e-01   9.107903e-03
  3.867193e+00    4.740225e-01   9.009346e-03
  3.869404e+00    4.944968e-01   9.221622e-03
  3.871614e+00    4.913023e-01   9.211781e-03
  3.873825e+00    4.769141e-01   9.095902e-03
  3.876035e+00    4.561165e-01   8.915089e-03
  3.878246e+00    4.906203e-01   9.271821e-03
  3.880456e+00    5.008514e-01   9.397317e-03
  3.882667e+00    4.763171e-01   9.193148e-03
  3.884877e+00    4.882133e-01   9.336792e-03
  3.887087e+00    5.093765e-01   9.567484e-03
  3.889298e+00    4.852589e-01   9.368539e-03
  3.891508e+00    4.803805e-01   9.351389e-03
  3.893719e+00    4.979972e-01   9.552652e-03
  3.895929e+00    4.762321e-01   9.372427e-03
  3.898140e+00    5.049324e-01   9.682939e-03
  3.900350e+00    5.015126e-01   9.682593e-03
  3.902561e+00    4.875933e-01   9.579538e-03
  3.904771e+00    4.755981e-01   9.493330e-03
  3.906982e+00    4.570498e-01   9.338422e-03
  3.909192e+00    4.837895e-01   9.640898e-03
  3.911403e+00    4.676223e-01   9.511860e-03
  3.913613e+00    4.383980e-01   9.242231e-03
  3.915823e+00    4.694144e-01   9.597600e-03
  3.918034e+00    4.913922e-01   9.855177e-03
  3.920244e+00    4.628674e-01   9.599690e-03
  3.922455e+00    4.601308e-01   9.606208e-03
  3.924665e+00    4.712052e-01   9.756948e-03
  3.926876e+00    4.839028e-01   9.924460e-03
  3.929086e+00    4.916044e-01   1.004068e-02
  3.931297e+00    4.930657e-01   1.009063e-02
  3.933507e+00    4.794039e-01   9.978465e-03
  3.935718e+00    4.818676e-01   1.003273e-02
  3.937928e+00    4.896761e-01   1.014314e-02
  3.940138e+00    4.753021e-01   1.002218e-02
  3.942349e+00    4.944773e-01   1.025239e-02
  3.944559e+00    4.797668e-01   1.012861e-02
  3.946770e+00    4.758321e-01   1.011673e-02
  3.948980e+00    4.824630e-01   1.021763e-02
  3.951191e+00    4.696514e-01   1.011135e-02
  3.953401e+00    4.967136e-01   1.043017e-02
  3.955612e+00    4.713607e-01   1.019177e-02
  3.957822e+00    5.039236e-01   1.057012e-02
  3.960033e+00    4.899287e-01   1.045507e-02
  3.962243e+00    4.772962e-01   1.035204e-02
  3.964453e+00    4.709389e-01   1.031538e-02
  3.966664e+00    4.988922e-01   1.065101e-02
  3.968874e+00    4.786087e-01   1.046049e-02
  3.971085e+00    4.461920e-01   1.012098e-02
  3.973295e+00    4.833371e-01   1.055529e-02
  3.975506e+00    4.757799e-01   1.049370e-02
  3.977716e+00    5.264835e-01   1.106177e-02
  3.979927e+00    4.622324e-01   1.038639e-02
  3.982137e+00    4.528843e-01   1.030250e-02
  3.984348e+00    4.551238e-01   1.034952e-02
  3.986558e+00    4.904726e-01   1.076650e-02
  3.988768e+00    4.827151e-01   1.070387e-02
  3.990979e+00    4.763843e-01   1.065625e-02
  3.993189e+00    4.500118e-01   1.037908e-02
  3.995400e+00    4.687660e-01   1.061635e-02
  3.997610e+00    4.777823e-01   1.074753e-02
  3.999821e+00    4.683619e-01   1.067802e-02
  4.002031e+00    4.559164e-01   1.057236e-02
  4.004242e+00    4.760315e-01   1.084119e-02
  4.006452e+00    4.587824e-01   1.068137e-02
  4.008663e+00    4.635308e-01   1.077545e-02
  4.010873e+00    4.989153e-01   1.121982e-02
  4.013084e+00    4.690141e-01   1.091877e-02
  4.015294e+00    4.393873e-01   1.060724e-02
  4.017504e+00    4.506778e-01   1.078297e-02
  4.019715e+00    4.816962e-01   1.119035e-02
  4.021925e+00    4.850334e-01   1.127200e-02
  4.024136e+00    4.812167e-01   1.127126e-02
  4.026346e+00    4.436198e-01   1.086420e-02
  4.028557e+00    4.763727e-01   1.130200e-02
  4.030767e+00    4.549834e-01   1.108980e-02
  4.032978e+00    4.253471e-01   1.076577e-02
  4.035188e+00    4.772313e-01   1.144940e-02
  4.037399e+00    4.658832e-01   1.135920e-02
  4.039609e+00    4.823859e-01   1.160631e-02
  4.041819e+00    4.533385e-01   1.129866e-02
  4.044030e+00    4.806998e-01   1.168437e-02
  4.046240e+00    4.961292e-01   1.192100e-02
  4.048451e+00    4.906899e-01   1.190679e-02
  4.050661e+00    5.015070e-01   1.208974e-02
  4.052872e+00    4.710622e-01   1.176913e-02
  4.055082e+00    4.718207e-01   1.183143e-02
  4.057293e+00    4.675882e-01   1.183130e-02
  4.059503e+00    4.797486e-01   1.203847e-02
  4.061714e+00    4.878744e-01   1.219694e-02
  4.063924e+00    4.924800e-01   1.231174e-02
  4.066134e+00    4.778593e-01   1.218465e-02
  4.068345e+00    5.212382e-01   1.278708e-02
  4.070555e+00    4.803071e-01   1.233390e-02
  4.072766e+00    5.152307e-01   1.283749e-02
  4.074976e+00    4.420356e-01   1.194998e-02
  4.077187e+00    4.498554e-01   1.211497e-02
  4.079397e+00    4.824645e-01   1.261057e-02
  4.081608e+00    4.693446e-01   1.250270e-02
  4.083818e+00    4.618152e-01   1.246629e-02
  4.086029e+00    4.700447e-01   1.264336e-02
  4.088239e+00    4.598565e-01   1.257292e-02
  4.090449e+00    4.787503e-01   1.289807e-02
  4.092660e+00    4.767481e-01   1.294203e-02
  4.094870e+00    4.749579e-01   1.298933e-02
  4.097081e+00    4.972684e-01   1.336394e-02
  4.099291e+00    4.243639e-01   1.239662e-02
  4.101502e+00    4.648800e-01   1.302304e-02
  4.103712e+00    4.819024e-01   1.330892e-02
  4.105923e+00    4.908477e-01   1.348384e-02
  4.108133e+00    5.285740e-01   1.404625e-02
  4.110344e+00    4.998091e-01   1.371126e-02
  4.112554e+00    4.571877e-01   1.316516e-02
  4.114764e+00    4.985807e-01   1.380360e-02
  4.116975e+00    4.630857e-01   1.335579e-02
  4.119185e+00    4.254739e-01   1.285356e-02
  4.121396e+00    4.333787e-01   1.302634e-02
  4.123606e+00    4.215084e-01   1.289903e-02
  4.125817e+00    4.596378e-01   1.352638e-02
  4.128027e+00    4.231758e-01   1.303371e-02
  4.130238e+00    4.812459e-01   1.395846e-02
  4.132448e+00    4.564273e-01   1.365298e-02
  4.134659e+00    4.877183e-01   1.417379e-02
  4.136869e+00    4.874695e-01   1.423361e-02
  4.139080e+00    4.418218e-01   1.361177e-02
  4.141290e+00    4.730049e-01   1.414622e-02
  4.143500e+00    4.697076e-01   1.416191e-02
  4.145711e+00    4.888469e-01   1.451510e-02
  4.147921e+00    4.770418e-01   1.440454e-02
  4.150132e+00    4.771832e-01   1.447539e-02
  4.152342e+00    4.957175e-01   1.482524e-02
  4.154553e+00    5.146506e-01   1.517774e-02
  4.156763e+00    4.912456e-01   1.490172e-02
  4.158974e+00    4.526597e-01   1.437678e-02
  4.161184e+00    4.721706e-01   1.475572e-02
  4.163395e+00    5.529957e-01   1.605039e-02
  4.165605e+00    4.943849e-01   1.525530e-02
  4.167815e+00    4.820692e-01   1.514245e-02
  4.170026e+00    5.072187e-01   1.561428e-02
  4.172236e+00    4.481994e-01   1.475719e-02
  4.174447e+00    4.579332e-01   1.499755e-02
  4.176657e+00    4.797346e-01   1.543436e-02
  4.178868e+00    4.910373e-01   1.570355e-02
  4.181078e+00    4.756952e-01   1.554332e-02
  4.183289e+00    5.116712e-01   1.621258e-02
  4.185499e+00    5.223534e-01   1.647769e-02
  4.187710e+00    4.880855e-01   1.602137e-02
  4.189920e+00    4.610932e-01   1.566610e-02
  4.192130e+00    4.518965e-01   1.560325e-02
  4.194341e+00    5.241882e-01   1.690841e-02
  4.196551e+00    5.077989e-01   1.674733e-02
  4.198762e+00    4.889235e-01   1.653768e-02
  4.200972e+00    4.565661e-01   1.608433e-02
  4.203183e+00    4.410146e-01   1.591220e-02
  4.205393e+00    5.256687e-01   1.748778e-02
  4.207604e+00    5.396231e-01   1.783994e-02
  4.209814e+00    4.630079e-01   1.663783e-02
  4.212025e+00    5.237625e-01   1.782127e-02
  4.214235e+00    4.413692e-01   1.647593e-02
  4.216445e+00    4.326473e-01   1.642972e-02
  4.218656e+00    4.694471e-01   1.724286e-02
  4.220866e+00    5.172723e-01   1.823340e-02
  4.223077e+00    4.993432e-01   1.805310e-02
  4.225287e+00    4.744856e-01   1.773613e-02
  4.227498e+00    5.077926e-01   1.849194e-02
  4.229708e+00    4.977793e-01   1.845759e-02
  4.231919e+00    4.730857e-01   1.814295e-02
  4.234129e+00    4.941134e-01   1.869712e-02
  4.236340e+00    4.641652e-01   1.827662e-02
  4.238550e+00    4.804942e-01   1.875979e-02
  4.240761e+00    5.035400e-01   1.937398e-02
  4.242971e+00    4.702630e-01   1.889439e-02
  4.245181e+00    4.393339e-01   1.843380e-02
  4.247392e+00    4.955638e-01   1.976085e-02
  4.249602e+00    4.794328e-01   1.963015e-02
  4.251813e+00    4.582817e-01   1.938104e-02
  4.254023e+00    4.287802e-01   1.893601e-02
  4.256234e+00    4.527772e-01   1.966624e-02
  4.258444e+00    4.426594e-01   1.964883e-02
  4.260655e+00    4.742221e-01   2.056096e-02
  4.262865e+00    4.632664e-01   2.055258e-02
  4.265076e+00    4.746669e-01   2.104058e-02
  4.267286e+00    4.968941e-01   2.178275e-02
  4.269496e+00    4.900157e-01   2.189564e-02
  4.271707e+00    4.886764e-01   2.213535e-02
  4.273917e+00    5.488471e-01   2.376207e-02
  4.276128e+00    4.746193e-01   2.239080e-02
  4.278338e+00    5.713310e-01   2.489405e-02
  4.280549e+00    4.115155e-01   2.143043e-02
  4.282759e+00    4.625032e-01   2.304583e-02
  4.284970e+00    5.182151e-01   2.475522e-02
  4.287180e+00    4.711225e-01   2.388674e-02
  4.289391e+00    5.140378e-01   2.513837e-02
  4.291601e+00    4.802141e-01   2.449074e-02
  4.293811e+00    4.754055e-01   2.455892e-02
  4.296022e+00    4.233319e-01   2.336073e-02
  4.298232e+00    4.509838e-01   2.431392e-02
  4.300443e+00    4.189263e-01   2.362680e-02
  4.302653e+00    4.817219e-01   2.555540e-02
  4.304864e+00    4.814986e-01   2.577079e-02
  4.307074e+00    4.963901e-01   2.640127e-02
  4.309285e+00    5.144339e-01   2.712123e-02
  4.311495e+00    4.554362e-01   2.575706e-02
  4.313706e+00    4.691025e-01   2.638663e-02
  4.315916e+00    4.501077e-01   2.610101e-02
  4.318126e+00    4.860683e-01   2.739225e-02
  4.320337e+00    3.534524e-01   2.359497e-02
  4.322547e+00    3.817505e-01   2.478100e-02
  4.324758e+00    4.749080e-01   2.792675e-02
  4.326968e+00    4.548782e-01   2.763976e-02
  4.329179e+00    4.743690e-01   2.853694e-02
  4.331389e+00    4.146646e-01   2.698777e-02
  4.333600e+00    5.014387e-01   3.003196e-02
  4.335810e+00    4.894620e-01   3.002396e-02
  4.338021e+00    5.258561e-01   3.151914e-02
  4.340231e+00    3.922518e-01   2.756323e-02
  4.342442e+00    3.899841e-01   2.785276e-02
  4.344652e+00    4.094402e-01   2.892552e-02
  4.346862e+00    3.948138e-01   2.880317e-02
  4.349073e+00    5.938752e-01   3.583893e-02
  4.351283e+00    4.409935e-01   3.134636e-02
  4.353494e+00    3.873238e-01   2.982954e-02
  4.355704e+00    3.259062e-01   2.780272e-02
  4.357915e+00    3.949129e-01   3.111589e-02
  4.360125e+00    3.271828e-01   2.880325e-02
  4.362336e+00    4.472285e-01   3.429106e-02
  4.364546e+00    4.279414e-01   3.415383e-02
  4.366757e+00    4.311776e-01   3.496415e-02
  4.368967e+00    3.839127e-01   3.365067e-02
  4.371177e+00    5.236081e-01   4.013494e-02
  4.373388e+00    4.700960e-01   3.887816e-02
  4.375598e+00    4.570922e-01   3.921253e-02
  4.377809e+00    2.077121e-01   2.710316e-02
  4.380019e+00    3.594687e-01   3.654944e-02
  4.382230e+00    2.421838e-01   3.083783e-02
  4.384440e+00    3.149038e-01   3.617580e-02
  4.386651e+00    5.662228e-01   5.000428e-02
  4.388861e+00    2.380511e-01   3.351125e-02
  4.391072e+00    4.604222e-01   4.824244e-02
  4.393282e+00    4.971240e-01   5.206555e-02
  4.395492e+00    4.504033e-01   5.162177e-02
  4.397703e+00    3.995826e-01   5.083783e-02
  4.399913e+00    5.910105e-01   6.496186e-02
  4.402124e+00    5.204424e-01   6.441752e-02
  4.404334e+00    3.671819e-01   5.751631e-02
  4.406545e+00    3.224008e-01   5.790269e-02
  4.408755e+00    4.074247e-01   7.059833e-02
  4.410966e+00    2.303078e-01   5.874344e-02
  4.413176e+00    2.027746e-01   6.239959e-02
  4.415387e+00   -6.014844e-01            nan
  4.417597e+00   -2.029266e+00            nan
  4.419807e+00    2.807437e-01   1.902519e-01
