# == pyFAI calibration ==
# Distance Sample to Detector: 0.216 m
# PONI: 1.166e-01, 1.308e-01 m
# Rotations: 0.000000 0.000000 0.000000 rad
# 
# == Fit2d calibration ==
# Distance Sample-beamCenter: 216.000 mm
# Center: x=1744.293, y=1555.000 pix
# Tilt: 0.000 deg  TiltPlanRot: 0.000 deg
# 
# Detector Eiger 9M	 PixelSize= 7.500e-05, 7.500e-05 m
#    Detector has a mask: True 
#    Detector has a dark current: False 
#    detector has a flat field: False 
# 
# Wavelength: 9.8e-11 m
# Mask applied: from detector
# Dark current applied: False
# Flat field applied: False
# Polarization factor: None
# Normalization factor: 1.0
# 
# Headers of the input frame:
# {
# "_array_data.header_convention": "SLS_1.0",
# "_array_data.header_contents": "# Detector: Dectris Eiger 9M, S/N E-18-0102\r\n# Pixel_size 75e-6 m x 75e-6 m\r\n# Silicon sensor, thickness 0.000450 m\r\n# Exposure_time 0.024997 s\r\n# Exposure_period 0.025000 s\r\n# Count_cutoff 62318 counts\r\n# Wavelength 0.980106 A\r\n# Detector_distance 0.215992 m\r\n# Beam_xy (1555, 1744) pixels\r\n# Start_angle 0.000000 deg.\r\n# Angle_increment 0.000000 deg.",
# "Content-Type": "application/octet-stream;",
# "conversions": "x-CBF_BYTE_OFFSET",
# "Content-Transfer-Encoding": "BINARY",
# "X-Binary-Size": "10166634",
# "X-Binary-ID": "1",
# "X-Binary-Element-Type": "signed 32-bit integer",
# "X-Binary-Element-Byte-Order": "LITTLE_ENDIAN",
# "Content-MD5": "ekbf9ci4Jgj4liTfNNrnXg==",
# "X-Binary-Number-of-Elements": "10166590",
# "X-Binary-Size-Fastest-Dimension": "3110",
# "X-Binary-Size-Second-Dimension": "3269",
# "X-Binary-Size-Padding": "4095"
# }
# --> H:/Proxima2a_2019-04-05/RAW_DATA/C5_gel17_position5/C5_mesh_1_data.cbf/C5_mesh_1_data.cbf000148.dat
#        q_A^-1              I           sigma 
  1.105228e-03    1.083455e+00   5.632386e-01
  3.315685e-03    1.122922e+00   3.485942e-01
  5.526141e-03    1.157336e+00   2.736540e-01
  7.736597e-03    1.504356e+00   2.635697e-01
  9.947054e-03    1.485860e+00   2.309221e-01
  1.215751e-02    1.372707e+00   2.007047e-01
  1.436797e-02    1.337085e+00   1.822029e-01
  1.657842e-02    1.165784e+00   1.583629e-01
  1.878888e-02    1.159460e+00   1.483513e-01
  2.099934e-02    1.303079e+00   1.487947e-01
  2.320979e-02    1.339996e+00   1.435108e-01
  2.542025e-02    1.317435e+00   1.359797e-01
  2.763070e-02    1.196794e+00   1.243083e-01
  2.984116e-02    1.453963e+00   1.318418e-01
  3.205162e-02    1.401989e+00   1.249276e-01
  3.426207e-02    1.393166e+00   1.204415e-01
  3.647253e-02    1.304573e+00   1.129598e-01
  3.868299e-02    1.379424e+00   1.127962e-01
  4.089344e-02    1.481179e+00   1.136801e-01
  4.310390e-02    1.447470e+00   1.094533e-01
  4.531436e-02    1.363695e+00   1.036154e-01
  4.752481e-02    1.452159e+00   1.044061e-01
  4.973527e-02    1.478501e+00   1.029823e-01
  5.194572e-02    1.462717e+00   1.002266e-01
  5.415618e-02    1.372111e+00   9.506778e-02
  5.636664e-02    1.534316e+00   9.854229e-02
  5.857709e-02    1.493015e+00   9.535570e-02
  6.078755e-02    1.446687e+00   9.213923e-02
  6.299801e-02    1.423317e+00   8.977331e-02
  6.520846e-02    1.364425e+00   8.639441e-02
  6.741892e-02    1.372313e+00   8.520719e-02
  6.962938e-02    1.480882e+00   8.710168e-02
  7.183983e-02    1.497921e+00   8.624155e-02
  7.405029e-02    1.413512e+00   8.251465e-02
  7.626074e-02    1.344780e+00   7.930782e-02
  7.847120e-02    1.343838e+00   7.815333e-02
  8.068166e-02    1.407925e+00   7.889111e-02
  8.289211e-02    1.492528e+00   8.013605e-02
  8.510257e-02    1.548838e+00   8.056612e-02
  8.731303e-02    1.516078e+00   7.869107e-02
  8.952348e-02    1.442668e+00   7.581076e-02
  9.173394e-02    1.442497e+00   7.488438e-02
  9.394439e-02    1.482759e+00   7.502130e-02
  9.615485e-02    1.506473e+00   7.474299e-02
  9.836531e-02    1.535664e+00   7.460888e-02
  1.005758e-01    1.445635e+00   7.158943e-02
  1.027862e-01    1.417251e+00   7.011504e-02
  1.049967e-01    1.529553e+00   7.206795e-02
  1.072071e-01    1.601464e+00   7.297756e-02
  1.094176e-01    1.587838e+00   7.192760e-02
  1.116280e-01    1.448814e+00   6.802149e-02
  1.138385e-01    1.524332e+00   6.908965e-02
  1.160490e-01    1.499743e+00   6.787354e-02
  1.182594e-01    1.530915e+00   6.792987e-02
  1.204699e-01    1.563312e+00   6.801168e-02
  1.226803e-01    1.570796e+00   6.755452e-02
  1.248908e-01    1.546711e+00   6.643794e-02
  1.271012e-01    1.616959e+00   6.733529e-02
  1.293117e-01    1.665183e+00   6.774462e-02
  1.315222e-01    1.621520e+00   6.628487e-02
  1.337326e-01    1.618307e+00   6.566837e-02
  1.359431e-01    1.589142e+00   6.511202e-02
  1.381535e-01    1.502983e+00   6.417230e-02
  1.403640e-01    1.546193e+00   6.536926e-02
  1.425744e-01    1.645246e+00   6.753831e-02
  1.447849e-01    1.675844e+00   6.817918e-02
  1.469953e-01    1.543783e+00   6.539674e-02
  1.492058e-01    1.484855e+00   6.406189e-02
  1.514163e-01    1.590866e+00   6.619921e-02
  1.536267e-01    1.659792e+00   6.748607e-02
  1.558372e-01    1.641207e+00   6.695903e-02
  1.580476e-01    1.605420e+00   6.606429e-02
  1.602581e-01    1.591922e+00   6.561887e-02
  1.624685e-01    1.696049e+00   6.754550e-02
  1.646790e-01    1.694306e+00   6.731695e-02
  1.668895e-01    1.653760e+00   6.631451e-02
  1.690999e-01    1.743820e+00   6.789175e-02
  1.713104e-01    1.802140e+00   6.880353e-02
  1.735208e-01    1.796099e+00   6.847451e-02
  1.757313e-01    1.780520e+00   6.796324e-02
  1.779417e-01    1.783727e+00   6.780255e-02
  1.801522e-01    1.871634e+00   6.923197e-02
  1.823626e-01    1.905675e+00   6.962621e-02
  1.845731e-01    1.962610e+00   7.042975e-02
  1.867836e-01    1.890583e+00   6.889203e-02
  1.889940e-01    1.913326e+00   6.907868e-02
  1.912045e-01    1.936896e+00   6.927076e-02
  1.934149e-01    2.018986e+00   7.048676e-02
  1.956254e-01    1.993903e+00   6.981652e-02
  1.978358e-01    2.023046e+00   7.008389e-02
  2.000463e-01    2.062620e+00   7.053155e-02
  2.022568e-01    2.070604e+00   7.043596e-02
  2.044672e-01    1.955073e+00   6.820830e-02
  2.066777e-01    2.002550e+00   6.880236e-02
  2.088881e-01    2.068026e+00   6.968937e-02
  2.110986e-01    2.036234e+00   6.891448e-02
  2.133090e-01    1.951400e+00   6.724434e-02
  2.155195e-01    1.981744e+00   6.754034e-02
  2.177300e-01    1.994914e+00   6.723204e-02
  2.199404e-01    1.925567e+00   6.431267e-02
  2.221509e-01    1.870727e+00   6.234933e-02
  2.243613e-01    1.976999e+00   6.328327e-02
  2.265718e-01    2.043340e+00   6.362718e-02
  2.287822e-01    2.099439e+00   6.385633e-02
  2.309927e-01    2.183001e+00   6.452155e-02
  2.332031e-01    2.146979e+00   6.343935e-02
  2.354136e-01    2.162609e+00   6.315383e-02
  2.376241e-01    2.210225e+00   6.334973e-02
  2.398345e-01    2.160079e+00   6.216349e-02
  2.420450e-01    2.089643e+00   6.070460e-02
  2.442554e-01    2.148949e+00   6.113589e-02
  2.464659e-01    2.133893e+00   6.051235e-02
  2.486763e-01    2.166679e+00   6.057462e-02
  2.508868e-01    2.091260e+00   5.913564e-02
  2.530973e-01    2.081731e+00   5.863494e-02
  2.553077e-01    2.124964e+00   5.888133e-02
  2.575182e-01    2.071765e+00   5.779563e-02
  2.597286e-01    2.024060e+00   5.679426e-02
  2.619391e-01    2.043953e+00   5.674410e-02
  2.641495e-01    2.126452e+00   5.755760e-02
  2.663600e-01    2.083528e+00   5.666041e-02
  2.685704e-01    2.092985e+00   5.648102e-02
  2.707809e-01    2.037778e+00   5.543533e-02
  2.729914e-01    1.914895e+00   5.345784e-02
  2.752018e-01    1.977765e+00   5.404553e-02
  2.774123e-01    2.082794e+00   5.517872e-02
  2.796227e-01    1.996881e+00   5.376147e-02
  2.818332e-01    1.973165e+00   5.317464e-02
  2.840436e-01    1.954345e+00   5.266393e-02
  2.862541e-01    2.040727e+00   5.355651e-02
  2.884646e-01    2.034948e+00   5.322684e-02
  2.906750e-01    2.010238e+00   5.265185e-02
  2.928855e-01    2.029475e+00   5.265804e-02
  2.950959e-01    2.033308e+00   5.246562e-02
  2.973064e-01    1.950009e+00   5.114880e-02
  2.995168e-01    1.889681e+00   5.012333e-02
  3.017273e-01    1.893600e+00   4.995406e-02
  3.039377e-01    1.888275e+00   4.966533e-02
  3.061482e-01    1.964789e+00   5.044242e-02
  3.083587e-01    1.875687e+00   4.907207e-02
  3.105691e-01    1.954976e+00   4.988451e-02
  3.127796e-01    1.934075e+00   4.940856e-02
  3.149900e-01    1.941216e+00   4.929342e-02
  3.172005e-01    1.931482e+00   4.896864e-02
  3.194109e-01    1.877875e+00   4.808499e-02
  3.216214e-01    1.870621e+00   4.779617e-02
  3.238319e-01    1.844905e+00   4.727847e-02
  3.260423e-01    1.843163e+00   4.706788e-02
  3.282528e-01    1.894095e+00   4.752383e-02
  3.304632e-01    1.890887e+00   4.729962e-02
  3.326737e-01    1.892981e+00   4.714117e-02
  3.348841e-01    1.853985e+00   4.647216e-02
  3.370946e-01    1.845319e+00   4.618897e-02
  3.393050e-01    1.862224e+00   4.622430e-02
  3.415155e-01    1.862670e+00   4.605600e-02
  3.437260e-01    1.870632e+00   4.598328e-02
  3.459364e-01    1.840708e+00   4.544525e-02
  3.481469e-01    1.848259e+00   4.537217e-02
  3.503573e-01    1.822659e+00   4.489270e-02
  3.525678e-01    1.808483e+00   4.455844e-02
  3.547782e-01    1.824218e+00   4.459008e-02
  3.569887e-01    1.841709e+00   4.464461e-02
  3.591992e-01    1.866886e+00   4.478969e-02
  3.614096e-01    1.871261e+00   4.468667e-02
  3.636201e-01    1.783041e+00   4.346730e-02
  3.658305e-01    1.760876e+00   4.304893e-02
  3.680410e-01    1.787227e+00   4.322066e-02
  3.702514e-01    1.813140e+00   4.338647e-02
  3.724619e-01    1.771683e+00   4.274155e-02
  3.746724e-01    1.784404e+00   4.275160e-02
  3.768828e-01    1.791450e+00   4.269178e-02
  3.790933e-01    1.805711e+00   4.272170e-02
  3.813037e-01    1.800152e+00   4.251634e-02
  3.835142e-01    1.831789e+00   4.274743e-02
  3.857246e-01    1.825172e+00   4.253209e-02
  3.879351e-01    1.824252e+00   4.238372e-02
  3.901455e-01    1.818010e+00   4.217644e-02
  3.923560e-01    1.779287e+00   4.159226e-02
  3.945665e-01    1.782503e+00   4.149780e-02
  3.967769e-01    1.806799e+00   4.164881e-02
  3.989874e-01    1.811924e+00   4.157761e-02
  4.011978e-01    1.775689e+00   4.103320e-02
  4.034083e-01    1.776300e+00   4.091427e-02
  4.056187e-01    1.784513e+00   4.088241e-02
  4.078292e-01    1.781757e+00   4.072722e-02
  4.100397e-01    1.704114e+00   3.970833e-02
  4.122501e-01    1.751539e+00   4.013664e-02
  4.144606e-01    1.791268e+00   4.046891e-02
  4.166710e-01    1.823191e+00   4.070655e-02
  4.188815e-01    1.828849e+00   4.064921e-02
  4.210919e-01    1.806758e+00   4.028457e-02
  4.233024e-01    1.793579e+00   4.001931e-02
  4.255128e-01    1.806790e+00   4.005033e-02
  4.277233e-01    1.818556e+00   4.006506e-02
  4.299338e-01    1.812987e+00   3.988859e-02
  4.321442e-01    1.770238e+00   3.930271e-02
  4.343547e-01    1.763217e+00   3.911377e-02
  4.365651e-01    1.786938e+00   3.926413e-02
  4.387756e-01    1.747358e+00   3.871813e-02
  4.409860e-01    1.752557e+00   3.866826e-02
  4.431965e-01    1.718834e+00   3.818854e-02
  4.454070e-01    1.754502e+00   3.847537e-02
  4.476174e-01    1.810252e+00   3.897458e-02
  4.498279e-01    1.815784e+00   3.892789e-02
  4.520383e-01    1.736421e+00   3.796321e-02
  4.542488e-01    1.751094e+00   3.802045e-02
  4.564592e-01    1.754941e+00   3.796009e-02
  4.586697e-01    1.707562e+00   3.734479e-02
  4.608801e-01    1.717948e+00   3.735785e-02
  4.630906e-01    1.733384e+00   3.742593e-02
  4.653011e-01    1.788322e+00   3.791446e-02
  4.675115e-01    1.700577e+00   3.687523e-02
  4.697220e-01    1.745433e+00   3.726057e-02
  4.719324e-01    1.751949e+00   3.723351e-02
  4.741429e-01    1.773380e+00   3.736403e-02
  4.763533e-01    1.672132e+00   3.618873e-02
  4.785638e-01    1.686475e+00   3.624970e-02
  4.807743e-01    1.692978e+00   3.622716e-02
  4.829847e-01    1.732787e+00   3.655801e-02
  4.851952e-01    1.713522e+00   3.626226e-02
  4.874056e-01    1.709219e+00   3.612535e-02
  4.896161e-01    1.705647e+00   3.599811e-02
  4.918265e-01    1.687338e+00   3.571546e-02
  4.940370e-01    1.690133e+00   3.565677e-02
  4.962475e-01    1.738001e+00   3.606888e-02
  4.984579e-01    1.677416e+00   3.534735e-02
  5.006684e-01    1.654157e+00   3.501581e-02
  5.028788e-01    1.709091e+00   3.550624e-02
  5.050893e-01    1.702747e+00   3.535412e-02
  5.072997e-01    1.672449e+00   3.495354e-02
  5.095102e-01    1.656677e+00   3.470500e-02
  5.117206e-01    1.715596e+00   3.523277e-02
  5.139311e-01    1.694184e+00   3.492936e-02
  5.161416e-01    1.704191e+00   3.494957e-02
  5.183520e-01    1.652522e+00   3.433391e-02
  5.205625e-01    1.643803e+00   3.416297e-02
  5.227729e-01    1.668496e+00   3.433836e-02
  5.249834e-01    1.682882e+00   3.440600e-02
  5.271938e-01    1.734479e+00   3.484796e-02
  5.294043e-01    1.737966e+00   3.480247e-02
  5.316148e-01    1.738028e+00   3.472339e-02
  5.338252e-01    1.755275e+00   3.481548e-02
  5.360357e-01    1.791288e+00   3.509077e-02
  5.382461e-01    1.754237e+00   3.464748e-02
  5.404566e-01    1.707087e+00   3.410089e-02
  5.426670e-01    1.740254e+00   3.435297e-02
  5.448775e-01    1.753324e+00   3.440473e-02
  5.470879e-01    1.725683e+00   3.405632e-02
  5.492984e-01    1.762678e+00   3.434289e-02
  5.515089e-01    1.756616e+00   3.420775e-02
  5.537193e-01    1.790533e+00   3.446034e-02
  5.559298e-01    1.779272e+00   3.427644e-02
  5.581402e-01    1.829392e+00   3.467992e-02
  5.603507e-01    1.820301e+00   3.451836e-02
  5.625611e-01    1.804011e+00   3.428897e-02
  5.647716e-01    1.835704e+00   3.451376e-02
  5.669821e-01    1.841975e+00   3.449814e-02
  5.691925e-01    1.797407e+00   3.400507e-02
  5.714030e-01    1.815869e+00   3.410640e-02
  5.736134e-01    1.772312e+00   3.362320e-02
  5.758239e-01    1.727166e+00   3.312136e-02
  5.780343e-01    1.736028e+00   3.313595e-02
  5.802448e-01    1.744373e+00   3.314599e-02
  5.824552e-01    1.707677e+00   3.272667e-02
  5.846657e-01    1.694702e+00   3.253416e-02
  5.868762e-01    1.630280e+00   3.184336e-02
  5.890866e-01    1.639908e+00   3.187097e-02
  5.912971e-01    1.656692e+00   3.196733e-02
  5.935075e-01    1.678847e+00   3.211386e-02
  5.957180e-01    1.645954e+00   3.173249e-02
  5.979284e-01    1.662686e+00   3.182824e-02
  6.001389e-01    1.666990e+00   3.180453e-02
  6.023494e-01    1.694924e+00   3.200477e-02
  6.045598e-01    1.700102e+00   3.198837e-02
  6.067703e-01    1.677717e+00   3.171318e-02
  6.089807e-01    1.666632e+00   3.154468e-02
  6.111912e-01    1.664713e+00   3.146357e-02
  6.134016e-01    1.696786e+00   3.170186e-02
  6.156121e-01    1.685335e+00   3.153191e-02
  6.178226e-01    1.715925e+00   3.175379e-02
  6.200330e-01    1.710401e+00   3.164010e-02
  6.222435e-01    1.737538e+00   3.182694e-02
  6.244539e-01    1.747785e+00   3.185814e-02
  6.266644e-01    1.747679e+00   3.179505e-02
  6.288748e-01    1.721008e+00   3.149010e-02
  6.310853e-01    1.699622e+00   3.123306e-02
  6.332957e-01    1.739803e+00   3.153907e-02
  6.355062e-01    1.753313e+00   3.159981e-02
  6.377167e-01    1.687375e+00   3.094043e-02
  6.399271e-01    1.699513e+00   3.099201e-02
  6.421376e-01    1.699011e+00   3.092829e-02
  6.443480e-01    1.675927e+00   3.065903e-02
  6.465585e-01    1.683726e+00   3.067205e-02
  6.487689e-01    1.689669e+00   3.066814e-02
  6.509794e-01    1.654836e+00   3.029313e-02
  6.531899e-01    1.664900e+00   3.032796e-02
  6.554003e-01    1.641785e+00   3.006007e-02
  6.576108e-01    1.619401e+00   2.979886e-02
  6.598212e-01    1.596016e+00   2.952796e-02
  6.620317e-01    1.631572e+00   2.979970e-02
  6.642421e-01    1.636088e+00   2.978573e-02
  6.664526e-01    1.641799e+00   2.978268e-02
  6.686630e-01    1.610640e+00   2.944419e-02
  6.708735e-01    1.570396e+00   2.902067e-02
  6.730840e-01    1.539327e+00   2.867979e-02
  6.752944e-01    1.529001e+00   2.853141e-02
  6.775049e-01    1.654121e+00   2.962198e-02
  6.797153e-01    1.638679e+00   2.943002e-02
  6.819258e-01    1.646053e+00   2.944294e-02
  6.841362e-01    1.663512e+00   2.954547e-02
  6.863467e-01    1.623606e+00   2.913664e-02
  6.885572e-01    1.606794e+00   2.893347e-02
  6.907676e-01    1.636040e+00   2.914326e-02
  6.929781e-01    1.673483e+00   2.942250e-02
  6.951885e-01    1.613196e+00   2.883651e-02
  6.973990e-01    1.600738e+00   2.867415e-02
  6.996094e-01    1.583296e+00   2.846733e-02
  7.018199e-01    1.572703e+00   2.832215e-02
  7.040303e-01    1.598037e+00   2.849917e-02
  7.062408e-01    1.626462e+00   2.870119e-02
  7.084513e-01    1.589980e+00   2.832811e-02
  7.106617e-01    1.585487e+00   2.823891e-02
  7.128722e-01    1.570175e+00   2.805359e-02
  7.150826e-01    1.595434e+00   2.822959e-02
  7.172931e-01    1.585024e+00   2.808885e-02
  7.195035e-01    1.558645e+00   2.780623e-02
  7.217140e-01    1.591032e+00   2.814335e-02
  7.239245e-01    1.581872e+00   2.828948e-02
  7.261349e-01    1.586994e+00   2.844428e-02
  7.283454e-01    1.582790e+00   2.847916e-02
  7.305558e-01    1.608419e+00   2.876337e-02
  7.327663e-01    1.580961e+00   2.855940e-02
  7.349767e-01    1.552370e+00   2.831622e-02
  7.371872e-01    1.624556e+00   2.895572e-02
  7.393976e-01    1.591367e+00   2.864414e-02
  7.416081e-01    1.533943e+00   2.810659e-02
  7.438186e-01    1.571367e+00   2.830321e-02
  7.460290e-01    1.585914e+00   2.813864e-02
  7.482395e-01    1.587071e+00   2.797705e-02
  7.504499e-01    1.579233e+00   2.777143e-02
  7.526604e-01    1.567994e+00   2.755610e-02
  7.548708e-01    1.590743e+00   2.766542e-02
  7.570813e-01    1.570641e+00   2.743915e-02
  7.592918e-01    1.554620e+00   2.726389e-02
  7.615022e-01    1.568461e+00   2.735125e-02
  7.637127e-01    1.558654e+00   2.723300e-02
  7.659231e-01    1.601173e+00   2.756968e-02
  7.681336e-01    1.567411e+00   2.724594e-02
  7.703440e-01    1.588924e+00   2.740092e-02
  7.725545e-01    1.584912e+00   2.733531e-02
  7.747650e-01    1.638367e+00   2.775351e-02
  7.769754e-01    1.593562e+00   2.731840e-02
  7.791859e-01    1.575968e+00   2.711364e-02
  7.813963e-01    1.637086e+00   2.758085e-02
  7.836068e-01    1.609108e+00   2.729177e-02
  7.858172e-01    1.615013e+00   2.729067e-02
  7.880277e-01    1.632723e+00   2.738771e-02
  7.902381e-01    1.610061e+00   2.714755e-02
  7.924486e-01    1.587686e+00   2.690834e-02
  7.946591e-01    1.614813e+00   2.708869e-02
  7.968695e-01    1.628486e+00   2.715449e-02
  7.990800e-01    1.646284e+00   2.725366e-02
  8.012904e-01    1.682100e+00   2.750090e-02
  8.035009e-01    1.606799e+00   2.683047e-02
  8.057113e-01    1.607929e+00   2.679347e-02
  8.079218e-01    1.627513e+00   2.690963e-02
  8.101323e-01    1.679350e+00   2.728839e-02
  8.123427e-01    1.701570e+00   2.742151e-02
  8.145532e-01    1.685163e+00   2.724231e-02
  8.167636e-01    1.625607e+00   2.671160e-02
  8.189741e-01    1.649358e+00   2.686114e-02
  8.211845e-01    1.646643e+00   2.679407e-02
  8.233950e-01    1.627540e+00   2.659487e-02
  8.256054e-01    1.643085e+00   2.667729e-02
  8.278159e-01    1.629308e+00   2.652136e-02
  8.300264e-01    1.643935e+00   2.659697e-02
  8.322368e-01    1.650505e+00   2.660679e-02
  8.344473e-01    1.683194e+00   2.682501e-02
  8.366577e-01    1.683467e+00   2.678405e-02
  8.388682e-01    1.658564e+00   2.654271e-02
  8.410786e-01    1.657001e+00   2.648791e-02
  8.432891e-01    1.665509e+00   2.651365e-02
  8.454996e-01    1.636689e+00   2.624164e-02
  8.477100e-01    1.628843e+00   2.613713e-02
  8.499205e-01    1.665049e+00   2.638450e-02
  8.521309e-01    1.719937e+00   2.677406e-02
  8.543414e-01    1.729981e+00   2.681023e-02
  8.565518e-01    1.651978e+00   2.615806e-02
  8.587623e-01    1.603191e+00   2.572878e-02
  8.609727e-01    1.631695e+00   2.591622e-02
  8.631832e-01    1.648392e+00   2.600834e-02
  8.653937e-01    1.646974e+00   2.595720e-02
  8.676041e-01    1.601522e+00   2.555791e-02
  8.698146e-01    1.584100e+00   2.537965e-02
  8.720250e-01    1.606612e+00   2.552039e-02
  8.742355e-01    1.588400e+00   2.533673e-02
  8.764459e-01    1.585538e+00   2.527526e-02
  8.786564e-01    1.617334e+00   2.548938e-02
  8.808669e-01    1.602984e+00   2.533759e-02
  8.830773e-01    1.581861e+00   2.513220e-02
  8.852878e-01    1.593552e+00   2.518707e-02
  8.874982e-01    1.576084e+00   2.501231e-02
  8.897087e-01    1.575510e+00   2.497035e-02
  8.919191e-01    1.565543e+00   2.485391e-02
  8.941296e-01    1.580795e+00   2.493762e-02
  8.963401e-01    1.577553e+00   2.487588e-02
  8.985505e-01    1.605357e+00   2.505710e-02
  9.007610e-01    1.642534e+00   2.530836e-02
  9.029714e-01    1.619139e+00   2.509143e-02
  9.051819e-01    1.597180e+00   2.488350e-02
  9.073923e-01    1.606752e+00   2.492131e-02
  9.096028e-01    1.577487e+00   2.465864e-02
  9.118132e-01    1.589316e+00   2.471481e-02
  9.140237e-01    1.603232e+00   2.478612e-02
  9.162342e-01    1.600001e+00   2.472658e-02
  9.184446e-01    1.593635e+00   2.464165e-02
  9.206551e-01    1.600540e+00   2.465939e-02
  9.228655e-01    1.600250e+00   2.462189e-02
  9.250760e-01    1.636360e+00   2.486242e-02
  9.272864e-01    1.626388e+00   2.475205e-02
  9.294969e-01    1.604091e+00   2.454596e-02
  9.317074e-01    1.603794e+00   2.450899e-02
  9.339178e-01    1.626592e+00   2.464888e-02
  9.361283e-01    1.618141e+00   2.454850e-02
  9.383387e-01    1.669152e+00   2.489854e-02
  9.405492e-01    1.678133e+00   2.493057e-02
  9.427596e-01    1.679398e+00   2.490406e-02
  9.449701e-01    1.694401e+00   2.498107e-02
  9.471805e-01    1.717310e+00   2.511374e-02
  9.493910e-01    1.714170e+00   2.505637e-02
  9.516015e-01    1.680651e+00   2.477552e-02
  9.538119e-01    1.707909e+00   2.494141e-02
  9.560224e-01    1.708872e+00   2.491332e-02
  9.582328e-01    1.769768e+00   2.531931e-02
  9.604433e-01    1.778739e+00   2.534747e-02
  9.626537e-01    1.780521e+00   2.532607e-02
  9.648642e-01    1.842967e+00   2.573103e-02
  9.670747e-01    1.940267e+00   2.636515e-02
  9.692851e-01    1.989924e+00   2.666489e-02
  9.714956e-01    2.010013e+00   2.676139e-02
  9.737060e-01    2.006245e+00   2.670117e-02
  9.759165e-01    1.919039e+00   2.607761e-02
  9.781269e-01    1.827704e+00   2.541616e-02
  9.803374e-01    1.833051e+00   2.541809e-02
  9.825478e-01    1.843444e+00   2.545643e-02
  9.847583e-01    1.852656e+00   2.548531e-02
  9.869688e-01    1.842046e+00   2.537821e-02
  9.891792e-01    1.811355e+00   2.513245e-02
  9.913897e-01    1.780424e+00   2.488333e-02
  9.936001e-01    1.744454e+00   2.459845e-02
  9.958106e-01    1.696051e+00   2.422182e-02
  9.980210e-01    1.699802e+00   2.421710e-02
  1.000231e+00    1.673213e+00   2.415858e-02
  1.002442e+00    1.685056e+00   2.437273e-02
  1.004652e+00    1.673979e+00   2.436026e-02
  1.006863e+00    1.644067e+00   2.419175e-02
  1.009073e+00    1.564291e+00   2.363363e-02
  1.011284e+00    1.563530e+00   2.365946e-02
  1.013494e+00    1.579427e+00   2.380300e-02
  1.015705e+00    1.566068e+00   2.372454e-02
  1.017915e+00    1.563136e+00   2.371865e-02
  1.020126e+00    1.544658e+00   2.359398e-02
  1.022336e+00    1.513431e+00   2.336579e-02
  1.024547e+00    1.513582e+00   2.337800e-02
  1.026757e+00    1.587777e+00   2.395263e-02
  1.028967e+00    1.554411e+00   2.370735e-02
  1.031178e+00    1.539228e+00   2.359742e-02
  1.033388e+00    1.580030e+00   2.391330e-02
  1.035599e+00    1.582385e+00   2.393456e-02
  1.037809e+00    1.707012e+00   2.486267e-02
  1.040020e+00    1.761033e+00   2.525442e-02
  1.042230e+00    1.700510e+00   2.481872e-02
  1.044441e+00    1.590143e+00   2.399961e-02
  1.046651e+00    1.543947e+00   2.364856e-02
  1.048862e+00    1.564244e+00   2.380269e-02
  1.051072e+00    1.512879e+00   2.340630e-02
  1.053282e+00    1.484681e+00   2.318615e-02
  1.055493e+00    1.499920e+00   2.330055e-02
  1.057703e+00    1.467631e+00   2.304688e-02
  1.059914e+00    1.461311e+00   2.299298e-02
  1.062124e+00    1.450696e+00   2.290531e-02
  1.064335e+00    1.456073e+00   2.294431e-02
  1.066545e+00    1.477171e+00   2.310396e-02
  1.068756e+00    1.455608e+00   2.293101e-02
  1.070966e+00    1.470530e+00   2.304171e-02
  1.073177e+00    1.479973e+00   2.310953e-02
  1.075387e+00    1.416390e+00   2.260252e-02
  1.077597e+00    1.457251e+00   2.291898e-02
  1.079808e+00    1.492295e+00   2.305892e-02
  1.082018e+00    1.543459e+00   2.325666e-02
  1.084229e+00    1.841086e+00   2.527651e-02
  1.086439e+00    2.393116e+00   2.870582e-02
  1.088650e+00    2.466758e+00   2.904573e-02
  1.090860e+00    2.308952e+00   2.801613e-02
  1.093071e+00    1.878049e+00   2.519635e-02
  1.095281e+00    1.576442e+00   2.302478e-02
  1.097492e+00    1.519407e+00   2.254809e-02
  1.099702e+00    1.540131e+00   2.264820e-02
  1.101912e+00    1.510797e+00   2.238143e-02
  1.104123e+00    1.559561e+00   2.268949e-02
  1.106333e+00    1.549342e+00   2.256888e-02
  1.108544e+00    1.512132e+00   2.225069e-02
  1.110754e+00    1.467805e+00   2.187850e-02
  1.112965e+00    1.444927e+00   2.166647e-02
  1.115175e+00    1.400208e+00   2.128767e-02
  1.117386e+00    1.383198e+00   2.111913e-02
  1.119596e+00    1.398763e+00   2.119993e-02
  1.121807e+00    1.382894e+00   2.104090e-02
  1.124017e+00    1.395692e+00   2.110151e-02
  1.126228e+00    1.384372e+00   2.098030e-02
  1.128438e+00    1.370785e+00   2.084071e-02
  1.130648e+00    1.376795e+00   2.085229e-02
  1.132859e+00    1.382453e+00   2.086092e-02
  1.135069e+00    1.397434e+00   2.093885e-02
  1.137280e+00    1.405024e+00   2.096246e-02
  1.139490e+00    1.417425e+00   2.102135e-02
  1.141701e+00    1.408748e+00   2.092351e-02
  1.143911e+00    1.398838e+00   2.081774e-02
  1.146122e+00    1.406637e+00   2.084339e-02
  1.148332e+00    1.392957e+00   2.070975e-02
  1.150543e+00    1.342270e+00   2.029904e-02
  1.152753e+00    1.353494e+00   2.035311e-02
  1.154963e+00    1.373302e+00   2.047048e-02
  1.157174e+00    1.384187e+00   2.052117e-02
  1.159384e+00    1.373382e+00   2.041105e-02
  1.161595e+00    1.384929e+00   2.046668e-02
  1.163805e+00    1.344230e+00   2.013471e-02
  1.166016e+00    1.376768e+00   2.034740e-02
  1.168226e+00    1.383545e+00   2.036829e-02
  1.170437e+00    1.391151e+00   2.039531e-02
  1.172647e+00    1.387918e+00   2.034247e-02
  1.174858e+00    1.386480e+00   2.030360e-02
  1.177068e+00    1.402577e+00   2.039247e-02
  1.179278e+00    1.370467e+00   2.012903e-02
  1.181489e+00    1.354885e+00   1.998729e-02
  1.183699e+00    1.360058e+00   1.999783e-02
  1.185910e+00    1.357831e+00   1.995368e-02
  1.188120e+00    1.362615e+00   1.996205e-02
  1.190331e+00    1.366173e+00   1.996122e-02
  1.192541e+00    1.365795e+00   1.993098e-02
  1.194752e+00    1.366766e+00   1.991087e-02
  1.196962e+00    1.347556e+00   1.974475e-02
  1.199173e+00    1.341068e+00   1.967075e-02
  1.201383e+00    1.341782e+00   1.964891e-02
  1.203593e+00    1.336250e+00   1.958367e-02
  1.205804e+00    1.329599e+00   1.950913e-02
  1.208014e+00    1.367119e+00   1.975548e-02
  1.210225e+00    1.371334e+00   1.976037e-02
  1.212435e+00    1.384676e+00   1.983116e-02
  1.214646e+00    1.376227e+00   1.974423e-02
  1.216856e+00    1.358661e+00   1.959223e-02
  1.219067e+00    1.358124e+00   1.956385e-02
  1.221277e+00    1.337359e+00   1.938878e-02
  1.223488e+00    1.349923e+00   1.945391e-02
  1.225698e+00    1.350922e+00   1.943419e-02
  1.227909e+00    1.362450e+00   1.948662e-02
  1.230119e+00    1.375722e+00   1.954915e-02
  1.232329e+00    1.380013e+00   1.954855e-02
  1.234540e+00    1.396390e+00   1.963340e-02
  1.236750e+00    1.532030e+00   2.053256e-02
  1.238961e+00    1.654504e+00   2.130769e-02
  1.241171e+00    1.623266e+00   2.107912e-02
  1.243382e+00    1.475540e+00   2.007250e-02
  1.245592e+00    1.391259e+00   1.946634e-02
  1.247803e+00    1.346596e+00   1.912769e-02
  1.250013e+00    1.367860e+00   1.925441e-02
  1.252224e+00    1.363987e+00   1.920377e-02
  1.254434e+00    1.398297e+00   1.941962e-02
  1.256644e+00    1.413926e+00   1.950411e-02
  1.258855e+00    1.391660e+00   1.932631e-02
  1.261065e+00    1.395079e+00   1.932627e-02
  1.263276e+00    1.411633e+00   1.941714e-02
  1.265486e+00    1.384991e+00   1.920988e-02
  1.267697e+00    1.346000e+00   1.891455e-02
  1.269907e+00    1.352433e+00   1.893698e-02
  1.272118e+00    1.341600e+00   1.883847e-02
  1.274328e+00    1.346094e+00   1.884730e-02
  1.276539e+00    1.344157e+00   1.881100e-02
  1.278749e+00    1.351198e+00   1.883790e-02
  1.280959e+00    1.382561e+00   1.903245e-02
  1.283170e+00    1.379529e+00   1.898893e-02
  1.285380e+00    1.374625e+00   1.893247e-02
  1.287591e+00    1.379287e+00   1.894229e-02
  1.289801e+00    1.374180e+00   1.888578e-02
  1.292012e+00    1.364834e+00   1.880425e-02
  1.294222e+00    1.340135e+00   1.861717e-02
  1.296433e+00    1.307371e+00   1.837281e-02
  1.298643e+00    1.358617e+00   1.871289e-02
  1.300854e+00    1.384119e+00   1.887110e-02
  1.303064e+00    1.376626e+00   1.880055e-02
  1.305274e+00    1.344686e+00   1.855976e-02
  1.307485e+00    1.367044e+00   1.869174e-02
  1.309695e+00    1.372047e+00   1.870350e-02
  1.311906e+00    1.372905e+00   1.868745e-02
  1.314116e+00    1.384031e+00   1.874196e-02
  1.316327e+00    1.355958e+00   1.852919e-02
  1.318537e+00    1.356074e+00   1.850802e-02
  1.320748e+00    1.359312e+00   1.850851e-02
  1.322958e+00    1.354880e+00   1.845772e-02
  1.325169e+00    1.373037e+00   1.855981e-02
  1.327379e+00    1.383177e+00   1.860612e-02
  1.329589e+00    1.372243e+00   1.851122e-02
  1.331800e+00    1.358574e+00   1.839801e-02
  1.334010e+00    1.378418e+00   1.851102e-02
  1.336221e+00    1.375345e+00   1.846844e-02
  1.338431e+00    1.354312e+00   1.830577e-02
  1.340642e+00    1.357609e+00   1.839238e-02
  1.342852e+00    1.364109e+00   1.853755e-02
  1.345063e+00    1.350414e+00   1.849377e-02
  1.347273e+00    1.334824e+00   1.842173e-02
  1.349484e+00    1.350103e+00   1.855456e-02
  1.351694e+00    1.346297e+00   1.855105e-02
  1.353905e+00    1.349350e+00   1.859007e-02
  1.356115e+00    1.355743e+00   1.864914e-02
  1.358325e+00    1.325829e+00   1.845544e-02
  1.360536e+00    1.339681e+00   1.856318e-02
  1.362746e+00    1.318415e+00   1.842472e-02
  1.364957e+00    1.333338e+00   1.853630e-02
  1.367167e+00    1.336138e+00   1.856289e-02
  1.369378e+00    1.336972e+00   1.857466e-02
  1.371588e+00    1.342467e+00   1.861795e-02
  1.373799e+00    1.320861e+00   1.847116e-02
  1.376009e+00    1.297476e+00   1.831026e-02
  1.378220e+00    1.287056e+00   1.823906e-02
  1.380430e+00    1.283974e+00   1.821988e-02
  1.382640e+00    1.297368e+00   1.831553e-02
  1.384851e+00    1.312433e+00   1.842249e-02
  1.387061e+00    1.284310e+00   1.822429e-02
  1.389272e+00    1.318410e+00   1.846487e-02
  1.391482e+00    1.299841e+00   1.833370e-02
  1.393693e+00    1.295769e+00   1.830409e-02
  1.395903e+00    1.296552e+00   1.830811e-02
  1.398114e+00    1.275490e+00   1.815743e-02
  1.400324e+00    1.271425e+00   1.812635e-02
  1.402535e+00    1.270404e+00   1.811675e-02
  1.404745e+00    1.274990e+00   1.814706e-02
  1.406955e+00    1.263716e+00   1.806397e-02
  1.409166e+00    1.279022e+00   1.816970e-02
  1.411376e+00    1.258035e+00   1.801693e-02
  1.413587e+00    1.263383e+00   1.805139e-02
  1.415797e+00    1.228345e+00   1.779582e-02
  1.418008e+00    1.257342e+00   1.796297e-02
  1.420218e+00    1.279269e+00   1.796867e-02
  1.422429e+00    1.261906e+00   1.776126e-02
  1.424639e+00    1.282891e+00   1.784331e-02
  1.426850e+00    1.295238e+00   1.787375e-02
  1.429060e+00    1.285030e+00   1.775389e-02
  1.431270e+00    1.287951e+00   1.772944e-02
  1.433481e+00    1.270358e+00   1.756699e-02
  1.435691e+00    1.241164e+00   1.732596e-02
  1.437902e+00    1.271615e+00   1.750071e-02
  1.440112e+00    1.278642e+00   1.751355e-02
  1.442323e+00    1.285275e+00   1.752565e-02
  1.444533e+00    1.303289e+00   1.761509e-02
  1.446744e+00    1.295452e+00   1.753060e-02
  1.448954e+00    1.295683e+00   1.750168e-02
  1.451165e+00    1.286356e+00   1.740861e-02
  1.453375e+00    1.278003e+00   1.732387e-02
  1.455586e+00    1.267779e+00   1.722630e-02
  1.457796e+00    1.272581e+00   1.723134e-02
  1.460006e+00    1.279485e+00   1.725067e-02
  1.462217e+00    1.293673e+00   1.731959e-02
  1.464427e+00    1.292647e+00   1.728688e-02
  1.466638e+00    1.280063e+00   1.717711e-02
  1.468848e+00    1.269788e+00   1.708268e-02
  1.471059e+00    1.283722e+00   1.715091e-02
  1.473269e+00    1.294846e+00   1.720045e-02
  1.475480e+00    1.290936e+00   1.715048e-02
  1.477690e+00    1.274491e+00   1.701702e-02
  1.479901e+00    1.250360e+00   1.683147e-02
  1.482111e+00    1.239566e+00   1.673558e-02
  1.484321e+00    1.269872e+00   1.691579e-02
  1.486532e+00    1.279599e+00   1.695802e-02
  1.488742e+00    1.252940e+00   1.675789e-02
  1.490953e+00    1.245429e+00   1.668515e-02
  1.493163e+00    1.268151e+00   1.681433e-02
  1.495374e+00    1.275553e+00   1.684175e-02
  1.497584e+00    1.252308e+00   1.666601e-02
  1.499795e+00    1.249322e+00   1.662458e-02
  1.502005e+00    1.251081e+00   1.661466e-02
  1.504216e+00    1.254272e+00   1.661484e-02
  1.506426e+00    1.260127e+00   1.663275e-02
  1.508636e+00    1.270917e+00   1.668325e-02
  1.510847e+00    1.276104e+00   1.669527e-02
  1.513057e+00    1.274943e+00   1.666239e-02
  1.515268e+00    1.262871e+00   1.655754e-02
  1.517478e+00    1.254470e+00   1.647721e-02
  1.519689e+00    1.264142e+00   1.651554e-02
  1.521899e+00    1.266314e+00   1.650651e-02
  1.524110e+00    1.263008e+00   1.646453e-02
  1.526320e+00    1.266237e+00   1.646585e-02
  1.528531e+00    1.284596e+00   1.656477e-02
  1.530741e+00    1.270962e+00   1.645734e-02
  1.532951e+00    1.240745e+00   1.624101e-02
  1.535162e+00    1.233246e+00   1.627789e-02
  1.537372e+00    1.219282e+00   1.625156e-02
  1.539583e+00    1.251403e+00   1.649850e-02
  1.541793e+00    1.247668e+00   1.648082e-02
  1.544004e+00    1.239085e+00   1.642429e-02
  1.546214e+00    1.244242e+00   1.645693e-02
  1.548425e+00    1.234647e+00   1.639361e-02
  1.550635e+00    1.245523e+00   1.647534e-02
  1.552846e+00    1.245727e+00   1.648635e-02
  1.555056e+00    1.241514e+00   1.641702e-02
  1.557266e+00    1.242798e+00   1.631513e-02
  1.559477e+00    1.252067e+00   1.631656e-02
  1.561687e+00    1.252368e+00   1.628776e-02
  1.563898e+00    1.251416e+00   1.626436e-02
  1.566108e+00    1.218532e+00   1.603346e-02
  1.568319e+00    1.227502e+00   1.607685e-02
  1.570529e+00    1.233404e+00   1.609041e-02
  1.572740e+00    1.252347e+00   1.618581e-02
  1.574950e+00    1.281379e+00   1.634565e-02
  1.577161e+00    1.264792e+00   1.621384e-02
  1.579371e+00    1.232107e+00   1.597941e-02
  1.581582e+00    1.234690e+00   1.597646e-02
  1.583792e+00    1.252087e+00   1.607054e-02
  1.586002e+00    1.254758e+00   1.606999e-02
  1.588213e+00    1.246798e+00   1.600168e-02
  1.590423e+00    1.248688e+00   1.599367e-02
  1.592634e+00    1.260338e+00   1.604636e-02
  1.594844e+00    1.267087e+00   1.606765e-02
  1.597055e+00    1.224076e+00   1.577228e-02
  1.599265e+00    1.235521e+00   1.582514e-02
  1.601476e+00    1.245569e+00   1.586902e-02
  1.603686e+00    1.259180e+00   1.593557e-02
  1.605897e+00    1.249702e+00   1.585526e-02
  1.608107e+00    1.223058e+00   1.566586e-02
  1.610317e+00    1.213827e+00   1.558752e-02
  1.612528e+00    1.222067e+00   1.562125e-02
  1.614738e+00    1.243711e+00   1.573994e-02
  1.616949e+00    1.239811e+00   1.569615e-02
  1.619159e+00    1.221497e+00   1.556111e-02
  1.621370e+00    1.201728e+00   1.541633e-02
  1.623580e+00    1.202139e+00   1.540073e-02
  1.625791e+00    1.170575e+00   1.517922e-02
  1.628001e+00    1.166282e+00   1.513339e-02
  1.630212e+00    1.177324e+00   1.518720e-02
  1.632422e+00    1.190592e+00   1.525462e-02
  1.634632e+00    1.214501e+00   1.538947e-02
  1.636843e+00    1.208495e+00   1.533363e-02
  1.639053e+00    1.188521e+00   1.518897e-02
  1.641264e+00    1.175125e+00   1.508601e-02
  1.643474e+00    1.160998e+00   1.497766e-02
  1.645685e+00    1.137147e+00   1.480652e-02
  1.647895e+00    1.137016e+00   1.478919e-02
  1.650106e+00    1.143210e+00   1.481248e-02
  1.652316e+00    1.148316e+00   1.482903e-02
  1.654527e+00    1.134796e+00   1.472487e-02
  1.656737e+00    1.144266e+00   1.476955e-02
  1.658947e+00    1.159535e+00   1.485129e-02
  1.661158e+00    1.161478e+00   1.484723e-02
  1.663368e+00    1.133996e+00   1.465442e-02
  1.665579e+00    1.122506e+00   1.456382e-02
  1.667789e+00    1.114148e+00   1.449327e-02
  1.670000e+00    1.113334e+00   1.447249e-02
  1.672210e+00    1.089644e+00   1.430195e-02
  1.674421e+00    1.082154e+00   1.423754e-02
  1.676631e+00    1.089467e+00   1.426977e-02
  1.678842e+00    1.117262e+00   1.443476e-02
  1.681052e+00    1.095354e+00   1.427713e-02
  1.683263e+00    1.090781e+00   1.423216e-02
  1.685473e+00    1.092860e+00   1.423051e-02
  1.687683e+00    1.088746e+00   1.418825e-02
  1.689894e+00    1.107322e+00   1.429278e-02
  1.692104e+00    1.183368e+00   1.475979e-02
  1.694315e+00    1.196581e+00   1.482664e-02
  1.696525e+00    1.171415e+00   1.465406e-02
  1.698736e+00    1.104977e+00   1.421733e-02
  1.700946e+00    1.063239e+00   1.393109e-02
  1.703157e+00    1.060667e+00   1.389953e-02
  1.705367e+00    1.068354e+00   1.393523e-02
  1.707578e+00    1.045489e+00   1.377075e-02
  1.709788e+00    1.046131e+00   1.376084e-02
  1.711998e+00    1.036836e+00   1.368462e-02
  1.714209e+00    1.028652e+00   1.361613e-02
  1.716419e+00    1.036737e+00   1.365525e-02
  1.718630e+00    1.015033e+00   1.349743e-02
  1.720840e+00    1.004555e+00   1.341353e-02
  1.723051e+00    1.002265e+00   1.338454e-02
  1.725261e+00    1.020298e+00   1.348972e-02
  1.727472e+00    1.010850e+00   1.341301e-02
  1.729682e+00    1.012210e+00   1.340859e-02
  1.731893e+00    1.008462e+00   1.336985e-02
  1.734103e+00    1.017974e+00   1.341890e-02
  1.736313e+00    1.013921e+00   1.337811e-02
  1.738524e+00    1.008752e+00   1.333007e-02
  1.740734e+00    1.018106e+00   1.337792e-02
  1.742945e+00    9.963457e-01   1.322073e-02
  1.745155e+00    9.910040e-01   1.317180e-02
  1.747366e+00    9.795448e-01   1.308168e-02
  1.749576e+00    9.869918e-01   1.311763e-02
  1.751787e+00    9.935517e-01   1.314773e-02
  1.753997e+00    9.883087e-01   1.309956e-02
  1.756208e+00    1.023530e+00   1.331740e-02
  1.758418e+00    1.049790e+00   1.347354e-02
  1.760628e+00    1.048445e+00   1.345101e-02
  1.762839e+00    1.021186e+00   1.326141e-02
  1.765049e+00    1.009562e+00   1.317229e-02
  1.767260e+00    9.932024e-01   1.305209e-02
  1.769470e+00    1.002640e+00   1.310064e-02
  1.771681e+00    9.793658e-01   1.293440e-02
  1.773891e+00    9.702286e-01   1.286071e-02
  1.776102e+00    9.659054e-01   1.281902e-02
  1.778312e+00    1.001417e+00   1.303942e-02
  1.780523e+00    1.028986e+00   1.320439e-02
  1.782733e+00    1.014789e+00   1.309981e-02
  1.784944e+00    1.008330e+00   1.304467e-02
  1.787154e+00    9.920643e-01   1.292611e-02
  1.789364e+00    9.597603e-01   1.270124e-02
  1.791575e+00    9.703622e-01   1.275836e-02
  1.793785e+00    9.753580e-01   1.277840e-02
  1.795996e+00    9.750663e-01   1.276364e-02
  1.798206e+00    9.119160e-01   1.233093e-02
  1.800417e+00    9.060630e-01   1.227866e-02
  1.802627e+00    9.113246e-01   1.230235e-02
  1.804838e+00    9.277347e-01   1.240042e-02
  1.807048e+00    9.414294e-01   1.247850e-02
  1.809259e+00    9.685003e-01   1.264264e-02
  1.811469e+00    9.189075e-01   1.229961e-02
  1.813679e+00    9.069772e-01   1.220447e-02
  1.815890e+00    9.119751e-01   1.222319e-02
  1.818100e+00    9.105000e-01   1.219809e-02
  1.820311e+00    8.757836e-01   1.194866e-02
  1.822521e+00    8.644984e-01   1.185678e-02
  1.824732e+00    8.892977e-01   1.201082e-02
  1.826942e+00    9.138267e-01   1.216284e-02
  1.829153e+00    8.904268e-01   1.199439e-02
  1.831363e+00    9.010545e-01   1.205360e-02
  1.833574e+00    8.878787e-01   1.195342e-02
  1.835784e+00    8.909566e-01   1.196263e-02
  1.837994e+00    8.712035e-01   1.181761e-02
  1.840205e+00    8.772117e-01   1.184708e-02
  1.842415e+00    8.837120e-01   1.187906e-02
  1.844626e+00    8.750101e-01   1.180885e-02
  1.846836e+00    8.875277e-01   1.188145e-02
  1.849047e+00    8.815916e-01   1.182995e-02
  1.851257e+00    8.582848e-01   1.166298e-02
  1.853468e+00    8.567548e-01   1.164381e-02
  1.855678e+00    8.587435e-01   1.164842e-02
  1.857889e+00    8.827922e-01   1.180179e-02
  1.860099e+00    9.302704e-01   1.210599e-02
  1.862309e+00    9.602118e-01   1.229028e-02
  1.864520e+00    9.358253e-01   1.212425e-02
  1.866730e+00    8.986534e-01   1.187140e-02
  1.868941e+00    8.611142e-01   1.160979e-02
  1.871151e+00    8.554623e-01   1.156022e-02
  1.873362e+00    8.480450e-01   1.149865e-02
  1.875572e+00    8.485306e-01   1.149101e-02
  1.877783e+00    8.572887e-01   1.153868e-02
  1.879993e+00    8.327150e-01   1.136105e-02
  1.882204e+00    8.290733e-01   1.132536e-02
  1.884414e+00    8.450315e-01   1.142276e-02
  1.886624e+00    8.266364e-01   1.128681e-02
  1.888835e+00    8.204328e-01   1.123352e-02
  1.891045e+00    8.271896e-01   1.126889e-02
  1.893256e+00    8.139712e-01   1.116757e-02
  1.895466e+00    8.135179e-01   1.115345e-02
  1.897677e+00    8.190017e-01   1.118015e-02
  1.899887e+00    8.279536e-01   1.123016e-02
  1.902098e+00    8.227497e-01   1.118402e-02
  1.904308e+00    8.384332e-01   1.127948e-02
  1.906519e+00    8.366559e-01   1.125665e-02
  1.908729e+00    8.377713e-01   1.125348e-02
  1.910940e+00    8.487130e-01   1.131545e-02
  1.913150e+00    8.411889e-01   1.125453e-02
  1.915360e+00    8.094215e-01   1.102943e-02
  1.917571e+00    8.110719e-01   1.102987e-02
  1.919781e+00    8.247511e-01   1.111178e-02
  1.921992e+00    8.196517e-01   1.106677e-02
  1.924202e+00    8.232373e-01   1.108012e-02
  1.926413e+00    8.937246e-01   1.153394e-02
  1.928623e+00    9.108410e-01   1.163278e-02
  1.930834e+00    8.342868e-01   1.112263e-02
  1.933044e+00    8.062571e-01   1.092354e-02
  1.935255e+00    8.019189e-01   1.088383e-02
  1.937465e+00    8.100201e-01   1.092825e-02
  1.939675e+00    8.134329e-01   1.094036e-02
  1.941886e+00    8.113454e-01   1.091601e-02
  1.944096e+00    7.921665e-01   1.077608e-02
  1.946307e+00    8.117695e-01   1.089821e-02
  1.948517e+00    7.938502e-01   1.076684e-02
  1.950728e+00    8.107187e-01   1.087031e-02
  1.952938e+00    8.075563e-01   1.083895e-02
  1.955149e+00    8.084004e-01   1.083429e-02
  1.957359e+00    8.106959e-01   1.083953e-02
  1.959570e+00    8.117830e-01   1.083582e-02
  1.961780e+00    7.888559e-01   1.067181e-02
  1.963990e+00    7.769423e-01   1.058090e-02
  1.966201e+00    7.936375e-01   1.068388e-02
  1.968411e+00    7.920101e-01   1.066278e-02
  1.970622e+00    7.705602e-01   1.050741e-02
  1.972832e+00    7.755775e-01   1.053167e-02
  1.975043e+00    7.559245e-01   1.038753e-02
  1.977253e+00    7.655830e-01   1.044383e-02
  1.979464e+00    7.910611e-01   1.060612e-02
  1.981674e+00    7.679571e-01   1.043993e-02
  1.983885e+00    7.810423e-01   1.051848e-02
  1.986095e+00    7.645760e-01   1.039742e-02
  1.988305e+00    7.768808e-01   1.047085e-02
  1.990516e+00    7.880918e-01   1.053616e-02
  1.992726e+00    8.000914e-01   1.060627e-02
  1.994937e+00    7.812170e-01   1.047026e-02
  1.997147e+00    7.899160e-01   1.051858e-02
  1.999358e+00    8.050455e-01   1.060878e-02
  2.001568e+00    8.414808e-01   1.083491e-02
  2.003779e+00    8.210462e-01   1.069029e-02
  2.005989e+00    7.979156e-01   1.052639e-02
  2.008200e+00    7.835435e-01   1.041954e-02
  2.010410e+00    7.781996e-01   1.037212e-02
  2.012621e+00    7.789788e-01   1.036553e-02
  2.014831e+00    7.833418e-01   1.038292e-02
  2.017041e+00    7.872917e-01   1.039855e-02
  2.019252e+00    7.708225e-01   1.027923e-02
  2.021462e+00    7.704515e-01   1.026721e-02
  2.023673e+00    7.711680e-01   1.026255e-02
  2.025883e+00    7.744213e-01   1.027458e-02
  2.028094e+00    7.788070e-01   1.029391e-02
  2.030304e+00    7.615607e-01   1.016974e-02
  2.032515e+00    7.783107e-01   1.027156e-02
  2.034725e+00    7.738931e-01   1.023285e-02
  2.036936e+00    7.561082e-01   1.010526e-02
  2.039146e+00    7.486376e-01   1.004569e-02
  2.041356e+00    7.520941e-01   1.005924e-02
  2.043567e+00    7.565044e-01   1.007938e-02
  2.045777e+00    7.580701e-01   1.008055e-02
  2.047988e+00    7.463453e-01   9.992961e-03
  2.050198e+00    7.467406e-01   9.987215e-03
  2.052409e+00    7.570826e-01   1.004845e-02
  2.054619e+00    7.576532e-01   1.004486e-02
  2.056830e+00    7.490528e-01   9.980489e-03
  2.059040e+00    7.594838e-01   1.004220e-02
  2.061251e+00    7.488245e-01   9.964250e-03
  2.063461e+00    7.466449e-01   9.942132e-03
  2.065671e+00    7.496544e-01   9.953448e-03
  2.067882e+00    7.356620e-01   9.851175e-03
  2.070092e+00    7.520497e-01   9.951077e-03
  2.072303e+00    7.565429e-01   9.971558e-03
  2.074513e+00    7.461986e-01   9.893830e-03
  2.076724e+00    7.446848e-01   9.874325e-03
  2.078934e+00    7.620486e-01   9.979652e-03
  2.081145e+00    7.734480e-01   1.004476e-02
  2.083355e+00    7.568772e-01   9.927314e-03
  2.085566e+00    7.631921e-01   9.959602e-03
  2.087776e+00    7.489084e-01   9.856385e-03
  2.089986e+00    7.529022e-01   9.873771e-03
  2.092197e+00    7.593507e-01   9.906867e-03
  2.094407e+00    7.798970e-01   1.003049e-02
  2.096618e+00    7.764271e-01   9.999021e-03
  2.098828e+00    7.779256e-01   9.999091e-03
  2.101039e+00    7.768872e-01   9.983163e-03
  2.103249e+00    7.659942e-01   9.904068e-03
  2.105460e+00    7.482343e-01   9.779449e-03
  2.107670e+00    7.432306e-01   9.737868e-03
  2.109881e+00    7.407294e-01   9.712218e-03
  2.112091e+00    7.429444e-01   9.717644e-03
  2.114301e+00    7.324239e-01   9.639747e-03
  2.116512e+00    7.548979e-01   9.777549e-03
  2.118722e+00    7.472112e-01   9.718669e-03
  2.120933e+00    7.487985e-01   9.719951e-03
  2.123143e+00    7.628495e-01   9.801532e-03
  2.125354e+00    7.688025e-01   9.830899e-03
  2.127564e+00    7.408590e-01   9.641710e-03
  2.129775e+00    7.380678e-01   9.614650e-03
  2.131985e+00    7.325274e-01   9.569327e-03
  2.134196e+00    7.383327e-01   9.598428e-03
  2.136406e+00    7.442958e-01   9.628167e-03
  2.138617e+00    7.553086e-01   9.690431e-03
  2.140827e+00    7.378235e-01   9.594001e-03
  2.143037e+00    7.130952e-01   9.477518e-03
  2.145248e+00    7.149271e-01   9.511826e-03
  2.147458e+00    7.145998e-01   9.524901e-03
  2.149669e+00    7.030468e-01   9.459436e-03
  2.151879e+00    7.027238e-01   9.466489e-03
  2.154090e+00    7.040120e-01   9.482505e-03
  2.156300e+00    7.010399e-01   9.469058e-03
  2.158511e+00    7.077813e-01   9.519815e-03
  2.160721e+00    7.011635e-01   9.480033e-03
  2.162932e+00    7.221221e-01   9.624470e-03
  2.165142e+00    7.235758e-01   9.637253e-03
  2.167352e+00    6.965304e-01   9.458339e-03
  2.169563e+00    6.828921e-01   9.367224e-03
  2.171773e+00    6.849098e-01   9.383461e-03
  2.173984e+00    6.929914e-01   9.440081e-03
  2.176194e+00    6.874441e-01   9.403420e-03
  2.178405e+00    6.959950e-01   9.462408e-03
  2.180615e+00    7.117032e-01   9.569298e-03
  2.182826e+00    6.880488e-01   9.409614e-03
  2.185036e+00    6.973485e-01   9.473023e-03
  2.187247e+00    6.938230e-01   9.449004e-03
  2.189457e+00    6.984248e-01   9.479884e-03
  2.191667e+00    6.937425e-01   9.447875e-03
  2.193878e+00    6.863956e-01   9.397156e-03
  2.196088e+00    6.694136e-01   9.279494e-03
  2.198299e+00    6.750925e-01   9.317703e-03
  2.200509e+00    6.745887e-01   9.313159e-03
  2.202720e+00    6.914209e-01   9.427473e-03
  2.204930e+00    6.806281e-01   9.352376e-03
  2.207141e+00    6.904789e-01   9.418678e-03
  2.209351e+00    6.907775e-01   9.418823e-03
  2.211562e+00    6.844189e-01   9.373757e-03
  2.213772e+00    6.777891e-01   9.272707e-03
  2.215982e+00    6.808474e-01   9.249233e-03
  2.218193e+00    6.809833e-01   9.220430e-03
  2.220403e+00    6.825975e-01   9.206596e-03
  2.222614e+00    6.801245e-01   9.168868e-03
  2.224824e+00    6.760489e-01   9.121938e-03
  2.227035e+00    6.694672e-01   9.060029e-03
  2.229245e+00    6.626583e-01   8.996979e-03
  2.231456e+00    6.722166e-01   9.046008e-03
  2.233666e+00    6.535411e-01   8.904570e-03
  2.235877e+00    6.641836e-01   8.962564e-03
  2.238087e+00    6.708392e-01   8.993887e-03
  2.240298e+00    6.714925e-01   8.984469e-03
  2.242508e+00    6.616880e-01   8.903583e-03
  2.244718e+00    6.769863e-01   8.990032e-03
  2.246929e+00    6.736931e-01   8.953641e-03
  2.249139e+00    6.607134e-01   8.854678e-03
  2.251350e+00    6.478856e-01   8.756736e-03
  2.253560e+00    6.639906e-01   8.853358e-03
  2.255771e+00    6.658509e-01   8.854357e-03
  2.257981e+00    6.772228e-01   8.918345e-03
  2.260192e+00    6.745778e-01   8.889752e-03
  2.262402e+00    6.563195e-01   8.757820e-03
  2.264613e+00    6.524788e-01   8.721413e-03
  2.266823e+00    6.661989e-01   8.802196e-03
  2.269033e+00    6.710461e-01   8.823730e-03
  2.271244e+00    6.701798e-01   8.807582e-03
  2.273454e+00    6.719565e-01   8.808905e-03
  2.275665e+00    6.632751e-01   8.741515e-03
  2.277875e+00    6.610287e-01   8.716761e-03
  2.280086e+00    6.703608e-01   8.767955e-03
  2.282296e+00    6.713979e-01   8.765250e-03
  2.284507e+00    6.778053e-01   8.796691e-03
  2.286717e+00    6.620281e-01   8.684231e-03
  2.288928e+00    6.530491e-01   8.615283e-03
  2.291138e+00    6.600328e-01   8.651796e-03
  2.293348e+00    6.426772e-01   8.527824e-03
  2.295559e+00    6.701550e-01   8.698802e-03
  2.297769e+00    6.826826e-01   8.770298e-03
  2.299980e+00    6.839535e-01   8.768910e-03
  2.302190e+00    6.674384e-01   8.653176e-03
  2.304401e+00    6.554959e-01   8.566061e-03
  2.306611e+00    6.538833e-01   8.546301e-03
  2.308822e+00    6.482673e-01   8.501166e-03
  2.311032e+00    6.593421e-01   8.566950e-03
  2.313243e+00    6.607431e-01   8.569757e-03
  2.315453e+00    6.547434e-01   8.523142e-03
  2.317663e+00    6.514549e-01   8.492553e-03
  2.319874e+00    6.469302e-01   8.454286e-03
  2.322084e+00    6.384466e-01   8.389760e-03
  2.324295e+00    6.441292e-01   8.418782e-03
  2.326505e+00    6.464077e-01   8.424596e-03
  2.328716e+00    6.549762e-01   8.471626e-03
  2.330926e+00    6.410149e-01   8.372075e-03
  2.333137e+00    6.376246e-01   8.341556e-03
  2.335347e+00    6.462499e-01   8.388863e-03
  2.337558e+00    6.226736e-01   8.226346e-03
  2.339768e+00    6.154972e-01   8.170356e-03
  2.341979e+00    6.564126e-01   8.429075e-03
  2.344189e+00    6.295054e-01   8.246200e-03
  2.346399e+00    6.217294e-01   8.186679e-03
  2.348610e+00    6.339653e-01   8.258411e-03
  2.350820e+00    6.357326e-01   8.261724e-03
  2.353031e+00    6.530988e-01   8.365395e-03
  2.355241e+00    6.476882e-01   8.322539e-03
  2.357452e+00    6.498342e-01   8.327759e-03
  2.359662e+00    6.536171e-01   8.343617e-03
  2.361873e+00    6.473664e-01   8.295278e-03
  2.364083e+00    6.348021e-01   8.206370e-03
  2.366294e+00    6.119881e-01   8.049548e-03
  2.368504e+00    6.381146e-01   8.211401e-03
  2.370714e+00    6.332600e-01   8.172031e-03
  2.372925e+00    6.285515e-01   8.133502e-03
  2.375135e+00    6.308017e-01   8.139964e-03
  2.377346e+00    6.167079e-01   8.040610e-03
  2.379556e+00    6.292802e-01   8.114203e-03
  2.381767e+00    6.177522e-01   8.031714e-03
  2.383977e+00    6.258477e-01   8.076192e-03
  2.386188e+00    6.266676e-01   8.073520e-03
  2.388398e+00    6.153287e-01   7.992224e-03
  2.390609e+00    6.175345e-01   7.998786e-03
  2.392819e+00    6.293812e-01   8.067297e-03
  2.395029e+00    6.143688e-01   7.962863e-03
  2.397240e+00    6.272333e-01   8.037829e-03
  2.399450e+00    6.243523e-01   8.011485e-03
  2.401661e+00    6.135308e-01   7.934075e-03
  2.403871e+00    6.055106e-01   7.874307e-03
  2.406082e+00    6.146827e-01   7.926255e-03
  2.408292e+00    6.234855e-01   7.974936e-03
  2.410503e+00    6.092241e-01   7.875714e-03
  2.412713e+00    6.050570e-01   7.840942e-03
  2.414924e+00    5.985766e-01   7.791402e-03
  2.417134e+00    6.087937e-01   7.849946e-03
  2.419344e+00    6.142875e-01   7.877818e-03
  2.421555e+00    6.060376e-01   7.817206e-03
  2.423765e+00    6.115612e-01   7.845272e-03
  2.425976e+00    6.168206e-01   7.871013e-03
  2.428186e+00    6.166319e-01   7.862500e-03
  2.430397e+00    6.090527e-01   7.806471e-03
  2.432607e+00    6.055569e-01   7.776687e-03
  2.434818e+00    6.021816e-01   7.747414e-03
  2.437028e+00    5.994388e-01   7.722562e-03
  2.439239e+00    5.876132e-01   7.638395e-03
  2.441449e+00    5.907498e-01   7.651565e-03
  2.443659e+00    5.716767e-01   7.519803e-03
  2.445870e+00    5.815295e-01   7.596483e-03
  2.448080e+00    5.750408e-01   7.588565e-03
  2.450291e+00    5.731477e-01   7.592603e-03
  2.452501e+00    5.670999e-01   7.563512e-03
  2.454712e+00    5.614225e-01   7.533896e-03
  2.456922e+00    5.549049e-01   7.496571e-03
  2.459133e+00    5.627449e-01   7.554745e-03
  2.461343e+00    5.660207e-01   7.581045e-03
  2.463554e+00    5.641677e-01   7.572108e-03
  2.465764e+00    5.786014e-01   7.671532e-03
  2.467975e+00    5.605022e-01   7.552885e-03
  2.470185e+00    5.707504e-01   7.623887e-03
  2.472395e+00    5.911431e-01   7.760143e-03
  2.474606e+00    6.062342e-01   7.860229e-03
  2.476816e+00    5.852469e-01   7.723736e-03
  2.479027e+00    5.813100e-01   7.698576e-03
  2.481237e+00    5.538564e-01   7.514877e-03
  2.483448e+00    5.481497e-01   7.476349e-03
  2.485658e+00    5.536250e-01   7.513457e-03
  2.487869e+00    5.582119e-01   7.544548e-03
  2.490079e+00    5.581155e-01   7.543382e-03
  2.492290e+00    5.370093e-01   7.398951e-03
  2.494500e+00    5.373219e-01   7.400350e-03
  2.496710e+00    5.327215e-01   7.367919e-03
  2.498921e+00    5.361028e-01   7.390263e-03
  2.501131e+00    5.293034e-01   7.342309e-03
  2.503342e+00    5.371935e-01   7.395570e-03
  2.505552e+00    5.314451e-01   7.354760e-03
  2.507763e+00    5.140058e-01   7.231683e-03
  2.509973e+00    5.204799e-01   7.275689e-03
  2.512184e+00    5.270285e-01   7.319713e-03
  2.514394e+00    5.359227e-01   7.371785e-03
  2.516605e+00    5.277863e-01   7.268473e-03
  2.518815e+00    5.382944e-01   7.311843e-03
  2.521025e+00    5.276077e-01   7.217875e-03
  2.523236e+00    5.451717e-01   7.318723e-03
  2.525446e+00    5.329827e-01   7.220733e-03
  2.527657e+00    5.397373e-01   7.251535e-03
  2.529867e+00    5.399609e-01   7.238658e-03
  2.532078e+00    5.358973e-01   7.196185e-03
  2.534288e+00    5.381855e-01   7.197459e-03
  2.536499e+00    5.272860e-01   7.112241e-03
  2.538709e+00    5.421965e-01   7.200905e-03
  2.540920e+00    5.377035e-01   7.160248e-03
  2.543130e+00    5.291835e-01   7.092861e-03
  2.545340e+00    5.250409e-01   7.054983e-03
  2.547551e+00    5.312778e-01   7.086712e-03
  2.549761e+00    5.453684e-01   7.170306e-03
  2.551972e+00    5.309581e-01   7.065506e-03
  2.554182e+00    5.439803e-01   7.142233e-03
  2.556393e+00    5.593329e-01   7.232915e-03
  2.558603e+00    5.483078e-01   7.151958e-03
  2.560814e+00    5.356462e-01   7.060075e-03
  2.563024e+00    5.214610e-01   6.957359e-03
  2.565235e+00    5.243161e-01   6.966808e-03
  2.567445e+00    5.229286e-01   6.948016e-03
  2.569656e+00    5.356222e-01   7.021905e-03
  2.571866e+00    5.317900e-01   6.987286e-03
  2.574076e+00    5.187285e-01   6.891642e-03
  2.576287e+00    5.324852e-01   6.973966e-03
  2.578497e+00    5.357028e-01   6.987019e-03
  2.580708e+00    5.328116e-01   6.959932e-03
  2.582918e+00    5.090000e-01   6.794908e-03
  2.585129e+00    5.192066e-01   6.854901e-03
  2.587339e+00    5.181558e-01   6.840246e-03
  2.589550e+00    5.217503e-01   6.856336e-03
  2.591760e+00    5.134394e-01   6.793755e-03
  2.593971e+00    5.081946e-01   6.751454e-03
  2.596181e+00    5.152601e-01   6.791980e-03
  2.598391e+00    5.089274e-01   6.744958e-03
  2.600602e+00    5.030544e-01   6.700029e-03
  2.602812e+00    5.150861e-01   6.772102e-03
  2.605023e+00    5.059681e-01   6.704757e-03
  2.607233e+00    5.050194e-01   6.691340e-03
  2.609444e+00    4.986777e-01   6.642037e-03
  2.611654e+00    5.063439e-01   6.685564e-03
  2.613865e+00    5.117747e-01   6.714255e-03
  2.616075e+00    5.121899e-01   6.709795e-03
  2.618286e+00    5.182750e-01   6.742448e-03
  2.620496e+00    5.110160e-01   6.688346e-03
  2.622706e+00    5.041503e-01   6.637511e-03
  2.624917e+00    5.027319e-01   6.622325e-03
  2.627127e+00    5.082842e-01   6.653040e-03
  2.629338e+00    5.115753e-01   6.668516e-03
  2.631548e+00    5.015600e-01   6.596762e-03
  2.633759e+00    4.992802e-01   6.574617e-03
  2.635969e+00    5.257030e-01   6.739500e-03
  2.638180e+00    5.064567e-01   6.607988e-03
  2.640390e+00    4.996668e-01   6.556922e-03
  2.642601e+00    5.170476e-01   6.663216e-03
  2.644811e+00    5.030068e-01   6.565050e-03
  2.647021e+00    4.925698e-01   6.490051e-03
  2.649232e+00    4.916220e-01   6.477142e-03
  2.651442e+00    5.026764e-01   6.543025e-03
  2.653653e+00    4.934370e-01   6.475883e-03
  2.655863e+00    4.942764e-01   6.474698e-03
  2.658074e+00    5.076341e-01   6.554952e-03
  2.660284e+00    5.018374e-01   6.511030e-03
  2.662495e+00    4.951606e-01   6.460842e-03
  2.664705e+00    4.928616e-01   6.439264e-03
  2.666916e+00    5.048648e-01   6.510698e-03
  2.669126e+00    5.016793e-01   6.483624e-03
  2.671337e+00    5.095911e-01   6.527880e-03
  2.673547e+00    4.999828e-01   6.459645e-03
  2.675757e+00    4.976103e-01   6.437819e-03
  2.677968e+00    5.087495e-01   6.502860e-03
  2.680178e+00    4.974834e-01   6.424039e-03
  2.682389e+00    5.064502e-01   6.475176e-03
  2.684599e+00    5.078037e-01   6.477571e-03
  2.686810e+00    4.874746e-01   6.339999e-03
  2.689020e+00    4.976555e-01   6.399523e-03
  2.691231e+00    4.942874e-01   6.371535e-03
  2.693441e+00    4.900058e-01   6.337729e-03
  2.695652e+00    4.878435e-01   6.317238e-03
  2.697862e+00    4.895825e-01   6.322138e-03
  2.700072e+00    5.032058e-01   6.403327e-03
  2.702283e+00    4.910540e-01   6.319331e-03
  2.704493e+00    4.947002e-01   6.336404e-03
  2.706704e+00    4.834088e-01   6.257317e-03
  2.708914e+00    4.834517e-01   6.251651e-03
  2.711125e+00    4.796960e-01   6.221123e-03
  2.713335e+00    4.865005e-01   6.259009e-03
  2.715546e+00    4.871310e-01   6.256589e-03
  2.717756e+00    4.946589e-01   6.298826e-03
  2.719967e+00    4.801698e-01   6.199719e-03
  2.722177e+00    4.941122e-01   6.282886e-03
  2.724387e+00    4.946074e-01   6.279895e-03
  2.726598e+00    4.908963e-01   6.250178e-03
  2.728808e+00    4.898711e-01   6.237489e-03
  2.731019e+00    4.921457e-01   6.245763e-03
  2.733229e+00    4.973856e-01   6.273055e-03
  2.735440e+00    4.896313e-01   6.217663e-03
  2.737650e+00    4.883862e-01   6.203698e-03
  2.739861e+00    4.816351e-01   6.154610e-03
  2.742071e+00    5.009944e-01   6.271217e-03
  2.744282e+00    5.186971e-01   6.374614e-03
  2.746492e+00    4.856428e-01   6.162093e-03
  2.748702e+00    4.788460e-01   6.112928e-03
  2.750913e+00    4.832381e-01   6.135092e-03
  2.753123e+00    4.843415e-01   6.135965e-03
  2.755334e+00    4.872804e-01   6.148435e-03
  2.757544e+00    4.749176e-01   6.064241e-03
  2.759755e+00    4.803922e-01   6.093194e-03
  2.761965e+00    4.904326e-01   6.150492e-03
  2.764176e+00    4.912757e-01   6.149733e-03
  2.766386e+00    4.843373e-01   6.100336e-03
  2.768597e+00    4.834719e-01   6.088991e-03
  2.770807e+00    4.801984e-01   6.062459e-03
  2.773017e+00    4.764375e-01   6.032721e-03
  2.775228e+00    4.820659e-01   6.062443e-03
  2.777438e+00    4.701158e-01   5.981089e-03
  2.779649e+00    4.676687e-01   5.959651e-03
  2.781859e+00    4.748015e-01   5.999184e-03
  2.784070e+00    4.814206e-01   6.034981e-03
  2.786280e+00    4.762755e-01   5.996874e-03
  2.788491e+00    4.715663e-01   5.961350e-03
  2.790701e+00    4.876870e-01   6.056679e-03
  2.792912e+00    4.800398e-01   6.003025e-03
  2.795122e+00    4.791973e-01   5.992006e-03
  2.797333e+00    4.733792e-01   5.949964e-03
  2.799543e+00    4.759257e-01   5.960074e-03
  2.801753e+00    4.816975e-01   5.990227e-03
  2.803964e+00    4.673602e-01   5.894782e-03
  2.806174e+00    4.806242e-01   5.971665e-03
  2.808385e+00    4.707141e-01   5.903020e-03
  2.810595e+00    4.696955e-01   5.889779e-03
  2.812806e+00    4.892713e-01   6.004562e-03
  2.815016e+00    4.755417e-01   5.914977e-03
  2.817227e+00    4.663909e-01   5.883486e-03
  2.819437e+00    4.900413e-01   6.042096e-03
  2.821648e+00    4.765089e-01   5.960383e-03
  2.823858e+00    4.801169e-01   5.988286e-03
  2.826068e+00    4.805258e-01   5.995844e-03
  2.828279e+00    4.794340e-01   5.993106e-03
  2.830489e+00    4.777062e-01   5.985656e-03
  2.832700e+00    4.669543e-01   5.920457e-03
  2.834910e+00    4.706072e-01   5.945611e-03
  2.837121e+00    4.728555e-01   5.961543e-03
  2.839331e+00    4.705545e-01   5.948217e-03
  2.841542e+00    4.705451e-01   5.949197e-03
  2.843752e+00    4.751004e-01   5.978693e-03
  2.845963e+00    4.784684e-01   6.000264e-03
  2.848173e+00    4.752520e-01   5.980141e-03
  2.850383e+00    4.721477e-01   5.960878e-03
  2.852594e+00    4.778177e-01   5.996470e-03
  2.854804e+00    4.790257e-01   6.003552e-03
  2.857015e+00    4.645721e-01   5.911857e-03
  2.859225e+00    4.639519e-01   5.907650e-03
  2.861436e+00    4.704165e-01   5.948002e-03
  2.863646e+00    4.653610e-01   5.915996e-03
  2.865857e+00    4.824411e-01   6.023946e-03
  2.868067e+00    4.655525e-01   5.917767e-03
  2.870278e+00    4.759910e-01   5.983403e-03
  2.872488e+00    4.683445e-01   5.933983e-03
  2.874698e+00    4.597122e-01   5.877998e-03
  2.876909e+00    4.626194e-01   5.895215e-03
  2.879119e+00    4.682584e-01   5.929415e-03
  2.881330e+00    4.696113e-01   5.936492e-03
  2.883540e+00    4.666811e-01   5.916548e-03
  2.885751e+00    4.764110e-01   5.976237e-03
  2.887961e+00    4.658602e-01   5.907800e-03
  2.890172e+00    4.630538e-01   5.888368e-03
  2.892382e+00    4.589208e-01   5.860237e-03
  2.894593e+00    4.584672e-01   5.855523e-03
  2.896803e+00    4.536572e-01   5.822773e-03
  2.899014e+00    4.439490e-01   5.758234e-03
  2.901224e+00    4.674627e-01   5.906757e-03
  2.903434e+00    4.670891e-01   5.902445e-03
  2.905645e+00    4.639237e-01   5.880180e-03
  2.907855e+00    4.460707e-01   5.763848e-03
  2.910066e+00    4.611015e-01   5.858067e-03
  2.912276e+00    4.537497e-01   5.809085e-03
  2.914487e+00    4.559316e-01   5.820575e-03
  2.916697e+00    4.646986e-01   5.874027e-03
  2.918908e+00    4.542019e-01   5.805334e-03
  2.921118e+00    4.504944e-01   5.778897e-03
  2.923329e+00    4.642984e-01   5.864434e-03
  2.925539e+00    4.725679e-01   5.914123e-03
  2.927749e+00    4.621779e-01   5.846416e-03
  2.929960e+00    4.566686e-01   5.808698e-03
  2.932170e+00    4.553195e-01   5.797778e-03
  2.934381e+00    4.487297e-01   5.753265e-03
  2.936591e+00    4.496222e-01   5.756409e-03
  2.938802e+00    4.595896e-01   5.817141e-03
  2.941012e+00    4.694762e-01   5.877018e-03
  2.943223e+00    4.650418e-01   5.846470e-03
  2.945433e+00    4.626248e-01   5.827498e-03
  2.947644e+00    4.607278e-01   5.811377e-03
  2.949854e+00    4.573835e-01   5.785963e-03
  2.952064e+00    4.595621e-01   5.795490e-03
  2.954275e+00    4.587570e-01   5.785978e-03
  2.956485e+00    4.619457e-01   5.801830e-03
  2.958696e+00    4.558046e-01   5.758767e-03
  2.960906e+00    4.520527e-01   5.730843e-03
  2.963117e+00    4.602352e-01   5.777962e-03
  2.965327e+00    4.642889e-01   5.799409e-03
  2.967538e+00    4.612052e-01   5.777201e-03
  2.969748e+00    4.456298e-01   5.675991e-03
  2.971959e+00    4.659590e-01   5.800854e-03
  2.974169e+00    4.647515e-01   5.790730e-03
  2.976379e+00    4.521477e-01   5.708740e-03
  2.978590e+00    4.649621e-01   5.785908e-03
  2.980800e+00    4.693904e-01   5.810553e-03
  2.983011e+00    4.532405e-01   5.706926e-03
  2.985221e+00    4.378048e-01   5.605812e-03
  2.987432e+00    4.555323e-01   5.715041e-03
  2.989642e+00    4.651577e-01   5.772462e-03
  2.991853e+00    4.593328e-01   5.732920e-03
  2.994063e+00    4.460560e-01   5.646559e-03
  2.996274e+00    4.577387e-01   5.716821e-03
  2.998484e+00    4.632569e-01   5.748470e-03
  3.000694e+00    4.594769e-01   5.721490e-03
  3.002905e+00    4.583450e-01   5.711473e-03
  3.005115e+00    4.650492e-01   5.750075e-03
  3.007326e+00    4.730330e-01   5.796016e-03
  3.009536e+00    4.617176e-01   5.722977e-03
  3.011747e+00    4.674225e-01   5.755268e-03
  3.013957e+00    4.659612e-01   5.743043e-03
  3.016168e+00    4.579536e-01   5.690213e-03
  3.018378e+00    4.550641e-01   5.669171e-03
  3.020589e+00    4.622248e-01   5.710350e-03
  3.022799e+00    4.635917e-01   5.715596e-03
  3.025010e+00    4.579674e-01   5.677567e-03
  3.027220e+00    4.540690e-01   5.650215e-03
  3.029430e+00    4.654214e-01   5.717134e-03
  3.031641e+00    4.547998e-01   5.648375e-03
  3.033851e+00    4.532240e-01   5.635054e-03
  3.036062e+00    4.597715e-01   5.672798e-03
  3.038272e+00    4.571925e-01   5.653281e-03
  3.040483e+00    4.432375e-01   5.563132e-03
  3.042693e+00    4.574714e-01   5.648470e-03
  3.044904e+00    4.585929e-01   5.651333e-03
  3.047114e+00    4.588982e-01   5.648361e-03
  3.049325e+00    4.750371e-01   5.742310e-03
  3.051535e+00    4.583057e-01   5.635863e-03
  3.053745e+00    4.514821e-01   5.588993e-03
  3.055956e+00    4.550234e-01   5.606264e-03
  3.058166e+00    4.661000e-01   5.669755e-03
  3.060377e+00    4.527760e-01   5.583363e-03
  3.062587e+00    4.543766e-01   5.588555e-03
  3.064798e+00    4.629887e-01   5.636959e-03
  3.067008e+00    4.608532e-01   5.619148e-03
  3.069219e+00    4.703420e-01   5.672090e-03
  3.071429e+00    4.570571e-01   5.587890e-03
  3.073640e+00    4.525568e-01   5.556953e-03
  3.075850e+00    4.505179e-01   5.540826e-03
  3.078060e+00    4.617256e-01   5.606178e-03
  3.080271e+00    4.640760e-01   5.616901e-03
  3.082481e+00    4.606858e-01   5.592857e-03
  3.084692e+00    4.580117e-01   5.573185e-03
  3.086902e+00    4.547347e-01   5.549938e-03
  3.089113e+00    4.522753e-01   5.531346e-03
  3.091323e+00    4.471025e-01   5.496228e-03
  3.093534e+00    4.437896e-01   5.472475e-03
  3.095744e+00    4.552424e-01   5.539232e-03
  3.097955e+00    4.556411e-01   5.538077e-03
  3.100165e+00    4.496036e-01   5.497938e-03
  3.102375e+00    4.411760e-01   5.442750e-03
  3.104586e+00    4.520384e-01   5.505832e-03
  3.106796e+00    4.515117e-01   5.499096e-03
  3.109007e+00    4.564070e-01   5.525578e-03
  3.111217e+00    4.506270e-01   5.486750e-03
  3.113428e+00    4.544907e-01   5.506778e-03
  3.115638e+00    4.542897e-01   5.502301e-03
  3.117849e+00    4.508485e-01   5.477677e-03
  3.120059e+00    4.537680e-01   5.491878e-03
  3.122270e+00    4.345165e-01   5.370907e-03
  3.124480e+00    4.470096e-01   5.443859e-03
  3.126691e+00    4.643654e-01   5.544904e-03
  3.128901e+00    4.477542e-01   5.441704e-03
  3.131111e+00    4.398428e-01   5.389583e-03
  3.133322e+00    4.495864e-01   5.445494e-03
  3.135532e+00    4.380713e-01   5.371911e-03
  3.137743e+00    4.518220e-01   5.452071e-03
  3.139953e+00    4.371631e-01   5.359241e-03
  3.142164e+00    4.494327e-01   5.446023e-03
  3.144374e+00    4.405214e-01   5.420120e-03
  3.146585e+00    4.501812e-01   5.493890e-03
  3.148795e+00    4.646427e-01   5.592501e-03
  3.151006e+00    4.492396e-01   5.507643e-03
  3.153216e+00    4.448108e-01   5.487582e-03
  3.155426e+00    4.288956e-01   5.394752e-03
  3.157637e+00    4.322569e-01   5.421298e-03
  3.159847e+00    4.536428e-01   5.558731e-03
  3.162058e+00    4.455562e-01   5.513437e-03
  3.164268e+00    4.399479e-01   5.482695e-03
  3.166479e+00    4.473265e-01   5.532159e-03
  3.168689e+00    4.401257e-01   5.490812e-03
  3.170900e+00    4.510351e-01   5.561665e-03
  3.173110e+00    4.522230e-01   5.571906e-03
  3.175321e+00    4.438340e-01   5.522489e-03
  3.177531e+00    4.415082e-01   5.510746e-03
  3.179741e+00    4.451884e-01   5.535760e-03
  3.181952e+00    4.353442e-01   5.476324e-03
  3.184162e+00    4.355488e-01   5.479795e-03
  3.186373e+00    4.252202e-01   5.416012e-03
  3.188583e+00    4.252578e-01   5.417995e-03
  3.190794e+00    4.321077e-01   5.463210e-03
  3.193004e+00    4.370902e-01   5.495869e-03
  3.195215e+00    4.325604e-01   5.468804e-03
  3.197425e+00    4.361664e-01   5.492770e-03
  3.199636e+00    4.302299e-01   5.454498e-03
  3.201846e+00    4.396709e-01   5.513406e-03
  3.204056e+00    4.336609e-01   5.476490e-03
  3.206267e+00    4.381175e-01   5.505411e-03
  3.208477e+00    4.205393e-01   5.394743e-03
  3.210688e+00    4.324940e-01   5.471719e-03
  3.212898e+00    4.379320e-01   5.506595e-03
  3.215109e+00    4.286277e-01   5.448542e-03
  3.217319e+00    4.237311e-01   5.417952e-03
  3.219530e+00    4.371033e-01   5.503171e-03
  3.221740e+00    4.370644e-01   5.503510e-03
  3.223951e+00    4.234035e-01   5.417262e-03
  3.226161e+00    4.389911e-01   5.516285e-03
  3.228372e+00    4.349761e-01   5.491523e-03
  3.230582e+00    4.346108e-01   5.489373e-03
  3.232792e+00    4.284701e-01   5.450652e-03
  3.235003e+00    4.439487e-01   5.548490e-03
  3.237213e+00    4.517974e-01   5.597433e-03
  3.239424e+00    4.404531e-01   5.526739e-03
  3.241634e+00    4.129471e-01   5.351488e-03
  3.243845e+00    4.205766e-01   5.400758e-03
  3.246055e+00    4.224279e-01   5.412369e-03
  3.248266e+00    4.298756e-01   5.460050e-03
  3.250476e+00    4.310969e-01   5.467529e-03
  3.252687e+00    4.297853e-01   5.459110e-03
  3.254897e+00    4.261027e-01   5.435563e-03
  3.257107e+00    4.334915e-01   5.482162e-03
  3.259318e+00    4.366266e-01   5.501722e-03
  3.261528e+00    4.299203e-01   5.459152e-03
  3.263739e+00    4.412567e-01   5.530096e-03
  3.265949e+00    4.399314e-01   5.521679e-03
  3.268160e+00    4.333333e-01   5.479676e-03
  3.270370e+00    4.388308e-01   5.513817e-03
  3.272581e+00    4.293637e-01   5.453743e-03
  3.274791e+00    4.132800e-01   5.350090e-03
  3.277002e+00    4.277470e-01   5.442358e-03
  3.279212e+00    4.373716e-01   5.502866e-03
  3.281422e+00    4.432262e-01   5.538969e-03
  3.283633e+00    4.388696e-01   5.511018e-03
  3.285843e+00    4.331283e-01   5.474495e-03
  3.288054e+00    4.335592e-01   5.476273e-03
  3.290264e+00    4.301580e-01   5.454433e-03
  3.292475e+00    4.359145e-01   5.489956e-03
  3.294685e+00    4.466970e-01   5.556794e-03
  3.296896e+00    4.223425e-01   5.402449e-03
  3.299106e+00    4.190074e-01   5.380487e-03
  3.301317e+00    4.306510e-01   5.453718e-03
  3.303527e+00    4.299415e-01   5.448767e-03
  3.305737e+00    4.234270e-01   5.406260e-03
  3.307948e+00    4.273730e-01   5.430737e-03
  3.310158e+00    4.183882e-01   5.372498e-03
  3.312369e+00    4.222629e-01   5.396427e-03
  3.314579e+00    4.131715e-01   5.337123e-03
  3.316790e+00    4.354353e-01   5.478305e-03
  3.319000e+00    4.217635e-01   5.390466e-03
  3.321211e+00    4.204992e-01   5.381729e-03
  3.323421e+00    4.265088e-01   5.418868e-03
  3.325632e+00    4.155065e-01   5.347634e-03
  3.327842e+00    4.124956e-01   5.327308e-03
  3.330052e+00    4.281906e-01   5.426639e-03
  3.332263e+00    4.296826e-01   5.435061e-03
  3.334473e+00    4.238607e-01   5.397212e-03
  3.336684e+00    4.126817e-01   5.324297e-03
  3.338894e+00    4.244881e-01   5.399079e-03
  3.341105e+00    4.096860e-01   5.302930e-03
  3.343315e+00    4.234543e-01   5.390124e-03
  3.345526e+00    4.253396e-01   5.401240e-03
  3.347736e+00    4.105182e-01   5.304900e-03
  3.349947e+00    4.271350e-01   5.410224e-03
  3.352157e+00    4.294930e-01   5.423998e-03
  3.354368e+00    4.300465e-01   5.426158e-03
  3.356578e+00    4.338813e-01   5.449265e-03
  3.358788e+00    4.249785e-01   5.391732e-03
  3.360999e+00    4.134278e-01   5.316713e-03
  3.363209e+00    4.210414e-01   5.364432e-03
  3.365420e+00    4.097058e-01   5.290214e-03
  3.367630e+00    4.209624e-01   5.361385e-03
  3.369841e+00    4.131005e-01   5.309651e-03
  3.372051e+00    4.261329e-01   5.390757e-03
  3.374262e+00    4.243300e-01   5.376903e-03
  3.376472e+00    4.208880e-01   5.352580e-03
  3.378683e+00    4.082631e-01   5.269210e-03
  3.380893e+00    4.057144e-01   5.250442e-03
  3.383103e+00    4.057045e-01   5.247668e-03
  3.385314e+00    4.193011e-01   5.332669e-03
  3.387524e+00    4.132667e-01   5.291421e-03
  3.389735e+00    4.135891e-01   5.290853e-03
  3.391945e+00    3.939712e-01   5.160258e-03
  3.394156e+00    4.076265e-01   5.244732e-03
  3.396366e+00    4.144352e-01   5.284928e-03
  3.398577e+00    4.119951e-01   5.266327e-03
  3.400787e+00    3.934913e-01   5.158352e-03
  3.402998e+00    4.030975e-01   5.258663e-03
  3.405208e+00    3.985259e-01   5.249249e-03
  3.407418e+00    3.955442e-01   5.245249e-03
  3.409629e+00    3.902139e-01   5.223579e-03
  3.411839e+00    3.811185e-01   5.173814e-03
  3.414050e+00    3.954510e-01   5.281171e-03
  3.416260e+00    4.061787e-01   5.362146e-03
  3.418471e+00    3.887803e-01   5.255382e-03
  3.420681e+00    3.800661e-01   5.204516e-03
  3.422892e+00    3.933797e-01   5.302898e-03
  3.425102e+00    4.011089e-01   5.362686e-03
  3.427313e+00    3.953905e-01   5.331576e-03
  3.429523e+00    3.912941e-01   5.310977e-03
  3.431733e+00    3.776151e-01   5.223930e-03
  3.433944e+00    3.847185e-01   5.279305e-03
  3.436154e+00    3.751242e-01   5.219251e-03
  3.438365e+00    3.772304e-01   5.239761e-03
  3.440575e+00    3.823518e-01   5.281158e-03
  3.442786e+00    3.819317e-01   5.283894e-03
  3.444996e+00    3.741539e-01   5.235282e-03
  3.447207e+00    3.609209e-01   5.147081e-03
  3.449417e+00    3.640329e-01   5.209594e-03
  3.451628e+00    3.527438e-01   5.156996e-03
  3.453838e+00    3.630603e-01   5.252845e-03
  3.456049e+00    3.888531e-01   5.460886e-03
  3.458259e+00    3.646149e-01   5.309817e-03
  3.460469e+00    3.767205e-01   5.417310e-03
  3.462680e+00    3.582944e-01   5.302018e-03
  3.464890e+00    3.681173e-01   5.392032e-03
  3.467101e+00    3.724423e-01   5.441208e-03
  3.469311e+00    3.757273e-01   5.481800e-03
  3.471522e+00    4.037618e-01   5.699674e-03
  3.473732e+00    3.845690e-01   5.578631e-03
  3.475943e+00    4.100565e-01   5.776740e-03
  3.478153e+00    4.085581e-01   5.782061e-03
  3.480364e+00    4.171004e-01   5.857794e-03
  3.482574e+00    4.139253e-01   5.850990e-03
  3.484784e+00    4.280970e-01   5.965465e-03
  3.486995e+00    4.326782e-01   6.012726e-03
  3.489205e+00    4.337057e-01   6.034690e-03
  3.491416e+00    4.542944e-01   6.191664e-03
  3.493626e+00    4.501678e-01   6.178317e-03
  3.495837e+00    4.615497e-01   6.271044e-03
  3.498047e+00    4.630678e-01   6.296130e-03
  3.500258e+00    4.811148e-01   6.432701e-03
  3.502468e+00    4.817750e-01   6.451963e-03
  3.504679e+00    4.754999e-01   6.424526e-03
  3.506889e+00    4.720385e-01   6.415620e-03
  3.509099e+00    4.769408e-01   6.463305e-03
  3.511310e+00    4.953311e-01   6.601491e-03
  3.513520e+00    4.878110e-01   6.565691e-03
  3.515731e+00    4.929807e-01   6.614859e-03
  3.517941e+00    4.822632e-01   6.556829e-03
  3.520152e+00    4.971708e-01   6.671705e-03
  3.522362e+00    5.285618e-01   6.894015e-03
  3.524573e+00    5.196353e-01   6.850034e-03
  3.526783e+00    5.083802e-01   6.788774e-03
  3.528994e+00    5.067896e-01   6.790242e-03
  3.531204e+00    5.192900e-01   6.885914e-03
  3.533414e+00    5.343973e-01   6.997517e-03
  3.535625e+00    5.567164e-01   7.154881e-03
  3.537835e+00    5.355064e-01   7.029418e-03
  3.540046e+00    5.435613e-01   7.091057e-03
  3.542256e+00    5.462815e-01   7.116414e-03
  3.544467e+00    5.323431e-01   7.032617e-03
  3.546677e+00    5.472400e-01   7.138008e-03
  3.548888e+00    5.539459e-01   7.189207e-03
  3.551098e+00    5.370635e-01   7.086138e-03
  3.553309e+00    5.416912e-01   7.124779e-03
  3.555519e+00    5.508571e-01   7.196279e-03
  3.557729e+00    5.489492e-01   7.195655e-03
  3.559940e+00    5.476900e-01   7.199067e-03
  3.562150e+00    5.576552e-01   7.276227e-03
  3.564361e+00    5.424923e-01   7.189994e-03
  3.566571e+00    5.527777e-01   7.271916e-03
  3.568782e+00    5.539665e-01   7.294052e-03
  3.570992e+00    5.374246e-01   7.198136e-03
  3.573203e+00    5.392483e-01   7.224461e-03
  3.575413e+00    5.637982e-01   7.401268e-03
  3.577624e+00    5.505040e-01   7.327779e-03
  3.579834e+00    5.442201e-01   7.299842e-03
  3.582045e+00    5.548862e-01   7.385272e-03
  3.584255e+00    5.345089e-01   7.262466e-03
  3.586465e+00    5.477947e-01   7.366233e-03
  3.588676e+00    5.370963e-01   7.308189e-03
  3.590886e+00    5.303811e-01   7.275949e-03
  3.593097e+00    5.267614e-01   7.265504e-03
  3.595307e+00    5.204361e-01   7.235436e-03
  3.597518e+00    5.325040e-01   7.333026e-03
  3.599728e+00    5.449126e-01   7.432189e-03
  3.601939e+00    5.465332e-01   7.457459e-03
  3.604149e+00    5.549421e-01   7.529267e-03
  3.606360e+00    5.575824e-01   7.561577e-03
  3.608570e+00    5.477945e-01   7.509251e-03
  3.610780e+00    5.410960e-01   7.474356e-03
  3.612991e+00    5.381240e-01   7.463784e-03
  3.615201e+00    5.549627e-01   7.589662e-03
  3.617412e+00    5.506672e-01   7.567642e-03
  3.619622e+00    5.380730e-01   7.486539e-03
  3.621833e+00    5.524130e-01   7.592466e-03
  3.624043e+00    5.506194e-01   7.589815e-03
  3.626254e+00    5.471142e-01   7.575412e-03
  3.628464e+00    5.580673e-01   7.662068e-03
  3.630675e+00    5.691010e-01   7.752055e-03
  3.632885e+00    5.241061e-01   7.453604e-03
  3.635095e+00    5.507113e-01   7.655050e-03
  3.637306e+00    5.438297e-01   7.621581e-03
  3.639516e+00    5.438823e-01   7.636663e-03
  3.641727e+00    5.387810e-01   7.615355e-03
  3.643937e+00    5.358006e-01   7.608890e-03
  3.646148e+00    5.226861e-01   7.529644e-03
  3.648358e+00    5.355577e-01   7.636648e-03
  3.650569e+00    5.407613e-01   7.688546e-03
  3.652779e+00    5.327442e-01   7.646099e-03
  3.654990e+00    5.352654e-01   7.679113e-03
  3.657200e+00    5.301164e-01   7.656908e-03
  3.659410e+00    5.386334e-01   7.733263e-03
  3.661621e+00    5.364362e-01   7.732654e-03
  3.663831e+00    5.265332e-01   7.675963e-03
  3.666042e+00    5.449805e-01   7.824623e-03
  3.668252e+00    5.491205e-01   7.869802e-03
  3.670463e+00    5.389932e-01   7.812229e-03
  3.672673e+00    5.323393e-01   7.779321e-03
  3.674884e+00    5.344453e-01   7.810108e-03
  3.677094e+00    5.492855e-01   7.933603e-03
  3.679305e+00    5.421977e-01   7.897988e-03
  3.681515e+00    5.375664e-01   7.879905e-03
  3.683726e+00    5.482306e-01   7.973748e-03
  3.685936e+00    5.619318e-01   8.088956e-03
  3.688146e+00    5.295308e-01   7.868131e-03
  3.690357e+00    5.222492e-01   7.829688e-03
  3.692567e+00    5.365474e-01   7.952369e-03
  3.694778e+00    5.237307e-01   7.872882e-03
  3.696988e+00    5.467860e-01   8.060528e-03
  3.699199e+00    5.482187e-01   8.087715e-03
  3.701409e+00    5.333799e-01   7.994017e-03
  3.703620e+00    5.283607e-01   7.972667e-03
  3.705830e+00    5.173826e-01   7.905710e-03
  3.708041e+00    5.232145e-01   7.966711e-03
  3.710251e+00    5.392893e-01   8.105144e-03
  3.712461e+00    5.294607e-01   8.047733e-03
  3.714672e+00    5.421238e-01   8.160530e-03
  3.716882e+00    5.259290e-01   8.054486e-03
  3.719093e+00    5.391009e-01   8.172149e-03
  3.721303e+00    5.292897e-01   8.114572e-03
  3.723514e+00    5.332928e-01   8.162715e-03
  3.725724e+00    5.133383e-01   8.025625e-03
  3.727935e+00    5.042027e-01   7.971077e-03
  3.730145e+00    5.135834e-01   8.062191e-03
  3.732356e+00    5.147353e-01   8.088691e-03
  3.734566e+00    5.260544e-01   8.194887e-03
  3.736776e+00    5.380107e-01   8.305664e-03
  3.738987e+00    5.239097e-01   8.214004e-03
  3.741197e+00    5.127688e-01   8.144211e-03
  3.743408e+00    5.110590e-01   8.148595e-03
  3.745618e+00    5.197859e-01   8.236303e-03
  3.747829e+00    5.415179e-01   8.425335e-03
  3.750039e+00    5.391185e-01   8.425551e-03
  3.752250e+00    5.172976e-01   8.271854e-03
  3.754460e+00    5.125110e-01   8.252064e-03
  3.756671e+00    5.119973e-01   8.266789e-03
  3.758881e+00    5.104357e-01   8.272832e-03
  3.761091e+00    5.280619e-01   8.433967e-03
  3.763302e+00    5.060247e-01   8.275167e-03
  3.765512e+00    5.123418e-01   8.345943e-03
  3.767723e+00    5.373861e-01   8.567437e-03
  3.769933e+00    5.328396e-01   8.551005e-03
  3.772144e+00    4.979866e-01   8.286003e-03
  3.774354e+00    5.007166e-01   8.328419e-03
  3.776565e+00    5.131929e-01   8.451547e-03
  3.778775e+00    5.026901e-01   8.384557e-03
  3.780986e+00    5.111749e-01   8.475451e-03
  3.783196e+00    5.292147e-01   8.644469e-03
  3.785407e+00    5.091605e-01   8.499670e-03
  3.787617e+00    5.273460e-01   8.671301e-03
  3.789827e+00    5.236478e-01   8.661903e-03
  3.792038e+00    5.178126e-01   8.634625e-03
  3.794248e+00    5.186295e-01   8.662971e-03
  3.796459e+00    5.059355e-01   8.577749e-03
  3.798669e+00    5.224684e-01   8.738601e-03
  3.800880e+00    5.057680e-01   8.619368e-03
  3.803090e+00    5.181879e-01   8.746761e-03
  3.805301e+00    4.864045e-01   8.496113e-03
  3.807511e+00    5.059046e-01   8.686742e-03
  3.809722e+00    5.193350e-01   8.824086e-03
  3.811932e+00    4.903923e-01   8.596629e-03
  3.814142e+00    5.274231e-01   8.938805e-03
  3.816353e+00    5.352444e-01   9.028547e-03
  3.818563e+00    4.955379e-01   8.710230e-03
  3.820774e+00    5.198275e-01   8.944756e-03
  3.822984e+00    5.152232e-01   8.928883e-03
  3.825195e+00    5.018146e-01   8.835731e-03
  3.827405e+00    5.168660e-01   8.991591e-03
  3.829616e+00    5.019563e-01   8.885155e-03
  3.831826e+00    5.024731e-01   8.913999e-03
  3.834037e+00    4.976412e-01   8.895567e-03
  3.836247e+00    4.983172e-01   8.926339e-03
  3.838457e+00    4.885250e-01   8.862961e-03
  3.840668e+00    4.768156e-01   8.780886e-03
  3.842878e+00    4.954500e-01   8.976215e-03
  3.845089e+00    4.926808e-01   8.976675e-03
  3.847299e+00    4.948742e-01   9.022428e-03
  3.849510e+00    5.045977e-01   9.136602e-03
  3.851720e+00    5.208482e-01   9.304676e-03
  3.853931e+00    5.051780e-01   9.182765e-03
  3.856141e+00    4.754366e-01   8.927015e-03
  3.858352e+00    4.816998e-01   9.004653e-03
  3.860562e+00    4.792936e-01   9.001053e-03
  3.862772e+00    5.230164e-01   9.422841e-03
  3.864983e+00    4.986731e-01   9.220777e-03
  3.867193e+00    4.941010e-01   9.198137e-03
  3.869404e+00    4.970047e-01   9.245003e-03
  3.871614e+00    4.984280e-01   9.278331e-03
  3.873825e+00    5.002847e-01   9.316011e-03
  3.876035e+00    4.943397e-01   9.281173e-03
  3.878246e+00    5.034970e-01   9.392745e-03
  3.880456e+00    5.086786e-01   9.470454e-03
  3.882667e+00    4.719621e-01   9.151052e-03
  3.884877e+00    4.805819e-01   9.263482e-03
  3.887087e+00    4.943665e-01   9.425581e-03
  3.889298e+00    4.790105e-01   9.307903e-03
  3.891508e+00    4.965562e-01   9.507581e-03
  3.893719e+00    4.987514e-01   9.559831e-03
  3.895929e+00    5.010292e-01   9.613452e-03
  3.898140e+00    4.692003e-01   9.334030e-03
  3.900350e+00    4.902479e-01   9.573190e-03
  3.902561e+00    4.958909e-01   9.660704e-03
  3.904771e+00    4.941777e-01   9.676935e-03
  3.906982e+00    4.845238e-01   9.614975e-03
  3.909192e+00    4.861527e-01   9.664482e-03
  3.911403e+00    4.842209e-01   9.679131e-03
  3.913613e+00    4.867830e-01   9.738915e-03
  3.915823e+00    4.857655e-01   9.763367e-03
  3.918034e+00    4.858447e-01   9.799406e-03
  3.920244e+00    5.158994e-01   1.013461e-02
  3.922455e+00    5.197749e-01   1.020988e-02
  3.924665e+00    4.950248e-01   1.000055e-02
  3.926876e+00    4.868141e-01   9.954271e-03
  3.929086e+00    5.021799e-01   1.014816e-02
  3.931297e+00    4.779602e-01   9.934722e-03
  3.933507e+00    5.097517e-01   1.028953e-02
  3.935718e+00    5.029560e-01   1.024990e-02
  3.937928e+00    5.046725e-01   1.029732e-02
  3.940138e+00    5.241336e-01   1.052438e-02
  3.942349e+00    5.309829e-01   1.062413e-02
  3.944559e+00    5.021673e-01   1.036235e-02
  3.946770e+00    4.991422e-01   1.036159e-02
  3.948980e+00    4.862396e-01   1.025751e-02
  3.951191e+00    4.689566e-01   1.010387e-02
  3.953401e+00    4.838689e-01   1.029449e-02
  3.955612e+00    4.805340e-01   1.029042e-02
  3.957822e+00    4.786918e-01   1.030215e-02
  3.960033e+00    4.792503e-01   1.034052e-02
  3.962243e+00    4.907072e-01   1.049646e-02
  3.964453e+00    4.783294e-01   1.039600e-02
  3.966664e+00    4.972858e-01   1.063386e-02
  3.968874e+00    4.690846e-01   1.035583e-02
  3.971085e+00    4.766772e-01   1.046098e-02
  3.973295e+00    4.730501e-01   1.044240e-02
  3.975506e+00    4.612556e-01   1.033236e-02
  3.977716e+00    4.924387e-01   1.069809e-02
  3.979927e+00    4.654357e-01   1.042234e-02
  3.982137e+00    4.587669e-01   1.036906e-02
  3.984348e+00    4.727377e-01   1.054801e-02
  3.986558e+00    4.587887e-01   1.041298e-02
  3.988768e+00    4.773152e-01   1.064385e-02
  3.990979e+00    5.196710e-01   1.112965e-02
  3.993189e+00    4.880914e-01   1.080948e-02
  3.995400e+00    4.801215e-01   1.074409e-02
  3.997610e+00    5.061709e-01   1.106228e-02
  3.999821e+00    4.704955e-01   1.070229e-02
  4.002031e+00    4.733020e-01   1.077201e-02
  4.004242e+00    4.839170e-01   1.093070e-02
  4.006452e+00    4.670730e-01   1.077730e-02
  4.008663e+00    4.827384e-01   1.099649e-02
  4.010873e+00    5.084663e-01   1.132675e-02
  4.013084e+00    5.076255e-01   1.135923e-02
  4.015294e+00    4.926797e-01   1.123210e-02
  4.017504e+00    5.156353e-01   1.153398e-02
  4.019715e+00    4.793262e-01   1.116281e-02
  4.021925e+00    4.815349e-01   1.123130e-02
  4.024136e+00    4.931048e-01   1.140953e-02
  4.026346e+00    4.877676e-01   1.139191e-02
  4.028557e+00    4.963476e-01   1.153663e-02
  4.030767e+00    4.926030e-01   1.153904e-02
  4.032978e+00    4.568505e-01   1.115742e-02
  4.035188e+00    4.590294e-01   1.122897e-02
  4.037399e+00    4.786333e-01   1.151355e-02
  4.039609e+00    4.439876e-01   1.113488e-02
  4.041819e+00    4.527223e-01   1.129093e-02
  4.044030e+00    4.798174e-01   1.167367e-02
  4.046240e+00    4.406102e-01   1.123424e-02
  4.048451e+00    4.573063e-01   1.149452e-02
  4.050661e+00    4.733640e-01   1.174565e-02
  4.052872e+00    4.811363e-01   1.189434e-02
  4.055082e+00    4.629593e-01   1.171989e-02
  4.057293e+00    4.358369e-01   1.142246e-02
  4.059503e+00    4.829441e-01   1.207860e-02
  4.061714e+00    4.771711e-01   1.206235e-02
  4.063924e+00    4.343528e-01   1.156245e-02
  4.066134e+00    4.768582e-01   1.217183e-02
  4.068345e+00    4.644175e-01   1.207003e-02
  4.070555e+00    4.724164e-01   1.223220e-02
  4.072766e+00    4.776731e-01   1.236061e-02
  4.074976e+00    4.491984e-01   1.204635e-02
  4.077187e+00    5.083045e-01   1.287802e-02
  4.079397e+00    4.892591e-01   1.269914e-02
  4.081608e+00    4.823528e-01   1.267467e-02
  4.083818e+00    4.552201e-01   1.237706e-02
  4.086029e+00    4.703256e-01   1.264710e-02
  4.088239e+00    4.599553e-01   1.257426e-02
  4.090449e+00    4.766914e-01   1.287032e-02
  4.092660e+00    5.020730e-01   1.328128e-02
  4.094870e+00    4.738072e-01   1.297369e-02
  4.097081e+00    4.617226e-01   1.287740e-02
  4.099291e+00    5.095912e-01   1.358425e-02
  4.101502e+00    5.402151e-01   1.403886e-02
  4.103712e+00    4.859636e-01   1.336488e-02
  4.105923e+00    5.169562e-01   1.383784e-02
  4.108133e+00    4.901222e-01   1.352579e-02
  4.110344e+00    4.960085e-01   1.365886e-02
  4.112554e+00    5.017595e-01   1.379211e-02
  4.114764e+00    4.958156e-01   1.376511e-02
  4.116975e+00    4.908550e-01   1.375038e-02
  4.119185e+00    4.745115e-01   1.357419e-02
  4.121396e+00    4.904197e-01   1.385688e-02
  4.123606e+00    5.027907e-01   1.408818e-02
  4.125817e+00    4.388856e-01   1.321756e-02
  4.128027e+00    4.865415e-01   1.397526e-02
  4.130238e+00    4.739237e-01   1.385210e-02
  4.132448e+00    5.033280e-01   1.433717e-02
  4.134659e+00    4.764443e-01   1.400916e-02
  4.136869e+00    4.832124e-01   1.417116e-02
  4.139080e+00    5.035540e-01   1.453163e-02
  4.141290e+00    4.550225e-01   1.387485e-02
  4.143500e+00    4.791785e-01   1.430392e-02
  4.145711e+00    5.039179e-01   1.473713e-02
  4.147921e+00    5.104963e-01   1.490095e-02
  4.150132e+00    5.139010e-01   1.502207e-02
  4.152342e+00    4.993286e-01   1.487920e-02
  4.154553e+00    4.825456e-01   1.469662e-02
  4.156763e+00    4.820977e-01   1.476237e-02
  4.158974e+00    4.960676e-01   1.505007e-02
  4.161184e+00    4.934087e-01   1.508422e-02
  4.163395e+00    4.853649e-01   1.503694e-02
  4.165605e+00    4.817374e-01   1.505875e-02
  4.167815e+00    4.589664e-01   1.477515e-02
  4.170026e+00    4.987148e-01   1.548284e-02
  4.172236e+00    4.689303e-01   1.509461e-02
  4.174447e+00    4.461049e-01   1.480249e-02
  4.176657e+00    5.003455e-01   1.576240e-02
  4.178868e+00    5.026491e-01   1.588829e-02
  4.181078e+00    4.845660e-01   1.568763e-02
  4.183289e+00    4.793944e-01   1.569293e-02
  4.185499e+00    5.150090e-01   1.636142e-02
  4.187710e+00    5.037978e-01   1.627713e-02
  4.189920e+00    4.808604e-01   1.599825e-02
  4.192130e+00    4.785448e-01   1.605711e-02
  4.194341e+00    4.460356e-01   1.559693e-02
  4.196551e+00    5.006701e-01   1.662947e-02
  4.198762e+00    5.154744e-01   1.698052e-02
  4.200972e+00    5.343788e-01   1.740119e-02
  4.203183e+00    4.725519e-01   1.647127e-02
  4.205393e+00    5.104010e-01   1.723232e-02
  4.207604e+00    4.738375e-01   1.671678e-02
  4.209814e+00    4.676068e-01   1.672027e-02
  4.212025e+00    5.020244e-01   1.744778e-02
  4.214235e+00    5.074003e-01   1.766494e-02
  4.216445e+00    5.025381e-01   1.770741e-02
  4.218656e+00    4.506846e-01   1.689467e-02
  4.220866e+00    4.694722e-01   1.737101e-02
  4.223077e+00    4.837097e-01   1.776781e-02
  4.225287e+00    4.768137e-01   1.777968e-02
  4.227498e+00    5.029636e-01   1.840383e-02
  4.229708e+00    4.590968e-01   1.772582e-02
  4.231919e+00    5.043948e-01   1.873339e-02
  4.234129e+00    5.450603e-01   1.963744e-02
  4.236340e+00    4.301282e-01   1.759420e-02
  4.238550e+00    3.948809e-01   1.700645e-02
  4.240761e+00    4.824728e-01   1.896407e-02
  4.242971e+00    5.402926e-01   2.025221e-02
  4.245181e+00    4.734083e-01   1.913585e-02
  4.247392e+00    4.687008e-01   1.921776e-02
  4.249602e+00    5.001139e-01   2.004857e-02
  4.251813e+00    5.556726e-01   2.134176e-02
  4.254023e+00    4.337883e-01   1.904600e-02
  4.256234e+00    4.577372e-01   1.977369e-02
  4.258444e+00    5.061541e-01   2.101103e-02
  4.260655e+00    4.658592e-01   2.037882e-02
  4.262865e+00    5.279487e-01   2.194036e-02
  4.265076e+00    4.662351e-01   2.085267e-02
  4.267286e+00    4.630608e-01   2.102841e-02
  4.269496e+00    4.692138e-01   2.142554e-02
  4.271707e+00    5.185287e-01   2.280185e-02
  4.273917e+00    4.965164e-01   2.260096e-02
  4.276128e+00    4.358010e-01   2.145566e-02
  4.278338e+00    4.271038e-01   2.152334e-02
  4.280549e+00    4.793203e-01   2.312906e-02
  4.282759e+00    4.853473e-01   2.360778e-02
  4.284970e+00    4.510188e-01   2.309488e-02
  4.287180e+00    5.233169e-01   2.517474e-02
  4.289391e+00    4.956686e-01   2.468496e-02
  4.291601e+00    4.446671e-01   2.356765e-02
  4.293811e+00    3.995986e-01   2.251598e-02
  4.296022e+00    5.019044e-01   2.543586e-02
  4.298232e+00    5.222185e-01   2.616385e-02
  4.300443e+00    4.622788e-01   2.481980e-02
  4.302653e+00    4.006561e-01   2.330617e-02
  4.304864e+00    4.684282e-01   2.541860e-02
  4.307074e+00    4.566911e-01   2.532349e-02
  4.309285e+00    4.920786e-01   2.652513e-02
  4.311495e+00    4.572137e-01   2.580787e-02
  4.313706e+00    4.972250e-01   2.716530e-02
  4.315916e+00    5.203071e-01   2.806323e-02
  4.318126e+00    4.113747e-01   2.520015e-02
  4.320337e+00    4.462542e-01   2.651117e-02
  4.322547e+00    4.649587e-01   2.734910e-02
  4.324758e+00    4.321662e-01   2.664037e-02
  4.326968e+00    5.018705e-01   2.903218e-02
  4.329179e+00    5.251687e-01   3.002586e-02
  4.331389e+00    4.681807e-01   2.867656e-02
  4.333600e+00    4.835299e-01   2.949081e-02
  4.335810e+00    3.933315e-01   2.691518e-02
  4.338021e+00    4.397949e-01   2.882445e-02
  4.340231e+00    4.535672e-01   2.963975e-02
  4.342442e+00    4.046186e-01   2.837124e-02
  4.344652e+00    3.949396e-01   2.840832e-02
  4.346862e+00    4.936805e-01   3.220822e-02
  4.349073e+00    5.315874e-01   3.390757e-02
  4.351283e+00    3.708099e-01   2.874368e-02
  4.353494e+00    4.062745e-01   3.055006e-02
  4.355704e+00    4.861887e-01   3.395883e-02
  4.357915e+00    4.498661e-01   3.320881e-02
  4.360125e+00    5.244741e-01   3.646966e-02
  4.362336e+00    5.350747e-01   3.750648e-02
  4.364546e+00    4.710470e-01   3.583374e-02
  4.366757e+00    3.860575e-01   3.308430e-02
  4.368967e+00    4.487993e-01   3.638286e-02
  4.371177e+00    6.006202e-01   4.298435e-02
  4.373388e+00    7.723653e-01   4.983287e-02
  4.375598e+00    7.626202e-01   5.064951e-02
  4.377809e+00    5.806051e-01   4.531194e-02
  4.380019e+00    3.211363e-01   3.454700e-02
  4.382230e+00    3.779647e-01   3.852340e-02
  4.384440e+00    4.035219e-01   4.095162e-02
  4.386651e+00    5.178351e-01   4.781928e-02
  4.388861e+00    3.630336e-01   4.138430e-02
  4.391072e+00    6.402010e-01   5.688518e-02
  4.393282e+00    3.662238e-01   4.468891e-02
  4.395492e+00    3.149926e-01   4.317002e-02
  4.397703e+00    3.733712e-01   4.914521e-02
  4.399913e+00    5.067431e-01   6.014951e-02
  4.402124e+00    5.708378e-01   6.746459e-02
  4.404334e+00    2.888444e-01   5.101514e-02
  4.406545e+00    2.446738e-01   5.043687e-02
  4.408755e+00    4.730420e-01   7.606773e-02
  4.410966e+00    3.075482e-01   6.789036e-02
  4.413176e+00    2.524664e-01   6.961942e-02
  4.415387e+00   -3.630157e-01            nan
  4.417597e+00   -1.691827e+00            nan
  4.419807e+00    3.372853e-01   2.086502e-01
