# == pyFAI calibration ==
# Distance Sample to Detector: 0.216 m
# PONI: 1.166e-01, 1.308e-01 m
# Rotations: 0.000000 0.000000 0.000000 rad
# 
# == Fit2d calibration ==
# Distance Sample-beamCenter: 216.000 mm
# Center: x=1744.293, y=1555.000 pix
# Tilt: 0.000 deg  TiltPlanRot: 0.000 deg
# 
# Detector Eiger 9M	 PixelSize= 7.500e-05, 7.500e-05 m
#    Detector has a mask: True 
#    Detector has a dark current: False 
#    detector has a flat field: False 
# 
# Wavelength: 9.8e-11 m
# Mask applied: from detector
# Dark current applied: False
# Flat field applied: False
# Polarization factor: None
# Normalization factor: 1.0
# 
# Headers of the input frame:
# {
# "_array_data.header_convention": "SLS_1.0",
# "_array_data.header_contents": "# Detector: Dectris Eiger 9M, S/N E-18-0102\r\n# Pixel_size 75e-6 m x 75e-6 m\r\n# Silicon sensor, thickness 0.000450 m\r\n# Exposure_time 0.024997 s\r\n# Exposure_period 0.025000 s\r\n# Count_cutoff 62318 counts\r\n# Wavelength 0.980106 A\r\n# Detector_distance 0.215992 m\r\n# Beam_xy (1555, 1744) pixels\r\n# Start_angle 0.000000 deg.\r\n# Angle_increment 0.000000 deg.",
# "Content-Type": "application/octet-stream;",
# "conversions": "x-CBF_BYTE_OFFSET",
# "Content-Transfer-Encoding": "BINARY",
# "X-Binary-Size": "10166594",
# "X-Binary-ID": "1",
# "X-Binary-Element-Type": "signed 32-bit integer",
# "X-Binary-Element-Byte-Order": "LITTLE_ENDIAN",
# "Content-MD5": "RYGIKL+z9cCiTjq1lQ1lhA==",
# "X-Binary-Number-of-Elements": "10166590",
# "X-Binary-Size-Fastest-Dimension": "3110",
# "X-Binary-Size-Second-Dimension": "3269",
# "X-Binary-Size-Padding": "4095"
# }
# --> H:/Proxima2a_2019-04-05/RAW_DATA/C5_gel17_position5/C5_mesh_1_data.cbf/C5_mesh_1_data.cbf000068.dat
#        q_A^-1              I           sigma 
  1.105228e-03    7.207581e-01   4.593902e-01
  3.315685e-03    6.452242e-01   2.642413e-01
  5.526141e-03    1.159464e+00   2.739055e-01
  7.736597e-03    1.410986e+00   2.552593e-01
  9.947054e-03    1.151691e+00   2.033033e-01
  1.215751e-02    1.382642e+00   2.014297e-01
  1.436797e-02    1.460274e+00   1.904114e-01
  1.657842e-02    1.729358e+00   1.928799e-01
  1.878888e-02    1.391268e+00   1.625058e-01
  2.099934e-02    1.238937e+00   1.450864e-01
  2.320979e-02    1.306687e+00   1.417159e-01
  2.542025e-02    1.491244e+00   1.446718e-01
  2.763070e-02    1.563290e+00   1.420725e-01
  2.984116e-02    1.499956e+00   1.339108e-01
  3.205162e-02    1.413667e+00   1.254469e-01
  3.426207e-02    1.445327e+00   1.226755e-01
  3.647253e-02    1.465584e+00   1.197278e-01
  3.868299e-02    1.431525e+00   1.149066e-01
  4.089344e-02    1.572821e+00   1.171441e-01
  4.310390e-02    1.452477e+00   1.096424e-01
  4.531436e-02    1.408025e+00   1.052861e-01
  4.752481e-02    1.358548e+00   1.009849e-01
  4.973527e-02    1.398968e+00   1.001742e-01
  5.194572e-02    1.247413e+00   9.255674e-02
  5.415618e-02    1.369097e+00   9.496328e-02
  5.636664e-02    1.545356e+00   9.889615e-02
  5.857709e-02    1.431187e+00   9.336041e-02
  6.078755e-02    1.455975e+00   9.243454e-02
  6.299801e-02    1.467754e+00   9.116394e-02
  6.520846e-02    1.398004e+00   8.745104e-02
  6.741892e-02    1.549531e+00   9.054197e-02
  6.962938e-02    1.486923e+00   8.727919e-02
  7.183983e-02    1.566268e+00   8.818710e-02
  7.405029e-02    1.561824e+00   8.673559e-02
  7.626074e-02    1.472682e+00   8.299363e-02
  7.847120e-02    1.515489e+00   8.299472e-02
  8.068166e-02    1.447636e+00   7.999595e-02
  8.289211e-02    1.512883e+00   8.068065e-02
  8.510257e-02    1.405030e+00   7.673478e-02
  8.731303e-02    1.529948e+00   7.905019e-02
  8.952348e-02    1.460493e+00   7.627765e-02
  9.173394e-02    1.497987e+00   7.631113e-02
  9.394439e-02    1.518391e+00   7.591736e-02
  9.615485e-02    1.453524e+00   7.341771e-02
  9.836531e-02    1.471675e+00   7.303790e-02
  1.005758e-01    1.551916e+00   7.417430e-02
  1.027862e-01    1.532920e+00   7.292016e-02
  1.049967e-01    1.518716e+00   7.181221e-02
  1.072071e-01    1.570364e+00   7.226548e-02
  1.094176e-01    1.547555e+00   7.100932e-02
  1.116280e-01    1.541608e+00   7.016598e-02
  1.138385e-01    1.656671e+00   7.202635e-02
  1.160490e-01    1.668193e+00   7.158387e-02
  1.182594e-01    1.604926e+00   6.955253e-02
  1.204699e-01    1.567708e+00   6.810723e-02
  1.226803e-01    1.601660e+00   6.821495e-02
  1.248908e-01    1.505471e+00   6.554625e-02
  1.271012e-01    1.518693e+00   6.525715e-02
  1.293117e-01    1.587342e+00   6.614229e-02
  1.315222e-01    1.482497e+00   6.337967e-02
  1.337326e-01    1.571761e+00   6.471707e-02
  1.359431e-01    1.565433e+00   6.462447e-02
  1.381535e-01    1.563908e+00   6.546003e-02
  1.403640e-01    1.471028e+00   6.376057e-02
  1.425744e-01    1.543344e+00   6.541332e-02
  1.447849e-01    1.634244e+00   6.732762e-02
  1.469953e-01    1.611506e+00   6.681576e-02
  1.492058e-01    1.581610e+00   6.611613e-02
  1.514163e-01    1.618735e+00   6.677658e-02
  1.536267e-01    1.662864e+00   6.754848e-02
  1.558372e-01    1.598776e+00   6.608783e-02
  1.580476e-01    1.591458e+00   6.577637e-02
  1.602581e-01    1.588275e+00   6.554367e-02
  1.624685e-01    1.632867e+00   6.627545e-02
  1.646790e-01    1.707106e+00   6.757074e-02
  1.668895e-01    1.609857e+00   6.542838e-02
  1.690999e-01    1.648636e+00   6.601286e-02
  1.713104e-01    1.735615e+00   6.752165e-02
  1.735208e-01    1.771072e+00   6.799576e-02
  1.757313e-01    1.841871e+00   6.912419e-02
  1.779417e-01    1.929485e+00   7.051843e-02
  1.801522e-01    1.816553e+00   6.820568e-02
  1.823626e-01    1.878398e+00   6.912608e-02
  1.845731e-01    1.891755e+00   6.914674e-02
  1.867836e-01    1.986458e+00   7.061724e-02
  1.889940e-01    1.948565e+00   6.971193e-02
  1.912045e-01    1.877283e+00   6.819645e-02
  1.934149e-01    1.894926e+00   6.828684e-02
  1.956254e-01    1.930880e+00   6.870425e-02
  1.978358e-01    2.002138e+00   6.972080e-02
  2.000463e-01    1.993761e+00   6.934423e-02
  2.022568e-01    2.001898e+00   6.925751e-02
  2.044672e-01    1.954978e+00   6.820664e-02
  2.066777e-01    2.044188e+00   6.951397e-02
  2.088881e-01    2.030087e+00   6.904719e-02
  2.110986e-01    1.913586e+00   6.680680e-02
  2.133090e-01    1.899971e+00   6.635231e-02
  2.155195e-01    1.988535e+00   6.765597e-02
  2.177300e-01    1.978739e+00   6.695891e-02
  2.199404e-01    1.966417e+00   6.499127e-02
  2.221509e-01    1.976550e+00   6.408858e-02
  2.243613e-01    1.872420e+00   6.158678e-02
  2.265718e-01    1.921189e+00   6.169605e-02
  2.287822e-01    2.059180e+00   6.324110e-02
  2.309927e-01    2.112007e+00   6.346374e-02
  2.332031e-01    2.115781e+00   6.297676e-02
  2.354136e-01    2.120530e+00   6.253639e-02
  2.376241e-01    2.184111e+00   6.297438e-02
  2.398345e-01    2.235356e+00   6.323738e-02
  2.420450e-01    2.153300e+00   6.162230e-02
  2.442554e-01    2.032860e+00   5.946165e-02
  2.464659e-01    2.107677e+00   6.013947e-02
  2.486763e-01    2.119139e+00   5.990641e-02
  2.508868e-01    2.105881e+00   5.934198e-02
  2.530973e-01    2.136220e+00   5.939737e-02
  2.553077e-01    2.038853e+00   5.767598e-02
  2.575182e-01    2.016542e+00   5.702013e-02
  2.597286e-01    2.059838e+00   5.729403e-02
  2.619391e-01    2.020521e+00   5.641790e-02
  2.641495e-01    2.004146e+00   5.587782e-02
  2.663600e-01    2.079806e+00   5.660977e-02
  2.685704e-01    2.032752e+00   5.566238e-02
  2.707809e-01    1.975257e+00   5.457829e-02
  2.729914e-01    1.982975e+00   5.439982e-02
  2.752018e-01    2.002557e+00   5.438323e-02
  2.774123e-01    2.045894e+00   5.468774e-02
  2.796227e-01    2.011643e+00   5.395981e-02
  2.818332e-01    1.967212e+00   5.309437e-02
  2.840436e-01    2.055731e+00   5.401268e-02
  2.862541e-01    1.985990e+00   5.283340e-02
  2.884646e-01    1.977349e+00   5.246814e-02
  2.906750e-01    1.929610e+00   5.158515e-02
  2.928855e-01    1.906353e+00   5.103575e-02
  2.950959e-01    1.879742e+00   5.044548e-02
  2.973064e-01    1.911650e+00   5.064321e-02
  2.995168e-01    1.919623e+00   5.051886e-02
  3.017273e-01    1.960062e+00   5.082313e-02
  3.039377e-01    1.936257e+00   5.029240e-02
  3.061482e-01    1.894198e+00   4.952798e-02
  3.083587e-01    1.887681e+00   4.922871e-02
  3.105691e-01    1.903662e+00   4.922548e-02
  3.127796e-01    1.854936e+00   4.838713e-02
  3.149900e-01    1.871494e+00   4.840011e-02
  3.172005e-01    1.813354e+00   4.744758e-02
  3.194109e-01    1.787492e+00   4.691351e-02
  3.216214e-01    1.800333e+00   4.688963e-02
  3.238319e-01    1.840014e+00   4.721574e-02
  3.260423e-01    1.861869e+00   4.730613e-02
  3.282528e-01    1.910566e+00   4.773002e-02
  3.304632e-01    1.874290e+00   4.709158e-02
  3.326737e-01    1.896165e+00   4.718078e-02
  3.348841e-01    1.810896e+00   4.592895e-02
  3.370946e-01    1.808124e+00   4.572111e-02
  3.393050e-01    1.816835e+00   4.565748e-02
  3.415155e-01    1.761354e+00   4.478596e-02
  3.437260e-01    1.832630e+00   4.551379e-02
  3.459364e-01    1.831339e+00   4.532946e-02
  3.481469e-01    1.817709e+00   4.499562e-02
  3.503573e-01    1.857052e+00   4.531429e-02
  3.525678e-01    1.837470e+00   4.491410e-02
  3.547782e-01    1.846569e+00   4.486244e-02
  3.569887e-01    1.811720e+00   4.427965e-02
  3.591992e-01    1.801830e+00   4.400237e-02
  3.614096e-01    1.837788e+00   4.428519e-02
  3.636201e-01    1.806027e+00   4.374656e-02
  3.658305e-01    1.854387e+00   4.417719e-02
  3.680410e-01    1.817417e+00   4.358421e-02
  3.702514e-01    1.782490e+00   4.301819e-02
  3.724619e-01    1.777752e+00   4.281469e-02
  3.746724e-01    1.832046e+00   4.331857e-02
  3.768828e-01    1.744042e+00   4.212311e-02
  3.790933e-01    1.745812e+00   4.200715e-02
  3.813037e-01    1.786039e+00   4.234933e-02
  3.835142e-01    1.778924e+00   4.212611e-02
  3.857246e-01    1.783312e+00   4.204150e-02
  3.879351e-01    1.811146e+00   4.223121e-02
  3.901455e-01    1.865141e+00   4.271964e-02
  3.923560e-01    1.853740e+00   4.245353e-02
  3.945665e-01    1.826597e+00   4.200795e-02
  3.967769e-01    1.745298e+00   4.093384e-02
  3.989874e-01    1.750885e+00   4.087129e-02
  4.011978e-01    1.726740e+00   4.046369e-02
  4.034083e-01    1.751317e+00   4.062550e-02
  4.056187e-01    1.805541e+00   4.112258e-02
  4.078292e-01    1.800326e+00   4.093889e-02
  4.100397e-01    1.816455e+00   4.099629e-02
  4.122501e-01    1.800581e+00   4.069467e-02
  4.144606e-01    1.817925e+00   4.076892e-02
  4.166710e-01    1.839218e+00   4.088507e-02
  4.188815e-01    1.775293e+00   4.004961e-02
  4.210919e-01    1.813164e+00   4.035591e-02
  4.233024e-01    1.807987e+00   4.017974e-02
  4.255128e-01    1.812393e+00   4.011237e-02
  4.277233e-01    1.792006e+00   3.977154e-02
  4.299338e-01    1.759981e+00   3.930114e-02
  4.321442e-01    1.785917e+00   3.947636e-02
  4.343547e-01    1.761795e+00   3.909801e-02
  4.365651e-01    1.777981e+00   3.916558e-02
  4.387756e-01    1.797763e+00   3.927260e-02
  4.409860e-01    1.794322e+00   3.912631e-02
  4.431965e-01    1.735707e+00   3.837552e-02
  4.454070e-01    1.817455e+00   3.915956e-02
  4.476174e-01    1.756654e+00   3.839329e-02
  4.498279e-01    1.712755e+00   3.780736e-02
  4.520383e-01    1.744323e+00   3.804948e-02
  4.542488e-01    1.730202e+00   3.779298e-02
  4.564592e-01    1.726830e+00   3.765483e-02
  4.586697e-01    1.733842e+00   3.763106e-02
  4.608801e-01    1.684219e+00   3.698932e-02
  4.630906e-01    1.672052e+00   3.675786e-02
  4.653011e-01    1.716380e+00   3.714397e-02
  4.675115e-01    1.751972e+00   3.742830e-02
  4.697220e-01    1.699299e+00   3.676486e-02
  4.719324e-01    1.690073e+00   3.657007e-02
  4.741429e-01    1.722617e+00   3.682536e-02
  4.763533e-01    1.713505e+00   3.663368e-02
  4.785638e-01    1.693795e+00   3.632829e-02
  4.807743e-01    1.742672e+00   3.675499e-02
  4.829847e-01    1.759216e+00   3.683577e-02
  4.851952e-01    1.736922e+00   3.650901e-02
  4.874056e-01    1.697462e+00   3.600091e-02
  4.896161e-01    1.681108e+00   3.573820e-02
  4.918265e-01    1.679830e+00   3.563591e-02
  4.940370e-01    1.689043e+00   3.564527e-02
  4.962475e-01    1.674284e+00   3.540158e-02
  4.984579e-01    1.662213e+00   3.518676e-02
  5.006684e-01    1.688427e+00   3.537668e-02
  5.028788e-01    1.675666e+00   3.515736e-02
  5.050893e-01    1.644794e+00   3.474725e-02
  5.072997e-01    1.717848e+00   3.542476e-02
  5.095102e-01    1.654220e+00   3.467929e-02
  5.117206e-01    1.656754e+00   3.462327e-02
  5.139311e-01    1.692223e+00   3.490913e-02
  5.161416e-01    1.708190e+00   3.499056e-02
  5.183520e-01    1.680312e+00   3.462139e-02
  5.205625e-01    1.651395e+00   3.424179e-02
  5.227729e-01    1.658336e+00   3.423363e-02
  5.249834e-01    1.668318e+00   3.425680e-02
  5.271938e-01    1.694762e+00   3.444666e-02
  5.294043e-01    1.725692e+00   3.467936e-02
  5.316148e-01    1.733768e+00   3.468080e-02
  5.338252e-01    1.774020e+00   3.500089e-02
  5.360357e-01    1.772710e+00   3.490834e-02
  5.382461e-01    1.743174e+00   3.453804e-02
  5.404566e-01    1.754486e+00   3.457107e-02
  5.426670e-01    1.735131e+00   3.430239e-02
  5.448775e-01    1.730102e+00   3.417611e-02
  5.470879e-01    1.747635e+00   3.427226e-02
  5.492984e-01    1.754615e+00   3.426426e-02
  5.515089e-01    1.768830e+00   3.432648e-02
  5.537193e-01    1.728442e+00   3.385756e-02
  5.559298e-01    1.775955e+00   3.424449e-02
  5.581402e-01    1.736421e+00   3.378719e-02
  5.603507e-01    1.762586e+00   3.396672e-02
  5.625611e-01    1.729482e+00   3.357323e-02
  5.647716e-01    1.776456e+00   3.395221e-02
  5.669821e-01    1.787298e+00   3.398226e-02
  5.691925e-01    1.763567e+00   3.368345e-02
  5.714030e-01    1.720896e+00   3.320252e-02
  5.736134e-01    1.671672e+00   3.265461e-02
  5.758239e-01    1.732548e+00   3.317290e-02
  5.780343e-01    1.673180e+00   3.253065e-02
  5.802448e-01    1.656548e+00   3.230079e-02
  5.824552e-01    1.670608e+00   3.236953e-02
  5.846657e-01    1.631383e+00   3.192059e-02
  5.868762e-01    1.587663e+00   3.142439e-02
  5.890866e-01    1.590476e+00   3.138695e-02
  5.912971e-01    1.603227e+00   3.144728e-02
  5.935075e-01    1.649694e+00   3.183381e-02
  5.957180e-01    1.673116e+00   3.199324e-02
  5.979284e-01    1.664461e+00   3.184524e-02
  6.001389e-01    1.646677e+00   3.161015e-02
  6.023494e-01    1.629160e+00   3.137774e-02
  6.045598e-01    1.656479e+00   3.157529e-02
  6.067703e-01    1.631445e+00   3.127279e-02
  6.089807e-01    1.642672e+00   3.131712e-02
  6.111912e-01    1.678722e+00   3.159566e-02
  6.134016e-01    1.708915e+00   3.181498e-02
  6.156121e-01    1.667719e+00   3.136667e-02
  6.178226e-01    1.661044e+00   3.124187e-02
  6.200330e-01    1.687406e+00   3.142668e-02
  6.222435e-01    1.678764e+00   3.128402e-02
  6.244539e-01    1.704632e+00   3.146240e-02
  6.266644e-01    1.702989e+00   3.138589e-02
  6.288748e-01    1.675018e+00   3.106649e-02
  6.310853e-01    1.687161e+00   3.111836e-02
  6.332957e-01    1.728944e+00   3.144049e-02
  6.355062e-01    1.729268e+00   3.138239e-02
  6.377167e-01    1.692994e+00   3.099189e-02
  6.399271e-01    1.709640e+00   3.108422e-02
  6.421376e-01    1.708563e+00   3.101510e-02
  6.443480e-01    1.733558e+00   3.118172e-02
  6.465585e-01    1.700812e+00   3.082730e-02
  6.487689e-01    1.698488e+00   3.074806e-02
  6.509794e-01    1.700985e+00   3.071261e-02
  6.531899e-01    1.637220e+00   3.007481e-02
  6.554003e-01    1.626092e+00   2.991606e-02
  6.576108e-01    1.587799e+00   2.950668e-02
  6.598212e-01    1.583439e+00   2.941138e-02
  6.620317e-01    1.580825e+00   2.933263e-02
  6.642421e-01    1.563377e+00   2.911632e-02
  6.664526e-01    1.549693e+00   2.893522e-02
  6.686630e-01    1.601040e+00   2.935628e-02
  6.708735e-01    1.600569e+00   2.929816e-02
  6.730840e-01    1.557700e+00   2.885042e-02
  6.752944e-01    1.600924e+00   2.919477e-02
  6.775049e-01    1.602975e+00   2.916044e-02
  6.797153e-01    1.585580e+00   2.894926e-02
  6.819258e-01    1.572399e+00   2.877670e-02
  6.841362e-01    1.548834e+00   2.850888e-02
  6.863467e-01    1.580843e+00   2.875037e-02
  6.885572e-01    1.578784e+00   2.868016e-02
  6.907676e-01    1.625437e+00   2.904868e-02
  6.929781e-01    1.587031e+00   2.865243e-02
  6.951885e-01    1.577780e+00   2.851820e-02
  6.973990e-01    1.605636e+00   2.871798e-02
  6.996094e-01    1.581753e+00   2.845345e-02
  7.018199e-01    1.609945e+00   2.865551e-02
  7.040303e-01    1.592836e+00   2.845280e-02
  7.062408e-01    1.596131e+00   2.843229e-02
  7.084513e-01    1.591474e+00   2.834141e-02
  7.106617e-01    1.608047e+00   2.843909e-02
  7.128722e-01    1.631697e+00   2.859791e-02
  7.150826e-01    1.599241e+00   2.826327e-02
  7.172931e-01    1.567078e+00   2.792937e-02
  7.195035e-01    1.574186e+00   2.794453e-02
  7.217140e-01    1.538229e+00   2.767241e-02
  7.239245e-01    1.565460e+00   2.814231e-02
  7.261349e-01    1.592560e+00   2.849412e-02
  7.283454e-01    1.581730e+00   2.846962e-02
  7.305558e-01    1.594837e+00   2.864167e-02
  7.327663e-01    1.591975e+00   2.865871e-02
  7.349767e-01    1.584795e+00   2.861042e-02
  7.371872e-01    1.575920e+00   2.851901e-02
  7.393976e-01    1.581245e+00   2.855287e-02
  7.416081e-01    1.576212e+00   2.849121e-02
  7.438186e-01    1.572237e+00   2.831106e-02
  7.460290e-01    1.548956e+00   2.780884e-02
  7.482395e-01    1.514712e+00   2.733184e-02
  7.504499e-01    1.532425e+00   2.735674e-02
  7.526604e-01    1.556284e+00   2.745301e-02
  7.548708e-01    1.545170e+00   2.726625e-02
  7.570813e-01    1.560526e+00   2.735064e-02
  7.592918e-01    1.579698e+00   2.748292e-02
  7.615022e-01    1.576769e+00   2.742360e-02
  7.637127e-01    1.556579e+00   2.721488e-02
  7.659231e-01    1.535879e+00   2.700171e-02
  7.681336e-01    1.516433e+00   2.679921e-02
  7.703440e-01    1.541610e+00   2.698987e-02
  7.725545e-01    1.586310e+00   2.734734e-02
  7.747650e-01    1.624101e+00   2.763243e-02
  7.769754e-01    1.592620e+00   2.731030e-02
  7.791859e-01    1.598857e+00   2.730984e-02
  7.813963e-01    1.619999e+00   2.743654e-02
  7.836068e-01    1.597750e+00   2.719528e-02
  7.858172e-01    1.632343e+00   2.743670e-02
  7.880277e-01    1.645983e+00   2.749869e-02
  7.902381e-01    1.639930e+00   2.739821e-02
  7.924486e-01    1.662930e+00   2.753856e-02
  7.946591e-01    1.671572e+00   2.756068e-02
  7.968695e-01    1.622844e+00   2.710741e-02
  7.990800e-01    1.630465e+00   2.712242e-02
  8.012904e-01    1.596859e+00   2.679503e-02
  8.035009e-01    1.608048e+00   2.684087e-02
  8.057113e-01    1.628358e+00   2.696315e-02
  8.079218e-01    1.647385e+00   2.707342e-02
  8.101323e-01    1.649512e+00   2.704490e-02
  8.123427e-01    1.659020e+00   2.707649e-02
  8.145532e-01    1.627167e+00   2.676943e-02
  8.167636e-01    1.613393e+00   2.661104e-02
  8.189741e-01    1.622492e+00   2.664149e-02
  8.211845e-01    1.646456e+00   2.679253e-02
  8.233950e-01    1.641319e+00   2.670722e-02
  8.256054e-01    1.606367e+00   2.637752e-02
  8.278159e-01    1.634901e+00   2.656684e-02
  8.300264e-01    1.634968e+00   2.652433e-02
  8.322368e-01    1.658685e+00   2.667264e-02
  8.344473e-01    1.679703e+00   2.679720e-02
  8.366577e-01    1.662873e+00   2.661971e-02
  8.388682e-01    1.647436e+00   2.645352e-02
  8.410786e-01    1.624455e+00   2.622649e-02
  8.432891e-01    1.631900e+00   2.624477e-02
  8.454996e-01    1.624540e+00   2.614406e-02
  8.477100e-01    1.594191e+00   2.585762e-02
  8.499205e-01    1.629697e+00   2.610290e-02
  8.521309e-01    1.632293e+00   2.608299e-02
  8.543414e-01    1.587755e+00   2.568451e-02
  8.565518e-01    1.626391e+00   2.595468e-02
  8.587623e-01    1.617814e+00   2.584585e-02
  8.609727e-01    1.606801e+00   2.571779e-02
  8.631832e-01    1.602940e+00   2.564727e-02
  8.653937e-01    1.596590e+00   2.555708e-02
  8.676041e-01    1.586495e+00   2.543771e-02
  8.698146e-01    1.608854e+00   2.557719e-02
  8.720250e-01    1.567991e+00   2.521181e-02
  8.742355e-01    1.545057e+00   2.498863e-02
  8.764459e-01    1.568313e+00   2.513760e-02
  8.786564e-01    1.553949e+00   2.498491e-02
  8.808669e-01    1.569381e+00   2.507060e-02
  8.830773e-01    1.577564e+00   2.509804e-02
  8.852878e-01    1.611761e+00   2.533055e-02
  8.874982e-01    1.582409e+00   2.506245e-02
  8.897087e-01    1.577842e+00   2.498882e-02
  8.919191e-01    1.579913e+00   2.496772e-02
  8.941296e-01    1.539016e+00   2.460590e-02
  8.963401e-01    1.544571e+00   2.461444e-02
  8.985505e-01    1.575797e+00   2.482535e-02
  9.007610e-01    1.583135e+00   2.484651e-02
  9.029714e-01    1.604523e+00   2.497793e-02
  9.051819e-01    1.572364e+00   2.468944e-02
  9.073923e-01    1.601769e+00   2.488262e-02
  9.096028e-01    1.603502e+00   2.486115e-02
  9.118132e-01    1.606645e+00   2.484918e-02
  9.140237e-01    1.658410e+00   2.520905e-02
  9.162342e-01    1.622771e+00   2.490191e-02
  9.184446e-01    1.592340e+00   2.463163e-02
  9.206551e-01    1.623891e+00   2.483860e-02
  9.228655e-01    1.632662e+00   2.487001e-02
  9.250760e-01    1.634887e+00   2.485122e-02
  9.272864e-01    1.612177e+00   2.464368e-02
  9.294969e-01    1.602239e+00   2.453178e-02
  9.317074e-01    1.597018e+00   2.445717e-02
  9.339178e-01    1.617754e+00   2.458181e-02
  9.361283e-01    1.644983e+00   2.475128e-02
  9.383387e-01    1.646355e+00   2.472792e-02
  9.405492e-01    1.652815e+00   2.474180e-02
  9.427596e-01    1.657984e+00   2.474477e-02
  9.449701e-01    1.670411e+00   2.480360e-02
  9.471805e-01    1.665100e+00   2.472905e-02
  9.493910e-01    1.687186e+00   2.485836e-02
  9.516015e-01    1.707197e+00   2.497043e-02
  9.538119e-01    1.683248e+00   2.476068e-02
  9.560224e-01    1.731410e+00   2.507706e-02
  9.582328e-01    1.741295e+00   2.511483e-02
  9.604433e-01    1.728824e+00   2.498928e-02
  9.626537e-01    1.714809e+00   2.485433e-02
  9.648642e-01    1.747982e+00   2.505919e-02
  9.670747e-01    1.764877e+00   2.514531e-02
  9.692851e-01    1.783064e+00   2.524091e-02
  9.714956e-01    1.851577e+00   2.568502e-02
  9.737060e-01    1.864147e+00   2.573822e-02
  9.759165e-01    1.799046e+00   2.524915e-02
  9.781269e-01    1.790331e+00   2.515495e-02
  9.803374e-01    1.815865e+00   2.529866e-02
  9.825478e-01    1.810133e+00   2.522539e-02
  9.847583e-01    1.821737e+00   2.527174e-02
  9.869688e-01    1.817651e+00   2.520960e-02
  9.891792e-01    1.814245e+00   2.515250e-02
  9.913897e-01    1.841259e+00   2.530487e-02
  9.936001e-01    1.828207e+00   2.518202e-02
  9.958106e-01    1.836305e+00   2.520340e-02
  9.980210e-01    1.860666e+00   2.533713e-02
  1.000231e+00    1.798690e+00   2.504807e-02
  1.002442e+00    1.755489e+00   2.487690e-02
  1.004652e+00    1.713421e+00   2.464558e-02
  1.006863e+00    1.668159e+00   2.436835e-02
  1.009073e+00    1.660848e+00   2.435210e-02
  1.011284e+00    1.624548e+00   2.411671e-02
  1.013494e+00    1.562176e+00   2.367267e-02
  1.015705e+00    1.554891e+00   2.363971e-02
  1.017915e+00    1.588849e+00   2.391293e-02
  1.020126e+00    1.589747e+00   2.393586e-02
  1.022336e+00    1.566677e+00   2.377327e-02
  1.024547e+00    1.546036e+00   2.362733e-02
  1.026757e+00    1.509095e+00   2.335163e-02
  1.028967e+00    1.495713e+00   2.325540e-02
  1.031178e+00    1.498852e+00   2.328589e-02
  1.033388e+00    1.532788e+00   2.355308e-02
  1.035599e+00    1.536008e+00   2.358123e-02
  1.037809e+00    1.568414e+00   2.383199e-02
  1.040020e+00    1.546792e+00   2.366846e-02
  1.042230e+00    1.518963e+00   2.345650e-02
  1.044441e+00    1.516094e+00   2.343412e-02
  1.046651e+00    1.540056e+00   2.361874e-02
  1.048862e+00    1.536002e+00   2.358684e-02
  1.051072e+00    1.517172e+00   2.343946e-02
  1.053282e+00    1.495743e+00   2.327238e-02
  1.055493e+00    1.498700e+00   2.329106e-02
  1.057703e+00    1.484933e+00   2.318233e-02
  1.059914e+00    1.481731e+00   2.315307e-02
  1.062124e+00    1.490655e+00   2.321863e-02
  1.064335e+00    1.478791e+00   2.312263e-02
  1.066545e+00    1.468437e+00   2.303555e-02
  1.068756e+00    1.466825e+00   2.301919e-02
  1.070966e+00    1.464544e+00   2.299478e-02
  1.073177e+00    1.471919e+00   2.304655e-02
  1.075387e+00    1.463414e+00   2.297467e-02
  1.077597e+00    1.427921e+00   2.268719e-02
  1.079808e+00    1.437701e+00   2.263322e-02
  1.082018e+00    1.391606e+00   2.208304e-02
  1.084229e+00    1.406580e+00   2.209350e-02
  1.086439e+00    1.429798e+00   2.218845e-02
  1.088650e+00    1.420954e+00   2.204492e-02
  1.090860e+00    1.437724e+00   2.210739e-02
  1.093071e+00    1.426492e+00   2.195920e-02
  1.095281e+00    1.438357e+00   2.199322e-02
  1.097492e+00    1.438146e+00   2.193684e-02
  1.099702e+00    1.420182e+00   2.174837e-02
  1.101912e+00    1.418534e+00   2.168726e-02
  1.104123e+00    1.405194e+00   2.153735e-02
  1.106333e+00    1.385393e+00   2.134137e-02
  1.108544e+00    1.411048e+00   2.149411e-02
  1.110754e+00    1.401561e+00   2.137909e-02
  1.112965e+00    1.398119e+00   2.131263e-02
  1.115175e+00    1.384493e+00   2.116787e-02
  1.117386e+00    1.402107e+00   2.126299e-02
  1.119596e+00    1.391070e+00   2.114157e-02
  1.121807e+00    1.392098e+00   2.111079e-02
  1.124017e+00    1.377738e+00   2.096537e-02
  1.126228e+00    1.374971e+00   2.090892e-02
  1.128438e+00    1.426476e+00   2.125983e-02
  1.130648e+00    1.417132e+00   2.115557e-02
  1.132859e+00    1.379240e+00   2.083667e-02
  1.135069e+00    1.358662e+00   2.064635e-02
  1.137280e+00    1.370181e+00   2.070089e-02
  1.139490e+00    1.376344e+00   2.071450e-02
  1.141701e+00    1.375401e+00   2.067437e-02
  1.143911e+00    1.370659e+00   2.060699e-02
  1.146122e+00    1.376375e+00   2.061795e-02
  1.148332e+00    1.370887e+00   2.054504e-02
  1.150543e+00    1.359584e+00   2.042953e-02
  1.152753e+00    1.359840e+00   2.040079e-02
  1.154963e+00    1.347274e+00   2.027556e-02
  1.157174e+00    1.364143e+00   2.037206e-02
  1.159384e+00    1.355742e+00   2.027954e-02
  1.161595e+00    1.379169e+00   2.042406e-02
  1.163805e+00    1.372150e+00   2.034274e-02
  1.166016e+00    1.377183e+00   2.035047e-02
  1.168226e+00    1.372195e+00   2.028458e-02
  1.170437e+00    1.345817e+00   2.006026e-02
  1.172647e+00    1.353900e+00   2.009161e-02
  1.174858e+00    1.387262e+00   2.030933e-02
  1.177068e+00    1.381634e+00   2.023965e-02
  1.179278e+00    1.378509e+00   2.018799e-02
  1.181489e+00    1.397205e+00   2.029704e-02
  1.183699e+00    1.422864e+00   2.045436e-02
  1.185910e+00    1.378205e+00   2.010284e-02
  1.188120e+00    1.335149e+00   1.975984e-02
  1.190331e+00    1.359723e+00   1.991404e-02
  1.192541e+00    1.355975e+00   1.985920e-02
  1.194752e+00    1.355840e+00   1.983112e-02
  1.196962e+00    1.345013e+00   1.972611e-02
  1.199173e+00    1.344589e+00   1.969655e-02
  1.201383e+00    1.349398e+00   1.970460e-02
  1.203593e+00    1.360877e+00   1.976329e-02
  1.205804e+00    1.345382e+00   1.962462e-02
  1.208014e+00    1.354033e+00   1.966068e-02
  1.210225e+00    1.359129e+00   1.967227e-02
  1.212435e+00    1.338888e+00   1.950053e-02
  1.214646e+00    1.342054e+00   1.949755e-02
  1.216856e+00    1.322839e+00   1.933224e-02
  1.219067e+00    1.321270e+00   1.929656e-02
  1.221277e+00    1.329110e+00   1.932891e-02
  1.223488e+00    1.323083e+00   1.925953e-02
  1.225698e+00    1.327282e+00   1.926340e-02
  1.227909e+00    1.343639e+00   1.935163e-02
  1.230119e+00    1.338314e+00   1.928155e-02
  1.232329e+00    1.332518e+00   1.920921e-02
  1.234540e+00    1.357464e+00   1.935782e-02
  1.236750e+00    1.333622e+00   1.915700e-02
  1.238961e+00    1.329663e+00   1.910176e-02
  1.241171e+00    1.365504e+00   1.933317e-02
  1.243382e+00    1.347062e+00   1.917870e-02
  1.245592e+00    1.324406e+00   1.899287e-02
  1.247803e+00    1.343334e+00   1.910450e-02
  1.250013e+00    1.344340e+00   1.908816e-02
  1.252224e+00    1.346386e+00   1.907946e-02
  1.254434e+00    1.367105e+00   1.920180e-02
  1.256644e+00    1.390319e+00   1.934060e-02
  1.258855e+00    1.391020e+00   1.932185e-02
  1.261065e+00    1.408800e+00   1.942108e-02
  1.263276e+00    1.381284e+00   1.920729e-02
  1.265486e+00    1.358161e+00   1.902288e-02
  1.267697e+00    1.376110e+00   1.912493e-02
  1.269907e+00    1.379091e+00   1.912270e-02
  1.272118e+00    1.377120e+00   1.908623e-02
  1.274328e+00    1.351051e+00   1.888198e-02
  1.276539e+00    1.364799e+00   1.895486e-02
  1.278749e+00    1.382223e+00   1.905295e-02
  1.280959e+00    1.350644e+00   1.881151e-02
  1.283170e+00    1.344902e+00   1.874908e-02
  1.285380e+00    1.342936e+00   1.871298e-02
  1.287591e+00    1.354436e+00   1.877085e-02
  1.289801e+00    1.381660e+00   1.893711e-02
  1.292012e+00    1.346613e+00   1.867832e-02
  1.294222e+00    1.359839e+00   1.875350e-02
  1.296433e+00    1.348268e+00   1.865798e-02
  1.298643e+00    1.343944e+00   1.861159e-02
  1.300854e+00    1.387081e+00   1.889126e-02
  1.303064e+00    1.390115e+00   1.889244e-02
  1.305274e+00    1.349386e+00   1.859217e-02
  1.307485e+00    1.351425e+00   1.858465e-02
  1.309695e+00    1.350909e+00   1.855886e-02
  1.311906e+00    1.367808e+00   1.865273e-02
  1.314116e+00    1.376866e+00   1.869339e-02
  1.316327e+00    1.378551e+00   1.868290e-02
  1.318537e+00    1.419160e+00   1.893363e-02
  1.320748e+00    1.443784e+00   1.907491e-02
  1.322958e+00    1.451814e+00   1.910660e-02
  1.325169e+00    1.391939e+00   1.868715e-02
  1.327379e+00    1.351446e+00   1.839148e-02
  1.329589e+00    1.378640e+00   1.855430e-02
  1.331800e+00    1.402917e+00   1.869584e-02
  1.334010e+00    1.414798e+00   1.875372e-02
  1.336221e+00    1.397663e+00   1.861767e-02
  1.338431e+00    1.414639e+00   1.870904e-02
  1.340642e+00    1.371370e+00   1.848537e-02
  1.342852e+00    1.411030e+00   1.885366e-02
  1.345063e+00    1.370953e+00   1.863390e-02
  1.347273e+00    1.339643e+00   1.845495e-02
  1.349484e+00    1.380825e+00   1.876447e-02
  1.351694e+00    1.366199e+00   1.868767e-02
  1.353905e+00    1.371947e+00   1.874508e-02
  1.356115e+00    1.375423e+00   1.878401e-02
  1.358325e+00    1.377164e+00   1.880932e-02
  1.360536e+00    1.425466e+00   1.914828e-02
  1.362746e+00    1.395730e+00   1.895727e-02
  1.364957e+00    1.365217e+00   1.875658e-02
  1.367167e+00    1.371064e+00   1.880393e-02
  1.369378e+00    1.332435e+00   1.854314e-02
  1.371588e+00    1.325440e+00   1.849948e-02
  1.373799e+00    1.335306e+00   1.857189e-02
  1.376009e+00    1.338005e+00   1.859402e-02
  1.378220e+00    1.344762e+00   1.864347e-02
  1.380430e+00    1.321046e+00   1.848103e-02
  1.382640e+00    1.333764e+00   1.857069e-02
  1.384851e+00    1.316459e+00   1.845070e-02
  1.387061e+00    1.308097e+00   1.839229e-02
  1.389272e+00    1.329792e+00   1.854441e-02
  1.391482e+00    1.315164e+00   1.844145e-02
  1.393693e+00    1.309339e+00   1.839968e-02
  1.395903e+00    1.289124e+00   1.825559e-02
  1.398114e+00    1.303988e+00   1.835914e-02
  1.400324e+00    1.330055e+00   1.853956e-02
  1.402535e+00    1.323509e+00   1.849154e-02
  1.404745e+00    1.297124e+00   1.830390e-02
  1.406955e+00    1.307504e+00   1.837426e-02
  1.409166e+00    1.304773e+00   1.835171e-02
  1.411376e+00    1.293565e+00   1.826958e-02
  1.413587e+00    1.278318e+00   1.815776e-02
  1.415797e+00    1.331270e+00   1.852637e-02
  1.418008e+00    1.363929e+00   1.870887e-02
  1.420218e+00    1.359211e+00   1.852161e-02
  1.422429e+00    1.326540e+00   1.821045e-02
  1.424639e+00    1.307481e+00   1.801353e-02
  1.426850e+00    1.282640e+00   1.778661e-02
  1.429060e+00    1.304180e+00   1.788570e-02
  1.431270e+00    1.280822e+00   1.768029e-02
  1.433481e+00    1.299586e+00   1.776791e-02
  1.435691e+00    1.302924e+00   1.775178e-02
  1.437902e+00    1.316297e+00   1.780554e-02
  1.440112e+00    1.304885e+00   1.769236e-02
  1.442323e+00    1.274968e+00   1.745527e-02
  1.444533e+00    1.278386e+00   1.744596e-02
  1.446744e+00    1.271575e+00   1.736832e-02
  1.448954e+00    1.235958e+00   1.709353e-02
  1.451165e+00    1.284744e+00   1.739769e-02
  1.453375e+00    1.271126e+00   1.727720e-02
  1.455586e+00    1.261407e+00   1.718296e-02
  1.457796e+00    1.256673e+00   1.712329e-02
  1.460006e+00    1.284658e+00   1.728551e-02
  1.462217e+00    1.288134e+00   1.728248e-02
  1.464427e+00    1.272429e+00   1.715116e-02
  1.466638e+00    1.257013e+00   1.702175e-02
  1.468848e+00    1.263279e+00   1.703884e-02
  1.471059e+00    1.255352e+00   1.696036e-02
  1.473269e+00    1.261450e+00   1.697718e-02
  1.475480e+00    1.240344e+00   1.681107e-02
  1.477690e+00    1.244514e+00   1.681568e-02
  1.479901e+00    1.237991e+00   1.674801e-02
  1.482111e+00    1.246129e+00   1.677981e-02
  1.484321e+00    1.278115e+00   1.697062e-02
  1.486532e+00    1.253783e+00   1.678607e-02
  1.488742e+00    1.239730e+00   1.666931e-02
  1.490953e+00    1.242829e+00   1.666772e-02
  1.493163e+00    1.239222e+00   1.662145e-02
  1.495374e+00    1.233838e+00   1.656406e-02
  1.497584e+00    1.259173e+00   1.671162e-02
  1.499795e+00    1.244370e+00   1.659161e-02
  1.502005e+00    1.235519e+00   1.651100e-02
  1.504216e+00    1.241356e+00   1.652908e-02
  1.506426e+00    1.244790e+00   1.653122e-02
  1.508636e+00    1.243630e+00   1.650318e-02
  1.510847e+00    1.243982e+00   1.648381e-02
  1.513057e+00    1.256953e+00   1.654441e-02
  1.515268e+00    1.258055e+00   1.652594e-02
  1.517478e+00    1.273650e+00   1.660269e-02
  1.519689e+00    1.264465e+00   1.651766e-02
  1.521899e+00    1.254326e+00   1.642819e-02
  1.524110e+00    1.248457e+00   1.636942e-02
  1.526320e+00    1.242496e+00   1.631077e-02
  1.528531e+00    1.241971e+00   1.628764e-02
  1.530741e+00    1.230546e+00   1.619354e-02
  1.532951e+00    1.261721e+00   1.637770e-02
  1.535162e+00    1.239211e+00   1.631721e-02
  1.537372e+00    1.229545e+00   1.631981e-02
  1.539583e+00    1.245380e+00   1.645877e-02
  1.541793e+00    1.223730e+00   1.632196e-02
  1.544004e+00    1.236391e+00   1.640642e-02
  1.546214e+00    1.258023e+00   1.654782e-02
  1.548425e+00    1.260694e+00   1.656564e-02
  1.550635e+00    1.260867e+00   1.657650e-02
  1.552846e+00    1.263207e+00   1.660163e-02
  1.555056e+00    1.223521e+00   1.629764e-02
  1.557266e+00    1.233627e+00   1.625480e-02
  1.559477e+00    1.245645e+00   1.627467e-02
  1.561687e+00    1.267609e+00   1.638655e-02
  1.563898e+00    1.260015e+00   1.632015e-02
  1.566108e+00    1.251277e+00   1.624746e-02
  1.568319e+00    1.254633e+00   1.625354e-02
  1.570529e+00    1.242861e+00   1.615201e-02
  1.572740e+00    1.237468e+00   1.608937e-02
  1.574950e+00    1.244734e+00   1.611023e-02
  1.577161e+00    1.237104e+00   1.603536e-02
  1.579371e+00    1.262671e+00   1.617641e-02
  1.581582e+00    1.224318e+00   1.590920e-02
  1.583792e+00    1.236698e+00   1.597149e-02
  1.586002e+00    1.228726e+00   1.590241e-02
  1.588213e+00    1.236671e+00   1.593656e-02
  1.590423e+00    1.231245e+00   1.588158e-02
  1.592634e+00    1.224347e+00   1.581559e-02
  1.594844e+00    1.236394e+00   1.587185e-02
  1.597055e+00    1.271565e+00   1.607530e-02
  1.599265e+00    1.254276e+00   1.594481e-02
  1.601476e+00    1.225176e+00   1.573859e-02
  1.603686e+00    1.231447e+00   1.575910e-02
  1.605897e+00    1.222468e+00   1.568153e-02
  1.608107e+00    1.231162e+00   1.571768e-02
  1.610317e+00    1.243800e+00   1.577878e-02
  1.612528e+00    1.260356e+00   1.586410e-02
  1.614738e+00    1.238394e+00   1.570626e-02
  1.616949e+00    1.228123e+00   1.562200e-02
  1.619159e+00    1.231001e+00   1.562150e-02
  1.621370e+00    1.228271e+00   1.558566e-02
  1.623580e+00    1.203394e+00   1.540875e-02
  1.625791e+00    1.247078e+00   1.566738e-02
  1.628001e+00    1.258989e+00   1.572335e-02
  1.630212e+00    1.234000e+00   1.554849e-02
  1.632422e+00    1.188030e+00   1.523821e-02
  1.634632e+00    1.186447e+00   1.521070e-02
  1.636843e+00    1.176565e+00   1.512970e-02
  1.639053e+00    1.156788e+00   1.498484e-02
  1.641264e+00    1.164168e+00   1.501549e-02
  1.643474e+00    1.169551e+00   1.503273e-02
  1.645685e+00    1.172322e+00   1.503377e-02
  1.647895e+00    1.171082e+00   1.500910e-02
  1.650106e+00    1.148035e+00   1.484372e-02
  1.652316e+00    1.141130e+00   1.478255e-02
  1.654527e+00    1.123727e+00   1.465289e-02
  1.656737e+00    1.112441e+00   1.456272e-02
  1.658947e+00    1.114261e+00   1.455848e-02
  1.661158e+00    1.104886e+00   1.448099e-02
  1.663368e+00    1.125091e+00   1.459676e-02
  1.665579e+00    1.120814e+00   1.455285e-02
  1.667789e+00    1.119950e+00   1.453095e-02
  1.670000e+00    1.121585e+00   1.452603e-02
  1.672210e+00    1.115403e+00   1.446997e-02
  1.674421e+00    1.115999e+00   1.445849e-02
  1.676631e+00    1.082415e+00   1.422351e-02
  1.678842e+00    1.101244e+00   1.433092e-02
  1.681052e+00    1.092189e+00   1.425650e-02
  1.683263e+00    1.083435e+00   1.418416e-02
  1.685473e+00    1.066255e+00   1.405624e-02
  1.687683e+00    1.044029e+00   1.389381e-02
  1.689894e+00    1.046331e+00   1.389362e-02
  1.692104e+00    1.046687e+00   1.388124e-02
  1.694315e+00    1.054630e+00   1.391947e-02
  1.696525e+00    1.015672e+00   1.364517e-02
  1.698736e+00    1.031127e+00   1.373400e-02
  1.700946e+00    1.042254e+00   1.379292e-02
  1.703157e+00    1.032827e+00   1.371592e-02
  1.705367e+00    1.023207e+00   1.363760e-02
  1.707578e+00    1.028295e+00   1.365704e-02
  1.709788e+00    1.032950e+00   1.367386e-02
  1.711998e+00    1.040089e+00   1.370608e-02
  1.714209e+00    1.013349e+00   1.351447e-02
  1.716419e+00    1.004565e+00   1.344171e-02
  1.718630e+00    1.000018e+00   1.339720e-02
  1.720840e+00    1.031872e+00   1.359469e-02
  1.723051e+00    1.024577e+00   1.353271e-02
  1.725261e+00    9.944155e-01   1.331753e-02
  1.727472e+00    9.901003e-01   1.327464e-02
  1.729682e+00    9.913392e-01   1.326963e-02
  1.731893e+00    9.964228e-01   1.328981e-02
  1.734103e+00    9.770973e-01   1.314673e-02
  1.736313e+00    9.910871e-01   1.322661e-02
  1.738524e+00    9.433818e-01   1.289095e-02
  1.740734e+00    9.707345e-01   1.306296e-02
  1.742945e+00    9.913166e-01   1.318733e-02
  1.745155e+00    9.511675e-01   1.290434e-02
  1.747366e+00    9.522209e-01   1.289794e-02
  1.749576e+00    9.796436e-01   1.306869e-02
  1.751787e+00    9.637626e-01   1.294914e-02
  1.753997e+00    9.629425e-01   1.293036e-02
  1.756208e+00    9.341910e-01   1.272296e-02
  1.758418e+00    9.462533e-01   1.279185e-02
  1.760628e+00    9.789546e-01   1.299762e-02
  1.762839e+00    9.536610e-01   1.281547e-02
  1.765049e+00    9.498221e-01   1.277660e-02
  1.767260e+00    9.539552e-01   1.279161e-02
  1.769470e+00    9.451987e-01   1.271984e-02
  1.771681e+00    9.321446e-01   1.261871e-02
  1.773891e+00    9.285282e-01   1.258129e-02
  1.776102e+00    9.446928e-01   1.267748e-02
  1.778312e+00    9.518376e-01   1.271256e-02
  1.780523e+00    9.095147e-01   1.241421e-02
  1.782733e+00    9.023827e-01   1.235300e-02
  1.784944e+00    9.002956e-01   1.232605e-02
  1.787154e+00    9.049411e-01   1.234548e-02
  1.789364e+00    9.007095e-01   1.230430e-02
  1.791575e+00    9.019883e-01   1.230066e-02
  1.793785e+00    9.249942e-01   1.244410e-02
  1.795996e+00    9.557884e-01   1.263682e-02
  1.798206e+00    9.562835e-01   1.262732e-02
  1.800417e+00    9.477521e-01   1.255797e-02
  1.802627e+00    9.348212e-01   1.245995e-02
  1.804838e+00    9.235415e-01   1.237235e-02
  1.807048e+00    9.247836e-01   1.236773e-02
  1.809259e+00    8.999746e-01   1.218717e-02
  1.811469e+00    9.079318e-01   1.222590e-02
  1.813679e+00    8.975807e-01   1.214110e-02
  1.815890e+00    8.990135e-01   1.213600e-02
  1.818100e+00    9.225290e-01   1.227838e-02
  1.820311e+00    9.550795e-01   1.247784e-02
  1.822521e+00    9.683955e-01   1.254906e-02
  1.824732e+00    9.381895e-01   1.233661e-02
  1.826942e+00    9.193174e-01   1.219932e-02
  1.829153e+00    9.366295e-01   1.230161e-02
  1.831363e+00    9.444249e-01   1.234028e-02
  1.833574e+00    9.517118e-01   1.237564e-02
  1.835784e+00    9.598582e-01   1.241659e-02
  1.837994e+00    9.199155e-01   1.214350e-02
  1.840205e+00    8.933231e-01   1.195539e-02
  1.842415e+00    8.682690e-01   1.177482e-02
  1.844626e+00    8.868821e-01   1.188867e-02
  1.846836e+00    8.840107e-01   1.185789e-02
  1.849047e+00    8.580280e-01   1.167079e-02
  1.851257e+00    8.513982e-01   1.161609e-02
  1.853468e+00    8.639680e-01   1.169270e-02
  1.855678e+00    8.885654e-01   1.184897e-02
  1.857889e+00    9.045576e-01   1.194638e-02
  1.860099e+00    9.239902e-01   1.206507e-02
  1.862309e+00    9.496545e-01   1.222253e-02
  1.864520e+00    8.883596e-01   1.181279e-02
  1.866730e+00    8.830786e-01   1.176805e-02
  1.868941e+00    8.681407e-01   1.165708e-02
  1.871151e+00    8.534061e-01   1.154630e-02
  1.873362e+00    8.783587e-01   1.170236e-02
  1.875572e+00    8.676077e-01   1.161948e-02
  1.877783e+00    8.441560e-01   1.144996e-02
  1.879993e+00    8.451532e-01   1.144556e-02
  1.882204e+00    8.559525e-01   1.150750e-02
  1.884414e+00    8.278664e-01   1.130615e-02
  1.886624e+00    8.277630e-01   1.129449e-02
  1.888835e+00    8.212581e-01   1.123918e-02
  1.891045e+00    8.139192e-01   1.117814e-02
  1.893256e+00    8.292864e-01   1.127212e-02
  1.895466e+00    8.465609e-01   1.137771e-02
  1.897677e+00    8.228877e-01   1.120666e-02
  1.899887e+00    8.227686e-01   1.119493e-02
  1.902098e+00    8.355297e-01   1.127056e-02
  1.904308e+00    8.291221e-01   1.121668e-02
  1.906519e+00    8.300120e-01   1.121186e-02
  1.908729e+00    8.303018e-01   1.120320e-02
  1.910940e+00    8.198249e-01   1.112123e-02
  1.913150e+00    8.248585e-01   1.114472e-02
  1.915360e+00    8.332877e-01   1.119085e-02
  1.917571e+00    8.266638e-01   1.113538e-02
  1.919781e+00    8.253263e-01   1.111567e-02
  1.921992e+00    8.077167e-01   1.098590e-02
  1.924202e+00    8.066566e-01   1.096799e-02
  1.926413e+00    8.049514e-01   1.094616e-02
  1.928623e+00    8.090414e-01   1.096343e-02
  1.930834e+00    8.028134e-01   1.091079e-02
  1.933044e+00    8.020462e-01   1.089497e-02
  1.935255e+00    8.094108e-01   1.093454e-02
  1.937465e+00    8.099342e-01   1.092769e-02
  1.939675e+00    7.937791e-01   1.080740e-02
  1.941886e+00    7.890351e-01   1.076486e-02
  1.944096e+00    7.921432e-01   1.077592e-02
  1.946307e+00    8.107499e-01   1.089136e-02
  1.948517e+00    8.087366e-01   1.086733e-02
  1.950728e+00    8.043309e-01   1.082739e-02
  1.952938e+00    7.951653e-01   1.075549e-02
  1.955149e+00    7.861469e-01   1.068412e-02
  1.957359e+00    8.088253e-01   1.082702e-02
  1.959570e+00    8.057932e-01   1.079576e-02
  1.961780e+00    7.848275e-01   1.064454e-02
  1.963990e+00    7.793908e-01   1.059754e-02
  1.966201e+00    7.947592e-01   1.069144e-02
  1.968411e+00    7.857826e-01   1.062076e-02
  1.970622e+00    8.027346e-01   1.072452e-02
  1.972832e+00    7.908493e-01   1.063485e-02
  1.975043e+00    7.699639e-01   1.048354e-02
  1.977253e+00    7.712978e-01   1.048275e-02
  1.979464e+00    7.729869e-01   1.048426e-02
  1.981674e+00    7.808036e-01   1.052688e-02
  1.983885e+00    7.856235e-01   1.054928e-02
  1.986095e+00    7.726762e-01   1.045235e-02
  1.988305e+00    7.671410e-01   1.040502e-02
  1.990516e+00    7.796353e-01   1.047947e-02
  1.992726e+00    7.843037e-01   1.050110e-02
  1.994937e+00    7.733136e-01   1.041717e-02
  1.997147e+00    7.792304e-01   1.044718e-02
  1.999358e+00    7.827743e-01   1.046101e-02
  2.001568e+00    7.832431e-01   1.045327e-02
  2.003779e+00    7.791545e-01   1.041398e-02
  2.005989e+00    7.684163e-01   1.032999e-02
  2.008200e+00    7.648426e-01   1.029443e-02
  2.010410e+00    7.731559e-01   1.033844e-02
  2.012621e+00    7.885653e-01   1.042912e-02
  2.014831e+00    7.704825e-01   1.029736e-02
  2.017041e+00    7.683645e-01   1.027279e-02
  2.019252e+00    7.723257e-01   1.028924e-02
  2.021462e+00    7.703882e-01   1.026678e-02
  2.023673e+00    7.596700e-01   1.018578e-02
  2.025883e+00    7.493911e-01   1.010717e-02
  2.028094e+00    7.562540e-01   1.014375e-02
  2.030304e+00    7.480483e-01   1.007912e-02
  2.032515e+00    7.562709e-01   1.012509e-02
  2.034725e+00    7.525368e-01   1.009066e-02
  2.036936e+00    7.696159e-01   1.019511e-02
  2.039146e+00    7.613193e-01   1.013043e-02
  2.041356e+00    7.624441e-01   1.012821e-02
  2.043567e+00    7.656807e-01   1.014032e-02
  2.045777e+00    7.755373e-01   1.019602e-02
  2.047988e+00    7.702315e-01   1.015162e-02
  2.050198e+00    7.490659e-01   1.000276e-02
  2.052409e+00    7.710736e-01   1.014087e-02
  2.054619e+00    7.627608e-01   1.007866e-02
  2.056830e+00    7.560428e-01   1.002696e-02
  2.059040e+00    7.496052e-01   9.976677e-03
  2.061251e+00    7.497122e-01   9.970147e-03
  2.063461e+00    7.539220e-01   9.990472e-03
  2.065671e+00    7.558390e-01   9.994402e-03
  2.067882e+00    7.518167e-01   9.958771e-03
  2.070092e+00    7.307755e-01   9.809320e-03
  2.072303e+00    7.424625e-01   9.878326e-03
  2.074513e+00    7.321756e-01   9.800425e-03
  2.076724e+00    7.331840e-01   9.797779e-03
  2.078934e+00    7.347059e-01   9.798980e-03
  2.081145e+00    7.390366e-01   9.818771e-03
  2.083355e+00    7.336434e-01   9.773755e-03
  2.085566e+00    7.359295e-01   9.780090e-03
  2.087776e+00    7.368923e-01   9.776999e-03
  2.089986e+00    7.214593e-01   9.665398e-03
  2.092197e+00    7.194684e-01   9.643187e-03
  2.094407e+00    7.213387e-01   9.646599e-03
  2.096618e+00    7.322282e-01   9.710238e-03
  2.098828e+00    7.341736e-01   9.713836e-03
  2.101039e+00    7.376633e-01   9.727892e-03
  2.103249e+00    7.262756e-01   9.643856e-03
  2.105460e+00    7.181765e-01   9.581028e-03
  2.107670e+00    6.883247e-01   9.371262e-03
  2.109881e+00    7.228729e-01   9.594438e-03
  2.112091e+00    7.221342e-01   9.580573e-03
  2.114301e+00    7.081077e-01   9.478399e-03
  2.116512e+00    7.152392e-01   9.517238e-03
  2.118722e+00    7.256008e-01   9.577109e-03
  2.120933e+00    7.025319e-01   9.414880e-03
  2.123143e+00    7.033913e-01   9.411822e-03
  2.125354e+00    7.049037e-01   9.413471e-03
  2.127564e+00    7.160485e-01   9.478881e-03
  2.129775e+00    6.953676e-01   9.332388e-03
  2.131985e+00    7.116784e-01   9.432157e-03
  2.134196e+00    7.085009e-01   9.402527e-03
  2.136406e+00    6.935964e-01   9.294483e-03
  2.138617e+00    7.020190e-01   9.342317e-03
  2.140827e+00    7.012640e-01   9.353288e-03
  2.143037e+00    6.983681e-01   9.379132e-03
  2.145248e+00    7.000789e-01   9.412535e-03
  2.147458e+00    7.158750e-01   9.533378e-03
  2.149669e+00    7.124719e-01   9.522647e-03
  2.151879e+00    7.163105e-01   9.557554e-03
  2.154090e+00    7.207856e-01   9.594804e-03
  2.156300e+00    7.000357e-01   9.462285e-03
  2.158511e+00    7.158887e-01   9.574178e-03
  2.160721e+00    6.984209e-01   9.461490e-03
  2.162932e+00    6.892567e-01   9.402921e-03
  2.165142e+00    6.781034e-01   9.329502e-03
  2.167352e+00    6.931665e-01   9.435469e-03
  2.169563e+00    6.856736e-01   9.386265e-03
  2.171773e+00    6.776702e-01   9.333767e-03
  2.173984e+00    6.765348e-01   9.327306e-03
  2.176194e+00    6.830728e-01   9.373471e-03
  2.178405e+00    6.712576e-01   9.292752e-03
  2.180615e+00    6.655310e-01   9.253676e-03
  2.182826e+00    6.867656e-01   9.400814e-03
  2.185036e+00    6.951041e-01   9.457783e-03
  2.187247e+00    6.840519e-01   9.382235e-03
  2.189457e+00    6.727121e-01   9.303753e-03
  2.191667e+00    6.663904e-01   9.259744e-03
  2.193878e+00    6.642780e-01   9.244508e-03
  2.196088e+00    6.738758e-01   9.310365e-03
  2.198299e+00    6.836669e-01   9.376682e-03
  2.200509e+00    6.876978e-01   9.403209e-03
  2.202720e+00    6.921231e-01   9.432270e-03
  2.204930e+00    6.939535e-01   9.443466e-03
  2.207141e+00    6.998527e-01   9.482410e-03
  2.209351e+00    6.817642e-01   9.357172e-03
  2.211562e+00    6.795523e-01   9.340364e-03
  2.213772e+00    6.793969e-01   9.283695e-03
  2.215982e+00    6.777665e-01   9.228294e-03
  2.218193e+00    6.808749e-01   9.219675e-03
  2.220403e+00    6.853734e-01   9.225301e-03
  2.222614e+00    6.962589e-01   9.277002e-03
  2.224824e+00    6.655113e-01   9.050557e-03
  2.227035e+00    6.751933e-01   9.098693e-03
  2.229245e+00    6.565673e-01   8.955530e-03
  2.231456e+00    6.656584e-01   9.001778e-03
  2.233666e+00    6.688159e-01   9.008021e-03
  2.235877e+00    6.669358e-01   8.981129e-03
  2.238087e+00    6.759052e-01   9.027769e-03
  2.240298e+00    6.719086e-01   8.987268e-03
  2.242508e+00    6.546996e-01   8.856448e-03
  2.244718e+00    6.634774e-01   8.899869e-03
  2.246929e+00    6.661611e-01   8.903462e-03
  2.249139e+00    6.589369e-01   8.842750e-03
  2.251350e+00    6.629956e-01   8.858262e-03
  2.253560e+00    6.730698e-01   8.913691e-03
  2.255771e+00    6.784509e-01   8.937732e-03
  2.257981e+00    6.685550e-01   8.861107e-03
  2.260192e+00    6.734698e-01   8.882423e-03
  2.262402e+00    6.761482e-01   8.889144e-03
  2.264613e+00    6.681478e-01   8.825501e-03
  2.266823e+00    6.737341e-01   8.851850e-03
  2.269033e+00    6.673516e-01   8.799405e-03
  2.271244e+00    6.627448e-01   8.758594e-03
  2.273454e+00    6.710970e-01   8.803259e-03
  2.275665e+00    6.831099e-01   8.871255e-03
  2.277875e+00    6.715463e-01   8.785837e-03
  2.280086e+00    6.687479e-01   8.757405e-03
  2.282296e+00    6.757146e-01   8.793374e-03
  2.284507e+00    6.745446e-01   8.775517e-03
  2.286717e+00    6.559466e-01   8.644242e-03
  2.288928e+00    6.605088e-01   8.664354e-03
  2.291138e+00    6.597958e-01   8.650239e-03
  2.293348e+00    6.535680e-01   8.599781e-03
  2.295559e+00    6.590816e-01   8.626654e-03
  2.297769e+00    6.506384e-01   8.561992e-03
  2.299980e+00    6.418792e-01   8.494909e-03
  2.302190e+00    6.641487e-01   8.631811e-03
  2.304401e+00    6.642543e-01   8.623096e-03
  2.306611e+00    6.518105e-01   8.532762e-03
  2.308822e+00    6.329869e-01   8.400379e-03
  2.311032e+00    6.309286e-01   8.380336e-03
  2.313243e+00    6.468932e-01   8.479447e-03
  2.315453e+00    6.577980e-01   8.542994e-03
  2.317663e+00    6.611549e-01   8.555556e-03
  2.319874e+00    6.520230e-01   8.487501e-03
  2.322084e+00    6.436075e-01   8.423585e-03
  2.324295e+00    6.538436e-01   8.482033e-03
  2.326505e+00    6.475335e-01   8.431934e-03
  2.328716e+00    6.345585e-01   8.338547e-03
  2.330926e+00    6.259522e-01   8.273113e-03
  2.333137e+00    6.413892e-01   8.366139e-03
  2.335347e+00    6.370119e-01   8.328706e-03
  2.337558e+00    6.350095e-01   8.307409e-03
  2.339768e+00    6.347634e-01   8.297259e-03
  2.341979e+00    6.390240e-01   8.316691e-03
  2.344189e+00    6.268877e-01   8.229019e-03
  2.346399e+00    6.346538e-01   8.271335e-03
  2.348610e+00    6.372670e-01   8.279893e-03
  2.350820e+00    6.272640e-01   8.206517e-03
  2.353031e+00    6.437392e-01   8.305234e-03
  2.355241e+00    6.352442e-01   8.242199e-03
  2.357452e+00    6.372666e-01   8.246849e-03
  2.359662e+00    6.353022e-01   8.225880e-03
  2.361873e+00    6.358864e-01   8.221403e-03
  2.364083e+00    6.298905e-01   8.174556e-03
  2.366294e+00    6.273153e-01   8.149714e-03
  2.368504e+00    6.233987e-01   8.116192e-03
  2.370714e+00    6.227805e-01   8.104112e-03
  2.372925e+00    6.327543e-01   8.160651e-03
  2.375135e+00    6.299631e-01   8.134549e-03
  2.377346e+00    6.097604e-01   7.995189e-03
  2.379556e+00    6.170391e-01   8.034910e-03
  2.381767e+00    6.205975e-01   8.050169e-03
  2.383977e+00    6.222683e-01   8.053083e-03
  2.386188e+00    6.144190e-01   7.994222e-03
  2.388398e+00    6.284022e-01   8.076676e-03
  2.390609e+00    5.997027e-01   7.882462e-03
  2.392819e+00    6.123037e-01   7.957102e-03
  2.395029e+00    6.086421e-01   7.925651e-03
  2.397240e+00    6.099455e-01   7.926299e-03
  2.399450e+00    6.209432e-01   7.989579e-03
  2.401661e+00    6.159911e-01   7.949959e-03
  2.403871e+00    5.976182e-01   7.822825e-03
  2.406082e+00    5.988943e-01   7.823807e-03
  2.408292e+00    6.022114e-01   7.837693e-03
  2.410503e+00    6.044004e-01   7.844459e-03
  2.412713e+00    5.938553e-01   7.768032e-03
  2.414924e+00    5.811946e-01   7.677438e-03
  2.417134e+00    5.996993e-01   7.791087e-03
  2.419344e+00    5.998996e-01   7.785030e-03
  2.421555e+00    5.784296e-01   7.637063e-03
  2.423765e+00    6.068234e-01   7.814824e-03
  2.425976e+00    5.949579e-01   7.730281e-03
  2.428186e+00    5.755730e-01   7.596227e-03
  2.430397e+00    5.739891e-01   7.578415e-03
  2.432607e+00    5.903214e-01   7.678237e-03
  2.434818e+00    6.045569e-01   7.762667e-03
  2.437028e+00    5.904037e-01   7.664151e-03
  2.439239e+00    5.849050e-01   7.620772e-03
  2.441449e+00    5.697901e-01   7.514602e-03
  2.443659e+00    5.800773e-01   7.574840e-03
  2.445870e+00    5.798418e-01   7.585465e-03
  2.448080e+00    5.734475e-01   7.578025e-03
  2.450291e+00    5.903628e-01   7.705784e-03
  2.452501e+00    5.761814e-01   7.623837e-03
  2.454712e+00    5.613815e-01   7.533625e-03
  2.456922e+00    5.671917e-01   7.579109e-03
  2.459133e+00    5.603865e-01   7.538903e-03
  2.461343e+00    5.661007e-01   7.581586e-03
  2.463554e+00    5.550464e-01   7.510653e-03
  2.465764e+00    5.536463e-01   7.504270e-03
  2.467975e+00    5.406663e-01   7.418034e-03
  2.470185e+00    5.582083e-01   7.539654e-03
  2.472395e+00    5.498046e-01   7.483918e-03
  2.474606e+00    5.387571e-01   7.409886e-03
  2.476816e+00    5.360731e-01   7.392122e-03
  2.479027e+00    5.405359e-01   7.423669e-03
  2.481237e+00    5.576344e-01   7.540439e-03
  2.483448e+00    5.547385e-01   7.521165e-03
  2.485658e+00    5.385206e-01   7.410254e-03
  2.487869e+00    5.471851e-01   7.469660e-03
  2.490079e+00    5.423468e-01   7.436052e-03
  2.492290e+00    5.448610e-01   7.452840e-03
  2.494500e+00    5.269179e-01   7.328359e-03
  2.496710e+00    5.275736e-01   7.332228e-03
  2.498921e+00    5.230911e-01   7.300051e-03
  2.501131e+00    5.167490e-01   7.254694e-03
  2.503342e+00    5.310706e-01   7.353300e-03
  2.505552e+00    5.198061e-01   7.273771e-03
  2.507763e+00    5.245191e-01   7.305266e-03
  2.509973e+00    5.109084e-01   7.208499e-03
  2.512184e+00    5.090900e-01   7.194055e-03
  2.514394e+00    5.059056e-01   7.162371e-03
  2.516605e+00    5.117731e-01   7.157351e-03
  2.518815e+00    5.347875e-01   7.287966e-03
  2.521025e+00    5.381979e-01   7.289961e-03
  2.523236e+00    5.304160e-01   7.219007e-03
  2.525446e+00    5.185592e-01   7.122366e-03
  2.527657e+00    5.078765e-01   7.034242e-03
  2.529867e+00    5.195770e-01   7.100715e-03
  2.532078e+00    5.203931e-01   7.091308e-03
  2.534288e+00    5.266352e-01   7.119810e-03
  2.536499e+00    5.234880e-01   7.086574e-03
  2.538709e+00    5.340226e-01   7.146435e-03
  2.540920e+00    5.165746e-01   7.018154e-03
  2.543130e+00    5.232385e-01   7.052901e-03
  2.545340e+00    5.194897e-01   7.017591e-03
  2.547551e+00    5.187907e-01   7.002938e-03
  2.549761e+00    5.318302e-01   7.080751e-03
  2.551972e+00    5.052766e-01   6.892516e-03
  2.554182e+00    5.236125e-01   7.007247e-03
  2.556393e+00    5.167422e-01   6.952099e-03
  2.558603e+00    5.158585e-01   6.937090e-03
  2.560814e+00    5.092669e-01   6.884032e-03
  2.563024e+00    5.022098e-01   6.827720e-03
  2.565235e+00    5.047607e-01   6.835659e-03
  2.567445e+00    5.120434e-01   6.875311e-03
  2.569656e+00    5.175128e-01   6.902194e-03
  2.571866e+00    5.035076e-01   6.798929e-03
  2.574076e+00    5.279545e-01   6.952654e-03
  2.576287e+00    5.220050e-01   6.905015e-03
  2.578497e+00    5.060291e-01   6.790748e-03
  2.580708e+00    5.133175e-01   6.831418e-03
  2.582918e+00    5.001450e-01   6.735532e-03
  2.585129e+00    5.157041e-01   6.831752e-03
  2.587339e+00    5.008762e-01   6.725235e-03
  2.589550e+00    4.952541e-01   6.679956e-03
  2.591760e+00    5.056539e-01   6.742051e-03
  2.593971e+00    5.045891e-01   6.727459e-03
  2.596181e+00    5.015458e-01   6.700996e-03
  2.598391e+00    5.139960e-01   6.778439e-03
  2.600602e+00    4.938319e-01   6.638346e-03
  2.602812e+00    5.053366e-01   6.707698e-03
  2.605023e+00    5.156677e-01   6.768706e-03
  2.607233e+00    5.151788e-01   6.758315e-03
  2.609444e+00    5.102662e-01   6.718765e-03
  2.611654e+00    4.994749e-01   6.640074e-03
  2.613865e+00    4.914905e-01   6.579857e-03
  2.616075e+00    4.929710e-01   6.582701e-03
  2.618286e+00    4.931437e-01   6.576949e-03
  2.620496e+00    4.974317e-01   6.598830e-03
  2.622706e+00    5.000490e-01   6.610478e-03
  2.624917e+00    4.885307e-01   6.528112e-03
  2.627127e+00    5.017744e-01   6.610301e-03
  2.629338e+00    4.926400e-01   6.543939e-03
  2.631548e+00    4.971656e-01   6.567791e-03
  2.633759e+00    4.850482e-01   6.480252e-03
  2.635969e+00    4.860488e-01   6.480322e-03
  2.638180e+00    5.104927e-01   6.634249e-03
  2.640390e+00    4.984902e-01   6.549207e-03
  2.642601e+00    4.940447e-01   6.513324e-03
  2.644811e+00    5.060679e-01   6.584975e-03
  2.647021e+00    5.114648e-01   6.613357e-03
  2.649232e+00    5.039089e-01   6.557591e-03
  2.651442e+00    5.075157e-01   6.574441e-03
  2.653653e+00    4.978808e-01   6.504978e-03
  2.655863e+00    4.832639e-01   6.402182e-03
  2.658074e+00    4.914831e-01   6.449821e-03
  2.660284e+00    5.009324e-01   6.505145e-03
  2.662495e+00    4.872186e-01   6.408832e-03
  2.664705e+00    4.990508e-01   6.479556e-03
  2.666916e+00    5.059059e-01   6.517418e-03
  2.669126e+00    5.031013e-01   6.492803e-03
  2.671337e+00    5.072910e-01   6.513140e-03
  2.673547e+00    5.026552e-01   6.476875e-03
  2.675757e+00    5.031844e-01   6.473784e-03
  2.677968e+00    4.992065e-01   6.441581e-03
  2.680178e+00    4.947149e-01   6.406141e-03
  2.682389e+00    5.107720e-01   6.502746e-03
  2.684599e+00    4.876010e-01   6.347416e-03
  2.686810e+00    4.793674e-01   6.287054e-03
  2.689020e+00    4.985540e-01   6.405292e-03
  2.691231e+00    5.065820e-01   6.450295e-03
  2.693441e+00    4.919147e-01   6.350055e-03
  2.695652e+00    4.981060e-01   6.383343e-03
  2.697862e+00    4.827618e-01   6.277949e-03
  2.700072e+00    4.931664e-01   6.339135e-03
  2.702283e+00    4.830418e-01   6.267551e-03
  2.704493e+00    4.882670e-01   6.295085e-03
  2.706704e+00    4.786134e-01   6.226190e-03
  2.708914e+00    4.790625e-01   6.223217e-03
  2.711125e+00    4.704558e-01   6.160908e-03
  2.713335e+00    4.881577e-01   6.269650e-03
  2.715546e+00    4.861206e-01   6.250125e-03
  2.717756e+00    4.749355e-01   6.171960e-03
  2.719967e+00    4.885701e-01   6.253706e-03
  2.722177e+00    4.893436e-01   6.252514e-03
  2.724387e+00    4.869059e-01   6.230793e-03
  2.726598e+00    4.893024e-01   6.240034e-03
  2.728808e+00    4.940749e-01   6.264189e-03
  2.731019e+00    4.865361e-01   6.210075e-03
  2.733229e+00    4.865192e-01   6.204150e-03
  2.735440e+00    4.797671e-01   6.154713e-03
  2.737650e+00    4.836126e-01   6.173301e-03
  2.739861e+00    4.883216e-01   6.197190e-03
  2.742071e+00    4.903137e-01   6.204021e-03
  2.744282e+00    4.874914e-01   6.179877e-03
  2.746492e+00    4.879335e-01   6.176603e-03
  2.748702e+00    4.778435e-01   6.106518e-03
  2.750913e+00    4.883164e-01   6.167258e-03
  2.753123e+00    4.738603e-01   6.069217e-03
  2.755334e+00    4.787523e-01   6.094377e-03
  2.757544e+00    4.922808e-01   6.174094e-03
  2.759755e+00    4.836021e-01   6.113532e-03
  2.761965e+00    4.830321e-01   6.103918e-03
  2.764176e+00    4.745407e-01   6.044084e-03
  2.766386e+00    4.715232e-01   6.019095e-03
  2.768597e+00    4.833277e-01   6.088068e-03
  2.770807e+00    4.812047e-01   6.068820e-03
  2.773017e+00    4.801039e-01   6.055881e-03
  2.775228e+00    4.833284e-01   6.070369e-03
  2.777438e+00    4.917832e-01   6.117357e-03
  2.779649e+00    4.841361e-01   6.063689e-03
  2.781859e+00    4.674530e-01   5.952594e-03
  2.784070e+00    4.549218e-01   5.866529e-03
  2.786280e+00    4.652230e-01   5.926873e-03
  2.788491e+00    4.811547e-01   6.021662e-03
  2.790701e+00    4.756691e-01   5.981585e-03
  2.792912e+00    4.781601e-01   5.991250e-03
  2.795122e+00    4.789810e-01   5.990655e-03
  2.797333e+00    4.706052e-01   5.932505e-03
  2.799543e+00    4.682341e-01   5.911721e-03
  2.801753e+00    4.710608e-01   5.923718e-03
  2.803964e+00    4.746352e-01   5.940474e-03
  2.806174e+00    4.821410e-01   5.981085e-03
  2.808385e+00    4.796791e-01   5.958959e-03
  2.810595e+00    4.725195e-01   5.907483e-03
  2.812806e+00    4.748221e-01   5.915231e-03
  2.815016e+00    4.751443e-01   5.912493e-03
  2.817227e+00    4.767158e-01   5.948268e-03
  2.819437e+00    4.712611e-01   5.925188e-03
  2.821648e+00    4.699788e-01   5.919401e-03
  2.823858e+00    4.730248e-01   5.943891e-03
  2.826068e+00    4.714502e-01   5.938957e-03
  2.828279e+00    4.758942e-01   5.970945e-03
  2.830489e+00    4.663187e-01   5.913875e-03
  2.832700e+00    4.657359e-01   5.912722e-03
  2.834910e+00    4.845904e-01   6.033305e-03
  2.837121e+00    4.812686e-01   6.014334e-03
  2.839331e+00    4.602920e-01   5.883023e-03
  2.841542e+00    4.658543e-01   5.919443e-03
  2.843752e+00    4.592235e-01   5.877974e-03
  2.845963e+00    4.595719e-01   5.880569e-03
  2.848173e+00    4.624718e-01   5.899188e-03
  2.850383e+00    4.698946e-01   5.946626e-03
  2.852594e+00    4.788978e-01   6.003252e-03
  2.854804e+00    4.837968e-01   6.033373e-03
  2.857015e+00    4.753054e-01   5.979754e-03
  2.859225e+00    4.786437e-01   6.000456e-03
  2.861436e+00    4.692569e-01   5.940683e-03
  2.863646e+00    4.630080e-01   5.901024e-03
  2.865857e+00    4.606408e-01   5.886257e-03
  2.868067e+00    4.557799e-01   5.855339e-03
  2.870278e+00    4.550478e-01   5.850292e-03
  2.872488e+00    4.547012e-01   5.846899e-03
  2.874698e+00    4.479638e-01   5.802404e-03
  2.876909e+00    4.626319e-01   5.895300e-03
  2.879119e+00    4.519671e-01   5.825361e-03
  2.881330e+00    4.609477e-01   5.881470e-03
  2.883540e+00    4.580856e-01   5.861819e-03
  2.885751e+00    4.573923e-01   5.855725e-03
  2.887961e+00    4.655416e-01   5.905775e-03
  2.890172e+00    4.822362e-01   6.009091e-03
  2.892382e+00    4.777601e-01   5.979322e-03
  2.894593e+00    4.599588e-01   5.865043e-03
  2.896803e+00    4.703728e-01   5.929056e-03
  2.899014e+00    4.635047e-01   5.883708e-03
  2.901224e+00    4.494048e-01   5.791554e-03
  2.903434e+00    4.595263e-01   5.854462e-03
  2.905645e+00    4.615139e-01   5.864883e-03
  2.907855e+00    4.584591e-01   5.843339e-03
  2.910066e+00    4.581634e-01   5.839380e-03
  2.912276e+00    4.680557e-01   5.899940e-03
  2.914487e+00    4.686306e-01   5.901079e-03
  2.916697e+00    4.676382e-01   5.892590e-03
  2.918908e+00    4.572178e-01   5.824564e-03
  2.921118e+00    4.574057e-01   5.823059e-03
  2.923329e+00    4.598650e-01   5.836379e-03
  2.925539e+00    4.696149e-01   5.895609e-03
  2.927749e+00    4.616136e-01   5.842848e-03
  2.929960e+00    4.528005e-01   5.784065e-03
  2.932170e+00    4.422532e-01   5.713957e-03
  2.934381e+00    4.673647e-01   5.871506e-03
  2.936591e+00    4.643653e-01   5.850030e-03
  2.938802e+00    4.621785e-01   5.833505e-03
  2.941012e+00    4.657386e-01   5.853580e-03
  2.943223e+00    4.650302e-01   5.846394e-03
  2.945433e+00    4.663901e-01   5.851165e-03
  2.947644e+00    4.589576e-01   5.800207e-03
  2.949854e+00    4.502010e-01   5.740362e-03
  2.952064e+00    4.473141e-01   5.717732e-03
  2.954275e+00    4.558551e-01   5.767650e-03
  2.956485e+00    4.576405e-01   5.774730e-03
  2.958696e+00    4.462128e-01   5.697853e-03
  2.960906e+00    4.536230e-01   5.740786e-03
  2.963117e+00    4.503169e-01   5.715371e-03
  2.965327e+00    4.675983e-01   5.820031e-03
  2.967538e+00    4.537710e-01   5.730451e-03
  2.969748e+00    4.498445e-01   5.702775e-03
  2.971959e+00    4.591067e-01   5.758042e-03
  2.974169e+00    4.592611e-01   5.756413e-03
  2.976379e+00    4.594917e-01   5.754929e-03
  2.978590e+00    4.487543e-01   5.684176e-03
  2.980800e+00    4.563172e-01   5.729058e-03
  2.983011e+00    4.501026e-01   5.687130e-03
  2.985221e+00    4.626555e-01   5.762706e-03
  2.987432e+00    4.539963e-01   5.705420e-03
  2.989642e+00    4.486031e-01   5.668811e-03
  2.991853e+00    4.618548e-01   5.748613e-03
  2.994063e+00    4.718064e-01   5.807265e-03
  2.996274e+00    4.486155e-01   5.659588e-03
  2.998484e+00    4.588299e-01   5.720919e-03
  3.000694e+00    4.582409e-01   5.713795e-03
  3.002905e+00    4.500257e-01   5.659412e-03
  3.005115e+00    4.584284e-01   5.709002e-03
  3.007326e+00    4.560710e-01   5.691145e-03
  3.009536e+00    4.583634e-01   5.702146e-03
  3.011747e+00    4.467334e-01   5.626464e-03
  3.013957e+00    4.482809e-01   5.633039e-03
  3.016168e+00    4.387780e-01   5.569797e-03
  3.018378e+00    4.581664e-01   5.688445e-03
  3.020589e+00    4.698085e-01   5.757024e-03
  3.022799e+00    4.517860e-01   5.642351e-03
  3.025010e+00    4.470189e-01   5.609283e-03
  3.027220e+00    4.576371e-01   5.672383e-03
  3.029430e+00    4.513886e-01   5.630280e-03
  3.031641e+00    4.609572e-01   5.686469e-03
  3.033851e+00    4.492583e-01   5.610357e-03
  3.036062e+00    4.636991e-01   5.696985e-03
  3.038272e+00    4.522772e-01   5.622795e-03
  3.040483e+00    4.506695e-01   5.609591e-03
  3.042693e+00    4.535717e-01   5.624333e-03
  3.044904e+00    4.592893e-01   5.655613e-03
  3.047114e+00    4.612941e-01   5.663097e-03
  3.049325e+00    4.639028e-01   5.674614e-03
  3.051535e+00    4.585561e-01   5.637401e-03
  3.053745e+00    4.498774e-01   5.579047e-03
  3.055956e+00    4.549729e-01   5.605951e-03
  3.058166e+00    4.525384e-01   5.586674e-03
  3.060377e+00    4.524285e-01   5.581211e-03
  3.062587e+00    4.447998e-01   5.529360e-03
  3.064798e+00    4.400612e-01   5.495617e-03
  3.067008e+00    4.406189e-01   5.494411e-03
  3.069219e+00    4.415480e-01   5.495721e-03
  3.071429e+00    4.543792e-01   5.571472e-03
  3.073640e+00    4.452035e-01   5.511643e-03
  3.075850e+00    4.459099e-01   5.512412e-03
  3.078060e+00    4.551246e-01   5.565966e-03
  3.080271e+00    4.525712e-01   5.546838e-03
  3.082481e+00    4.540538e-01   5.552461e-03
  3.084692e+00    4.440974e-01   5.487876e-03
  3.086902e+00    4.351754e-01   5.429283e-03
  3.089113e+00    4.563425e-01   5.556117e-03
  3.091323e+00    4.606141e-01   5.578675e-03
  3.093534e+00    4.586655e-01   5.563439e-03
  3.095744e+00    4.454448e-01   5.479313e-03
  3.097955e+00    4.410047e-01   5.448401e-03
  3.100165e+00    4.541629e-01   5.525730e-03
  3.102375e+00    4.431306e-01   5.454806e-03
  3.104586e+00    4.486181e-01   5.484973e-03
  3.106796e+00    4.413861e-01   5.437071e-03
  3.109007e+00    4.563945e-01   5.525497e-03
  3.111217e+00    4.427261e-01   5.438439e-03
  3.113428e+00    4.541782e-01   5.504893e-03
  3.115638e+00    4.410048e-01   5.421259e-03
  3.117849e+00    4.457980e-01   5.446887e-03
  3.120059e+00    4.483851e-01   5.459216e-03
  3.122270e+00    4.404990e-01   5.407757e-03
  3.124480e+00    4.442504e-01   5.427035e-03
  3.126691e+00    4.443664e-01   5.424194e-03
  3.128901e+00    4.468861e-01   5.436413e-03
  3.131111e+00    4.395475e-01   5.387774e-03
  3.133322e+00    4.445775e-01   5.415070e-03
  3.135532e+00    4.356904e-01   5.357297e-03
  3.137743e+00    4.463393e-01   5.418890e-03
  3.139953e+00    4.541323e-01   5.462251e-03
  3.142164e+00    4.507441e-01   5.453985e-03
  3.144374e+00    4.304074e-01   5.357524e-03
  3.146585e+00    4.334036e-01   5.390566e-03
  3.148795e+00    4.442911e-01   5.468643e-03
  3.151006e+00    4.445076e-01   5.478544e-03
  3.153216e+00    4.580030e-01   5.568367e-03
  3.155426e+00    4.285300e-01   5.392450e-03
  3.157637e+00    4.278541e-01   5.393617e-03
  3.159847e+00    4.340556e-01   5.437418e-03
  3.162058e+00    4.313668e-01   5.424927e-03
  3.164268e+00    4.418686e-01   5.494633e-03
  3.166479e+00    4.493064e-01   5.544384e-03
  3.168689e+00    4.357357e-01   5.463382e-03
  3.170900e+00    4.390572e-01   5.487308e-03
  3.173110e+00    4.409944e-01   5.502299e-03
  3.175321e+00    4.462199e-01   5.537294e-03
  3.177531e+00    4.581740e-01   5.613805e-03
  3.179741e+00    4.295699e-01   5.437792e-03
  3.181952e+00    4.400741e-01   5.505977e-03
  3.184162e+00    4.445238e-01   5.535965e-03
  3.186373e+00    4.457440e-01   5.545167e-03
  3.188583e+00    4.369158e-01   5.491780e-03
  3.190794e+00    4.316935e-01   5.460591e-03
  3.193004e+00    4.261611e-01   5.426723e-03
  3.195215e+00    4.287356e-01   5.444581e-03
  3.197425e+00    4.318128e-01   5.465277e-03
  3.199636e+00    4.272347e-01   5.435470e-03
  3.201846e+00    4.362607e-01   5.491990e-03
  3.204056e+00    4.260792e-01   5.428406e-03
  3.206267e+00    4.284975e-01   5.444636e-03
  3.208477e+00    4.315021e-01   5.464596e-03
  3.210688e+00    4.390168e-01   5.512830e-03
  3.212898e+00    4.348537e-01   5.487206e-03
  3.215109e+00    4.385116e-01   5.510999e-03
  3.217319e+00    4.212322e-01   5.401956e-03
  3.219530e+00    4.324997e-01   5.474124e-03
  3.221740e+00    4.164386e-01   5.372077e-03
  3.223951e+00    4.136991e-01   5.354824e-03
  3.226161e+00    4.229207e-01   5.414366e-03
  3.228372e+00    4.232342e-01   5.416909e-03
  3.230582e+00    4.169024e-01   5.376356e-03
  3.232792e+00    4.291333e-01   5.454876e-03
  3.235003e+00    4.296335e-01   5.458314e-03
  3.237213e+00    4.164541e-01   5.374040e-03
  3.239424e+00    4.167831e-01   5.376165e-03
  3.241634e+00    4.257462e-01   5.433778e-03
  3.243845e+00    4.243926e-01   5.425215e-03
  3.246055e+00    4.256138e-01   5.432731e-03
  3.248266e+00    4.234800e-01   5.419313e-03
  3.250476e+00    4.149272e-01   5.363993e-03
  3.252687e+00    4.171112e-01   5.378020e-03
  3.254897e+00    4.186657e-01   5.387922e-03
  3.257107e+00    4.167398e-01   5.375186e-03
  3.259318e+00    4.316012e-01   5.469956e-03
  3.261528e+00    4.362936e-01   5.499490e-03
  3.263739e+00    4.295597e-01   5.456307e-03
  3.265949e+00    4.325432e-01   5.475102e-03
  3.268160e+00    4.394695e-01   5.518349e-03
  3.270370e+00    4.291539e-01   5.452674e-03
  3.272581e+00    4.379823e-01   5.508199e-03
  3.274791e+00    4.282607e-01   5.446204e-03
  3.277002e+00    4.168852e-01   5.372826e-03
  3.279212e+00    4.309006e-01   5.461997e-03
  3.281422e+00    4.191532e-01   5.386475e-03
  3.283633e+00    4.128018e-01   5.344825e-03
  3.285843e+00    4.153945e-01   5.361251e-03
  3.288054e+00    4.165960e-01   5.368077e-03
  3.290264e+00    4.138491e-01   5.350024e-03
  3.292475e+00    4.251146e-01   5.421534e-03
  3.294685e+00    4.248772e-01   5.419360e-03
  3.296896e+00    4.328106e-01   5.468979e-03
  3.299106e+00    4.354580e-01   5.485110e-03
  3.301317e+00    4.227781e-01   5.403643e-03
  3.303527e+00    4.257823e-01   5.422337e-03
  3.305737e+00    4.203827e-01   5.386792e-03
  3.307948e+00    4.340676e-01   5.473107e-03
  3.310158e+00    4.165835e-01   5.360901e-03
  3.312369e+00    4.197734e-01   5.380489e-03
  3.314579e+00    4.115219e-01   5.326475e-03
  3.316790e+00    4.103164e-01   5.317948e-03
  3.319000e+00    4.146198e-01   5.344587e-03
  3.321211e+00    4.248269e-01   5.409377e-03
  3.323421e+00    4.268473e-01   5.421013e-03
  3.325632e+00    4.191285e-01   5.370883e-03
  3.327842e+00    4.234456e-01   5.397557e-03
  3.330052e+00    4.392417e-01   5.496214e-03
  3.332263e+00    4.257977e-01   5.410451e-03
  3.334473e+00    4.127953e-01   5.326290e-03
  3.336684e+00    4.222412e-01   5.385609e-03
  3.338894e+00    4.248137e-01   5.401155e-03
  3.341105e+00    4.113176e-01   5.313473e-03
  3.343315e+00    3.904459e-01   5.175814e-03
  3.345526e+00    4.184034e-01   5.356984e-03
  3.347736e+00    4.192171e-01   5.360804e-03
  3.349947e+00    4.294181e-01   5.424674e-03
  3.352157e+00    4.259222e-01   5.401405e-03
  3.354368e+00    4.137346e-01   5.322261e-03
  3.356578e+00    4.157533e-01   5.334213e-03
  3.358788e+00    4.176477e-01   5.345023e-03
  3.360999e+00    4.174767e-01   5.342674e-03
  3.363209e+00    4.176005e-01   5.342468e-03
  3.365420e+00    4.215052e-01   5.365856e-03
  3.367630e+00    4.102339e-01   5.292627e-03
  3.369841e+00    4.054843e-01   5.260488e-03
  3.372051e+00    4.233462e-01   5.373091e-03
  3.374262e+00    4.276007e-01   5.397583e-03
  3.376472e+00    4.026431e-01   5.235305e-03
  3.378683e+00    4.045453e-01   5.245146e-03
  3.380893e+00    4.202133e-01   5.343410e-03
  3.383103e+00    4.213613e-01   5.347989e-03
  3.385314e+00    4.096977e-01   5.271231e-03
  3.387524e+00    4.214158e-01   5.343338e-03
  3.389735e+00    4.094282e-01   5.264190e-03
  3.391945e+00    4.094455e-01   5.260616e-03
  3.394156e+00    4.071084e-01   5.241401e-03
  3.396366e+00    4.176635e-01   5.305484e-03
  3.398577e+00    4.105717e-01   5.257207e-03
  3.400787e+00    4.085452e-01   5.256086e-03
  3.402998e+00    4.091094e-01   5.297750e-03
  3.405208e+00    4.015644e-01   5.269219e-03
  3.407418e+00    3.874612e-01   5.191389e-03
  3.409629e+00    3.821327e-01   5.169182e-03
  3.411839e+00    3.860805e-01   5.207403e-03
  3.414050e+00    3.951974e-01   5.279480e-03
  3.416260e+00    3.828330e-01   5.205771e-03
  3.418471e+00    3.808260e-01   5.201343e-03
  3.420681e+00    3.779868e-01   5.190251e-03
  3.422892e+00    3.857337e-01   5.251110e-03
  3.425102e+00    3.958230e-01   5.327239e-03
  3.427313e+00    3.781319e-01   5.213934e-03
  3.429523e+00    3.742288e-01   5.193862e-03
  3.431733e+00    3.782770e-01   5.228484e-03
  3.433944e+00    3.911744e-01   5.323427e-03
  3.436154e+00    3.818329e-01   5.265712e-03
  3.438365e+00    3.847207e-01   5.291516e-03
  3.440575e+00    3.898160e-01   5.332468e-03
  3.442786e+00    3.914512e-01   5.349313e-03
  3.444996e+00    3.892119e-01   5.339613e-03
  3.447207e+00    3.604124e-01   5.143436e-03
  3.449417e+00    3.700894e-01   5.252763e-03
  3.451628e+00    3.619432e-01   5.223808e-03
  3.453838e+00    3.607610e-01   5.236209e-03
  3.456049e+00    3.690735e-01   5.320170e-03
  3.458259e+00    3.777915e-01   5.404898e-03
  3.460469e+00    3.689744e-01   5.361348e-03
  3.462680e+00    3.712987e-01   5.397360e-03
  3.464890e+00    3.733819e-01   5.430457e-03
  3.467101e+00    3.718453e-01   5.436847e-03
  3.469311e+00    3.814325e-01   5.523282e-03
  3.471522e+00    4.003408e-01   5.675435e-03
  3.473732e+00    4.119367e-01   5.773731e-03
  3.475943e+00    3.946471e-01   5.667205e-03
  3.478153e+00    4.046174e-01   5.754096e-03
  3.480364e+00    3.963982e-01   5.710569e-03
  3.482574e+00    4.133113e-01   5.846631e-03
  3.484784e+00    4.135214e-01   5.863050e-03
  3.486995e+00    4.332403e-01   6.016614e-03
  3.489205e+00    4.340272e-01   6.036942e-03
  3.491416e+00    4.519519e-01   6.175657e-03
  3.493626e+00    4.482933e-01   6.165465e-03
  3.495837e+00    4.343500e-01   6.083474e-03
  3.498047e+00    4.451754e-01   6.173281e-03
  3.500258e+00    4.517492e-01   6.233284e-03
  3.502468e+00    4.645267e-01   6.335426e-03
  3.504679e+00    4.597323e-01   6.317095e-03
  3.506889e+00    4.622455e-01   6.348732e-03
  3.509099e+00    4.684527e-01   6.405530e-03
  3.511310e+00    4.815802e-01   6.509211e-03
  3.513520e+00    4.790571e-01   6.506520e-03
  3.515731e+00    4.762741e-01   6.501808e-03
  3.517941e+00    4.977777e-01   6.661441e-03
  3.520152e+00    4.927879e-01   6.642265e-03
  3.522362e+00    5.102902e-01   6.773809e-03
  3.524573e+00    5.147024e-01   6.817435e-03
  3.526783e+00    5.090451e-01   6.793207e-03
  3.528994e+00    4.936851e-01   6.701886e-03
  3.531204e+00    5.161304e-01   6.864910e-03
  3.533414e+00    5.273454e-01   6.951222e-03
  3.535625e+00    5.348590e-01   7.013025e-03
  3.537835e+00    5.287943e-01   6.985194e-03
  3.540046e+00    5.408298e-01   7.073232e-03
  3.542256e+00    5.422688e-01   7.090214e-03
  3.544467e+00    5.545412e-01   7.177753e-03
  3.546677e+00    5.461537e-01   7.130927e-03
  3.548888e+00    5.308006e-01   7.037431e-03
  3.551098e+00    5.344427e-01   7.068811e-03
  3.553309e+00    5.245302e-01   7.011010e-03
  3.555519e+00    5.427732e-01   7.143268e-03
  3.557729e+00    5.325429e-01   7.087313e-03
  3.559940e+00    5.277044e-01   7.066520e-03
  3.562150e+00    5.130365e-01   6.979064e-03
  3.564361e+00    5.372846e-01   7.155392e-03
  3.566571e+00    5.428003e-01   7.205990e-03
  3.568782e+00    5.211377e-01   7.074639e-03
  3.570992e+00    5.227154e-01   7.098929e-03
  3.573203e+00    5.237383e-01   7.119832e-03
  3.575413e+00    5.271918e-01   7.156936e-03
  3.577624e+00    5.357781e-01   7.229106e-03
  3.579834e+00    5.440568e-01   7.298734e-03
  3.582045e+00    5.280891e-01   7.204775e-03
  3.584255e+00    5.314355e-01   7.241528e-03
  3.586465e+00    5.468885e-01   7.360137e-03
  3.588676e+00    5.518436e-01   7.407807e-03
  3.590886e+00    5.509477e-01   7.415720e-03
  3.593097e+00    5.343776e-01   7.317807e-03
  3.595307e+00    5.257945e-01   7.272614e-03
  3.597518e+00    5.328321e-01   7.335298e-03
  3.599728e+00    5.281677e-01   7.317095e-03
  3.601939e+00    5.397274e-01   7.410867e-03
  3.604149e+00    5.487122e-01   7.486891e-03
  3.606360e+00    5.348894e-01   7.406109e-03
  3.608570e+00    5.460520e-01   7.497309e-03
  3.610780e+00    5.426304e-01   7.484911e-03
  3.612991e+00    5.206336e-01   7.341529e-03
  3.615201e+00    5.193782e-01   7.342298e-03
  3.617412e+00    5.389876e-01   7.486922e-03
  3.619622e+00    5.413253e-01   7.509146e-03
  3.621833e+00    5.433829e-01   7.530184e-03
  3.624043e+00    5.272912e-01   7.427275e-03
  3.626254e+00    5.303550e-01   7.458490e-03
  3.628464e+00    5.231459e-01   7.418492e-03
  3.630675e+00    5.327003e-01   7.500021e-03
  3.632885e+00    5.296801e-01   7.493144e-03
  3.635095e+00    5.212141e-01   7.447221e-03
  3.637306e+00    5.127662e-01   7.400716e-03
  3.639516e+00    5.219107e-01   7.480790e-03
  3.641727e+00    5.278450e-01   7.537683e-03
  3.643937e+00    5.292323e-01   7.562081e-03
  3.646148e+00    5.465809e-01   7.699820e-03
  3.648358e+00    5.324612e-01   7.614578e-03
  3.650569e+00    5.422094e-01   7.698815e-03
  3.652779e+00    5.350519e-01   7.662640e-03
  3.654990e+00    5.514467e-01   7.794302e-03
  3.657200e+00    5.440956e-01   7.757219e-03
  3.659410e+00    5.352696e-01   7.709085e-03
  3.661621e+00    5.329401e-01   7.707417e-03
  3.663831e+00    5.210373e-01   7.635819e-03
  3.666042e+00    5.296490e-01   7.713775e-03
  3.668252e+00    5.419329e-01   7.818105e-03
  3.670463e+00    5.282340e-01   7.733879e-03
  3.672673e+00    5.285419e-01   7.751517e-03
  3.674884e+00    5.097294e-01   7.627393e-03
  3.677094e+00    5.168257e-01   7.695624e-03
  3.679305e+00    5.199889e-01   7.734532e-03
  3.681515e+00    5.273473e-01   7.804634e-03
  3.683726e+00    5.377522e-01   7.897173e-03
  3.685936e+00    5.475802e-01   7.985004e-03
  3.688146e+00    5.137682e-01   7.750157e-03
  3.690357e+00    5.291644e-01   7.881307e-03
  3.692567e+00    5.296331e-01   7.901007e-03
  3.694778e+00    5.175760e-01   7.826467e-03
  3.696988e+00    5.233073e-01   7.885586e-03
  3.699199e+00    5.271320e-01   7.930665e-03
  3.701409e+00    5.267808e-01   7.944394e-03
  3.703620e+00    5.305417e-01   7.989096e-03
  3.705830e+00    5.181083e-01   7.911276e-03
  3.708041e+00    5.075036e-01   7.846192e-03
  3.710251e+00    5.199752e-01   7.958615e-03
  3.712461e+00    5.166716e-01   7.950020e-03
  3.714672e+00    5.324003e-01   8.086954e-03
  3.716882e+00    5.249310e-01   8.046868e-03
  3.719093e+00    5.074977e-01   7.929017e-03
  3.721303e+00    5.126452e-01   7.985980e-03
  3.723514e+00    5.013376e-01   7.914316e-03
  3.725724e+00    5.197445e-01   8.075556e-03
  3.727935e+00    5.114207e-01   8.027946e-03
  3.730145e+00    5.092152e-01   8.027808e-03
  3.732356e+00    5.171443e-01   8.107653e-03
  3.734566e+00    5.217448e-01   8.161256e-03
  3.736776e+00    5.037676e-01   8.037000e-03
  3.738987e+00    5.002919e-01   8.026695e-03
  3.741197e+00    4.994424e-01   8.037686e-03
  3.743408e+00    5.240785e-01   8.251709e-03
  3.745618e+00    5.317212e-01   8.330377e-03
  3.747829e+00    4.958241e-01   8.062060e-03
  3.750039e+00    4.915252e-01   8.045048e-03
  3.752250e+00    5.165322e-01   8.265692e-03
  3.754460e+00    5.022073e-01   8.168719e-03
  3.756671e+00    5.089640e-01   8.242226e-03
  3.758881e+00    5.058159e-01   8.235332e-03
  3.761091e+00    4.968365e-01   8.180816e-03
  3.763302e+00    5.193598e-01   8.383466e-03
  3.765512e+00    5.156177e-01   8.372608e-03
  3.767723e+00    5.197689e-01   8.425821e-03
  3.769933e+00    5.230505e-01   8.472088e-03
  3.772144e+00    4.989788e-01   8.294246e-03
  3.774354e+00    5.222710e-01   8.505784e-03
  3.776565e+00    5.076166e-01   8.405492e-03
  3.778775e+00    5.187506e-01   8.517440e-03
  3.780986e+00    5.024165e-01   8.402548e-03
  3.783196e+00    5.225520e-01   8.589869e-03
  3.785407e+00    5.084508e-01   8.493734e-03
  3.787617e+00    5.061100e-01   8.495002e-03
  3.789827e+00    4.782215e-01   8.277604e-03
  3.792038e+00    5.084137e-01   8.555915e-03
  3.794248e+00    5.107158e-01   8.596628e-03
  3.796459e+00    4.939151e-01   8.475251e-03
  3.798669e+00    5.120113e-01   8.650663e-03
  3.800880e+00    5.143099e-01   8.691877e-03
  3.803090e+00    5.096005e-01   8.673972e-03
  3.805301e+00    5.229065e-01   8.809072e-03
  3.807511e+00    5.099192e-01   8.721238e-03
  3.809722e+00    5.035670e-01   8.689044e-03
  3.811932e+00    5.007010e-01   8.686549e-03
  3.814142e+00    5.088512e-01   8.780033e-03
  3.816353e+00    4.880144e-01   8.621007e-03
  3.818563e+00    4.813332e-01   8.584468e-03
  3.820774e+00    4.843619e-01   8.634252e-03
  3.822984e+00    4.969859e-01   8.769359e-03
  3.825195e+00    5.030379e-01   8.846540e-03
  3.827405e+00    5.041416e-01   8.880228e-03
  3.829616e+00    4.836636e-01   8.721742e-03
  3.831826e+00    4.896385e-01   8.799394e-03
  3.834037e+00    5.117739e-01   9.021012e-03
  3.836247e+00    4.790784e-01   8.752298e-03
  3.838457e+00    4.967593e-01   8.937404e-03
  3.840668e+00    5.053664e-01   9.039915e-03
  3.842878e+00    4.938909e-01   8.962149e-03
  3.845089e+00    4.865336e-01   8.920456e-03
  3.847299e+00    5.085707e-01   9.146397e-03
  3.849510e+00    4.938361e-01   9.038748e-03
  3.851720e+00    4.936448e-01   9.058403e-03
  3.853931e+00    4.858421e-01   9.005264e-03
  3.856141e+00    4.948297e-01   9.107307e-03
  3.858352e+00    5.007899e-01   9.181275e-03
  3.860562e+00    5.205175e-01   9.380182e-03
  3.862772e+00    5.063454e-01   9.271502e-03
  3.864983e+00    4.772416e-01   9.020415e-03
  3.867193e+00    4.780053e-01   9.047135e-03
  3.869404e+00    4.805207e-01   9.090343e-03
  3.871614e+00    5.024266e-01   9.315476e-03
  3.873825e+00    4.778692e-01   9.104947e-03
  3.876035e+00    4.887008e-01   9.228094e-03
  3.878246e+00    4.783102e-01   9.154771e-03
  3.880456e+00    5.049866e-01   9.435993e-03
  3.882667e+00    4.985168e-01   9.404915e-03
  3.884877e+00    4.661997e-01   9.123912e-03
  3.887087e+00    4.760191e-01   9.248960e-03
  3.889298e+00    4.808885e-01   9.326158e-03
  3.891508e+00    5.066727e-01   9.603919e-03
  3.893719e+00    5.120062e-01   9.686068e-03
  3.895929e+00    4.905000e-01   9.511864e-03
  3.898140e+00    5.106047e-01   9.737194e-03
  3.900350e+00    4.719463e-01   9.392801e-03
  3.902561e+00    5.051545e-01   9.750492e-03
  3.904771e+00    5.184179e-01   9.911470e-03
  3.906982e+00    4.963039e-01   9.731165e-03
  3.909192e+00    4.923637e-01   9.726009e-03
  3.911403e+00    4.653712e-01   9.488895e-03
  3.913613e+00    5.084171e-01   9.952915e-03
  3.915823e+00    4.834470e-01   9.740097e-03
  3.918034e+00    4.945040e-01   9.886347e-03
  3.920244e+00    5.130921e-01   1.010700e-02
  3.922455e+00    4.917217e-01   9.930613e-03
  3.924665e+00    4.893321e-01   9.942795e-03
  3.926876e+00    4.955952e-01   1.004371e-02
  3.929086e+00    4.754353e-01   9.874195e-03
  3.931297e+00    4.597473e-01   9.743709e-03
  3.933507e+00    4.601497e-01   9.776058e-03
  3.935718e+00    4.670990e-01   9.877753e-03
  3.937928e+00    4.917305e-01   1.016441e-02
  3.940138e+00    4.849601e-01   1.012346e-02
  3.942349e+00    5.044657e-01   1.035549e-02
  3.944559e+00    5.029153e-01   1.036997e-02
  3.946770e+00    5.063196e-01   1.043581e-02
  3.948980e+00    5.076032e-01   1.048044e-02
  3.951191e+00    4.846100e-01   1.027114e-02
  3.953401e+00    4.715753e-01   1.016289e-02
  3.955612e+00    4.932526e-01   1.042570e-02
  3.957822e+00    4.711758e-01   1.022098e-02
  3.960033e+00    5.021057e-01   1.058419e-02
  3.962243e+00    4.758289e-01   1.033607e-02
  3.964453e+00    4.803166e-01   1.041760e-02
  3.966664e+00    4.688208e-01   1.032501e-02
  3.968874e+00    4.819937e-01   1.049733e-02
  3.971085e+00    4.938624e-01   1.064793e-02
  3.973295e+00    5.049304e-01   1.078841e-02
  3.975506e+00    5.132071e-01   1.089878e-02
  3.977716e+00    4.785128e-01   1.054577e-02
  3.979927e+00    4.942986e-01   1.074059e-02
  3.982137e+00    4.952012e-01   1.077297e-02
  3.984348e+00    4.873897e-01   1.071017e-02
  3.986558e+00    4.859656e-01   1.071694e-02
  3.988768e+00    5.392158e-01   1.131307e-02
  3.990979e+00    5.098091e-01   1.102358e-02
  3.993189e+00    5.157444e-01   1.111138e-02
  3.995400e+00    4.916569e-01   1.087251e-02
  3.997610e+00    5.019985e-01   1.101655e-02
  3.999821e+00    4.608010e-01   1.059143e-02
  4.002031e+00    4.862306e-01   1.091820e-02
  4.004242e+00    4.692503e-01   1.076371e-02
  4.006452e+00    4.645799e-01   1.074854e-02
  4.008663e+00    5.044852e-01   1.124148e-02
  4.010873e+00    4.809870e-01   1.101640e-02
  4.013084e+00    5.184015e-01   1.147915e-02
  4.015294e+00    4.841984e-01   1.113512e-02
  4.017504e+00    4.584363e-01   1.087533e-02
  4.019715e+00    5.165567e-01   1.158819e-02
  4.021925e+00    4.926197e-01   1.135991e-02
  4.024136e+00    5.054359e-01   1.155128e-02
  4.026346e+00    4.908299e-01   1.142770e-02
  4.028557e+00    4.718397e-01   1.124817e-02
  4.030767e+00    4.586564e-01   1.113435e-02
  4.032978e+00    4.705999e-01   1.132404e-02
  4.035188e+00    4.690697e-01   1.135115e-02
  4.037399e+00    4.580950e-01   1.126385e-02
  4.039609e+00    4.824033e-01   1.160645e-02
  4.041819e+00    4.886217e-01   1.173011e-02
  4.044030e+00    4.590334e-01   1.141810e-02
  4.046240e+00    5.051655e-01   1.202899e-02
  4.048451e+00    4.714275e-01   1.167080e-02
  4.050661e+00    4.552184e-01   1.151821e-02
  4.052872e+00    5.134668e-01   1.228743e-02
  4.055082e+00    4.951068e-01   1.212001e-02
  4.057293e+00    4.875295e-01   1.208087e-02
  4.059503e+00    5.035056e-01   1.233301e-02
  4.061714e+00    4.709001e-01   1.198285e-02
  4.063924e+00    5.150879e-01   1.259113e-02
  4.066134e+00    5.014699e-01   1.248202e-02
  4.068345e+00    4.913229e-01   1.241482e-02
  4.070555e+00    4.913755e-01   1.247518e-02
  4.072766e+00    4.932465e-01   1.256066e-02
  4.074976e+00    4.851557e-01   1.251899e-02
  4.077187e+00    5.159577e-01   1.297476e-02
  4.079397e+00    4.723450e-01   1.247764e-02
  4.081608e+00    4.616881e-01   1.240028e-02
  4.083818e+00    4.690320e-01   1.256339e-02
  4.086029e+00    4.842757e-01   1.283329e-02
  4.088239e+00    4.495573e-01   1.243132e-02
  4.090449e+00    4.569831e-01   1.260148e-02
  4.092660e+00    4.773912e-01   1.295068e-02
  4.094870e+00    4.231220e-01   1.226021e-02
  4.097081e+00    4.739541e-01   1.304672e-02
  4.099291e+00    4.785455e-01   1.316408e-02
  4.101502e+00    5.069952e-01   1.360048e-02
  4.103712e+00    4.630633e-01   1.304605e-02
  4.105923e+00    4.515755e-01   1.293313e-02
  4.108133e+00    5.063033e-01   1.374723e-02
  4.110344e+00    4.926791e-01   1.361298e-02
  4.112554e+00    5.061685e-01   1.385260e-02
  4.114764e+00    4.759350e-01   1.348635e-02
  4.116975e+00    4.942172e-01   1.379715e-02
  4.119185e+00    5.455076e-01   1.455424e-02
  4.121396e+00    5.293939e-01   1.439709e-02
  4.123606e+00    4.831825e-01   1.381067e-02
  4.125817e+00    5.040991e-01   1.416554e-02
  4.128027e+00    4.936977e-01   1.407773e-02
  4.130238e+00    4.645867e-01   1.371496e-02
  4.132448e+00    4.921755e-01   1.417748e-02
  4.134659e+00    4.825314e-01   1.409832e-02
  4.136869e+00    5.002229e-01   1.441847e-02
  4.139080e+00    4.492588e-01   1.372591e-02
  4.141290e+00    4.466368e-01   1.374630e-02
  4.143500e+00    5.183009e-01   1.487640e-02
  4.145711e+00    4.912245e-01   1.455040e-02
  4.147921e+00    4.632616e-01   1.419483e-02
  4.150132e+00    5.334021e-01   1.530439e-02
  4.152342e+00    5.238878e-01   1.524057e-02
  4.154553e+00    5.574682e-01   1.579650e-02
  4.156763e+00    4.651941e-01   1.450138e-02
  4.158974e+00    5.127573e-01   1.530095e-02
  4.161184e+00    5.308456e-01   1.564612e-02
  4.163395e+00    4.624363e-01   1.467767e-02
  4.165605e+00    4.587018e-01   1.469420e-02
  4.167815e+00    4.620357e-01   1.482445e-02
  4.170026e+00    5.237417e-01   1.586653e-02
  4.172236e+00    4.537576e-01   1.484826e-02
  4.174447e+00    4.602795e-01   1.503606e-02
  4.176657e+00    4.796411e-01   1.543292e-02
  4.178868e+00    4.846886e-01   1.560163e-02
  4.181078e+00    5.406890e-01   1.657107e-02
  4.183289e+00    5.308866e-01   1.651430e-02
  4.185499e+00    5.244267e-01   1.651043e-02
  4.187710e+00    4.758128e-01   1.581878e-02
  4.189920e+00    4.211126e-01   1.497119e-02
  4.192130e+00    4.813867e-01   1.610459e-02
  4.194341e+00    4.301888e-01   1.531748e-02
  4.196551e+00    4.819454e-01   1.631538e-02
  4.198762e+00    4.994291e-01   1.671433e-02
  4.200972e+00    4.737596e-01   1.638421e-02
  4.203183e+00    5.095730e-01   1.710433e-02
  4.205393e+00    4.228054e-01   1.568409e-02
  4.207604e+00    4.272389e-01   1.587363e-02
  4.209814e+00    4.426948e-01   1.626884e-02
  4.212025e+00    5.287691e-01   1.790615e-02
  4.214235e+00    5.412714e-01   1.824548e-02
  4.216445e+00    5.191889e-01   1.799841e-02
  4.218656e+00    4.610453e-01   1.708759e-02
  4.220866e+00    5.066326e-01   1.804533e-02
  4.223077e+00    5.165365e-01   1.836110e-02
  4.225287e+00    4.030976e-01   1.634767e-02
  4.227498e+00    4.798799e-01   1.797644e-02
  4.229708e+00    4.397380e-01   1.734826e-02
  4.231919e+00    4.773565e-01   1.822449e-02
  4.234129e+00    4.439406e-01   1.772235e-02
  4.236340e+00    4.865766e-01   1.871287e-02
  4.238550e+00    4.849123e-01   1.884554e-02
  4.240761e+00    5.240908e-01   1.976546e-02
  4.242971e+00    4.817596e-01   1.912372e-02
  4.245181e+00    4.854878e-01   1.937811e-02
  4.247392e+00    4.735067e-01   1.931648e-02
  4.249602e+00    4.470184e-01   1.895488e-02
  4.251813e+00    4.554031e-01   1.931996e-02
  4.254023e+00    4.233533e-01   1.881556e-02
  4.256234e+00    5.105929e-01   2.088423e-02
  4.258444e+00    4.820932e-01   2.050567e-02
  4.260655e+00    4.518733e-01   2.007041e-02
  4.262865e+00    4.746910e-01   2.080440e-02
  4.265076e+00    5.126309e-01   2.186549e-02
  4.267286e+00    5.218655e-01   2.232372e-02
  4.269496e+00    3.822267e-01   1.933794e-02
  4.271707e+00    5.188293e-01   2.280825e-02
  4.273917e+00    5.192201e-01   2.311217e-02
  4.276128e+00    4.090525e-01   2.078614e-02
  4.278338e+00    4.248013e-01   2.146597e-02
  4.280549e+00    4.334979e-01   2.199559e-02
  4.282759e+00    4.323079e-01   2.228050e-02
  4.284970e+00    3.657199e-01   2.079665e-02
  4.287180e+00    4.363492e-01   2.298789e-02
  4.289391e+00    4.537683e-01   2.361832e-02
  4.291601e+00    4.753977e-01   2.436820e-02
  4.293811e+00    4.982223e-01   2.514084e-02
  4.296022e+00    5.692759e-01   2.709013e-02
  4.298232e+00    5.445186e-01   2.671651e-02
  4.300443e+00    4.972081e-01   2.574030e-02
  4.302653e+00    4.932404e-01   2.585894e-02
  4.304864e+00    4.567591e-01   2.510016e-02
  4.307074e+00    4.494609e-01   2.512274e-02
  4.309285e+00    4.084335e-01   2.416555e-02
  4.311495e+00    4.015957e-01   2.418680e-02
  4.313706e+00    5.089165e-01   2.748343e-02
  4.315916e+00    4.998459e-01   2.750559e-02
  4.318126e+00    4.488185e-01   2.632116e-02
  4.320337e+00    4.625892e-01   2.699244e-02
  4.322547e+00    5.033493e-01   2.845582e-02
  4.324758e+00    4.959633e-01   2.853909e-02
  4.326968e+00    5.144144e-01   2.939221e-02
  4.329179e+00    4.814208e-01   2.874883e-02
  4.331389e+00    4.334131e-01   2.759115e-02
  4.333600e+00    4.952618e-01   2.984635e-02
  4.335810e+00    5.316489e-01   3.129126e-02
  4.338021e+00    5.314115e-01   3.168523e-02
  4.340231e+00    4.808588e-01   3.051822e-02
  4.342442e+00    4.740449e-01   3.070873e-02
  4.344652e+00    3.983917e-01   2.853339e-02
  4.346862e+00    3.652195e-01   2.770223e-02
  4.349073e+00    4.742472e-01   3.202718e-02
  4.351283e+00    3.885961e-01   2.942364e-02
  4.353494e+00    4.902295e-01   3.355895e-02
  4.355704e+00    3.560158e-01   2.905931e-02
  4.357915e+00    3.466283e-01   2.915086e-02
  4.360125e+00    4.702748e-01   3.453288e-02
  4.362336e+00    4.822257e-01   3.560762e-02
  4.364546e+00    3.761543e-01   3.202035e-02
  4.366757e+00    4.041489e-01   3.385147e-02
  4.368967e+00    3.670039e-01   3.290143e-02
  4.371177e+00    3.734156e-01   3.389324e-02
  4.373388e+00    3.919255e-01   3.549891e-02
  4.375598e+00    3.653868e-01   3.505827e-02
  4.377809e+00    4.837251e-01   4.135727e-02
  4.380019e+00    3.954024e-01   3.833563e-02
  4.382230e+00    3.965791e-01   3.946155e-02
  4.384440e+00    3.366257e-01   3.740223e-02
  4.386651e+00    4.079179e-01   4.244209e-02
  4.388861e+00    6.871985e-01   5.693626e-02
  4.391072e+00    6.311526e-01   5.648461e-02
  4.393282e+00    5.146724e-01   5.297614e-02
  4.395492e+00    4.770771e-01   5.312452e-02
  4.397703e+00    3.707382e-01   4.897407e-02
  4.399913e+00    4.275684e-01   5.525311e-02
  4.402124e+00    4.586577e-01   6.047119e-02
  4.404334e+00    3.788063e-01   5.841609e-02
  4.406545e+00    2.298434e-01   4.889313e-02
  4.408755e+00    3.870771e-01   6.881211e-02
  4.410966e+00    4.081832e-01   7.820253e-02
  4.413176e+00    4.284376e-01   9.068888e-02
  4.415387e+00   -1.178812e-01            nan
  4.417597e+00   -1.757897e+00            nan
  4.419807e+00   -3.766224e-01            nan
