# == pyFAI calibration ==
# Distance Sample to Detector: 0.216 m
# PONI: 1.166e-01, 1.308e-01 m
# Rotations: 0.000000 0.000000 0.000000 rad
# 
# == Fit2d calibration ==
# Distance Sample-beamCenter: 216.000 mm
# Center: x=1744.293, y=1555.000 pix
# Tilt: 0.000 deg  TiltPlanRot: 0.000 deg
# 
# Detector Eiger 9M	 PixelSize= 7.500e-05, 7.500e-05 m
#    Detector has a mask: True 
#    Detector has a dark current: False 
#    detector has a flat field: False 
# 
# Wavelength: 9.8e-11 m
# Mask applied: from detector
# Dark current applied: False
# Flat field applied: False
# Polarization factor: None
# Normalization factor: 1.0
# 
# Headers of the input frame:
# {
# "_array_data.header_convention": "SLS_1.0",
# "_array_data.header_contents": "# Detector: Dectris Eiger 9M, S/N E-18-0102\r\n# Pixel_size 75e-6 m x 75e-6 m\r\n# Silicon sensor, thickness 0.000450 m\r\n# Exposure_time 0.024997 s\r\n# Exposure_period 0.025000 s\r\n# Count_cutoff 62318 counts\r\n# Wavelength 0.980106 A\r\n# Detector_distance 0.215992 m\r\n# Beam_xy (1555, 1744) pixels\r\n# Start_angle 0.000000 deg.\r\n# Angle_increment 0.000000 deg.",
# "Content-Type": "application/octet-stream;",
# "conversions": "x-CBF_BYTE_OFFSET",
# "Content-Transfer-Encoding": "BINARY",
# "X-Binary-Size": "10166596",
# "X-Binary-ID": "1",
# "X-Binary-Element-Type": "signed 32-bit integer",
# "X-Binary-Element-Byte-Order": "LITTLE_ENDIAN",
# "Content-MD5": "8LC150cK7Wzh5lGTub4J9w==",
# "X-Binary-Number-of-Elements": "10166590",
# "X-Binary-Size-Fastest-Dimension": "3110",
# "X-Binary-Size-Second-Dimension": "3269",
# "X-Binary-Size-Padding": "4095"
# }
# --> H:/Proxima2a_2019-04-05/RAW_DATA/C5_gel17_position5/C5_mesh_1_data.cbf/C5_mesh_1_data.cbf000140.dat
#        q_A^-1              I           sigma 
  1.105228e-03    7.164525e-01   4.580160e-01
  3.315685e-03    1.440580e+00   3.948337e-01
  5.526141e-03    1.185925e+00   2.770134e-01
  7.736597e-03    1.240312e+00   2.393237e-01
  9.947054e-03    1.258991e+00   2.125631e-01
  1.215751e-02    1.635888e+00   2.191015e-01
  1.436797e-02    1.613944e+00   2.001797e-01
  1.657842e-02    1.585614e+00   1.846899e-01
  1.878888e-02    1.657517e+00   1.773751e-01
  2.099934e-02    1.343531e+00   1.510866e-01
  2.320979e-02    1.339837e+00   1.435023e-01
  2.542025e-02    1.109933e+00   1.248124e-01
  2.763070e-02    1.304701e+00   1.297914e-01
  2.984116e-02    1.447044e+00   1.315277e-01
  3.205162e-02    1.419195e+00   1.256919e-01
  3.426207e-02    1.435992e+00   1.222787e-01
  3.647253e-02    1.434292e+00   1.184428e-01
  3.868299e-02    1.560141e+00   1.199575e-01
  4.089344e-02    1.415041e+00   1.111131e-01
  4.310390e-02    1.317774e+00   1.044346e-01
  4.531436e-02    1.475745e+00   1.077883e-01
  4.752481e-02    1.462605e+00   1.047810e-01
  4.973527e-02    1.376049e+00   9.935020e-02
  5.194572e-02    1.442903e+00   9.954546e-02
  5.415618e-02    1.385350e+00   9.552532e-02
  5.636664e-02    1.492720e+00   9.719734e-02
  5.857709e-02    1.489800e+00   9.525299e-02
  6.078755e-02    1.474563e+00   9.302271e-02
  6.299801e-02    1.410502e+00   8.936826e-02
  6.520846e-02    1.424520e+00   8.827646e-02
  6.741892e-02    1.540800e+00   9.028652e-02
  6.962938e-02    1.555628e+00   8.927281e-02
  7.183983e-02    1.393543e+00   8.318257e-02
  7.405029e-02    1.525288e+00   8.571506e-02
  7.626074e-02    1.430885e+00   8.180741e-02
  7.847120e-02    1.529914e+00   8.338877e-02
  8.068166e-02    1.448952e+00   8.003232e-02
  8.289211e-02    1.422272e+00   7.822724e-02
  8.510257e-02    1.420112e+00   7.714551e-02
  8.731303e-02    1.464788e+00   7.734852e-02
  8.952348e-02    1.496969e+00   7.722432e-02
  9.173394e-02    1.392252e+00   7.356866e-02
  9.394439e-02    1.454988e+00   7.431543e-02
  9.615485e-02    1.501725e+00   7.462510e-02
  9.836531e-02    1.536510e+00   7.462942e-02
  1.005758e-01    1.525376e+00   7.353735e-02
  1.027862e-01    1.552868e+00   7.339307e-02
  1.049967e-01    1.611329e+00   7.396939e-02
  1.072071e-01    1.612991e+00   7.323974e-02
  1.094176e-01    1.560564e+00   7.130718e-02
  1.116280e-01    1.461425e+00   6.831688e-02
  1.138385e-01    1.461733e+00   6.765616e-02
  1.160490e-01    1.520737e+00   6.834693e-02
  1.182594e-01    1.570236e+00   6.879673e-02
  1.204699e-01    1.586167e+00   6.850704e-02
  1.226803e-01    1.511187e+00   6.626032e-02
  1.248908e-01    1.509991e+00   6.564455e-02
  1.271012e-01    1.560637e+00   6.615219e-02
  1.293117e-01    1.458626e+00   6.340387e-02
  1.315222e-01    1.505519e+00   6.386990e-02
  1.337326e-01    1.523931e+00   6.372476e-02
  1.359431e-01    1.677460e+00   6.689686e-02
  1.381535e-01    1.706796e+00   6.838509e-02
  1.403640e-01    1.627586e+00   6.706775e-02
  1.425744e-01    1.614026e+00   6.689445e-02
  1.447849e-01    1.590774e+00   6.642617e-02
  1.469953e-01    1.588371e+00   6.633440e-02
  1.492058e-01    1.601233e+00   6.652505e-02
  1.514163e-01    1.650466e+00   6.742786e-02
  1.536267e-01    1.667645e+00   6.764554e-02
  1.558372e-01    1.664844e+00   6.743950e-02
  1.580476e-01    1.586582e+00   6.567556e-02
  1.602581e-01    1.552338e+00   6.479792e-02
  1.624685e-01    1.589988e+00   6.539947e-02
  1.646790e-01    1.683455e+00   6.710102e-02
  1.668895e-01    1.664207e+00   6.652367e-02
  1.690999e-01    1.645523e+00   6.595051e-02
  1.713104e-01    1.669542e+00   6.622395e-02
  1.735208e-01    1.705678e+00   6.672863e-02
  1.757313e-01    1.805129e+00   6.843128e-02
  1.779417e-01    1.898467e+00   6.994931e-02
  1.801522e-01    1.829477e+00   6.844787e-02
  1.823626e-01    1.898269e+00   6.949078e-02
  1.845731e-01    1.880120e+00   6.893376e-02
  1.867836e-01    1.890941e+00   6.889855e-02
  1.889940e-01    1.905926e+00   6.894495e-02
  1.912045e-01    1.962499e+00   6.972709e-02
  1.934149e-01    1.972820e+00   6.967623e-02
  1.956254e-01    2.021330e+00   7.029507e-02
  1.978358e-01    1.962106e+00   6.902028e-02
  2.000463e-01    1.959632e+00   6.874813e-02
  2.022568e-01    2.020661e+00   6.958131e-02
  2.044672e-01    2.052981e+00   6.989530e-02
  2.066777e-01    2.088000e+00   7.025494e-02
  2.088881e-01    2.020394e+00   6.888215e-02
  2.110986e-01    2.010156e+00   6.847177e-02
  2.133090e-01    1.999874e+00   6.807441e-02
  2.155195e-01    1.894435e+00   6.603579e-02
  2.177300e-01    1.992806e+00   6.719650e-02
  2.199404e-01    1.975839e+00   6.514679e-02
  2.221509e-01    1.980489e+00   6.415238e-02
  2.243613e-01    2.003838e+00   6.371140e-02
  2.265718e-01    2.082415e+00   6.423268e-02
  2.287822e-01    2.073908e+00   6.346687e-02
  2.309927e-01    2.080581e+00   6.298981e-02
  2.332031e-01    2.134297e+00   6.325170e-02
  2.354136e-01    2.252784e+00   6.445704e-02
  2.376241e-01    2.242685e+00   6.381324e-02
  2.398345e-01    2.132313e+00   6.176265e-02
  2.420450e-01    2.114764e+00   6.106839e-02
  2.442554e-01    2.087011e+00   6.024842e-02
  2.464659e-01    2.077894e+00   5.971306e-02
  2.486763e-01    2.054937e+00   5.899196e-02
  2.508868e-01    2.123962e+00   5.959619e-02
  2.530973e-01    2.165841e+00   5.980775e-02
  2.553077e-01    2.140659e+00   5.909840e-02
  2.575182e-01    2.021421e+00   5.708909e-02
  2.597286e-01    2.127421e+00   5.822634e-02
  2.619391e-01    2.163525e+00   5.838029e-02
  2.641495e-01    2.092449e+00   5.709558e-02
  2.663600e-01    2.064318e+00   5.639859e-02
  2.685704e-01    2.113366e+00   5.675536e-02
  2.707809e-01    1.999129e+00   5.490712e-02
  2.729914e-01    2.008671e+00   5.475114e-02
  2.752018e-01    2.046322e+00   5.497428e-02
  2.774123e-01    2.019669e+00   5.433612e-02
  2.796227e-01    1.976796e+00   5.349039e-02
  2.818332e-01    2.005836e+00   5.361307e-02
  2.840436e-01    1.953886e+00   5.265775e-02
  2.862541e-01    1.961141e+00   5.250182e-02
  2.884646e-01    2.012801e+00   5.293640e-02
  2.906750e-01    1.989294e+00   5.237686e-02
  2.928855e-01    1.917716e+00   5.118763e-02
  2.950959e-01    1.936372e+00   5.119971e-02
  2.973064e-01    1.944554e+00   5.107721e-02
  2.995168e-01    1.943269e+00   5.082905e-02
  3.017273e-01    1.932183e+00   5.046042e-02
  3.039377e-01    1.937694e+00   5.031105e-02
  3.061482e-01    1.890155e+00   4.947511e-02
  3.083587e-01    1.959493e+00   5.015633e-02
  3.105691e-01    1.943766e+00   4.974130e-02
  3.127796e-01    1.908778e+00   4.908436e-02
  3.149900e-01    1.912025e+00   4.892141e-02
  3.172005e-01    1.889724e+00   4.843639e-02
  3.194109e-01    1.884703e+00   4.817232e-02
  3.216214e-01    1.902113e+00   4.819684e-02
  3.238319e-01    1.869662e+00   4.759462e-02
  3.260423e-01    1.820386e+00   4.677621e-02
  3.282528e-01    1.813205e+00   4.649798e-02
  3.304632e-01    1.867498e+00   4.700618e-02
  3.326737e-01    1.897485e+00   4.719721e-02
  3.348841e-01    1.808253e+00   4.589543e-02
  3.370946e-01    1.846603e+00   4.620503e-02
  3.393050e-01    1.851368e+00   4.608938e-02
  3.415155e-01    1.852238e+00   4.592685e-02
  3.437260e-01    1.846639e+00   4.568743e-02
  3.459364e-01    1.770938e+00   4.457569e-02
  3.481469e-01    1.786178e+00   4.460364e-02
  3.503573e-01    1.815937e+00   4.480985e-02
  3.525678e-01    1.857958e+00   4.516381e-02
  3.547782e-01    1.797712e+00   4.426498e-02
  3.569887e-01    1.811119e+00   4.427230e-02
  3.591992e-01    1.851044e+00   4.459924e-02
  3.614096e-01    1.821951e+00   4.409397e-02
  3.636201e-01    1.799155e+00   4.366326e-02
  3.658305e-01    1.771502e+00   4.317861e-02
  3.680410e-01    1.806046e+00   4.344763e-02
  3.702514e-01    1.789393e+00   4.310140e-02
  3.724619e-01    1.838116e+00   4.353550e-02
  3.746724e-01    1.815428e+00   4.312166e-02
  3.768828e-01    1.841665e+00   4.328597e-02
  3.790933e-01    1.777097e+00   4.238188e-02
  3.813037e-01    1.766636e+00   4.211868e-02
  3.835142e-01    1.735591e+00   4.160985e-02
  3.857246e-01    1.775972e+00   4.195489e-02
  3.879351e-01    1.796003e+00   4.205428e-02
  3.901455e-01    1.821231e+00   4.221379e-02
  3.923560e-01    1.753513e+00   4.128990e-02
  3.945665e-01    1.769099e+00   4.134148e-02
  3.967769e-01    1.761027e+00   4.111788e-02
  3.989874e-01    1.807301e+00   4.152451e-02
  4.011978e-01    1.804606e+00   4.136597e-02
  4.034083e-01    1.762800e+00   4.075850e-02
  4.056187e-01    1.731220e+00   4.026733e-02
  4.078292e-01    1.767502e+00   4.056396e-02
  4.100397e-01    1.777672e+00   4.055628e-02
  4.122501e-01    1.791707e+00   4.059426e-02
  4.144606e-01    1.826469e+00   4.086461e-02
  4.166710e-01    1.841669e+00   4.091231e-02
  4.188815e-01    1.720914e+00   3.943148e-02
  4.210919e-01    1.738849e+00   3.952023e-02
  4.233024e-01    1.776456e+00   3.982784e-02
  4.255128e-01    1.751657e+00   3.943452e-02
  4.277233e-01    1.798531e+00   3.984388e-02
  4.299338e-01    1.786527e+00   3.959642e-02
  4.321442e-01    1.821256e+00   3.986504e-02
  4.343547e-01    1.796182e+00   3.947771e-02
  4.365651e-01    1.788207e+00   3.927808e-02
  4.387756e-01    1.756070e+00   3.881453e-02
  4.409860e-01    1.761746e+00   3.876949e-02
  4.431965e-01    1.773858e+00   3.879497e-02
  4.454070e-01    1.779887e+00   3.875272e-02
  4.476174e-01    1.799496e+00   3.885863e-02
  4.498279e-01    1.734968e+00   3.805175e-02
  4.520383e-01    1.733495e+00   3.793120e-02
  4.542488e-01    1.740577e+00   3.790611e-02
  4.564592e-01    1.722342e+00   3.760587e-02
  4.586697e-01    1.752774e+00   3.783595e-02
  4.608801e-01    1.764019e+00   3.785546e-02
  4.630906e-01    1.772857e+00   3.784968e-02
  4.653011e-01    1.752930e+00   3.753740e-02
  4.675115e-01    1.681350e+00   3.666618e-02
  4.697220e-01    1.695905e+00   3.672812e-02
  4.719324e-01    1.716183e+00   3.685148e-02
  4.741429e-01    1.668696e+00   3.624443e-02
  4.763533e-01    1.698331e+00   3.647111e-02
  4.785638e-01    1.727986e+00   3.669312e-02
  4.807743e-01    1.697500e+00   3.627552e-02
  4.829847e-01    1.680771e+00   3.600514e-02
  4.851952e-01    1.684576e+00   3.595465e-02
  4.874056e-01    1.690115e+00   3.592290e-02
  4.896161e-01    1.700135e+00   3.593990e-02
  4.918265e-01    1.673240e+00   3.556593e-02
  4.940370e-01    1.728448e+00   3.605868e-02
  4.962475e-01    1.693854e+00   3.560787e-02
  4.984579e-01    1.651815e+00   3.507653e-02
  5.006684e-01    1.689784e+00   3.539089e-02
  5.028788e-01    1.697998e+00   3.539084e-02
  5.050893e-01    1.671053e+00   3.502354e-02
  5.072997e-01    1.658718e+00   3.480975e-02
  5.095102e-01    1.652694e+00   3.466327e-02
  5.117206e-01    1.642711e+00   3.447623e-02
  5.139311e-01    1.703421e+00   3.502444e-02
  5.161416e-01    1.689756e+00   3.480125e-02
  5.183520e-01    1.672384e+00   3.453961e-02
  5.205625e-01    1.667600e+00   3.440938e-02
  5.227729e-01    1.613587e+00   3.376861e-02
  5.249834e-01    1.648713e+00   3.405490e-02
  5.271938e-01    1.657321e+00   3.406405e-02
  5.294043e-01    1.698702e+00   3.440709e-02
  5.316148e-01    1.736625e+00   3.470935e-02
  5.338252e-01    1.816226e+00   3.541479e-02
  5.360357e-01    1.830160e+00   3.546947e-02
  5.382461e-01    1.759188e+00   3.469633e-02
  5.404566e-01    1.706855e+00   3.409858e-02
  5.426670e-01    1.690204e+00   3.385538e-02
  5.448775e-01    1.730591e+00   3.418094e-02
  5.470879e-01    1.769453e+00   3.448550e-02
  5.492984e-01    1.830240e+00   3.499487e-02
  5.515089e-01    1.802812e+00   3.465465e-02
  5.537193e-01    1.764569e+00   3.420958e-02
  5.559298e-01    1.787788e+00   3.435836e-02
  5.581402e-01    1.767512e+00   3.408835e-02
  5.603507e-01    1.800663e+00   3.433163e-02
  5.625611e-01    1.813669e+00   3.438065e-02
  5.647716e-01    1.774264e+00   3.393127e-02
  5.669821e-01    1.830830e+00   3.439360e-02
  5.691925e-01    1.796791e+00   3.399926e-02
  5.714030e-01    1.750718e+00   3.348896e-02
  5.736134e-01    1.770011e+00   3.360138e-02
  5.758239e-01    1.702016e+00   3.287931e-02
  5.780343e-01    1.705660e+00   3.284488e-02
  5.802448e-01    1.662648e+00   3.236021e-02
  5.824552e-01    1.697420e+00   3.262824e-02
  5.846657e-01    1.629366e+00   3.190086e-02
  5.868762e-01    1.642038e+00   3.195797e-02
  5.890866e-01    1.618044e+00   3.165781e-02
  5.912971e-01    1.629966e+00   3.170843e-02
  5.935075e-01    1.614672e+00   3.149411e-02
  5.957180e-01    1.655164e+00   3.182112e-02
  5.979284e-01    1.628334e+00   3.149775e-02
  6.001389e-01    1.618162e+00   3.133526e-02
  6.023494e-01    1.636098e+00   3.144446e-02
  6.045598e-01    1.654429e+00   3.155577e-02
  6.067703e-01    1.628113e+00   3.124084e-02
  6.089807e-01    1.659020e+00   3.147257e-02
  6.111912e-01    1.684028e+00   3.164557e-02
  6.134016e-01    1.663229e+00   3.138682e-02
  6.156121e-01    1.637914e+00   3.108512e-02
  6.178226e-01    1.700204e+00   3.160798e-02
  6.200330e-01    1.704780e+00   3.158808e-02
  6.222435e-01    1.717340e+00   3.164139e-02
  6.244539e-01    1.738630e+00   3.177461e-02
  6.266644e-01    1.689313e+00   3.125961e-02
  6.288748e-01    1.695451e+00   3.125539e-02
  6.310853e-01    1.740424e+00   3.160573e-02
  6.332957e-01    1.696694e+00   3.114590e-02
  6.355062e-01    1.715744e+00   3.125940e-02
  6.377167e-01    1.733605e+00   3.136140e-02
  6.399271e-01    1.692396e+00   3.092706e-02
  6.421376e-01    1.696427e+00   3.090475e-02
  6.443480e-01    1.704616e+00   3.092033e-02
  6.465585e-01    1.683126e+00   3.066660e-02
  6.487689e-01    1.711003e+00   3.086113e-02
  6.509794e-01    1.693975e+00   3.064925e-02
  6.531899e-01    1.699575e+00   3.064218e-02
  6.554003e-01    1.635691e+00   3.000422e-02
  6.576108e-01    1.653567e+00   3.011156e-02
  6.598212e-01    1.608267e+00   2.964108e-02
  6.620317e-01    1.637421e+00   2.985307e-02
  6.642421e-01    1.632424e+00   2.975236e-02
  6.664526e-01    1.625364e+00   2.963325e-02
  6.686630e-01    1.602024e+00   2.936532e-02
  6.708735e-01    1.595189e+00   2.924886e-02
  6.730840e-01    1.580976e+00   2.906518e-02
  6.752944e-01    1.586012e+00   2.905848e-02
  6.775049e-01    1.608145e+00   2.920742e-02
  6.797153e-01    1.621703e+00   2.927717e-02
  6.819258e-01    1.598155e+00   2.901142e-02
  6.841362e-01    1.608696e+00   2.905459e-02
  6.863467e-01    1.619644e+00   2.910108e-02
  6.885572e-01    1.565807e+00   2.856206e-02
  6.907676e-01    1.575402e+00   2.859809e-02
  6.929781e-01    1.583492e+00   2.862047e-02
  6.951885e-01    1.581131e+00   2.854846e-02
  6.973990e-01    1.621766e+00   2.886187e-02
  6.996094e-01    1.615230e+00   2.875299e-02
  7.018199e-01    1.617501e+00   2.872268e-02
  7.040303e-01    1.613987e+00   2.864106e-02
  7.062408e-01    1.616087e+00   2.860950e-02
  7.084513e-01    1.590043e+00   2.832866e-02
  7.106617e-01    1.590689e+00   2.828519e-02
  7.128722e-01    1.586569e+00   2.819965e-02
  7.150826e-01    1.602411e+00   2.829125e-02
  7.172931e-01    1.583639e+00   2.807656e-02
  7.195035e-01    1.588936e+00   2.807512e-02
  7.217140e-01    1.589336e+00   2.812836e-02
  7.239245e-01    1.562521e+00   2.811589e-02
  7.261349e-01    1.583216e+00   2.841040e-02
  7.283454e-01    1.556526e+00   2.824190e-02
  7.305558e-01    1.573688e+00   2.845113e-02
  7.327663e-01    1.561493e+00   2.838300e-02
  7.349767e-01    1.564360e+00   2.842537e-02
  7.371872e-01    1.583000e+00   2.858299e-02
  7.393976e-01    1.591500e+00   2.864531e-02
  7.416081e-01    1.561090e+00   2.835421e-02
  7.438186e-01    1.582820e+00   2.840617e-02
  7.460290e-01    1.577101e+00   2.806035e-02
  7.482395e-01    1.548874e+00   2.763833e-02
  7.504499e-01    1.584059e+00   2.781380e-02
  7.526604e-01    1.584967e+00   2.770485e-02
  7.548708e-01    1.589659e+00   2.765599e-02
  7.570813e-01    1.539395e+00   2.716486e-02
  7.592918e-01    1.533354e+00   2.707677e-02
  7.615022e-01    1.577557e+00   2.743044e-02
  7.637127e-01    1.563070e+00   2.727156e-02
  7.659231e-01    1.555805e+00   2.717628e-02
  7.681336e-01    1.569405e+00   2.726327e-02
  7.703440e-01    1.542771e+00   2.700004e-02
  7.725545e-01    1.542780e+00   2.696954e-02
  7.747650e-01    1.562172e+00   2.710046e-02
  7.769754e-01    1.565610e+00   2.707774e-02
  7.791859e-01    1.550681e+00   2.689525e-02
  7.813963e-01    1.551759e+00   2.685247e-02
  7.836068e-01    1.531690e+00   2.662715e-02
  7.858172e-01    1.565441e+00   2.686854e-02
  7.880277e-01    1.620171e+00   2.728223e-02
  7.902381e-01    1.600082e+00   2.706329e-02
  7.924486e-01    1.573739e+00   2.678988e-02
  7.946591e-01    1.598864e+00   2.695459e-02
  7.968695e-01    1.616168e+00   2.705161e-02
  7.990800e-01    1.598318e+00   2.685369e-02
  8.012904e-01    1.617984e+00   2.697168e-02
  8.035009e-01    1.649570e+00   2.718519e-02
  8.057113e-01    1.623106e+00   2.691965e-02
  8.079218e-01    1.621176e+00   2.685718e-02
  8.101323e-01    1.650496e+00   2.705296e-02
  8.123427e-01    1.669311e+00   2.716032e-02
  8.145532e-01    1.690072e+00   2.728195e-02
  8.167636e-01    1.656528e+00   2.696444e-02
  8.189741e-01    1.664629e+00   2.698521e-02
  8.211845e-01    1.671129e+00   2.699256e-02
  8.233950e-01    1.615078e+00   2.649286e-02
  8.256054e-01    1.625613e+00   2.653506e-02
  8.278159e-01    1.668715e+00   2.684017e-02
  8.300264e-01    1.664639e+00   2.676394e-02
  8.322368e-01    1.663750e+00   2.671334e-02
  8.344473e-01    1.684164e+00   2.683274e-02
  8.366577e-01    1.678838e+00   2.674721e-02
  8.388682e-01    1.652847e+00   2.649692e-02
  8.410786e-01    1.602177e+00   2.604605e-02
  8.432891e-01    1.591204e+00   2.591544e-02
  8.454996e-01    1.644155e+00   2.630142e-02
  8.477100e-01    1.607554e+00   2.596578e-02
  8.499205e-01    1.613844e+00   2.597563e-02
  8.521309e-01    1.639581e+00   2.614114e-02
  8.543414e-01    1.641668e+00   2.611694e-02
  8.565518e-01    1.628216e+00   2.596924e-02
  8.587623e-01    1.632269e+00   2.596106e-02
  8.609727e-01    1.620836e+00   2.582985e-02
  8.631832e-01    1.638408e+00   2.592947e-02
  8.653937e-01    1.601776e+00   2.559855e-02
  8.676041e-01    1.603973e+00   2.557745e-02
  8.698146e-01    1.604019e+00   2.553872e-02
  8.720250e-01    1.611411e+00   2.555849e-02
  8.742355e-01    1.596390e+00   2.540036e-02
  8.764459e-01    1.605927e+00   2.543725e-02
  8.786564e-01    1.627410e+00   2.556866e-02
  8.808669e-01    1.607629e+00   2.537427e-02
  8.830773e-01    1.549778e+00   2.487603e-02
  8.852878e-01    1.583508e+00   2.510757e-02
  8.874982e-01    1.592458e+00   2.514189e-02
  8.897087e-01    1.609571e+00   2.523883e-02
  8.919191e-01    1.597158e+00   2.510362e-02
  8.941296e-01    1.581523e+00   2.494337e-02
  8.963401e-01    1.581979e+00   2.491073e-02
  8.985505e-01    1.604653e+00   2.505162e-02
  9.007610e-01    1.575877e+00   2.478951e-02
  9.029714e-01    1.583906e+00   2.481691e-02
  9.051819e-01    1.597762e+00   2.488804e-02
  9.073923e-01    1.610819e+00   2.495282e-02
  9.096028e-01    1.582508e+00   2.469786e-02
  9.118132e-01    1.581808e+00   2.465636e-02
  9.140237e-01    1.584338e+00   2.463964e-02
  9.162342e-01    1.617672e+00   2.486274e-02
  9.184446e-01    1.601991e+00   2.470618e-02
  9.206551e-01    1.609028e+00   2.472468e-02
  9.228655e-01    1.634179e+00   2.488155e-02
  9.250760e-01    1.634635e+00   2.484932e-02
  9.272864e-01    1.627313e+00   2.475907e-02
  9.294969e-01    1.609249e+00   2.458539e-02
  9.317074e-01    1.648554e+00   2.484864e-02
  9.339178e-01    1.644933e+00   2.478747e-02
  9.361283e-01    1.608994e+00   2.447904e-02
  9.383387e-01    1.618107e+00   2.451486e-02
  9.405492e-01    1.646402e+00   2.469375e-02
  9.427596e-01    1.665188e+00   2.479847e-02
  9.449701e-01    1.679162e+00   2.486849e-02
  9.471805e-01    1.698647e+00   2.497692e-02
  9.493910e-01    1.655208e+00   2.462166e-02
  9.516015e-01    1.676913e+00   2.474795e-02
  9.538119e-01    1.680461e+00   2.474018e-02
  9.560224e-01    1.726396e+00   2.504071e-02
  9.582328e-01    1.758442e+00   2.523819e-02
  9.604433e-01    1.705622e+00   2.482102e-02
  9.626537e-01    1.768464e+00   2.524016e-02
  9.648642e-01    1.765865e+00   2.518707e-02
  9.670747e-01    1.792432e+00   2.534082e-02
  9.692851e-01    1.809265e+00   2.542571e-02
  9.714956e-01    1.839602e+00   2.560182e-02
  9.737060e-01    1.846227e+00   2.561421e-02
  9.759165e-01    1.831192e+00   2.547372e-02
  9.781269e-01    1.854303e+00   2.560041e-02
  9.803374e-01    1.897156e+00   2.585874e-02
  9.825478e-01    1.885545e+00   2.574549e-02
  9.847583e-01    1.836096e+00   2.537115e-02
  9.869688e-01    1.830597e+00   2.529923e-02
  9.891792e-01    1.790938e+00   2.499042e-02
  9.913897e-01    1.755554e+00   2.470893e-02
  9.936001e-01    1.721577e+00   2.443661e-02
  9.958106e-01    1.688942e+00   2.417100e-02
  9.980210e-01    1.663858e+00   2.395969e-02
  1.000231e+00    1.683845e+00   2.423521e-02
  1.002442e+00    1.641816e+00   2.405800e-02
  1.004652e+00    1.588945e+00   2.373350e-02
  1.006863e+00    1.595784e+00   2.383384e-02
  1.009073e+00    1.603701e+00   2.392949e-02
  1.011284e+00    1.603341e+00   2.395876e-02
  1.013494e+00    1.700975e+00   2.470193e-02
  1.015705e+00    1.717728e+00   2.484675e-02
  1.017915e+00    1.712480e+00   2.482587e-02
  1.020126e+00    1.679178e+00   2.459992e-02
  1.022336e+00    1.594326e+00   2.398213e-02
  1.024547e+00    1.547265e+00   2.363673e-02
  1.026757e+00    1.493774e+00   2.323279e-02
  1.028967e+00    1.500347e+00   2.329139e-02
  1.031178e+00    1.516014e+00   2.341882e-02
  1.033388e+00    1.504618e+00   2.333564e-02
  1.035599e+00    1.527062e+00   2.351246e-02
  1.037809e+00    1.515406e+00   2.342582e-02
  1.040020e+00    1.531030e+00   2.354753e-02
  1.042230e+00    1.552200e+00   2.371173e-02
  1.044441e+00    1.580388e+00   2.392583e-02
  1.046651e+00    1.578408e+00   2.391103e-02
  1.048862e+00    1.558779e+00   2.376108e-02
  1.051072e+00    1.553855e+00   2.372112e-02
  1.053282e+00    1.531684e+00   2.355033e-02
  1.055493e+00    1.522150e+00   2.347257e-02
  1.057703e+00    1.471246e+00   2.307527e-02
  1.059914e+00    1.493788e+00   2.324705e-02
  1.062124e+00    1.510681e+00   2.337409e-02
  1.064335e+00    1.515303e+00   2.340632e-02
  1.066545e+00    1.467997e+00   2.303213e-02
  1.068756e+00    1.443846e+00   2.283817e-02
  1.070966e+00    1.474840e+00   2.307546e-02
  1.073177e+00    1.442624e+00   2.281607e-02
  1.075387e+00    1.446856e+00   2.284429e-02
  1.077597e+00    1.478830e+00   2.308807e-02
  1.079808e+00    1.482330e+00   2.298182e-02
  1.082018e+00    1.453142e+00   2.256599e-02
  1.084229e+00    1.462742e+00   2.253027e-02
  1.086439e+00    1.443869e+00   2.229737e-02
  1.088650e+00    1.437109e+00   2.216988e-02
  1.090860e+00    1.440805e+00   2.213106e-02
  1.093071e+00    1.448396e+00   2.212715e-02
  1.095281e+00    1.473652e+00   2.226143e-02
  1.097492e+00    1.439725e+00   2.194889e-02
  1.099702e+00    1.432639e+00   2.184355e-02
  1.101912e+00    1.449071e+00   2.191944e-02
  1.104123e+00    1.435642e+00   2.176943e-02
  1.106333e+00    1.427446e+00   2.166286e-02
  1.108544e+00    1.423648e+00   2.158986e-02
  1.110754e+00    1.446833e+00   2.172161e-02
  1.112965e+00    1.442053e+00   2.164491e-02
  1.115175e+00    1.423520e+00   2.146413e-02
  1.117386e+00    1.403605e+00   2.127435e-02
  1.119596e+00    1.415024e+00   2.132281e-02
  1.121807e+00    1.491254e+00   2.184968e-02
  1.124017e+00    1.517168e+00   2.200069e-02
  1.126228e+00    1.404158e+00   2.112969e-02
  1.128438e+00    1.388902e+00   2.097799e-02
  1.130648e+00    1.390633e+00   2.095683e-02
  1.132859e+00    1.399833e+00   2.099163e-02
  1.135069e+00    1.400760e+00   2.096377e-02
  1.137280e+00    1.349601e+00   2.054487e-02
  1.139490e+00    1.364103e+00   2.062215e-02
  1.141701e+00    1.378282e+00   2.069603e-02
  1.143911e+00    1.378589e+00   2.066652e-02
  1.146122e+00    1.378541e+00   2.063418e-02
  1.148332e+00    1.362187e+00   2.047973e-02
  1.150543e+00    1.351247e+00   2.036680e-02
  1.152753e+00    1.332174e+00   2.019220e-02
  1.154963e+00    1.335212e+00   2.018460e-02
  1.157174e+00    1.349502e+00   2.026242e-02
  1.159384e+00    1.352455e+00   2.025496e-02
  1.161595e+00    1.352444e+00   2.022520e-02
  1.163805e+00    1.350456e+00   2.018129e-02
  1.166016e+00    1.330077e+00   1.999941e-02
  1.168226e+00    1.360312e+00   2.019654e-02
  1.170437e+00    1.356350e+00   2.013859e-02
  1.172647e+00    1.360258e+00   2.013874e-02
  1.174858e+00    1.407636e+00   2.045793e-02
  1.177068e+00    1.370423e+00   2.015737e-02
  1.179278e+00    1.345332e+00   1.994358e-02
  1.181489e+00    1.349679e+00   1.994884e-02
  1.183699e+00    1.369371e+00   2.006618e-02
  1.185910e+00    1.382596e+00   2.013482e-02
  1.188120e+00    1.358118e+00   1.992909e-02
  1.190331e+00    1.359852e+00   1.991499e-02
  1.192541e+00    1.344466e+00   1.977474e-02
  1.194752e+00    1.339641e+00   1.971232e-02
  1.196962e+00    1.317541e+00   1.952362e-02
  1.199173e+00    1.324461e+00   1.954857e-02
  1.201383e+00    1.331730e+00   1.957517e-02
  1.203593e+00    1.342667e+00   1.963064e-02
  1.205804e+00    1.322582e+00   1.945760e-02
  1.208014e+00    1.332053e+00   1.950047e-02
  1.210225e+00    1.341690e+00   1.954564e-02
  1.212435e+00    1.329304e+00   1.943061e-02
  1.214646e+00    1.339570e+00   1.947948e-02
  1.216856e+00    1.334038e+00   1.941390e-02
  1.219067e+00    1.360681e+00   1.958223e-02
  1.221277e+00    1.369775e+00   1.962237e-02
  1.223488e+00    1.383530e+00   1.969456e-02
  1.225698e+00    1.371467e+00   1.958144e-02
  1.227909e+00    1.318485e+00   1.916965e-02
  1.230119e+00    1.325603e+00   1.918976e-02
  1.232329e+00    1.325404e+00   1.915787e-02
  1.234540e+00    1.333920e+00   1.918921e-02
  1.236750e+00    1.331850e+00   1.914425e-02
  1.238961e+00    1.361077e+00   1.932610e-02
  1.241171e+00    1.327728e+00   1.906388e-02
  1.243382e+00    1.349654e+00   1.919713e-02
  1.245592e+00    1.353151e+00   1.919786e-02
  1.247803e+00    1.364779e+00   1.925639e-02
  1.250013e+00    1.353516e+00   1.915320e-02
  1.252224e+00    1.345713e+00   1.907469e-02
  1.254434e+00    1.352568e+00   1.909945e-02
  1.256644e+00    1.329448e+00   1.891248e-02
  1.258855e+00    1.336618e+00   1.894025e-02
  1.261065e+00    1.333928e+00   1.889795e-02
  1.263276e+00    1.355340e+00   1.902603e-02
  1.265486e+00    1.366907e+00   1.908404e-02
  1.267697e+00    1.359597e+00   1.900983e-02
  1.269907e+00    1.371597e+00   1.907068e-02
  1.272118e+00    1.351392e+00   1.890710e-02
  1.274328e+00    1.338188e+00   1.879187e-02
  1.276539e+00    1.325173e+00   1.867769e-02
  1.278749e+00    1.333331e+00   1.871292e-02
  1.280959e+00    1.350508e+00   1.881056e-02
  1.283170e+00    1.352845e+00   1.880437e-02
  1.285380e+00    1.332386e+00   1.863933e-02
  1.287591e+00    1.352080e+00   1.875452e-02
  1.289801e+00    1.353025e+00   1.873984e-02
  1.292012e+00    1.368790e+00   1.883148e-02
  1.294222e+00    1.372124e+00   1.883803e-02
  1.296433e+00    1.361897e+00   1.875203e-02
  1.298643e+00    1.355606e+00   1.869217e-02
  1.300854e+00    1.364835e+00   1.873917e-02
  1.303064e+00    1.365401e+00   1.872374e-02
  1.305274e+00    1.355670e+00   1.863542e-02
  1.307485e+00    1.341590e+00   1.851690e-02
  1.309695e+00    1.357768e+00   1.860591e-02
  1.311906e+00    1.370719e+00   1.867257e-02
  1.314116e+00    1.367049e+00   1.862662e-02
  1.316327e+00    1.385563e+00   1.873036e-02
  1.318537e+00    1.369811e+00   1.860156e-02
  1.320748e+00    1.351559e+00   1.845562e-02
  1.322958e+00    1.347551e+00   1.840776e-02
  1.325169e+00    1.350453e+00   1.840652e-02
  1.327379e+00    1.377756e+00   1.856964e-02
  1.329589e+00    1.361017e+00   1.843534e-02
  1.331800e+00    1.369323e+00   1.847065e-02
  1.334010e+00    1.378538e+00   1.851184e-02
  1.336221e+00    1.381952e+00   1.851272e-02
  1.338431e+00    1.374697e+00   1.844304e-02
  1.340642e+00    1.359799e+00   1.840720e-02
  1.342852e+00    1.374965e+00   1.861116e-02
  1.345063e+00    1.403559e+00   1.885414e-02
  1.347273e+00    1.401496e+00   1.887621e-02
  1.349484e+00    1.363606e+00   1.864711e-02
  1.351694e+00    1.404516e+00   1.894790e-02
  1.353905e+00    1.410662e+00   1.900774e-02
  1.356115e+00    1.385820e+00   1.885486e-02
  1.358325e+00    1.394684e+00   1.892860e-02
  1.360536e+00    1.418229e+00   1.909962e-02
  1.362746e+00    1.374641e+00   1.881349e-02
  1.364957e+00    1.360451e+00   1.872383e-02
  1.367167e+00    1.355167e+00   1.869459e-02
  1.369378e+00    1.369767e+00   1.880109e-02
  1.371588e+00    1.406625e+00   1.905763e-02
  1.373799e+00    1.451404e+00   1.936239e-02
  1.376009e+00    1.487042e+00   1.960229e-02
  1.378220e+00    1.409436e+00   1.908654e-02
  1.380430e+00    1.377277e+00   1.887025e-02
  1.382640e+00    1.391116e+00   1.896576e-02
  1.384851e+00    1.346997e+00   1.866348e-02
  1.387061e+00    1.349419e+00   1.868054e-02
  1.389272e+00    1.316264e+00   1.844983e-02
  1.391482e+00    1.322019e+00   1.848944e-02
  1.393693e+00    1.304643e+00   1.836667e-02
  1.395903e+00    1.270992e+00   1.812676e-02
  1.398114e+00    1.269560e+00   1.811514e-02
  1.400324e+00    1.330402e+00   1.854196e-02
  1.402535e+00    1.371758e+00   1.882558e-02
  1.404745e+00    1.323313e+00   1.848778e-02
  1.406955e+00    1.283956e+00   1.820805e-02
  1.409166e+00    1.294120e+00   1.827664e-02
  1.411376e+00    1.295598e+00   1.828392e-02
  1.413587e+00    1.284105e+00   1.819882e-02
  1.415797e+00    1.300768e+00   1.831293e-02
  1.418008e+00    1.282187e+00   1.813960e-02
  1.420218e+00    1.260926e+00   1.783938e-02
  1.422429e+00    1.264499e+00   1.777950e-02
  1.424639e+00    1.259227e+00   1.767799e-02
  1.426850e+00    1.271401e+00   1.770850e-02
  1.429060e+00    1.259962e+00   1.757988e-02
  1.431270e+00    1.257625e+00   1.751947e-02
  1.433481e+00    1.272262e+00   1.758012e-02
  1.435691e+00    1.273015e+00   1.754686e-02
  1.437902e+00    1.259861e+00   1.741966e-02
  1.440112e+00    1.244631e+00   1.727905e-02
  1.442323e+00    1.230597e+00   1.714883e-02
  1.444533e+00    1.261729e+00   1.733194e-02
  1.446744e+00    1.282572e+00   1.744323e-02
  1.448954e+00    1.261546e+00   1.726958e-02
  1.451165e+00    1.269088e+00   1.729137e-02
  1.453375e+00    1.267342e+00   1.725146e-02
  1.455586e+00    1.279710e+00   1.730716e-02
  1.457796e+00    1.277559e+00   1.726502e-02
  1.460006e+00    1.281431e+00   1.726377e-02
  1.462217e+00    1.291742e+00   1.730666e-02
  1.464427e+00    1.279893e+00   1.720139e-02
  1.466638e+00    1.278501e+00   1.716662e-02
  1.468848e+00    1.274565e+00   1.711479e-02
  1.471059e+00    1.240187e+00   1.685761e-02
  1.473269e+00    1.261936e+00   1.698043e-02
  1.475480e+00    1.280107e+00   1.707841e-02
  1.477690e+00    1.296515e+00   1.716340e-02
  1.479901e+00    1.300635e+00   1.716651e-02
  1.482111e+00    1.271196e+00   1.694778e-02
  1.484321e+00    1.265410e+00   1.688604e-02
  1.486532e+00    1.266569e+00   1.687145e-02
  1.488742e+00    1.255552e+00   1.677534e-02
  1.490953e+00    1.263227e+00   1.680394e-02
  1.493163e+00    1.255106e+00   1.672764e-02
  1.495374e+00    1.283298e+00   1.689278e-02
  1.497584e+00    1.279873e+00   1.684844e-02
  1.499795e+00    1.275570e+00   1.679829e-02
  1.502005e+00    1.278061e+00   1.679287e-02
  1.504216e+00    1.252201e+00   1.660112e-02
  1.506426e+00    1.265243e+00   1.666647e-02
  1.508636e+00    1.296024e+00   1.684724e-02
  1.510847e+00    1.278330e+00   1.670983e-02
  1.513057e+00    1.262069e+00   1.657807e-02
  1.515268e+00    1.257716e+00   1.652369e-02
  1.517478e+00    1.278585e+00   1.663482e-02
  1.519689e+00    1.255228e+00   1.645722e-02
  1.521899e+00    1.258491e+00   1.645542e-02
  1.524110e+00    1.261115e+00   1.645220e-02
  1.526320e+00    1.234833e+00   1.626040e-02
  1.528531e+00    1.261160e+00   1.641296e-02
  1.530741e+00    1.269036e+00   1.644486e-02
  1.532951e+00    1.263175e+00   1.638715e-02
  1.535162e+00    1.244932e+00   1.635481e-02
  1.537372e+00    1.245347e+00   1.642435e-02
  1.539583e+00    1.242382e+00   1.643895e-02
  1.541793e+00    1.273116e+00   1.664803e-02
  1.544004e+00    1.263336e+00   1.658426e-02
  1.546214e+00    1.246908e+00   1.647455e-02
  1.548425e+00    1.231675e+00   1.637389e-02
  1.550635e+00    1.220520e+00   1.630914e-02
  1.552846e+00    1.231664e+00   1.639301e-02
  1.555056e+00    1.252399e+00   1.648885e-02
  1.557266e+00    1.219388e+00   1.616075e-02
  1.559477e+00    1.210550e+00   1.604375e-02
  1.561687e+00    1.224849e+00   1.610782e-02
  1.563898e+00    1.236072e+00   1.616433e-02
  1.566108e+00    1.230953e+00   1.611497e-02
  1.568319e+00    1.240448e+00   1.616140e-02
  1.570529e+00    1.252769e+00   1.621625e-02
  1.572740e+00    1.238881e+00   1.609854e-02
  1.574950e+00    1.256667e+00   1.618727e-02
  1.577161e+00    1.245153e+00   1.608745e-02
  1.579371e+00    1.257446e+00   1.614288e-02
  1.581582e+00    1.263088e+00   1.615914e-02
  1.583792e+00    1.261111e+00   1.612837e-02
  1.586002e+00    1.229276e+00   1.590597e-02
  1.588213e+00    1.263664e+00   1.610954e-02
  1.590423e+00    1.271621e+00   1.613988e-02
  1.592634e+00    1.287108e+00   1.621589e-02
  1.594844e+00    1.254178e+00   1.598560e-02
  1.597055e+00    1.254055e+00   1.596423e-02
  1.599265e+00    1.275929e+00   1.608183e-02
  1.601476e+00    1.295761e+00   1.618560e-02
  1.603686e+00    1.269699e+00   1.600200e-02
  1.605897e+00    1.325443e+00   1.632862e-02
  1.608107e+00    1.356646e+00   1.649927e-02
  1.610317e+00    1.287095e+00   1.605107e-02
  1.612528e+00    1.280873e+00   1.599269e-02
  1.614738e+00    1.285808e+00   1.600411e-02
  1.616949e+00    1.232613e+00   1.565055e-02
  1.619159e+00    1.221241e+00   1.555946e-02
  1.621370e+00    1.216751e+00   1.551240e-02
  1.623580e+00    1.200531e+00   1.539042e-02
  1.625791e+00    1.189341e+00   1.530042e-02
  1.628001e+00    1.172102e+00   1.517110e-02
  1.630212e+00    1.178382e+00   1.519402e-02
  1.632422e+00    1.184240e+00   1.521389e-02
  1.634632e+00    1.180015e+00   1.516942e-02
  1.636843e+00    1.168038e+00   1.507477e-02
  1.639053e+00    1.177927e+00   1.512112e-02
  1.641264e+00    1.213239e+00   1.532870e-02
  1.643474e+00    1.192152e+00   1.517729e-02
  1.645685e+00    1.158778e+00   1.494668e-02
  1.647895e+00    1.141966e+00   1.482135e-02
  1.650106e+00    1.143941e+00   1.481721e-02
  1.652316e+00    1.167838e+00   1.495455e-02
  1.654527e+00    1.168521e+00   1.494207e-02
  1.656737e+00    1.172022e+00   1.494762e-02
  1.658947e+00    1.126075e+00   1.463546e-02
  1.661158e+00    1.149661e+00   1.477149e-02
  1.663368e+00    1.121692e+00   1.457472e-02
  1.665579e+00    1.133699e+00   1.463623e-02
  1.667789e+00    1.146839e+00   1.470436e-02
  1.670000e+00    1.117958e+00   1.450254e-02
  1.672210e+00    1.104323e+00   1.439794e-02
  1.674421e+00    1.112836e+00   1.443796e-02
  1.676631e+00    1.122579e+00   1.448501e-02
  1.678842e+00    1.099441e+00   1.431918e-02
  1.681052e+00    1.102369e+00   1.432277e-02
  1.683263e+00    1.072140e+00   1.411004e-02
  1.685473e+00    1.075304e+00   1.411573e-02
  1.687683e+00    1.062340e+00   1.401514e-02
  1.689894e+00    1.069262e+00   1.404501e-02
  1.692104e+00    1.058117e+00   1.395686e-02
  1.694315e+00    1.071894e+00   1.403291e-02
  1.696525e+00    1.047595e+00   1.385796e-02
  1.698736e+00    1.040462e+00   1.379603e-02
  1.700946e+00    1.041076e+00   1.378511e-02
  1.703157e+00    1.039570e+00   1.376063e-02
  1.705367e+00    1.036207e+00   1.372395e-02
  1.707578e+00    1.036694e+00   1.371271e-02
  1.709788e+00    1.038634e+00   1.371145e-02
  1.711998e+00    1.025777e+00   1.361144e-02
  1.714209e+00    1.015293e+00   1.352742e-02
  1.716419e+00    1.019575e+00   1.354176e-02
  1.718630e+00    1.008507e+00   1.345395e-02
  1.720840e+00    1.003726e+00   1.340801e-02
  1.723051e+00    1.009602e+00   1.343342e-02
  1.725261e+00    1.015662e+00   1.345906e-02
  1.727472e+00    9.958880e-01   1.331337e-02
  1.729682e+00    9.835954e-01   1.321771e-02
  1.731893e+00    9.912555e-01   1.325531e-02
  1.734103e+00    9.806226e-01   1.317042e-02
  1.736313e+00    9.925104e-01   1.323611e-02
  1.738524e+00    9.838691e-01   1.316465e-02
  1.740734e+00    9.874964e-01   1.317527e-02
  1.742945e+00    9.862528e-01   1.315360e-02
  1.745155e+00    9.665082e-01   1.300800e-02
  1.747366e+00    9.662547e-01   1.299263e-02
  1.749576e+00    9.796738e-01   1.306891e-02
  1.751787e+00    9.673622e-01   1.297330e-02
  1.753997e+00    9.584598e-01   1.290022e-02
  1.756208e+00    9.887049e-01   1.308889e-02
  1.758418e+00    9.921346e-01   1.309831e-02
  1.760628e+00    9.939854e-01   1.309703e-02
  1.762839e+00    9.529319e-01   1.281056e-02
  1.765049e+00    9.661469e-01   1.288593e-02
  1.767260e+00    9.750488e-01   1.293226e-02
  1.769470e+00    9.572769e-01   1.280086e-02
  1.771681e+00    9.502920e-01   1.274095e-02
  1.773891e+00    9.456715e-01   1.269691e-02
  1.776102e+00    9.339913e-01   1.260548e-02
  1.778312e+00    9.295624e-01   1.256293e-02
  1.780523e+00    8.995826e-01   1.234624e-02
  1.782733e+00    9.001864e-01   1.233794e-02
  1.784944e+00    9.295887e-01   1.252498e-02
  1.787154e+00    9.379998e-01   1.256895e-02
  1.789364e+00    9.248876e-01   1.246836e-02
  1.791575e+00    9.197447e-01   1.242114e-02
  1.793785e+00    9.256752e-01   1.244872e-02
  1.795996e+00    9.098518e-01   1.232940e-02
  1.798206e+00    9.031826e-01   1.227174e-02
  1.800417e+00    8.879054e-01   1.215500e-02
  1.802627e+00    9.010749e-01   1.223298e-02
  1.804838e+00    9.277028e-01   1.240017e-02
  1.807048e+00    1.044288e+00   1.314246e-02
  1.809259e+00    1.139450e+00   1.371311e-02
  1.811469e+00    9.766906e-01   1.268048e-02
  1.813679e+00    8.901274e-01   1.209057e-02
  1.815890e+00    8.866929e-01   1.205258e-02
  1.818100e+00    8.764999e-01   1.196817e-02
  1.820311e+00    8.760372e-01   1.195037e-02
  1.822521e+00    9.065053e-01   1.214143e-02
  1.824732e+00    9.039267e-01   1.210923e-02
  1.826942e+00    8.832004e-01   1.195730e-02
  1.829153e+00    8.878540e-01   1.197704e-02
  1.831363e+00    8.880324e-01   1.196618e-02
  1.833574e+00    8.784134e-01   1.188954e-02
  1.835784e+00    8.593346e-01   1.174842e-02
  1.837994e+00    8.682651e-01   1.179765e-02
  1.840205e+00    8.619704e-01   1.174372e-02
  1.842415e+00    8.702521e-01   1.178824e-02
  1.844626e+00    8.739960e-01   1.180200e-02
  1.846836e+00    8.702897e-01   1.176551e-02
  1.849047e+00    8.666570e-01   1.172931e-02
  1.851257e+00    8.581935e-01   1.166235e-02
  1.853468e+00    8.768224e-01   1.177937e-02
  1.855678e+00    8.730635e-01   1.174516e-02
  1.857889e+00    8.612185e-01   1.165670e-02
  1.860099e+00    8.911888e-01   1.184898e-02
  1.862309e+00    9.017454e-01   1.191023e-02
  1.864520e+00    8.982122e-01   1.187809e-02
  1.866730e+00    8.879328e-01   1.180037e-02
  1.868941e+00    8.665328e-01   1.164626e-02
  1.871151e+00    8.886321e-01   1.178220e-02
  1.873362e+00    8.797931e-01   1.171191e-02
  1.875572e+00    9.209701e-01   1.197145e-02
  1.877783e+00    9.353907e-01   1.205284e-02
  1.879993e+00    8.890434e-01   1.173901e-02
  1.882204e+00    8.678142e-01   1.158695e-02
  1.884414e+00    8.592494e-01   1.151847e-02
  1.886624e+00    8.508633e-01   1.145099e-02
  1.888835e+00    8.472012e-01   1.141533e-02
  1.891045e+00    8.705289e-01   1.156030e-02
  1.893256e+00    8.836762e-01   1.163592e-02
  1.895466e+00    8.952272e-01   1.170016e-02
  1.897677e+00    8.802073e-01   1.159041e-02
  1.899887e+00    8.316258e-01   1.125503e-02
  1.902098e+00    8.447602e-01   1.133264e-02
  1.904308e+00    8.415089e-01   1.130015e-02
  1.906519e+00    8.338755e-01   1.123793e-02
  1.908729e+00    8.396744e-01   1.126625e-02
  1.910940e+00    8.172997e-01   1.110409e-02
  1.913150e+00    8.301709e-01   1.118055e-02
  1.915360e+00    8.510921e-01   1.130976e-02
  1.917571e+00    8.315715e-01   1.116841e-02
  1.919781e+00    8.198320e-01   1.107859e-02
  1.921992e+00    8.146488e-01   1.103295e-02
  1.924202e+00    8.077746e-01   1.097559e-02
  1.926413e+00    8.243579e-01   1.107733e-02
  1.928623e+00    7.950956e-01   1.086855e-02
  1.930834e+00    7.985284e-01   1.088161e-02
  1.933044e+00    8.206924e-01   1.102088e-02
  1.935255e+00    8.135909e-01   1.096276e-02
  1.937465e+00    7.995674e-01   1.085752e-02
  1.939675e+00    8.043443e-01   1.087907e-02
  1.941886e+00    8.060449e-01   1.088029e-02
  1.944096e+00    7.981618e-01   1.081678e-02
  1.946307e+00    8.151105e-01   1.092062e-02
  1.948517e+00    7.990692e-01   1.080218e-02
  1.950728e+00    8.058014e-01   1.083730e-02
  1.952938e+00    7.950200e-01   1.075448e-02
  1.955149e+00    8.156415e-01   1.088270e-02
  1.957359e+00    8.035108e-01   1.079141e-02
  1.959570e+00    7.778936e-01   1.060721e-02
  1.961780e+00    7.859905e-01   1.065240e-02
  1.963990e+00    7.785245e-01   1.059167e-02
  1.966201e+00    7.939533e-01   1.068600e-02
  1.968411e+00    8.059766e-01   1.075637e-02
  1.970622e+00    7.947730e-01   1.067122e-02
  1.972832e+00    7.852764e-01   1.059731e-02
  1.975043e+00    7.758564e-01   1.052357e-02
  1.977253e+00    7.960033e-01   1.064931e-02
  1.979464e+00    7.864248e-01   1.057501e-02
  1.981674e+00    7.708057e-01   1.045926e-02
  1.983885e+00    7.971050e-01   1.062610e-02
  1.986095e+00    7.939962e-01   1.059555e-02
  1.988305e+00    8.074562e-01   1.067492e-02
  1.990516e+00    7.957290e-01   1.058710e-02
  1.992726e+00    7.848821e-01   1.050497e-02
  1.994937e+00    7.833648e-01   1.048464e-02
  1.997147e+00    7.698774e-01   1.038431e-02
  1.999358e+00    7.844859e-01   1.047243e-02
  2.001568e+00    7.746289e-01   1.039565e-02
  2.003779e+00    7.595331e-01   1.028200e-02
  2.005989e+00    7.794071e-01   1.040359e-02
  2.008200e+00    7.753222e-01   1.036473e-02
  2.010410e+00    7.757949e-01   1.035608e-02
  2.012621e+00    7.784662e-01   1.036212e-02
  2.014831e+00    7.661280e-01   1.026822e-02
  2.017041e+00    7.743610e-01   1.031280e-02
  2.019252e+00    7.846552e-01   1.037105e-02
  2.021462e+00    7.644794e-01   1.022734e-02
  2.023673e+00    7.701059e-01   1.025548e-02
  2.025883e+00    7.771204e-01   1.029247e-02
  2.028094e+00    7.753472e-01   1.027102e-02
  2.030304e+00    7.709886e-01   1.023248e-02
  2.032515e+00    7.826838e-01   1.030039e-02
  2.034725e+00    7.548748e-01   1.010634e-02
  2.036936e+00    7.630713e-01   1.015167e-02
  2.039146e+00    7.607391e-01   1.012657e-02
  2.041356e+00    7.516857e-01   1.005650e-02
  2.043567e+00    7.640231e-01   1.012934e-02
  2.045777e+00    7.676727e-01   1.014419e-02
  2.047988e+00    7.722718e-01   1.016506e-02
  2.050198e+00    7.687593e-01   1.013337e-02
  2.052409e+00    7.820784e-01   1.021301e-02
  2.054619e+00    7.700114e-01   1.012643e-02
  2.056830e+00    7.737647e-01   1.014380e-02
  2.059040e+00    7.926931e-01   1.025940e-02
  2.061251e+00    7.990512e-01   1.029299e-02
  2.063461e+00    7.835230e-01   1.018472e-02
  2.065671e+00    7.648790e-01   1.005400e-02
  2.067882e+00    7.845662e-01   1.017333e-02
  2.070092e+00    7.849639e-01   1.016652e-02
  2.072303e+00    7.509075e-01   9.934356e-03
  2.074513e+00    7.524791e-01   9.935381e-03
  2.076724e+00    7.593616e-01   9.971150e-03
  2.078934e+00    7.378923e-01   9.820220e-03
  2.081145e+00    7.547662e-01   9.922705e-03
  2.083355e+00    7.317526e-01   9.761156e-03
  2.085566e+00    7.642516e-01   9.966488e-03
  2.087776e+00    7.591894e-01   9.923832e-03
  2.089986e+00    7.483025e-01   9.843553e-03
  2.092197e+00    7.435617e-01   9.803341e-03
  2.094407e+00    7.393650e-01   9.766377e-03
  2.096618e+00    7.357039e-01   9.733277e-03
  2.098828e+00    7.381806e-01   9.740300e-03
  2.101039e+00    7.457238e-01   9.780886e-03
  2.103249e+00    7.575420e-01   9.849259e-03
  2.105460e+00    7.475828e-01   9.775198e-03
  2.107670e+00    7.397298e-01   9.714905e-03
  2.109881e+00    7.319831e-01   9.654705e-03
  2.112091e+00    7.232299e-01   9.587845e-03
  2.114301e+00    7.317830e-01   9.635534e-03
  2.116512e+00    7.367768e-01   9.659485e-03
  2.118722e+00    7.448390e-01   9.703225e-03
  2.120933e+00    7.217398e-01   9.542733e-03
  2.123143e+00    7.135577e-01   9.479576e-03
  2.125354e+00    7.278581e-01   9.565538e-03
  2.127564e+00    7.048880e-01   9.404718e-03
  2.129775e+00    7.070604e-01   9.410523e-03
  2.131985e+00    7.048306e-01   9.386674e-03
  2.134196e+00    7.098270e-01   9.411323e-03
  2.136406e+00    7.055307e-01   9.374092e-03
  2.138617e+00    7.097038e-01   9.393322e-03
  2.140827e+00    6.973155e-01   9.326901e-03
  2.143037e+00    7.233207e-01   9.545226e-03
  2.145248e+00    7.086554e-01   9.470016e-03
  2.147458e+00    7.025236e-01   9.444077e-03
  2.149669e+00    6.923367e-01   9.387108e-03
  2.151879e+00    7.037381e-01   9.473316e-03
  2.154090e+00    6.999903e-01   9.455387e-03
  2.156300e+00    7.011411e-01   9.469731e-03
  2.158511e+00    7.159215e-01   9.574403e-03
  2.160721e+00    7.205816e-01   9.610418e-03
  2.162932e+00    7.176390e-01   9.594559e-03
  2.165142e+00    7.109616e-01   9.552866e-03
  2.167352e+00    7.048598e-01   9.514718e-03
  2.169563e+00    7.024630e-01   9.500504e-03
  2.171773e+00    6.825393e-01   9.367221e-03
  2.173984e+00    6.928809e-01   9.439313e-03
  2.176194e+00    7.068648e-01   9.535335e-03
  2.178405e+00    6.942649e-01   9.450650e-03
  2.180615e+00    6.724672e-01   9.301784e-03
  2.182826e+00    6.780733e-01   9.341142e-03
  2.185036e+00    6.825387e-01   9.371903e-03
  2.187247e+00    6.847599e-01   9.387084e-03
  2.189457e+00    6.865348e-01   9.398842e-03
  2.191667e+00    6.796247e-01   9.351251e-03
  2.193878e+00    6.969822e-01   9.469329e-03
  2.196088e+00    7.020356e-01   9.502913e-03
  2.198299e+00    6.860774e-01   9.393197e-03
  2.200509e+00    6.918123e-01   9.431315e-03
  2.202720e+00    6.733835e-01   9.303696e-03
  2.204930e+00    6.786944e-01   9.339075e-03
  2.207141e+00    6.827942e-01   9.366131e-03
  2.209351e+00    6.807644e-01   9.350298e-03
  2.211562e+00    6.912572e-01   9.420455e-03
  2.213772e+00    6.708898e-01   9.225417e-03
  2.215982e+00    6.685054e-01   9.165007e-03
  2.218193e+00    6.824975e-01   9.230655e-03
  2.220403e+00    6.781837e-01   9.176809e-03
  2.222614e+00    6.777941e-01   9.153131e-03
  2.224824e+00    6.938022e-01   9.240927e-03
  2.227035e+00    6.818798e-01   9.143642e-03
  2.229245e+00    6.923206e-01   9.196118e-03
  2.231456e+00    6.916069e-01   9.175559e-03
  2.233666e+00    6.853332e-01   9.118575e-03
  2.235877e+00    6.822086e-01   9.083391e-03
  2.238087e+00    6.641194e-01   8.948721e-03
  2.240298e+00    6.687860e-01   8.966343e-03
  2.242508e+00    6.813374e-01   9.034817e-03
  2.244718e+00    6.692798e-01   8.938711e-03
  2.246929e+00    6.644158e-01   8.891793e-03
  2.249139e+00    6.590977e-01   8.843822e-03
  2.251350e+00    6.625420e-01   8.855238e-03
  2.253560e+00    6.635909e-01   8.850700e-03
  2.255771e+00    6.622734e-01   8.830535e-03
  2.257981e+00    6.633483e-01   8.826528e-03
  2.260192e+00    6.592229e-01   8.787994e-03
  2.262402e+00    6.455348e-01   8.685559e-03
  2.264613e+00    6.567107e-01   8.749643e-03
  2.266823e+00    6.606289e-01   8.765331e-03
  2.269033e+00    6.597536e-01   8.749176e-03
  2.271244e+00    6.472578e-01   8.655646e-03
  2.273454e+00    6.524146e-01   8.679868e-03
  2.275665e+00    6.828079e-01   8.869284e-03
  2.277875e+00    6.765428e-01   8.818468e-03
  2.280086e+00    6.484511e-01   8.623491e-03
  2.282296e+00    6.455106e-01   8.594608e-03
  2.284507e+00    6.588024e-01   8.672495e-03
  2.286717e+00    6.689821e-01   8.729711e-03
  2.288928e+00    6.567174e-01   8.639457e-03
  2.291138e+00    6.624027e-01   8.667302e-03
  2.293348e+00    6.606931e-01   8.646540e-03
  2.295559e+00    6.604154e-01   8.635365e-03
  2.297769e+00    6.564538e-01   8.600170e-03
  2.299980e+00    6.619541e-01   8.626735e-03
  2.302190e+00    6.501297e-01   8.540234e-03
  2.304401e+00    6.464934e-01   8.507024e-03
  2.306611e+00    6.608787e-01   8.591901e-03
  2.308822e+00    6.537222e-01   8.536850e-03
  2.311032e+00    6.456420e-01   8.477497e-03
  2.313243e+00    6.385381e-01   8.424523e-03
  2.315453e+00    6.438946e-01   8.452221e-03
  2.317663e+00    6.569428e-01   8.528260e-03
  2.319874e+00    6.511287e-01   8.481663e-03
  2.322084e+00    6.499909e-01   8.465278e-03
  2.324295e+00    6.448109e-01   8.423233e-03
  2.326505e+00    6.369231e-01   8.362569e-03
  2.328716e+00    6.560191e-01   8.478348e-03
  2.330926e+00    6.807749e-01   8.627803e-03
  2.333137e+00    6.526771e-01   8.439461e-03
  2.335347e+00    6.312461e-01   8.290922e-03
  2.337558e+00    6.376061e-01   8.324378e-03
  2.339768e+00    6.425480e-01   8.347983e-03
  2.341979e+00    6.240706e-01   8.218812e-03
  2.344189e+00    6.369628e-01   8.294872e-03
  2.346399e+00    6.340903e-01   8.267669e-03
  2.348610e+00    6.526572e-01   8.379263e-03
  2.350820e+00    6.481794e-01   8.342217e-03
  2.353031e+00    6.391457e-01   8.275564e-03
  2.355241e+00    6.223146e-01   8.157886e-03
  2.357452e+00    6.304185e-01   8.202417e-03
  2.359662e+00    6.303087e-01   8.193492e-03
  2.361873e+00    6.245896e-01   8.148044e-03
  2.364083e+00    6.132494e-01   8.065858e-03
  2.366294e+00    6.020499e-01   7.983903e-03
  2.368504e+00    6.182452e-01   8.082566e-03
  2.370714e+00    6.293293e-01   8.146609e-03
  2.372925e+00    6.271470e-01   8.124412e-03
  2.375135e+00    6.320913e-01   8.148269e-03
  2.377346e+00    6.241657e-01   8.089084e-03
  2.379556e+00    6.255981e-01   8.090432e-03
  2.381767e+00    6.293910e-01   8.107027e-03
  2.383977e+00    5.991206e-01   7.901867e-03
  2.386188e+00    6.110836e-01   7.972499e-03
  2.388398e+00    6.253201e-01   8.056827e-03
  2.390609e+00    6.123471e-01   7.965150e-03
  2.392819e+00    5.948852e-01   7.843100e-03
  2.395029e+00    6.094720e-01   7.931057e-03
  2.397240e+00    6.079849e-01   7.913537e-03
  2.399450e+00    6.342939e-01   8.075011e-03
  2.401661e+00    6.156281e-01   7.947619e-03
  2.403871e+00    6.216888e-01   7.978807e-03
  2.406082e+00    6.160491e-01   7.935075e-03
  2.408292e+00    6.090037e-01   7.881773e-03
  2.410503e+00    6.014285e-01   7.825156e-03
  2.412713e+00    6.045452e-01   7.837615e-03
  2.414924e+00    6.253831e-01   7.963955e-03
  2.417134e+00    6.191874e-01   7.916676e-03
  2.419344e+00    6.236352e-01   7.937534e-03
  2.421555e+00    6.104144e-01   7.845388e-03
  2.423765e+00    5.934525e-01   7.728254e-03
  2.425976e+00    6.092058e-01   7.822273e-03
  2.428186e+00    5.883092e-01   7.679821e-03
  2.430397e+00    5.904449e-01   7.686279e-03
  2.432607e+00    5.870513e-01   7.656951e-03
  2.434818e+00    5.820357e-01   7.616716e-03
  2.437028e+00    5.734082e-01   7.553025e-03
  2.439239e+00    5.807607e-01   7.593714e-03
  2.441449e+00    5.783413e-01   7.570781e-03
  2.443659e+00    5.885910e-01   7.630233e-03
  2.445870e+00    5.766422e-01   7.564510e-03
  2.448080e+00    5.607417e-01   7.493612e-03
  2.450291e+00    5.746830e-01   7.602758e-03
  2.452501e+00    5.805707e-01   7.652808e-03
  2.454712e+00    5.830592e-01   7.677705e-03
  2.456922e+00    5.740239e-01   7.624620e-03
  2.459133e+00    5.782478e-01   7.658104e-03
  2.461343e+00    5.639755e-01   7.567356e-03
  2.463554e+00    5.521003e-01   7.490681e-03
  2.465764e+00    5.514761e-01   7.489562e-03
  2.467975e+00    5.465469e-01   7.458251e-03
  2.470185e+00    5.661523e-01   7.593125e-03
  2.472395e+00    5.487376e-01   7.476645e-03
  2.474606e+00    5.383557e-01   7.407126e-03
  2.476816e+00    5.488217e-01   7.479495e-03
  2.479027e+00    5.550053e-01   7.522380e-03
  2.481237e+00    5.459047e-01   7.460726e-03
  2.483448e+00    5.466390e-01   7.466034e-03
  2.485658e+00    5.516603e-01   7.500123e-03
  2.487869e+00    5.335632e-01   7.376110e-03
  2.490079e+00    5.352930e-01   7.387532e-03
  2.492290e+00    5.423007e-01   7.435294e-03
  2.494500e+00    5.399929e-01   7.418730e-03
  2.496710e+00    5.365316e-01   7.394215e-03
  2.498921e+00    5.371265e-01   7.397324e-03
  2.501131e+00    5.376832e-01   7.400203e-03
  2.503342e+00    5.195342e-01   7.272992e-03
  2.505552e+00    5.300292e-01   7.344952e-03
  2.507763e+00    5.263905e-01   7.318278e-03
  2.509973e+00    5.284759e-01   7.331380e-03
  2.512184e+00    5.163723e-01   7.245338e-03
  2.514394e+00    5.286346e-01   7.321465e-03
  2.516605e+00    5.425808e-01   7.369660e-03
  2.518815e+00    5.233958e-01   7.209942e-03
  2.521025e+00    5.245652e-01   7.197033e-03
  2.523236e+00    5.296958e-01   7.214097e-03
  2.525446e+00    5.396846e-01   7.265985e-03
  2.527657e+00    5.214897e-01   7.127916e-03
  2.529867e+00    5.256433e-01   7.142038e-03
  2.532078e+00    5.350828e-01   7.190695e-03
  2.534288e+00    5.406525e-01   7.213948e-03
  2.536499e+00    5.404179e-01   7.200265e-03
  2.538709e+00    5.155614e-01   7.021820e-03
  2.540920e+00    5.140706e-01   7.001107e-03
  2.543130e+00    5.233133e-01   7.053420e-03
  2.545340e+00    5.236158e-01   7.045395e-03
  2.547551e+00    5.171682e-01   6.991993e-03
  2.549761e+00    5.215030e-01   7.011656e-03
  2.551972e+00    5.107758e-01   6.929929e-03
  2.554182e+00    5.175425e-01   6.966520e-03
  2.556393e+00    5.212699e-01   6.982473e-03
  2.558603e+00    5.182309e-01   6.953034e-03
  2.560814e+00    5.117742e-01   6.900951e-03
  2.563024e+00    5.140104e-01   6.907472e-03
  2.565235e+00    5.069356e-01   6.850367e-03
  2.567445e+00    5.167353e-01   6.906752e-03
  2.569656e+00    5.040441e-01   6.811776e-03
  2.571866e+00    5.081341e-01   6.830099e-03
  2.574076e+00    5.127293e-01   6.851675e-03
  2.576287e+00    5.068044e-01   6.803730e-03
  2.578497e+00    5.016587e-01   6.761363e-03
  2.580708e+00    5.027384e-01   6.760647e-03
  2.582918e+00    5.080388e-01   6.788486e-03
  2.585129e+00    5.123671e-01   6.809598e-03
  2.587339e+00    5.096803e-01   6.784089e-03
  2.589550e+00    5.159871e-01   6.818344e-03
  2.591760e+00    5.178633e-01   6.822957e-03
  2.593971e+00    5.177870e-01   6.814879e-03
  2.596181e+00    5.196198e-01   6.820658e-03
  2.598391e+00    5.198629e-01   6.817031e-03
  2.600602e+00    5.075936e-01   6.730195e-03
  2.602812e+00    5.113325e-01   6.747383e-03
  2.605023e+00    5.133568e-01   6.753527e-03
  2.607233e+00    5.119070e-01   6.736827e-03
  2.609444e+00    5.054259e-01   6.686814e-03
  2.611654e+00    5.073388e-01   6.692142e-03
  2.613865e+00    4.967542e-01   6.614992e-03
  2.616075e+00    4.997233e-01   6.627632e-03
  2.618286e+00    5.085163e-01   6.678667e-03
  2.620496e+00    5.054500e-01   6.651813e-03
  2.622706e+00    5.047658e-01   6.641564e-03
  2.624917e+00    5.017135e-01   6.615620e-03
  2.627127e+00    5.020196e-01   6.611911e-03
  2.629338e+00    5.106593e-01   6.662540e-03
  2.631548e+00    4.937166e-01   6.544989e-03
  2.633759e+00    4.938029e-01   6.538454e-03
  2.635969e+00    4.932141e-01   6.527937e-03
  2.638180e+00    5.097855e-01   6.629637e-03
  2.640390e+00    5.050991e-01   6.592484e-03
  2.642601e+00    5.036801e-01   6.576519e-03
  2.644811e+00    5.075642e-01   6.594718e-03
  2.647021e+00    4.952343e-01   6.507592e-03
  2.649232e+00    5.007638e-01   6.537080e-03
  2.651442e+00    4.952258e-01   6.494361e-03
  2.653653e+00    4.954508e-01   6.489071e-03
  2.655863e+00    4.991672e-01   6.506664e-03
  2.658074e+00    5.000662e-01   6.505901e-03
  2.660284e+00    5.012798e-01   6.507420e-03
  2.662495e+00    4.920957e-01   6.440802e-03
  2.664705e+00    4.981755e-01   6.473897e-03
  2.666916e+00    4.994808e-01   6.475884e-03
  2.669126e+00    5.039306e-01   6.498164e-03
  2.671337e+00    4.950734e-01   6.434227e-03
  2.673547e+00    5.027302e-01   6.477353e-03
  2.675757e+00    4.980694e-01   6.440801e-03
  2.677968e+00    4.927614e-01   6.399869e-03
  2.680178e+00    4.982108e-01   6.428722e-03
  2.682389e+00    5.038874e-01   6.458782e-03
  2.684599e+00    5.000119e-01   6.427682e-03
  2.686810e+00    4.815619e-01   6.301431e-03
  2.689020e+00    4.891213e-01   6.344428e-03
  2.691231e+00    4.787987e-01   6.270901e-03
  2.693441e+00    4.883375e-01   6.326934e-03
  2.695652e+00    4.834654e-01   6.288826e-03
  2.697862e+00    4.903109e-01   6.326835e-03
  2.700072e+00    4.936306e-01   6.342128e-03
  2.702283e+00    4.900670e-01   6.312957e-03
  2.704493e+00    4.960884e-01   6.345299e-03
  2.706704e+00    4.881112e-01   6.287668e-03
  2.708914e+00    4.841384e-01   6.256097e-03
  2.711125e+00    4.858048e-01   6.260601e-03
  2.713335e+00    4.904397e-01   6.284305e-03
  2.715546e+00    4.801084e-01   6.211333e-03
  2.717756e+00    4.910423e-01   6.275756e-03
  2.719967e+00    4.849763e-01   6.230664e-03
  2.722177e+00    4.861894e-01   6.232318e-03
  2.724387e+00    4.997673e-01   6.312562e-03
  2.726598e+00    4.944350e-01   6.272663e-03
  2.728808e+00    4.893129e-01   6.233936e-03
  2.731019e+00    4.784895e-01   6.158512e-03
  2.733229e+00    4.831290e-01   6.182499e-03
  2.735440e+00    4.815746e-01   6.166278e-03
  2.737650e+00    4.849506e-01   6.181849e-03
  2.739861e+00    4.765007e-01   6.121717e-03
  2.742071e+00    4.826799e-01   6.155546e-03
  2.744282e+00    4.817941e-01   6.143647e-03
  2.746492e+00    4.800594e-01   6.126561e-03
  2.748702e+00    4.822572e-01   6.134660e-03
  2.750913e+00    4.872833e-01   6.160728e-03
  2.753123e+00    4.749490e-01   6.076171e-03
  2.755334e+00    4.943564e-01   6.192918e-03
  2.757544e+00    4.768425e-01   6.076518e-03
  2.759755e+00    4.680196e-01   6.014221e-03
  2.761965e+00    4.720377e-01   6.034053e-03
  2.764176e+00    4.716182e-01   6.025439e-03
  2.766386e+00    4.736134e-01   6.032425e-03
  2.768597e+00    4.824889e-01   6.082783e-03
  2.770807e+00    4.825947e-01   6.077578e-03
  2.773017e+00    4.746303e-01   6.021267e-03
  2.775228e+00    4.692871e-01   5.981553e-03
  2.777438e+00    4.818732e-01   6.055397e-03
  2.779649e+00    4.798276e-01   6.036641e-03
  2.781859e+00    4.772496e-01   6.014632e-03
  2.784070e+00    4.826879e-01   6.042908e-03
  2.786280e+00    4.836341e-01   6.043040e-03
  2.788491e+00    4.815510e-01   6.024134e-03
  2.790701e+00    4.689449e-01   5.939163e-03
  2.792912e+00    4.759497e-01   5.977379e-03
  2.795122e+00    4.776409e-01   5.982275e-03
  2.797333e+00    4.627074e-01   5.882515e-03
  2.799543e+00    4.675740e-01   5.907548e-03
  2.801753e+00    4.698598e-01   5.916154e-03
  2.803964e+00    4.866937e-01   6.015467e-03
  2.806174e+00    4.703059e-01   5.907231e-03
  2.808385e+00    4.607825e-01   5.840408e-03
  2.810595e+00    4.720933e-01   5.904801e-03
  2.812806e+00    4.646277e-01   5.851394e-03
  2.815016e+00    4.695165e-01   5.877371e-03
  2.817227e+00    4.710594e-01   5.912873e-03
  2.819437e+00    4.702383e-01   5.918746e-03
  2.821648e+00    4.788396e-01   5.974939e-03
  2.823858e+00    4.783416e-01   5.977205e-03
  2.826068e+00    4.688838e-01   5.922779e-03
  2.828279e+00    4.637490e-01   5.894254e-03
  2.830489e+00    4.581076e-01   5.861581e-03
  2.832700e+00    4.603119e-01   5.878197e-03
  2.834910e+00    4.700347e-01   5.941993e-03
  2.837121e+00    4.653793e-01   5.914212e-03
  2.839331e+00    4.707808e-01   5.949666e-03
  2.841542e+00    4.794830e-01   6.005418e-03
  2.843752e+00    4.633516e-01   5.904328e-03
  2.845963e+00    4.616248e-01   5.893696e-03
  2.848173e+00    4.671384e-01   5.928874e-03
  2.850383e+00    4.674900e-01   5.931391e-03
  2.852594e+00    4.748918e-01   5.978107e-03
  2.854804e+00    4.625986e-01   5.899701e-03
  2.857015e+00    4.737093e-01   5.969703e-03
  2.859225e+00    4.650947e-01   5.914925e-03
  2.861436e+00    4.636437e-01   5.905036e-03
  2.863646e+00    4.515839e-01   5.827775e-03
  2.865857e+00    4.735925e-01   5.968429e-03
  2.868067e+00    4.742223e-01   5.972619e-03
  2.870278e+00    4.666287e-01   5.924273e-03
  2.872488e+00    4.575558e-01   5.865229e-03
  2.874698e+00    4.634189e-01   5.901642e-03
  2.876909e+00    4.643414e-01   5.906185e-03
  2.879119e+00    4.697621e-01   5.938930e-03
  2.881330e+00    4.742736e-01   5.965892e-03
  2.883540e+00    4.607944e-01   5.879110e-03
  2.885751e+00    4.670149e-01   5.917006e-03
  2.887961e+00    4.699944e-01   5.933966e-03
  2.890172e+00    4.715792e-01   5.942321e-03
  2.892382e+00    4.690175e-01   5.924349e-03
  2.894593e+00    4.582801e-01   5.854337e-03
  2.896803e+00    4.490124e-01   5.792874e-03
  2.899014e+00    4.639797e-01   5.886714e-03
  2.901224e+00    4.597548e-01   5.857863e-03
  2.903434e+00    4.495942e-01   5.790853e-03
  2.905645e+00    4.577067e-01   5.840632e-03
  2.907855e+00    4.564081e-01   5.830255e-03
  2.910066e+00    4.575399e-01   5.835413e-03
  2.912276e+00    4.596849e-01   5.846944e-03
  2.914487e+00    4.673238e-01   5.892845e-03
  2.916697e+00    4.585161e-01   5.834828e-03
  2.918908e+00    4.609608e-01   5.848348e-03
  2.921118e+00    4.754763e-01   5.936966e-03
  2.923329e+00    4.714603e-01   5.909509e-03
  2.925539e+00    4.605184e-01   5.838237e-03
  2.927749e+00    4.582173e-01   5.821313e-03
  2.929960e+00    4.499599e-01   5.765872e-03
  2.932170e+00    4.594779e-01   5.824196e-03
  2.934381e+00    4.560051e-01   5.799708e-03
  2.936591e+00    4.581706e-01   5.810873e-03
  2.938802e+00    4.566689e-01   5.798639e-03
  2.941012e+00    4.589505e-01   5.810765e-03
  2.943223e+00    4.662344e-01   5.853951e-03
  2.945433e+00    4.682150e-01   5.862609e-03
  2.947644e+00    4.490095e-01   5.737003e-03
  2.949854e+00    4.485490e-01   5.729813e-03
  2.952064e+00    4.590981e-01   5.792549e-03
  2.954275e+00    4.563938e-01   5.771065e-03
  2.956485e+00    4.540271e-01   5.751889e-03
  2.958696e+00    4.568100e-01   5.765116e-03
  2.960906e+00    4.487867e-01   5.710104e-03
  2.963117e+00    4.521691e-01   5.727112e-03
  2.965327e+00    4.530702e-01   5.728906e-03
  2.967538e+00    4.562192e-01   5.745880e-03
  2.969748e+00    4.489143e-01   5.696888e-03
  2.971959e+00    4.581784e-01   5.752215e-03
  2.974169e+00    4.537493e-01   5.721767e-03
  2.976379e+00    4.620843e-01   5.771134e-03
  2.978590e+00    4.571918e-01   5.737368e-03
  2.980800e+00    4.477576e-01   5.675070e-03
  2.983011e+00    4.498087e-01   5.685270e-03
  2.985221e+00    4.509661e-01   5.689445e-03
  2.987432e+00    4.461350e-01   5.655800e-03
  2.989642e+00    4.462244e-01   5.653763e-03
  2.991853e+00    4.582134e-01   5.725913e-03
  2.994063e+00    4.636982e-01   5.757151e-03
  2.996274e+00    4.549033e-01   5.699099e-03
  2.998484e+00    4.496837e-01   5.663627e-03
  3.000694e+00    4.366262e-01   5.577403e-03
  3.002905e+00    4.469205e-01   5.639840e-03
  3.005115e+00    4.670851e-01   5.762646e-03
  3.007326e+00    4.595791e-01   5.713008e-03
  3.009536e+00    4.546882e-01   5.679247e-03
  3.011747e+00    4.709820e-01   5.777128e-03
  3.013957e+00    4.614771e-01   5.715342e-03
  3.016168e+00    4.610915e-01   5.709668e-03
  3.018378e+00    4.600669e-01   5.700244e-03
  3.020589e+00    4.594998e-01   5.693515e-03
  3.022799e+00    4.418644e-01   5.580047e-03
  3.025010e+00    4.592508e-01   5.685501e-03
  3.027220e+00    4.632488e-01   5.707062e-03
  3.029430e+00    4.528489e-01   5.639385e-03
  3.031641e+00    4.540180e-01   5.643505e-03
  3.033851e+00    4.557573e-01   5.650784e-03
  3.036062e+00    4.430425e-01   5.568657e-03
  3.038272e+00    4.488133e-01   5.601226e-03
  3.040483e+00    4.456350e-01   5.578153e-03
  3.042693e+00    4.491428e-01   5.596821e-03
  3.044904e+00    4.505202e-01   5.601367e-03
  3.047114e+00    4.507871e-01   5.598225e-03
  3.049325e+00    4.503804e-01   5.591296e-03
  3.051535e+00    4.592204e-01   5.641482e-03
  3.053745e+00    4.549268e-01   5.610276e-03
  3.055956e+00    4.497516e-01   5.573691e-03
  3.058166e+00    4.408344e-01   5.513967e-03
  3.060377e+00    4.285591e-01   5.431973e-03
  3.062587e+00    4.574992e-01   5.607724e-03
  3.064798e+00    4.620824e-01   5.631438e-03
  3.067008e+00    4.528048e-01   5.569877e-03
  3.069219e+00    4.509544e-01   5.553965e-03
  3.071429e+00    4.381013e-01   5.470779e-03
  3.073640e+00    4.508402e-01   5.546391e-03
  3.075850e+00    4.500909e-01   5.538214e-03
  3.078060e+00    4.455055e-01   5.506838e-03
  3.080271e+00    4.425084e-01   5.484819e-03
  3.082481e+00    4.448331e-01   5.495786e-03
  3.084692e+00    4.479668e-01   5.511729e-03
  3.086902e+00    4.418088e-01   5.470494e-03
  3.089113e+00    4.531677e-01   5.536780e-03
  3.091323e+00    4.534867e-01   5.535336e-03
  3.093534e+00    4.601373e-01   5.572357e-03
  3.095744e+00    4.492296e-01   5.502539e-03
  3.097955e+00    4.473996e-01   5.487772e-03
  3.100165e+00    4.456328e-01   5.473589e-03
  3.102375e+00    4.384193e-01   5.425734e-03
  3.104586e+00    4.325938e-01   5.386121e-03
  3.106796e+00    4.387350e-01   5.420723e-03
  3.109007e+00    4.451777e-01   5.457167e-03
  3.111217e+00    4.477935e-01   5.469489e-03
  3.113428e+00    4.419345e-01   5.430178e-03
  3.115638e+00    4.466195e-01   5.455640e-03
  3.117849e+00    4.514098e-01   5.481087e-03
  3.120059e+00    4.570442e-01   5.511668e-03
  3.122270e+00    4.591217e-01   5.520873e-03
  3.124480e+00    4.535742e-01   5.483697e-03
  3.126691e+00    4.516813e-01   5.468657e-03
  3.128901e+00    4.466970e-01   5.435262e-03
  3.131111e+00    4.505503e-01   5.454792e-03
  3.133322e+00    4.549925e-01   5.478124e-03
  3.135532e+00    4.541013e-01   5.469332e-03
  3.137743e+00    4.475394e-01   5.426174e-03
  3.139953e+00    4.417461e-01   5.387244e-03
  3.142164e+00    4.488042e-01   5.442235e-03
  3.144374e+00    4.473136e-01   5.461724e-03
  3.146585e+00    4.483571e-01   5.482779e-03
  3.148795e+00    4.418378e-01   5.453529e-03
  3.151006e+00    4.380542e-01   5.438634e-03
  3.153216e+00    4.387841e-01   5.450279e-03
  3.155426e+00    4.383170e-01   5.453679e-03
  3.157637e+00    4.275812e-01   5.391897e-03
  3.159847e+00    4.411194e-01   5.481472e-03
  3.162058e+00    4.442343e-01   5.505268e-03
  3.164268e+00    4.195461e-01   5.354046e-03
  3.166479e+00    4.329685e-01   5.442641e-03
  3.168689e+00    4.471370e-01   5.534380e-03
  3.170900e+00    4.486268e-01   5.546796e-03
  3.173110e+00    4.484225e-01   5.548445e-03
  3.175321e+00    4.361942e-01   5.474753e-03
  3.177531e+00    4.404415e-01   5.504088e-03
  3.179741e+00    4.376503e-01   5.488693e-03
  3.181952e+00    4.425800e-01   5.521628e-03
  3.184162e+00    4.452378e-01   5.540417e-03
  3.186373e+00    4.426997e-01   5.526187e-03
  3.188583e+00    4.409847e-01   5.517307e-03
  3.190794e+00    4.349608e-01   5.481199e-03
  3.193004e+00    4.471298e-01   5.558626e-03
  3.195215e+00    4.393143e-01   5.511350e-03
  3.197425e+00    4.348821e-01   5.484670e-03
  3.199636e+00    4.397555e-01   5.514551e-03
  3.201846e+00    4.277593e-01   5.438218e-03
  3.204056e+00    4.387410e-01   5.508470e-03
  3.206267e+00    4.333183e-01   5.475163e-03
  3.208477e+00    4.271021e-01   5.436677e-03
  3.210688e+00    4.333872e-01   5.477363e-03
  3.212898e+00    4.380241e-01   5.507178e-03
  3.215109e+00    4.332949e-01   5.478127e-03
  3.217319e+00    4.330874e-01   5.477441e-03
  3.219530e+00    4.372919e-01   5.504373e-03
  3.221740e+00    4.252618e-01   5.428682e-03
  3.223951e+00    4.331285e-01   5.479130e-03
  3.226161e+00    4.346387e-01   5.488856e-03
  3.228372e+00    4.362061e-01   5.499296e-03
  3.230582e+00    4.225972e-01   5.412963e-03
  3.232792e+00    4.245366e-01   5.425591e-03
  3.235003e+00    4.181712e-01   5.385006e-03
  3.237213e+00    4.222347e-01   5.411197e-03
  3.239424e+00    4.297507e-01   5.459155e-03
  3.241634e+00    4.280277e-01   5.448333e-03
  3.243845e+00    4.336075e-01   5.483783e-03
  3.246055e+00    4.277541e-01   5.446386e-03
  3.248266e+00    4.236000e-01   5.420066e-03
  3.250476e+00    4.361613e-01   5.499542e-03
  3.252687e+00    4.186327e-01   5.387832e-03
  3.254897e+00    4.167945e-01   5.375845e-03
  3.257107e+00    4.271635e-01   5.442001e-03
  3.259318e+00    4.262203e-01   5.435760e-03
  3.261528e+00    4.416744e-01   5.533276e-03
  3.263739e+00    4.379932e-01   5.509628e-03
  3.265949e+00    4.284644e-01   5.449233e-03
  3.268160e+00    4.329922e-01   5.477510e-03
  3.270370e+00    4.435966e-01   5.543686e-03
  3.272581e+00    4.282086e-01   5.446376e-03
  3.274791e+00    4.381676e-01   5.508843e-03
  3.277002e+00    4.243681e-01   5.420823e-03
  3.279212e+00    4.487246e-01   5.573817e-03
  3.281422e+00    4.680735e-01   5.692112e-03
  3.283633e+00    4.569427e-01   5.623342e-03
  3.285843e+00    4.438437e-01   5.541822e-03
  3.288054e+00    4.231776e-01   5.410310e-03
  3.290264e+00    4.175442e-01   5.373863e-03
  3.292475e+00    4.223011e-01   5.403554e-03
  3.294685e+00    4.307117e-01   5.456455e-03
  3.296896e+00    4.299323e-01   5.450742e-03
  3.299106e+00    4.504166e-01   5.578547e-03
  3.301317e+00    4.265490e-01   5.427674e-03
  3.303527e+00    4.389676e-01   5.505654e-03
  3.305737e+00    4.273037e-01   5.430963e-03
  3.307948e+00    4.327853e-01   5.465005e-03
  3.310158e+00    4.161244e-01   5.357941e-03
  3.312369e+00    4.286353e-01   5.436987e-03
  3.314579e+00    4.298930e-01   5.444075e-03
  3.316790e+00    4.247060e-01   5.410396e-03
  3.319000e+00    4.133146e-01   5.336173e-03
  3.321211e+00    4.320152e-01   5.454944e-03
  3.323421e+00    4.230209e-01   5.396654e-03
  3.325632e+00    4.134704e-01   5.334519e-03
  3.327842e+00    4.353370e-01   5.472828e-03
  3.330052e+00    4.193753e-01   5.370487e-03
  3.332263e+00    4.280945e-01   5.425002e-03
  3.334473e+00    4.325446e-01   5.452215e-03
  3.336684e+00    4.299316e-01   5.434432e-03
  3.338894e+00    4.227588e-01   5.388076e-03
  3.341105e+00    4.261978e-01   5.408720e-03
  3.343315e+00    4.357730e-01   5.467987e-03
  3.345526e+00    4.167858e-01   5.346652e-03
  3.347736e+00    4.237216e-01   5.389515e-03
  3.349947e+00    4.384808e-01   5.481631e-03
  3.352157e+00    4.329032e-01   5.445480e-03
  3.354368e+00    4.277107e-01   5.411408e-03
  3.356578e+00    4.228030e-01   5.379247e-03
  3.358788e+00    4.176035e-01   5.344749e-03
  3.360999e+00    4.213556e-01   5.367436e-03
  3.363209e+00    4.076954e-01   5.278731e-03
  3.365420e+00    4.107012e-01   5.296633e-03
  3.367630e+00    4.141175e-01   5.317622e-03
  3.369841e+00    4.129294e-01   5.308561e-03
  3.372051e+00    4.148974e-01   5.319216e-03
  3.374262e+00    4.169958e-01   5.330214e-03
  3.376472e+00    4.214855e-01   5.356385e-03
  3.378683e+00    4.294091e-01   5.403925e-03
  3.380893e+00    4.289340e-01   5.398589e-03
  3.383103e+00    4.207209e-01   5.343936e-03
  3.385314e+00    4.158092e-01   5.310394e-03
  3.387524e+00    4.325157e-01   5.413253e-03
  3.389735e+00    4.247070e-01   5.361510e-03
  3.391945e+00    4.089473e-01   5.257423e-03
  3.394156e+00    4.185202e-01   5.314344e-03
  3.396366e+00    4.291019e-01   5.377643e-03
  3.398577e+00    4.148660e-01   5.284638e-03
  3.400787e+00    4.024008e-01   5.216417e-03
  3.402998e+00    4.078337e-01   5.289471e-03
  3.405208e+00    3.937997e-01   5.218033e-03
  3.407418e+00    3.983736e-01   5.263974e-03
  3.409629e+00    4.022748e-01   5.303678e-03
  3.411839e+00    3.941962e-01   5.261841e-03
  3.414050e+00    3.951780e-01   5.279367e-03
  3.416260e+00    3.911599e-01   5.262070e-03
  3.418471e+00    3.833900e-01   5.218819e-03
  3.420681e+00    3.860748e-01   5.245491e-03
  3.422892e+00    3.870000e-01   5.259732e-03
  3.425102e+00    4.078204e-01   5.407349e-03
  3.427313e+00    3.955742e-01   5.332820e-03
  3.429523e+00    3.897061e-01   5.300197e-03
  3.431733e+00    3.955071e-01   5.346243e-03
  3.433944e+00    3.915084e-01   5.325705e-03
  3.436154e+00    3.937303e-01   5.347112e-03
  3.438365e+00    3.886712e-01   5.318625e-03
  3.440575e+00    3.703958e-01   5.197953e-03
  3.442786e+00    3.683465e-01   5.189054e-03
  3.444996e+00    3.799008e-01   5.275340e-03
  3.447207e+00    3.574658e-01   5.122372e-03
  3.449417e+00    3.765415e-01   5.298338e-03
  3.451628e+00    3.672995e-01   5.262321e-03
  3.453838e+00    3.662968e-01   5.276236e-03
  3.456049e+00    3.662671e-01   5.299907e-03
  3.458259e+00    3.715927e-01   5.360377e-03
  3.460469e+00    3.748787e-01   5.404039e-03
  3.462680e+00    3.747987e-01   5.422759e-03
  3.464890e+00    3.831095e-01   5.500745e-03
  3.467101e+00    3.762253e-01   5.468782e-03
  3.469311e+00    3.773545e-01   5.493657e-03
  3.471522e+00    3.878393e-01   5.586156e-03
  3.473732e+00    3.983164e-01   5.677446e-03
  3.475943e+00    4.094073e-01   5.772191e-03
  3.478153e+00    4.112993e-01   5.801436e-03
  3.480364e+00    4.068543e-01   5.785377e-03
  3.482574e+00    4.119887e-01   5.837265e-03
  3.484784e+00    4.301236e-01   5.979598e-03
  3.486995e+00    4.264124e-01   5.969028e-03
  3.489205e+00    4.322970e-01   6.024876e-03
  3.491416e+00    4.401015e-01   6.094186e-03
  3.493626e+00    4.517761e-01   6.189337e-03
  3.495837e+00    4.567644e-01   6.238454e-03
  3.498047e+00    4.555049e-01   6.244512e-03
  3.500258e+00    4.495820e-01   6.218323e-03
  3.502468e+00    4.520118e-01   6.249493e-03
  3.504679e+00    4.575596e-01   6.302149e-03
  3.506889e+00    4.628129e-01   6.352626e-03
  3.509099e+00    4.799328e-01   6.483526e-03
  3.511310e+00    5.109302e-01   6.704633e-03
  3.513520e+00    4.984965e-01   6.637204e-03
  3.515731e+00    5.271677e-01   6.840367e-03
  3.517941e+00    5.055054e-01   6.713004e-03
  3.520152e+00    4.982380e-01   6.678865e-03
  3.522362e+00    5.135571e-01   6.795461e-03
  3.524573e+00    5.224860e-01   6.868790e-03
  3.526783e+00    5.240102e-01   6.892313e-03
  3.528994e+00    5.357221e-01   6.981391e-03
  3.531204e+00    5.402206e-01   7.023316e-03
  3.533414e+00    5.491368e-01   7.093382e-03
  3.535625e+00    5.414692e-01   7.056236e-03
  3.537835e+00    5.362073e-01   7.033993e-03
  3.540046e+00    5.449974e-01   7.100434e-03
  3.542256e+00    5.283135e-01   6.998405e-03
  3.544467e+00    5.455542e-01   7.119345e-03
  3.546677e+00    5.394637e-01   7.087104e-03
  3.548888e+00    5.445943e-01   7.128265e-03
  3.551098e+00    5.455768e-01   7.142073e-03
  3.553309e+00    5.405914e-01   7.117560e-03
  3.555519e+00    5.407771e-01   7.130126e-03
  3.557729e+00    5.248697e-01   7.036074e-03
  3.559940e+00    5.293640e-01   7.077601e-03
  3.562150e+00    5.226907e-01   7.044432e-03
  3.564361e+00    5.328850e-01   7.126030e-03
  3.566571e+00    5.422125e-01   7.202104e-03
  3.568782e+00    5.356751e-01   7.172633e-03
  3.570992e+00    5.314474e-01   7.157946e-03
  3.573203e+00    5.479250e-01   7.282413e-03
  3.575413e+00    5.197662e-01   7.106361e-03
  3.577624e+00    5.256717e-01   7.160584e-03
  3.579834e+00    5.322817e-01   7.219328e-03
  3.582045e+00    5.421609e-01   7.300098e-03
  3.584255e+00    5.453438e-01   7.335706e-03
  3.586465e+00    5.397996e-01   7.312274e-03
  3.588676e+00    5.497851e-01   7.394000e-03
  3.590886e+00    5.166158e-01   7.180958e-03
  3.593097e+00    5.325898e-01   7.305513e-03
  3.595307e+00    5.458183e-01   7.409785e-03
  3.597518e+00    5.494980e-01   7.449148e-03
  3.599728e+00    5.390086e-01   7.391820e-03
  3.601939e+00    5.483146e-01   7.469593e-03
  3.604149e+00    5.532235e-01   7.517608e-03
  3.606360e+00    5.365811e-01   7.417806e-03
  3.608570e+00    5.379200e-01   7.441272e-03
  3.610780e+00    5.466108e-01   7.512321e-03
  3.612991e+00    5.431212e-01   7.498378e-03
  3.615201e+00    5.419713e-01   7.500315e-03
  3.617412e+00    5.404024e-01   7.496751e-03
  3.619622e+00    5.370804e-01   7.479649e-03
  3.621833e+00    5.360149e-01   7.478932e-03
  3.624043e+00    5.361158e-01   7.489198e-03
  3.626254e+00    5.311849e-01   7.464277e-03
  3.628464e+00    5.531686e-01   7.628408e-03
  3.630675e+00    5.312791e-01   7.490021e-03
  3.632885e+00    5.309595e-01   7.502165e-03
  3.635095e+00    5.397442e-01   7.578474e-03
  3.637306e+00    5.398293e-01   7.593487e-03
  3.639516e+00    5.468931e-01   7.657717e-03
  3.641727e+00    5.647848e-01   7.797009e-03
  3.643937e+00    5.256355e-01   7.536345e-03
  3.646148e+00    5.444382e-01   7.684716e-03
  3.648358e+00    5.378001e-01   7.652649e-03
  3.650569e+00    5.313897e-01   7.621627e-03
  3.652779e+00    5.341031e-01   7.655839e-03
  3.654990e+00    5.496984e-01   7.781938e-03
  3.657200e+00    5.437949e-01   7.755075e-03
  3.659410e+00    5.429351e-01   7.764083e-03
  3.661621e+00    5.365452e-01   7.733436e-03
  3.663831e+00    5.411079e-01   7.781475e-03
  3.666042e+00    5.398582e-01   7.787793e-03
  3.668252e+00    5.388179e-01   7.795602e-03
  3.670463e+00    5.272164e-01   7.726428e-03
  3.672673e+00    5.194259e-01   7.684371e-03
  3.674884e+00    5.184344e-01   7.692239e-03
  3.677094e+00    5.251246e-01   7.757155e-03
  3.679305e+00    5.372285e-01   7.861696e-03
  3.681515e+00    5.428318e-01   7.918403e-03
  3.683726e+00    5.285321e-01   7.829181e-03
  3.685936e+00    5.409895e-01   7.936831e-03
  3.688146e+00    5.121428e-01   7.737834e-03
  3.690357e+00    5.219562e-01   7.827491e-03
  3.692567e+00    5.179146e-01   7.813085e-03
  3.694778e+00    5.349151e-01   7.956470e-03
  3.696988e+00    5.129977e-01   7.807569e-03
  3.699199e+00    5.163594e-01   7.849174e-03
  3.701409e+00    5.384724e-01   8.032085e-03
  3.703620e+00    5.009619e-01   7.763209e-03
  3.705830e+00    5.336236e-01   8.028774e-03
  3.708041e+00    5.484446e-01   8.156542e-03
  3.710251e+00    5.428550e-01   8.131900e-03
  3.712461e+00    5.156590e-01   7.942179e-03
  3.714672e+00    5.434795e-01   8.170708e-03
  3.716882e+00    5.104567e-01   7.935149e-03
  3.719093e+00    5.230063e-01   8.049233e-03
  3.721303e+00    5.430102e-01   8.219058e-03
  3.723514e+00    5.326217e-01   8.157584e-03
  3.725724e+00    5.170434e-01   8.054527e-03
  3.727935e+00    5.159559e-01   8.063459e-03
  3.730145e+00    5.198982e-01   8.111615e-03
  3.732356e+00    4.922788e-01   7.910308e-03
  3.734566e+00    5.226827e-01   8.168577e-03
  3.736776e+00    5.246541e-01   8.201903e-03
  3.738987e+00    5.113127e-01   8.114636e-03
  3.741197e+00    5.202287e-01   8.203236e-03
  3.743408e+00    5.094224e-01   8.135527e-03
  3.745618e+00    5.289826e-01   8.308868e-03
  3.747829e+00    5.165402e-01   8.228760e-03
  3.750039e+00    5.119236e-01   8.210261e-03
  3.752250e+00    5.076508e-01   8.194383e-03
  3.754460e+00    4.992241e-01   8.144402e-03
  3.756671e+00    4.905446e-01   8.091735e-03
  3.758881e+00    5.013533e-01   8.198916e-03
  3.761091e+00    5.042789e-01   8.241870e-03
  3.763302e+00    5.000308e-01   8.225964e-03
  3.765512e+00    5.009246e-01   8.252477e-03
  3.767723e+00    5.045761e-01   8.301767e-03
  3.769933e+00    5.248991e-01   8.486995e-03
  3.772144e+00    4.922261e-01   8.237983e-03
  3.774354e+00    5.010070e-01   8.330828e-03
  3.776565e+00    4.994315e-01   8.337460e-03
  3.778775e+00    5.174917e-01   8.507068e-03
  3.780986e+00    5.027586e-01   8.405408e-03
  3.783196e+00    5.140001e-01   8.519297e-03
  3.785407e+00    5.027491e-01   8.445974e-03
  3.787617e+00    5.232247e-01   8.637418e-03
  3.789827e+00    4.942577e-01   8.415281e-03
  3.792038e+00    4.884615e-01   8.386347e-03
  3.794248e+00    4.963511e-01   8.474834e-03
  3.796459e+00    5.086128e-01   8.600401e-03
  3.798669e+00    5.222638e-01   8.736880e-03
  3.800880e+00    5.236533e-01   8.770428e-03
  3.803090e+00    5.378469e-01   8.911151e-03
  3.805301e+00    5.156825e-01   8.748014e-03
  3.807511e+00    5.260418e-01   8.858050e-03
  3.809722e+00    4.986396e-01   8.646416e-03
  3.811932e+00    5.196425e-01   8.849346e-03
  3.814142e+00    5.044603e-01   8.742048e-03
  3.816353e+00    5.307420e-01   8.990465e-03
  3.818563e+00    5.155917e-01   8.884746e-03
  3.820774e+00    4.984004e-01   8.758510e-03
  3.822984e+00    4.991267e-01   8.788240e-03
  3.825195e+00    5.117614e-01   8.922864e-03
  3.827405e+00    5.074246e-01   8.909123e-03
  3.829616e+00    5.298135e-01   9.128327e-03
  3.831826e+00    5.245034e-01   9.107349e-03
  3.834037e+00    4.991195e-01   8.908758e-03
  3.836247e+00    4.990687e-01   8.933073e-03
  3.838457e+00    4.963972e-01   8.934120e-03
  3.840668e+00    4.943790e-01   8.941077e-03
  3.842878e+00    4.969232e-01   8.989651e-03
  3.845089e+00    4.899428e-01   8.951638e-03
  3.847299e+00    5.159070e-01   9.212135e-03
  3.849510e+00    5.204172e-01   9.278769e-03
  3.851720e+00    5.275690e-01   9.364481e-03
  3.853931e+00    5.034997e-01   9.167563e-03
  3.856141e+00    4.732386e-01   8.906325e-03
  3.858352e+00    4.905960e-01   9.087371e-03
  3.860562e+00    4.964404e-01   9.160724e-03
  3.862772e+00    5.233749e-01   9.426018e-03
  3.864983e+00    5.257031e-01   9.467340e-03
  3.867193e+00    5.014446e-01   9.266268e-03
  3.869404e+00    4.979886e-01   9.254160e-03
  3.871614e+00    4.932185e-01   9.229701e-03
  3.873825e+00    5.200248e-01   9.498067e-03
  3.876035e+00    4.957332e-01   9.294248e-03
  3.878246e+00    5.185353e-01   9.531966e-03
  3.880456e+00    4.985174e-01   9.375400e-03
  3.882667e+00    4.885830e-01   9.310703e-03
  3.884877e+00    4.961526e-01   9.412458e-03
  3.887087e+00    5.013445e-01   9.491795e-03
  3.889298e+00    4.963146e-01   9.474596e-03
  3.891508e+00    4.766491e-01   9.315039e-03
  3.893719e+00    5.096161e-01   9.663394e-03
  3.895929e+00    4.833744e-01   9.442536e-03
  3.898140e+00    4.695337e-01   9.337376e-03
  3.900350e+00    4.738775e-01   9.411975e-03
  3.902561e+00    5.029109e-01   9.728837e-03
  3.904771e+00    5.071917e-01   9.803522e-03
  3.906982e+00    4.818891e-01   9.588853e-03
  3.909192e+00    5.093082e-01   9.891930e-03
  3.911403e+00    4.786490e-01   9.623298e-03
  3.913613e+00    4.934954e-01   9.805785e-03
  3.915823e+00    4.617708e-01   9.519255e-03
  3.918034e+00    4.840815e-01   9.781602e-03
  3.920244e+00    4.792459e-01   9.767958e-03
  3.922455e+00    5.016447e-01   1.003026e-02
  3.924665e+00    4.873925e-01   9.923102e-03
  3.926876e+00    4.867265e-01   9.953409e-03
  3.929086e+00    4.992287e-01   1.011824e-02
  3.931297e+00    5.138217e-01   1.030075e-02
  3.933507e+00    5.328768e-01   1.052033e-02
  3.935718e+00    4.855382e-01   1.007090e-02
  3.937928e+00    4.884413e-01   1.013037e-02
  3.940138e+00    4.673326e-01   9.937787e-03
  3.942349e+00    4.960808e-01   1.026898e-02
  3.944559e+00    5.378380e-01   1.072403e-02
  3.946770e+00    4.981084e-01   1.035089e-02
  3.948980e+00    4.726554e-01   1.011323e-02
  3.951191e+00    5.053903e-01   1.048897e-02
  3.953401e+00    4.903267e-01   1.036301e-02
  3.955612e+00    4.796313e-01   1.028076e-02
  3.957822e+00    4.779087e-01   1.029370e-02
  3.960033e+00    4.838734e-01   1.039028e-02
  3.962243e+00    5.132419e-01   1.073473e-02
  3.964453e+00    4.880962e-01   1.050165e-02
  3.966664e+00    4.962001e-01   1.062223e-02
  3.968874e+00    4.795740e-01   1.047093e-02
  3.971085e+00    4.975115e-01   1.068720e-02
  3.973295e+00    4.667123e-01   1.037218e-02
  3.975506e+00    4.938321e-01   1.069102e-02
  3.977716e+00    4.862807e-01   1.063106e-02
  3.979927e+00    4.759928e-01   1.053985e-02
  3.982137e+00    4.895810e-01   1.071159e-02
  3.984348e+00    4.998044e-01   1.084580e-02
  3.986558e+00    4.499461e-01   1.031208e-02
  3.988768e+00    4.802743e-01   1.067686e-02
  3.990979e+00    4.908266e-01   1.081634e-02
  3.993189e+00    5.175338e-01   1.113067e-02
  3.995400e+00    4.670636e-01   1.059712e-02
  3.997610e+00    4.634466e-01   1.058506e-02
  3.999821e+00    4.984633e-01   1.101573e-02
  4.002031e+00    4.756780e-01   1.079915e-02
  4.004242e+00    4.378922e-01   1.039778e-02
  4.006452e+00    4.912602e-01   1.105288e-02
  4.008663e+00    4.766671e-01   1.092719e-02
  4.010873e+00    4.903292e-01   1.112282e-02
  4.013084e+00    4.992760e-01   1.126547e-02
  4.015294e+00    4.936211e-01   1.124286e-02
  4.017504e+00    4.744858e-01   1.106410e-02
  4.019715e+00    4.962542e-01   1.135820e-02
  4.021925e+00    4.791354e-01   1.120331e-02
  4.024136e+00    5.332600e-01   1.186501e-02
  4.026346e+00    4.863184e-01   1.137503e-02
  4.028557e+00    4.758281e-01   1.129565e-02
  4.030767e+00    4.441487e-01   1.095685e-02
  4.032978e+00    4.412183e-01   1.096490e-02
  4.035188e+00    4.573154e-01   1.120797e-02
  4.037399e+00    4.868497e-01   1.161189e-02
  4.039609e+00    5.002587e-01   1.181945e-02
  4.041819e+00    4.651950e-01   1.144543e-02
  4.044030e+00    4.528624e-01   1.134102e-02
  4.046240e+00    4.843059e-01   1.177810e-02
  4.048451e+00    4.638942e-01   1.157709e-02
  4.050661e+00    4.691480e-01   1.169320e-02
  4.052872e+00    4.843090e-01   1.193348e-02
  4.055082e+00    4.750718e-01   1.187218e-02
  4.057293e+00    4.484658e-01   1.158677e-02
  4.059503e+00    4.592540e-01   1.177866e-02
  4.061714e+00    4.763901e-01   1.205247e-02
  4.063924e+00    4.901764e-01   1.228288e-02
  4.066134e+00    4.769775e-01   1.217345e-02
  4.068345e+00    5.019087e-01   1.254765e-02
  4.070555e+00    4.812925e-01   1.234669e-02
  4.072766e+00    4.920948e-01   1.254579e-02
  4.074976e+00    4.895409e-01   1.257564e-02
  4.077187e+00    4.819368e-01   1.253970e-02
  4.079397e+00    4.522507e-01   1.220938e-02
  4.081608e+00    4.873279e-01   1.273971e-02
  4.083818e+00    5.100989e-01   1.310195e-02
  4.086029e+00    4.743895e-01   1.270154e-02
  4.088239e+00    4.905507e-01   1.298575e-02
  4.090449e+00    4.721735e-01   1.280928e-02
  4.092660e+00    4.805457e-01   1.299329e-02
  4.094870e+00    5.030780e-01   1.336856e-02
  4.097081e+00    4.524005e-01   1.274659e-02
  4.099291e+00    4.869825e-01   1.327975e-02
  4.101502e+00    4.584933e-01   1.293341e-02
  4.103712e+00    5.026421e-01   1.359216e-02
  4.105923e+00    5.063717e-01   1.369545e-02
  4.108133e+00    5.065434e-01   1.375060e-02
  4.110344e+00    4.741669e-01   1.335474e-02
  4.112554e+00    4.650913e-01   1.327860e-02
  4.114764e+00    4.769485e-01   1.350067e-02
  4.116975e+00    5.039436e-01   1.393232e-02
  4.119185e+00    4.720321e-01   1.353879e-02
  4.121396e+00    4.615844e-01   1.344330e-02
  4.123606e+00    4.992467e-01   1.403825e-02
  4.125817e+00    5.323836e-01   1.455762e-02
  4.128027e+00    4.987905e-01   1.415012e-02
  4.130238e+00    4.704724e-01   1.380153e-02
  4.132448e+00    5.125362e-01   1.446772e-02
  4.134659e+00    5.120052e-01   1.452245e-02
  4.136869e+00    4.863731e-01   1.421762e-02
  4.139080e+00    4.994159e-01   1.447177e-02
  4.141290e+00    4.782497e-01   1.422443e-02
  4.143500e+00    5.202878e-01   1.490495e-02
  4.145711e+00    5.062030e-01   1.477041e-02
  4.147921e+00    5.031713e-01   1.479384e-02
  4.150132e+00    4.925292e-01   1.470625e-02
  4.152342e+00    5.052794e-01   1.496778e-02
  4.154553e+00    4.567693e-01   1.429857e-02
  4.156763e+00    4.988956e-01   1.501735e-02
  4.158974e+00    5.351440e-01   1.563167e-02
  4.161184e+00    4.679286e-01   1.468947e-02
  4.163395e+00    4.967098e-01   1.521174e-02
  4.165605e+00    5.059001e-01   1.543179e-02
  4.167815e+00    5.081198e-01   1.554624e-02
  4.170026e+00    5.103293e-01   1.566212e-02
  4.172236e+00    4.983255e-01   1.556021e-02
  4.174447e+00    5.129427e-01   1.587309e-02
  4.176657e+00    5.273159e-01   1.618159e-02
  4.178868e+00    5.164803e-01   1.610524e-02
  4.181078e+00    5.103832e-01   1.610026e-02
  4.183289e+00    5.036272e-01   1.608456e-02
  4.185499e+00    5.039368e-01   1.618468e-02
  4.187710e+00    4.992404e-01   1.620347e-02
  4.189920e+00    4.323816e-01   1.517012e-02
  4.192130e+00    4.816820e-01   1.610959e-02
  4.194341e+00    4.638508e-01   1.590555e-02
  4.196551e+00    4.344832e-01   1.549140e-02
  4.198762e+00    4.728739e-01   1.626356e-02
  4.200972e+00    5.046749e-01   1.691069e-02
  4.203183e+00    4.391883e-01   1.587903e-02
  4.205393e+00    4.674652e-01   1.649169e-02
  4.207604e+00    4.309960e-01   1.594326e-02
  4.209814e+00    4.237998e-01   1.591779e-02
  4.212025e+00    5.344617e-01   1.800216e-02
  4.214235e+00    5.963469e-01   1.915105e-02
  4.216445e+00    4.619998e-01   1.697843e-02
  4.218656e+00    5.005002e-01   1.780359e-02
  4.220866e+00    5.587605e-01   1.895096e-02
  4.223077e+00    4.904167e-01   1.789086e-02
  4.225287e+00    4.639565e-01   1.753813e-02
  4.227498e+00    5.616426e-01   1.944784e-02
  4.229708e+00    4.862633e-01   1.824285e-02
  4.231919e+00    4.984362e-01   1.862255e-02
  4.234129e+00    4.919989e-01   1.865728e-02
  4.236340e+00    4.564482e-01   1.812431e-02
  4.238550e+00    4.696533e-01   1.854662e-02
  4.240761e+00    5.352260e-01   1.997417e-02
  4.242971e+00    5.423904e-01   2.029141e-02
  4.245181e+00    5.193197e-01   2.004197e-02
  4.247392e+00    5.007219e-01   1.986363e-02
  4.249602e+00    4.689434e-01   1.941398e-02
  4.251813e+00    4.777139e-01   1.978764e-02
  4.254023e+00    5.389528e-01   2.122959e-02
  4.256234e+00    5.061246e-01   2.079293e-02
  4.258444e+00    5.145784e-01   2.118497e-02
  4.260655e+00    5.311455e-01   2.175981e-02
  4.262865e+00    4.962106e-01   2.127102e-02
  4.265076e+00    4.750137e-01   2.104824e-02
  4.267286e+00    4.557932e-01   2.086232e-02
  4.269496e+00    4.940564e-01   2.198557e-02
  4.271707e+00    4.071453e-01   2.020532e-02
  4.273917e+00    4.916492e-01   2.248937e-02
  4.276128e+00    4.875475e-01   2.269383e-02
  4.278338e+00    4.494558e-01   2.208006e-02
  4.280549e+00    4.464072e-01   2.232045e-02
  4.282759e+00    4.097351e-01   2.169128e-02
  4.284970e+00    4.723810e-01   2.363516e-02
  4.287180e+00    4.132464e-01   2.237122e-02
  4.289391e+00    5.213090e-01   2.531536e-02
  4.291601e+00    5.401540e-01   2.597443e-02
  4.293811e+00    4.672630e-01   2.434797e-02
  4.296022e+00    4.525790e-01   2.415424e-02
  4.298232e+00    4.742295e-01   2.493275e-02
  4.300443e+00    4.866542e-01   2.546505e-02
  4.302653e+00    4.591667e-01   2.495005e-02
  4.304864e+00    4.590740e-01   2.516409e-02
  4.307074e+00    4.202920e-01   2.429354e-02
  4.309285e+00    5.629835e-01   2.837169e-02
  4.311495e+00    4.619140e-01   2.594012e-02
  4.313706e+00    4.793563e-01   2.667291e-02
  4.315916e+00    4.922901e-01   2.729695e-02
  4.318126e+00    3.880813e-01   2.447647e-02
  4.320337e+00    3.498562e-01   2.347304e-02
  4.322547e+00    5.672430e-01   3.020751e-02
  4.324758e+00    4.772677e-01   2.799689e-02
  4.326968e+00    5.163258e-01   2.944735e-02
  4.329179e+00    4.514885e-01   2.783995e-02
  4.331389e+00    4.785072e-01   2.899154e-02
  4.333600e+00    4.145840e-01   2.730739e-02
  4.335810e+00    4.748420e-01   2.957175e-02
  4.338021e+00    5.576016e-01   3.245613e-02
  4.340231e+00    5.281366e-01   3.198367e-02
  4.342442e+00    4.664288e-01   3.046049e-02
  4.344652e+00    4.475972e-01   3.024463e-02
  4.346862e+00    3.767619e-01   2.813651e-02
  4.349073e+00    4.527023e-01   3.129080e-02
  4.351283e+00    4.019060e-01   2.992361e-02
  4.353494e+00    5.243707e-01   3.470769e-02
  4.355704e+00    4.707999e-01   3.341716e-02
  4.357915e+00    3.374930e-01   2.876386e-02
  4.360125e+00    5.033441e-01   3.572708e-02
  4.362336e+00    4.384614e-01   3.395311e-02
  4.364546e+00    4.830747e-01   3.628631e-02
  4.366757e+00    5.332481e-01   3.888406e-02
  4.368967e+00    3.226540e-01   3.085163e-02
  4.371177e+00    4.328595e-01   3.648989e-02
  4.373388e+00    6.108170e-01   4.431671e-02
  4.375598e+00    5.328557e-01   4.233718e-02
  4.377809e+00    3.691839e-01   3.613330e-02
  4.380019e+00    3.161533e-01   3.427647e-02
  4.382230e+00    3.146821e-01   3.515079e-02
  4.384440e+00    2.568361e-01   3.267097e-02
  4.386651e+00    4.567883e-01   4.491184e-02
  4.388861e+00    4.537651e-01   4.626649e-02
  4.391072e+00    4.390889e-01   4.711245e-02
  4.393282e+00    5.534377e-01   5.493504e-02
  4.395492e+00    5.236818e-01   5.566033e-02
  4.397703e+00    5.347378e-01   5.881449e-02
  4.399913e+00    4.148220e-01   5.442381e-02
  4.402124e+00    6.350012e-01   7.115225e-02
  4.404334e+00    6.475095e-01   7.637902e-02
  4.406545e+00    4.226062e-01   6.628881e-02
  4.408755e+00    4.951280e-01   7.782810e-02
  4.410966e+00    3.572977e-01   7.316561e-02
  4.413176e+00    3.780641e-01   8.519574e-02
  4.415387e+00   -5.424451e-01            nan
  4.417597e+00   -1.900513e+00            nan
  4.419807e+00   -3.766224e-01            nan
