# == pyFAI calibration ==
# Distance Sample to Detector: 0.216 m
# PONI: 1.166e-01, 1.308e-01 m
# Rotations: 0.000000 0.000000 0.000000 rad
# 
# == Fit2d calibration ==
# Distance Sample-beamCenter: 216.000 mm
# Center: x=1744.293, y=1555.000 pix
# Tilt: 0.000 deg  TiltPlanRot: 0.000 deg
# 
# Detector Eiger 9M	 PixelSize= 7.500e-05, 7.500e-05 m
#    Detector has a mask: True 
#    Detector has a dark current: False 
#    detector has a flat field: False 
# 
# Wavelength: 9.8e-11 m
# Mask applied: from detector
# Dark current applied: False
# Flat field applied: False
# Polarization factor: None
# Normalization factor: 1.0
# 
# Headers of the input frame:
# {
# "_array_data.header_convention": "SLS_1.0",
# "_array_data.header_contents": "# Detector: Dectris Eiger 9M, S/N E-18-0102\r\n# Pixel_size 75e-6 m x 75e-6 m\r\n# Silicon sensor, thickness 0.000450 m\r\n# Exposure_time 0.024997 s\r\n# Exposure_period 0.025000 s\r\n# Count_cutoff 62318 counts\r\n# Wavelength 0.980106 A\r\n# Detector_distance 0.215992 m\r\n# Beam_xy (1555, 1744) pixels\r\n# Start_angle 0.000000 deg.\r\n# Angle_increment 0.000000 deg.",
# "Content-Type": "application/octet-stream;",
# "conversions": "x-CBF_BYTE_OFFSET",
# "Content-Transfer-Encoding": "BINARY",
# "X-Binary-Size": "10166594",
# "X-Binary-ID": "1",
# "X-Binary-Element-Type": "signed 32-bit integer",
# "X-Binary-Element-Byte-Order": "LITTLE_ENDIAN",
# "Content-MD5": "U0tXAEl3aYRPBdhqfwuuHw==",
# "X-Binary-Number-of-Elements": "10166590",
# "X-Binary-Size-Fastest-Dimension": "3110",
# "X-Binary-Size-Second-Dimension": "3269",
# "X-Binary-Size-Padding": "4095"
# }
# --> H:/Proxima2a_2019-04-05/RAW_DATA/C5_gel17_position5/C5_mesh_1_data.cbf/C5_mesh_1_data.cbf000032.dat
#        q_A^-1              I           sigma 
  1.105228e-03    1.649737e+00   6.950153e-01
  3.315685e-03    1.245036e+00   3.670594e-01
  5.526141e-03    1.581167e+00   3.198608e-01
  7.736597e-03    1.689524e+00   2.793202e-01
  9.947054e-03    1.257714e+00   2.124552e-01
  1.215751e-02    9.637064e-01   1.681671e-01
  1.436797e-02    1.261798e+00   1.769990e-01
  1.657842e-02    1.378820e+00   1.722258e-01
  1.878888e-02    1.226912e+00   1.526055e-01
  2.099934e-02    1.224749e+00   1.442533e-01
  2.320979e-02    1.391494e+00   1.462425e-01
  2.542025e-02    1.331329e+00   1.366949e-01
  2.763070e-02    1.434430e+00   1.360912e-01
  2.984116e-02    1.509727e+00   1.343463e-01
  3.205162e-02    1.543356e+00   1.310748e-01
  3.426207e-02    1.403005e+00   1.208661e-01
  3.647253e-02    1.279692e+00   1.118774e-01
  3.868299e-02    1.426747e+00   1.147147e-01
  4.089344e-02    1.450423e+00   1.124937e-01
  4.310390e-02    1.430356e+00   1.088043e-01
  4.531436e-02    1.510000e+00   1.090321e-01
  4.752481e-02    1.482693e+00   1.054981e-01
  4.973527e-02    1.308386e+00   9.687679e-02
  5.194572e-02    1.266117e+00   9.324808e-02
  5.415618e-02    1.429746e+00   9.704389e-02
  5.636664e-02    1.439932e+00   9.546323e-02
  5.857709e-02    1.479618e+00   9.492692e-02
  6.078755e-02    1.509335e+00   9.411313e-02
  6.299801e-02    1.490862e+00   9.187876e-02
  6.520846e-02    1.485345e+00   9.014140e-02
  6.741892e-02    1.414621e+00   8.651073e-02
  6.962938e-02    1.408682e+00   8.495186e-02
  7.183983e-02    1.490213e+00   8.601937e-02
  7.405029e-02    1.465651e+00   8.402268e-02
  7.626074e-02    1.433575e+00   8.188426e-02
  7.847120e-02    1.503986e+00   8.267914e-02
  8.068166e-02    1.452270e+00   8.012389e-02
  8.289211e-02    1.395652e+00   7.749173e-02
  8.510257e-02    1.436638e+00   7.759309e-02
  8.731303e-02    1.521643e+00   7.883536e-02
  8.952348e-02    1.573605e+00   7.917634e-02
  9.173394e-02    1.510984e+00   7.664149e-02
  9.394439e-02    1.406580e+00   7.306874e-02
  9.615485e-02    1.409869e+00   7.230680e-02
  9.836531e-02    1.478392e+00   7.320440e-02
  1.005758e-01    1.506168e+00   7.307286e-02
  1.027862e-01    1.465287e+00   7.129336e-02
  1.049967e-01    1.603575e+00   7.379120e-02
  1.072071e-01    1.526972e+00   7.126008e-02
  1.094176e-01    1.504062e+00   7.000440e-02
  1.116280e-01    1.422242e+00   6.739483e-02
  1.138385e-01    1.440736e+00   6.716846e-02
  1.160490e-01    1.542764e+00   6.884015e-02
  1.182594e-01    1.519097e+00   6.766719e-02
  1.204699e-01    1.491366e+00   6.642824e-02
  1.226803e-01    1.545527e+00   6.700892e-02
  1.248908e-01    1.523927e+00   6.594678e-02
  1.271012e-01    1.565313e+00   6.625121e-02
  1.293117e-01    1.640448e+00   6.723958e-02
  1.315222e-01    1.616953e+00   6.619147e-02
  1.337326e-01    1.601650e+00   6.532952e-02
  1.359431e-01    1.538106e+00   6.405794e-02
  1.381535e-01    1.589370e+00   6.599075e-02
  1.403640e-01    1.576108e+00   6.599861e-02
  1.425744e-01    1.521159e+00   6.494149e-02
  1.447849e-01    1.544119e+00   6.544481e-02
  1.469953e-01    1.578728e+00   6.613275e-02
  1.492058e-01    1.539133e+00   6.522229e-02
  1.514163e-01    1.521133e+00   6.473210e-02
  1.536267e-01    1.594274e+00   6.614071e-02
  1.558372e-01    1.584642e+00   6.579504e-02
  1.580476e-01    1.513188e+00   6.413849e-02
  1.602581e-01    1.646769e+00   6.673969e-02
  1.624685e-01    1.633950e+00   6.629744e-02
  1.646790e-01    1.579350e+00   6.499316e-02
  1.668895e-01    1.609726e+00   6.542569e-02
  1.690999e-01    1.699562e+00   6.702466e-02
  1.713104e-01    1.713444e+00   6.708902e-02
  1.735208e-01    1.736235e+00   6.732371e-02
  1.757313e-01    1.811687e+00   6.855548e-02
  1.779417e-01    1.792733e+00   6.797350e-02
  1.801522e-01    1.770968e+00   6.734445e-02
  1.823626e-01    1.774345e+00   6.718422e-02
  1.845731e-01    1.834470e+00   6.809172e-02
  1.867836e-01    1.904644e+00   6.914775e-02
  1.889940e-01    1.945985e+00   6.966574e-02
  1.912045e-01    1.980708e+00   7.004982e-02
  1.934149e-01    1.954534e+00   6.935257e-02
  1.956254e-01    1.948708e+00   6.902073e-02
  1.978358e-01    1.915289e+00   6.819186e-02
  2.000463e-01    1.925060e+00   6.813902e-02
  2.022568e-01    1.895122e+00   6.738520e-02
  2.044672e-01    2.015265e+00   6.925029e-02
  2.066777e-01    1.980987e+00   6.843097e-02
  2.088881e-01    1.953162e+00   6.772634e-02
  2.110986e-01    1.936457e+00   6.720484e-02
  2.133090e-01    1.943032e+00   6.710001e-02
  2.155195e-01    1.874829e+00   6.569317e-02
  2.177300e-01    1.922290e+00   6.599692e-02
  2.199404e-01    1.956620e+00   6.482916e-02
  2.221509e-01    1.932708e+00   6.337381e-02
  2.243613e-01    1.943921e+00   6.275164e-02
  2.265718e-01    1.970309e+00   6.247979e-02
  2.287822e-01    2.019800e+00   6.263348e-02
  2.309927e-01    2.013736e+00   6.196966e-02
  2.332031e-01    2.152361e+00   6.351881e-02
  2.354136e-01    2.094792e+00   6.215572e-02
  2.376241e-01    2.120612e+00   6.205219e-02
  2.398345e-01    2.153546e+00   6.206940e-02
  2.420450e-01    2.164389e+00   6.178077e-02
  2.442554e-01    2.130702e+00   6.087579e-02
  2.464659e-01    2.122014e+00   6.034367e-02
  2.486763e-01    2.146776e+00   6.029578e-02
  2.508868e-01    2.164618e+00   6.016387e-02
  2.530973e-01    2.069502e+00   5.846248e-02
  2.553077e-01    2.027175e+00   5.751054e-02
  2.575182e-01    2.070363e+00   5.777606e-02
  2.597286e-01    2.101589e+00   5.787176e-02
  2.619391e-01    2.125917e+00   5.787066e-02
  2.641495e-01    2.108868e+00   5.731915e-02
  2.663600e-01    1.995896e+00   5.545606e-02
  2.685704e-01    2.091151e+00   5.645625e-02
  2.707809e-01    2.032739e+00   5.536676e-02
  2.729914e-01    1.995650e+00   5.457339e-02
  2.752018e-01    2.006391e+00   5.443526e-02
  2.774123e-01    2.027921e+00   5.444701e-02
  2.796227e-01    1.947197e+00   5.308842e-02
  2.818332e-01    1.967062e+00   5.309235e-02
  2.840436e-01    1.973854e+00   5.292614e-02
  2.862541e-01    2.012619e+00   5.318641e-02
  2.884646e-01    1.950433e+00   5.210981e-02
  2.906750e-01    1.969460e+00   5.211509e-02
  2.928855e-01    1.950783e+00   5.162705e-02
  2.950959e-01    1.942008e+00   5.127420e-02
  2.973064e-01    1.943444e+00   5.106261e-02
  2.995168e-01    1.920405e+00   5.052916e-02
  3.017273e-01    1.870404e+00   4.964715e-02
  3.039377e-01    1.888277e+00   4.966537e-02
  3.061482e-01    1.868201e+00   4.918694e-02
  3.083587e-01    1.884296e+00   4.918455e-02
  3.105691e-01    1.899072e+00   4.916611e-02
  3.127796e-01    1.857584e+00   4.842166e-02
  3.149900e-01    1.810982e+00   4.761121e-02
  3.172005e-01    1.777690e+00   4.697865e-02
  3.194109e-01    1.807400e+00   4.717405e-02
  3.216214e-01    1.814032e+00   4.706768e-02
  3.238319e-01    1.847009e+00   4.730540e-02
  3.260423e-01    1.878728e+00   4.751984e-02
  3.282528e-01    1.863428e+00   4.713755e-02
  3.304632e-01    1.832025e+00   4.655761e-02
  3.326737e-01    1.834722e+00   4.641007e-02
  3.348841e-01    1.820257e+00   4.604750e-02
  3.370946e-01    1.830511e+00   4.600328e-02
  3.393050e-01    1.821549e+00   4.571670e-02
  3.415155e-01    1.835613e+00   4.572029e-02
  3.437260e-01    1.790892e+00   4.499254e-02
  3.459364e-01    1.798862e+00   4.492572e-02
  3.481469e-01    1.811724e+00   4.492150e-02
  3.503573e-01    1.774105e+00   4.429071e-02
  3.525678e-01    1.831465e+00   4.484065e-02
  3.547782e-01    1.813623e+00   4.446043e-02
  3.569887e-01    1.769699e+00   4.376311e-02
  3.591992e-01    1.799456e+00   4.397337e-02
  3.614096e-01    1.772130e+00   4.348690e-02
  3.636201e-01    1.753387e+00   4.310433e-02
  3.658305e-01    1.689402e+00   4.216621e-02
  3.680410e-01    1.702242e+00   4.218055e-02
  3.702514e-01    1.775159e+00   4.292964e-02
  3.724619e-01    1.766241e+00   4.267585e-02
  3.746724e-01    1.807304e+00   4.302505e-02
  3.768828e-01    1.783675e+00   4.259904e-02
  3.790933e-01    1.756478e+00   4.213528e-02
  3.813037e-01    1.750156e+00   4.192176e-02
  3.835142e-01    1.722324e+00   4.145052e-02
  3.857246e-01    1.750115e+00   4.164835e-02
  3.879351e-01    1.775255e+00   4.181067e-02
  3.901455e-01    1.748003e+00   4.135643e-02
  3.923560e-01    1.695179e+00   4.059730e-02
  3.945665e-01    1.712407e+00   4.067368e-02
  3.967769e-01    1.693341e+00   4.031993e-02
  3.989874e-01    1.766422e+00   4.105222e-02
  4.011978e-01    1.798272e+00   4.129329e-02
  4.034083e-01    1.760886e+00   4.073638e-02
  4.056187e-01    1.748336e+00   4.046589e-02
  4.078292e-01    1.843233e+00   4.142385e-02
  4.100397e-01    1.782031e+00   4.060600e-02
  4.122501e-01    1.732337e+00   3.991602e-02
  4.144606e-01    1.772380e+00   4.025499e-02
  4.166710e-01    1.797496e+00   4.041867e-02
  4.188815e-01    1.804458e+00   4.037725e-02
  4.210919e-01    1.775691e+00   3.993672e-02
  4.233024e-01    1.773636e+00   3.979620e-02
  4.255128e-01    1.768229e+00   3.962064e-02
  4.277233e-01    1.770724e+00   3.953465e-02
  4.299338e-01    1.752236e+00   3.921457e-02
  4.321442e-01    1.761612e+00   3.920682e-02
  4.343547e-01    1.721100e+00   3.864382e-02
  4.365651e-01    1.746951e+00   3.882231e-02
  4.387756e-01    1.726386e+00   3.848509e-02
  4.409860e-01    1.761406e+00   3.876575e-02
  4.431965e-01    1.723091e+00   3.823581e-02
  4.454070e-01    1.731384e+00   3.822106e-02
  4.476174e-01    1.722962e+00   3.802330e-02
  4.498279e-01    1.708218e+00   3.775724e-02
  4.520383e-01    1.705081e+00   3.761905e-02
  4.542488e-01    1.731412e+00   3.780619e-02
  4.564592e-01    1.678803e+00   3.712751e-02
  4.586697e-01    1.753211e+00   3.784067e-02
  4.608801e-01    1.705371e+00   3.722087e-02
  4.630906e-01    1.693873e+00   3.699694e-02
  4.653011e-01    1.690372e+00   3.686150e-02
  4.675115e-01    1.720008e+00   3.708528e-02
  4.697220e-01    1.729200e+00   3.708693e-02
  4.719324e-01    1.677084e+00   3.642927e-02
  4.741429e-01    1.707361e+00   3.666193e-02
  4.763533e-01    1.702371e+00   3.651446e-02
  4.785638e-01    1.705741e+00   3.645617e-02
  4.807743e-01    1.692884e+00   3.622616e-02
  4.829847e-01    1.673608e+00   3.592832e-02
  4.851952e-01    1.659426e+00   3.568526e-02
  4.874056e-01    1.655132e+00   3.554917e-02
  4.896161e-01    1.675664e+00   3.568030e-02
  4.918265e-01    1.688326e+00   3.572591e-02
  4.940370e-01    1.701478e+00   3.577624e-02
  4.962475e-01    1.720352e+00   3.588529e-02
  4.984579e-01    1.656066e+00   3.512166e-02
  5.006684e-01    1.686755e+00   3.535916e-02
  5.028788e-01    1.670190e+00   3.509986e-02
  5.050893e-01    1.655109e+00   3.485605e-02
  5.072997e-01    1.647186e+00   3.468852e-02
  5.095102e-01    1.692661e+00   3.507990e-02
  5.117206e-01    1.617363e+00   3.420922e-02
  5.139311e-01    1.622774e+00   3.418528e-02
  5.161416e-01    1.709488e+00   3.500384e-02
  5.183520e-01    1.670286e+00   3.451795e-02
  5.205625e-01    1.636833e+00   3.409047e-02
  5.227729e-01    1.653425e+00   3.418291e-02
  5.249834e-01    1.629836e+00   3.385940e-02
  5.271938e-01    1.668537e+00   3.417910e-02
  5.294043e-01    1.752037e+00   3.494307e-02
  5.316148e-01    1.764898e+00   3.499077e-02
  5.338252e-01    1.769974e+00   3.496096e-02
  5.360357e-01    1.767321e+00   3.485523e-02
  5.382461e-01    1.752054e+00   3.462590e-02
  5.404566e-01    1.719241e+00   3.422206e-02
  5.426670e-01    1.732504e+00   3.427641e-02
  5.448775e-01    1.680700e+00   3.368464e-02
  5.470879e-01    1.762776e+00   3.442038e-02
  5.492984e-01    1.749906e+00   3.421826e-02
  5.515089e-01    1.731991e+00   3.396713e-02
  5.537193e-01    1.776304e+00   3.432314e-02
  5.559298e-01    1.742958e+00   3.392487e-02
  5.581402e-01    1.775861e+00   3.416875e-02
  5.603507e-01    1.742611e+00   3.377371e-02
  5.625611e-01    1.734322e+00   3.362017e-02
  5.647716e-01    1.772265e+00   3.391214e-02
  5.669821e-01    1.792005e+00   3.402700e-02
  5.691925e-01    1.725086e+00   3.331394e-02
  5.714030e-01    1.698777e+00   3.298844e-02
  5.736134e-01    1.712667e+00   3.305257e-02
  5.758239e-01    1.716849e+00   3.302228e-02
  5.780343e-01    1.683513e+00   3.263093e-02
  5.802448e-01    1.676462e+00   3.249437e-02
  5.824552e-01    1.655723e+00   3.222501e-02
  5.846657e-01    1.643367e+00   3.203760e-02
  5.868762e-01    1.650573e+00   3.204094e-02
  5.890866e-01    1.596694e+00   3.144826e-02
  5.912971e-01    1.626510e+00   3.167479e-02
  5.935075e-01    1.609907e+00   3.144762e-02
  5.957180e-01    1.579813e+00   3.108836e-02
  5.979284e-01    1.581795e+00   3.104436e-02
  6.001389e-01    1.598676e+00   3.114603e-02
  6.023494e-01    1.643675e+00   3.151719e-02
  6.045598e-01    1.687637e+00   3.187088e-02
  6.067703e-01    1.639633e+00   3.135118e-02
  6.089807e-01    1.624445e+00   3.114288e-02
  6.111912e-01    1.634555e+00   3.117727e-02
  6.134016e-01    1.640824e+00   3.117470e-02
  6.156121e-01    1.659188e+00   3.128634e-02
  6.178226e-01    1.632246e+00   3.096986e-02
  6.200330e-01    1.661152e+00   3.118125e-02
  6.222435e-01    1.646788e+00   3.098464e-02
  6.244539e-01    1.707591e+00   3.148968e-02
  6.266644e-01    1.733665e+00   3.166731e-02
  6.288748e-01    1.687267e+00   3.117988e-02
  6.310853e-01    1.691053e+00   3.115422e-02
  6.332957e-01    1.727481e+00   3.142720e-02
  6.355062e-01    1.713773e+00   3.124147e-02
  6.377167e-01    1.680353e+00   3.087598e-02
  6.399271e-01    1.718933e+00   3.116857e-02
  6.421376e-01    1.705470e+00   3.098703e-02
  6.443480e-01    1.706974e+00   3.094170e-02
  6.465585e-01    1.662127e+00   3.047472e-02
  6.487689e-01    1.648267e+00   3.029006e-02
  6.509794e-01    1.648896e+00   3.023870e-02
  6.531899e-01    1.627071e+00   2.998144e-02
  6.554003e-01    1.605516e+00   2.972619e-02
  6.576108e-01    1.614774e+00   2.975624e-02
  6.598212e-01    1.602875e+00   2.959136e-02
  6.620317e-01    1.591315e+00   2.942977e-02
  6.642421e-01    1.640975e+00   2.983018e-02
  6.664526e-01    1.593119e+00   2.933785e-02
  6.686630e-01    1.591405e+00   2.926782e-02
  6.708735e-01    1.630235e+00   2.956841e-02
  6.730840e-01    1.620060e+00   2.942225e-02
  6.752944e-01    1.588978e+00   2.908565e-02
  6.775049e-01    1.581927e+00   2.896835e-02
  6.797153e-01    1.593215e+00   2.901888e-02
  6.819258e-01    1.589721e+00   2.893475e-02
  6.841362e-01    1.604073e+00   2.901282e-02
  6.863467e-01    1.548090e+00   2.845098e-02
  6.885572e-01    1.573228e+00   2.862966e-02
  6.907676e-01    1.553076e+00   2.839473e-02
  6.929781e-01    1.576846e+00   2.856034e-02
  6.951885e-01    1.570802e+00   2.845507e-02
  6.973990e-01    1.556310e+00   2.827343e-02
  6.996094e-01    1.553731e+00   2.820028e-02
  7.018199e-01    1.579878e+00   2.838667e-02
  7.040303e-01    1.578595e+00   2.832531e-02
  7.062408e-01    1.568520e+00   2.818531e-02
  7.084513e-01    1.556254e+00   2.802606e-02
  7.106617e-01    1.544598e+00   2.787238e-02
  7.128722e-01    1.579418e+00   2.813603e-02
  7.150826e-01    1.590726e+00   2.818791e-02
  7.172931e-01    1.571499e+00   2.796876e-02
  7.195035e-01    1.519791e+00   2.745746e-02
  7.217140e-01    1.563988e+00   2.790314e-02
  7.239245e-01    1.558501e+00   2.807972e-02
  7.261349e-01    1.527125e+00   2.790259e-02
  7.283454e-01    1.524974e+00   2.795418e-02
  7.305558e-01    1.529102e+00   2.804520e-02
  7.327663e-01    1.521720e+00   2.801920e-02
  7.349767e-01    1.520695e+00   2.802585e-02
  7.371872e-01    1.535558e+00   2.815144e-02
  7.393976e-01    1.569711e+00   2.844852e-02
  7.416081e-01    1.587921e+00   2.859685e-02
  7.438186e-01    1.559978e+00   2.820046e-02
  7.460290e-01    1.535858e+00   2.769102e-02
  7.482395e-01    1.516322e+00   2.734637e-02
  7.504499e-01    1.542020e+00   2.744224e-02
  7.526604e-01    1.554275e+00   2.743530e-02
  7.548708e-01    1.561445e+00   2.740945e-02
  7.570813e-01    1.535882e+00   2.713384e-02
  7.592918e-01    1.564642e+00   2.735160e-02
  7.615022e-01    1.616821e+00   2.776971e-02
  7.637127e-01    1.613177e+00   2.770523e-02
  7.659231e-01    1.566040e+00   2.726556e-02
  7.681336e-01    1.539880e+00   2.700559e-02
  7.703440e-01    1.542706e+00   2.699947e-02
  7.725545e-01    1.538080e+00   2.692842e-02
  7.747650e-01    1.583653e+00   2.728615e-02
  7.769754e-01    1.589581e+00   2.728424e-02
  7.791859e-01    1.528306e+00   2.670052e-02
  7.813963e-01    1.572057e+00   2.702751e-02
  7.836068e-01    1.591153e+00   2.713907e-02
  7.858172e-01    1.576270e+00   2.696135e-02
  7.880277e-01    1.558520e+00   2.675811e-02
  7.902381e-01    1.594322e+00   2.701453e-02
  7.924486e-01    1.589108e+00   2.692037e-02
  7.946591e-01    1.595381e+00   2.692523e-02
  7.968695e-01    1.591536e+00   2.684466e-02
  7.990800e-01    1.602656e+00   2.689011e-02
  8.012904e-01    1.596558e+00   2.679251e-02
  8.035009e-01    1.574431e+00   2.655883e-02
  8.057113e-01    1.583000e+00   2.658498e-02
  8.079218e-01    1.572892e+00   2.645421e-02
  8.101323e-01    1.617073e+00   2.677765e-02
  8.123427e-01    1.632502e+00   2.685922e-02
  8.145532e-01    1.600169e+00   2.654641e-02
  8.167636e-01    1.578935e+00   2.632535e-02
  8.189741e-01    1.572371e+00   2.622676e-02
  8.211845e-01    1.626842e+00   2.663246e-02
  8.233950e-01    1.632828e+00   2.663804e-02
  8.256054e-01    1.630725e+00   2.657675e-02
  8.278159e-01    1.650885e+00   2.669640e-02
  8.300264e-01    1.638248e+00   2.655093e-02
  8.322368e-01    1.632920e+00   2.646468e-02
  8.344473e-01    1.600216e+00   2.615547e-02
  8.366577e-01    1.588036e+00   2.601380e-02
  8.388682e-01    1.617284e+00   2.621030e-02
  8.410786e-01    1.632189e+00   2.628886e-02
  8.432891e-01    1.600496e+00   2.599100e-02
  8.454996e-01    1.622060e+00   2.612411e-02
  8.477100e-01    1.610934e+00   2.599304e-02
  8.499205e-01    1.617353e+00   2.600387e-02
  8.521309e-01    1.617906e+00   2.596776e-02
  8.543414e-01    1.642916e+00   2.612687e-02
  8.565518e-01    1.612510e+00   2.584369e-02
  8.587623e-01    1.653175e+00   2.612677e-02
  8.609727e-01    1.626126e+00   2.587200e-02
  8.631832e-01    1.599013e+00   2.561582e-02
  8.653937e-01    1.610769e+00   2.567031e-02
  8.676041e-01    1.607732e+00   2.560741e-02
  8.698146e-01    1.603156e+00   2.553186e-02
  8.720250e-01    1.599120e+00   2.546083e-02
  8.742355e-01    1.563844e+00   2.514011e-02
  8.764459e-01    1.575477e+00   2.519495e-02
  8.786564e-01    1.585799e+00   2.523967e-02
  8.808669e-01    1.579068e+00   2.514785e-02
  8.830773e-01    1.571884e+00   2.505282e-02
  8.852878e-01    1.544671e+00   2.479776e-02
  8.874982e-01    1.564995e+00   2.492414e-02
  8.897087e-01    1.567807e+00   2.490924e-02
  8.919191e-01    1.528515e+00   2.455825e-02
  8.941296e-01    1.553278e+00   2.471961e-02
  8.963401e-01    1.567547e+00   2.479686e-02
  8.985505e-01    1.562617e+00   2.472130e-02
  9.007610e-01    1.548437e+00   2.457274e-02
  9.029714e-01    1.565271e+00   2.467048e-02
  9.051819e-01    1.590216e+00   2.482921e-02
  9.073923e-01    1.539592e+00   2.439491e-02
  9.096028e-01    1.550289e+00   2.444514e-02
  9.118132e-01    1.586853e+00   2.469565e-02
  9.140237e-01    1.575714e+00   2.457250e-02
  9.162342e-01    1.588868e+00   2.464040e-02
  9.184446e-01    1.579144e+00   2.452936e-02
  9.206551e-01    1.610444e+00   2.473557e-02
  9.228655e-01    1.594896e+00   2.458068e-02
  9.250760e-01    1.592462e+00   2.452666e-02
  9.272864e-01    1.595040e+00   2.451234e-02
  9.294969e-01    1.573647e+00   2.431191e-02
  9.317074e-01    1.592604e+00   2.442335e-02
  9.339178e-01    1.575041e+00   2.425515e-02
  9.361283e-01    1.584846e+00   2.429464e-02
  9.383387e-01    1.613169e+00   2.447744e-02
  9.405492e-01    1.631449e+00   2.458134e-02
  9.427596e-01    1.638374e+00   2.459802e-02
  9.449701e-01    1.630386e+00   2.450463e-02
  9.471805e-01    1.634536e+00   2.450106e-02
  9.493910e-01    1.621129e+00   2.436686e-02
  9.516015e-01    1.645918e+00   2.451819e-02
  9.538119e-01    1.658670e+00   2.457923e-02
  9.560224e-01    1.715847e+00   2.496411e-02
  9.582328e-01    1.795258e+00   2.550098e-02
  9.604433e-01    1.835549e+00   2.574906e-02
  9.626537e-01    1.842138e+00   2.576054e-02
  9.648642e-01    1.802353e+00   2.544598e-02
  9.670747e-01    1.750000e+00   2.503909e-02
  9.692851e-01    1.821094e+00   2.550867e-02
  9.714956e-01    1.848639e+00   2.566464e-02
  9.737060e-01    1.865140e+00   2.574506e-02
  9.759165e-01    1.839327e+00   2.553025e-02
  9.781269e-01    1.828081e+00   2.541877e-02
  9.803374e-01    1.818634e+00   2.531797e-02
  9.825478e-01    1.778817e+00   2.500623e-02
  9.847583e-01    1.766186e+00   2.488347e-02
  9.869688e-01    1.724659e+00   2.455626e-02
  9.891792e-01    1.741246e+00   2.464128e-02
  9.913897e-01    1.717408e+00   2.443899e-02
  9.936001e-01    1.729589e+00   2.449340e-02
  9.958106e-01    1.709150e+00   2.431516e-02
  9.980210e-01    1.703320e+00   2.424216e-02
  1.000231e+00    1.651697e+00   2.400276e-02
  1.002442e+00    1.626057e+00   2.394226e-02
  1.004652e+00    1.607252e+00   2.386981e-02
  1.006863e+00    1.596775e+00   2.384126e-02
  1.009073e+00    1.581676e+00   2.376458e-02
  1.011284e+00    1.552822e+00   2.357832e-02
  1.013494e+00    1.499603e+00   2.319371e-02
  1.015705e+00    1.521974e+00   2.338815e-02
  1.017915e+00    1.531243e+00   2.347543e-02
  1.020126e+00    1.527370e+00   2.346157e-02
  1.022336e+00    1.502905e+00   2.328440e-02
  1.024547e+00    1.461519e+00   2.297244e-02
  1.026757e+00    1.503414e+00   2.330760e-02
  1.028967e+00    1.491292e+00   2.322103e-02
  1.031178e+00    1.492576e+00   2.323707e-02
  1.033388e+00    1.481102e+00   2.315258e-02
  1.035599e+00    1.459675e+00   2.298784e-02
  1.037809e+00    1.471107e+00   2.308088e-02
  1.040020e+00    1.454497e+00   2.295145e-02
  1.042230e+00    1.468830e+00   2.306615e-02
  1.044441e+00    1.481776e+00   2.316737e-02
  1.046651e+00    1.479915e+00   2.315299e-02
  1.048862e+00    1.456473e+00   2.296811e-02
  1.051072e+00    1.437831e+00   2.281834e-02
  1.053282e+00    1.448454e+00   2.290152e-02
  1.055493e+00    1.479628e+00   2.314239e-02
  1.057703e+00    1.497895e+00   2.328328e-02
  1.059914e+00    1.530338e+00   2.352976e-02
  1.062124e+00    1.547658e+00   2.365841e-02
  1.064335e+00    1.535057e+00   2.355840e-02
  1.066545e+00    1.549491e+00   2.366277e-02
  1.068756e+00    1.597127e+00   2.401984e-02
  1.070966e+00    1.687652e+00   2.468420e-02
  1.073177e+00    1.683764e+00   2.464933e-02
  1.075387e+00    1.573765e+00   2.382515e-02
  1.077597e+00    1.549048e+00   2.362985e-02
  1.079808e+00    1.523876e+00   2.330165e-02
  1.082018e+00    1.507254e+00   2.298230e-02
  1.084229e+00    1.546842e+00   2.316888e-02
  1.086439e+00    1.698700e+00   2.418505e-02
  1.088650e+00    1.743147e+00   2.441662e-02
  1.090860e+00    1.745002e+00   2.435553e-02
  1.093071e+00    1.629105e+00   2.346698e-02
  1.095281e+00    1.500971e+00   2.246686e-02
  1.097492e+00    1.450817e+00   2.203327e-02
  1.099702e+00    1.454274e+00   2.200787e-02
  1.101912e+00    1.414923e+00   2.165964e-02
  1.104123e+00    1.431135e+00   2.173522e-02
  1.106333e+00    1.402822e+00   2.147521e-02
  1.108544e+00    1.431174e+00   2.164684e-02
  1.110754e+00    1.412969e+00   2.146593e-02
  1.112965e+00    1.385672e+00   2.121754e-02
  1.115175e+00    1.389808e+00   2.120846e-02
  1.117386e+00    1.393783e+00   2.119978e-02
  1.119596e+00    1.387684e+00   2.111582e-02
  1.121807e+00    1.398981e+00   2.116291e-02
  1.124017e+00    1.416676e+00   2.125956e-02
  1.126228e+00    1.400689e+00   2.110357e-02
  1.128438e+00    1.392231e+00   2.100311e-02
  1.130648e+00    1.376309e+00   2.084862e-02
  1.132859e+00    1.377205e+00   2.082129e-02
  1.135069e+00    1.383206e+00   2.083199e-02
  1.137280e+00    1.366660e+00   2.067430e-02
  1.139490e+00    1.349775e+00   2.051357e-02
  1.141701e+00    1.355971e+00   2.052783e-02
  1.143911e+00    1.350401e+00   2.045415e-02
  1.146122e+00    1.344059e+00   2.037447e-02
  1.148332e+00    1.358308e+00   2.045055e-02
  1.150543e+00    1.343975e+00   2.031193e-02
  1.152753e+00    1.331910e+00   2.019018e-02
  1.154963e+00    1.337346e+00   2.020074e-02
  1.157174e+00    1.327977e+00   2.010017e-02
  1.159384e+00    1.357121e+00   2.028986e-02
  1.161595e+00    1.374386e+00   2.038862e-02
  1.163805e+00    1.355636e+00   2.021996e-02
  1.166016e+00    1.314042e+00   1.987850e-02
  1.168226e+00    1.322387e+00   1.991302e-02
  1.170437e+00    1.327269e+00   1.992152e-02
  1.172647e+00    1.366435e+00   2.018441e-02
  1.174858e+00    1.364426e+00   2.014148e-02
  1.177068e+00    1.356227e+00   2.005268e-02
  1.179278e+00    1.371858e+00   2.013923e-02
  1.181489e+00    1.345829e+00   1.992038e-02
  1.183699e+00    1.349314e+00   1.991870e-02
  1.185910e+00    1.321052e+00   1.968158e-02
  1.188120e+00    1.335429e+00   1.976192e-02
  1.190331e+00    1.314117e+00   1.957724e-02
  1.192541e+00    1.323735e+00   1.962169e-02
  1.194752e+00    1.332684e+00   1.966104e-02
  1.196962e+00    1.340485e+00   1.969289e-02
  1.199173e+00    1.296949e+00   1.934447e-02
  1.201383e+00    1.330374e+00   1.956519e-02
  1.203593e+00    1.346651e+00   1.965974e-02
  1.205804e+00    1.312840e+00   1.938581e-02
  1.208014e+00    1.326285e+00   1.945819e-02
  1.210225e+00    1.361880e+00   1.969215e-02
  1.212435e+00    1.355844e+00   1.962362e-02
  1.214646e+00    1.335277e+00   1.944826e-02
  1.216856e+00    1.336168e+00   1.942938e-02
  1.219067e+00    1.355081e+00   1.954191e-02
  1.221277e+00    1.332932e+00   1.935666e-02
  1.223488e+00    1.332547e+00   1.932831e-02
  1.225698e+00    1.319842e+00   1.920933e-02
  1.227909e+00    1.326669e+00   1.922904e-02
  1.230119e+00    1.324710e+00   1.918329e-02
  1.232329e+00    1.324067e+00   1.914821e-02
  1.234540e+00    1.285570e+00   1.883824e-02
  1.236750e+00    1.313895e+00   1.901477e-02
  1.238961e+00    1.330863e+00   1.911038e-02
  1.241171e+00    1.346237e+00   1.919629e-02
  1.243382e+00    1.383622e+00   1.943721e-02
  1.245592e+00    1.378346e+00   1.937577e-02
  1.247803e+00    1.361149e+00   1.923076e-02
  1.250013e+00    1.356672e+00   1.917552e-02
  1.252224e+00    1.312850e+00   1.884035e-02
  1.254434e+00    1.380507e+00   1.929568e-02
  1.256644e+00    1.472849e+00   1.990632e-02
  1.258855e+00    1.513838e+00   2.015684e-02
  1.261065e+00    1.430213e+00   1.956815e-02
  1.263276e+00    1.378815e+00   1.919010e-02
  1.265486e+00    1.376356e+00   1.914989e-02
  1.267697e+00    1.337241e+00   1.885292e-02
  1.269907e+00    1.336648e+00   1.882612e-02
  1.272118e+00    1.340438e+00   1.883033e-02
  1.274328e+00    1.334116e+00   1.876325e-02
  1.276539e+00    1.333529e+00   1.873649e-02
  1.278749e+00    1.330018e+00   1.868968e-02
  1.280959e+00    1.315449e+00   1.856478e-02
  1.283170e+00    1.347379e+00   1.876634e-02
  1.285380e+00    1.349280e+00   1.875713e-02
  1.287591e+00    1.343491e+00   1.869488e-02
  1.289801e+00    1.323164e+00   1.853189e-02
  1.292012e+00    1.317631e+00   1.847622e-02
  1.294222e+00    1.321218e+00   1.848528e-02
  1.296433e+00    1.306586e+00   1.836731e-02
  1.298643e+00    1.316475e+00   1.842038e-02
  1.300854e+00    1.335276e+00   1.853515e-02
  1.303064e+00    1.334020e+00   1.850731e-02
  1.305274e+00    1.356471e+00   1.864091e-02
  1.307485e+00    1.344907e+00   1.853979e-02
  1.309695e+00    1.344425e+00   1.851426e-02
  1.311906e+00    1.338242e+00   1.845004e-02
  1.314116e+00    1.336341e+00   1.841623e-02
  1.316327e+00    1.349672e+00   1.848618e-02
  1.318537e+00    1.359243e+00   1.852965e-02
  1.320748e+00    1.327989e+00   1.829401e-02
  1.322958e+00    1.339267e+00   1.835108e-02
  1.325169e+00    1.336209e+00   1.830922e-02
  1.327379e+00    1.328836e+00   1.823696e-02
  1.329589e+00    1.343855e+00   1.831874e-02
  1.331800e+00    1.329926e+00   1.820301e-02
  1.334010e+00    1.335638e+00   1.822151e-02
  1.336221e+00    1.349662e+00   1.829517e-02
  1.338431e+00    1.326221e+00   1.811493e-02
  1.340642e+00    1.322994e+00   1.815639e-02
  1.342852e+00    1.334089e+00   1.833245e-02
  1.345063e+00    1.323880e+00   1.831115e-02
  1.347273e+00    1.357106e+00   1.857486e-02
  1.349484e+00    1.347517e+00   1.853677e-02
  1.351694e+00    1.343935e+00   1.853479e-02
  1.353905e+00    1.287213e+00   1.815700e-02
  1.356115e+00    1.319999e+00   1.840163e-02
  1.358325e+00    1.325144e+00   1.845068e-02
  1.360536e+00    1.344822e+00   1.859876e-02
  1.362746e+00    1.318031e+00   1.842205e-02
  1.364957e+00    1.303215e+00   1.832572e-02
  1.367167e+00    1.299836e+00   1.830899e-02
  1.369378e+00    1.302599e+00   1.833433e-02
  1.371588e+00    1.321593e+00   1.847264e-02
  1.373799e+00    1.288277e+00   1.824190e-02
  1.376009e+00    1.298539e+00   1.831775e-02
  1.378220e+00    1.305724e+00   1.837086e-02
  1.380430e+00    1.292276e+00   1.827869e-02
  1.382640e+00    1.268116e+00   1.810790e-02
  1.384851e+00    1.264997e+00   1.808646e-02
  1.387061e+00    1.269435e+00   1.811847e-02
  1.389272e+00    1.273481e+00   1.814750e-02
  1.391482e+00    1.284928e+00   1.822822e-02
  1.393693e+00    1.274075e+00   1.815022e-02
  1.395903e+00    1.240802e+00   1.791019e-02
  1.398114e+00    1.251595e+00   1.798651e-02
  1.400324e+00    1.278597e+00   1.817740e-02
  1.402535e+00    1.259792e+00   1.804093e-02
  1.404745e+00    1.237592e+00   1.787893e-02
  1.406955e+00    1.256987e+00   1.801581e-02
  1.409166e+00    1.240823e+00   1.789634e-02
  1.411376e+00    1.245760e+00   1.792880e-02
  1.413587e+00    1.264103e+00   1.805653e-02
  1.415797e+00    1.256776e+00   1.800059e-02
  1.418008e+00    1.257591e+00   1.796477e-02
  1.420218e+00    1.252970e+00   1.778301e-02
  1.422429e+00    1.226711e+00   1.751183e-02
  1.424639e+00    1.216903e+00   1.737837e-02
  1.426850e+00    1.227116e+00   1.739736e-02
  1.429060e+00    1.254977e+00   1.754506e-02
  1.431270e+00    1.249090e+00   1.745992e-02
  1.433481e+00    1.243081e+00   1.737735e-02
  1.435691e+00    1.273637e+00   1.755113e-02
  1.437902e+00    1.282316e+00   1.757421e-02
  1.440112e+00    1.257664e+00   1.736929e-02
  1.442323e+00    1.250566e+00   1.728740e-02
  1.444533e+00    1.278943e+00   1.744978e-02
  1.446744e+00    1.262450e+00   1.730588e-02
  1.448954e+00    1.249030e+00   1.718370e-02
  1.451165e+00    1.237226e+00   1.707294e-02
  1.453375e+00    1.261325e+00   1.721045e-02
  1.455586e+00    1.249948e+00   1.710472e-02
  1.457796e+00    1.250861e+00   1.708368e-02
  1.460006e+00    1.229049e+00   1.690725e-02
  1.462217e+00    1.251449e+00   1.703458e-02
  1.464427e+00    1.254609e+00   1.703065e-02
  1.466638e+00    1.246985e+00   1.695370e-02
  1.468848e+00    1.280482e+00   1.715446e-02
  1.471059e+00    1.244521e+00   1.688703e-02
  1.473269e+00    1.241253e+00   1.684073e-02
  1.475480e+00    1.215580e+00   1.664240e-02
  1.477690e+00    1.242952e+00   1.680512e-02
  1.479901e+00    1.239659e+00   1.675929e-02
  1.482111e+00    1.241760e+00   1.675038e-02
  1.484321e+00    1.277512e+00   1.696659e-02
  1.486532e+00    1.261125e+00   1.683516e-02
  1.488742e+00    1.236865e+00   1.665004e-02
  1.490953e+00    1.240621e+00   1.665291e-02
  1.493163e+00    1.241159e+00   1.663444e-02
  1.495374e+00    1.237977e+00   1.659183e-02
  1.497584e+00    1.241442e+00   1.659353e-02
  1.499795e+00    1.245482e+00   1.659902e-02
  1.502005e+00    1.253392e+00   1.662999e-02
  1.504216e+00    1.240131e+00   1.652093e-02
  1.506426e+00    1.241778e+00   1.651120e-02
  1.508636e+00    1.246464e+00   1.652198e-02
  1.510847e+00    1.233015e+00   1.641098e-02
  1.513057e+00    1.237257e+00   1.641429e-02
  1.515268e+00    1.206996e+00   1.618710e-02
  1.517478e+00    1.215325e+00   1.621808e-02
  1.519689e+00    1.208953e+00   1.615101e-02
  1.521899e+00    1.220872e+00   1.620762e-02
  1.524110e+00    1.243609e+00   1.633759e-02
  1.526320e+00    1.251122e+00   1.636729e-02
  1.528531e+00    1.231396e+00   1.621815e-02
  1.530741e+00    1.237047e+00   1.623625e-02
  1.532951e+00    1.233046e+00   1.619055e-02
  1.535162e+00    1.216048e+00   1.616398e-02
  1.537372e+00    1.226380e+00   1.629879e-02
  1.539583e+00    1.232546e+00   1.637374e-02
  1.541793e+00    1.217185e+00   1.627825e-02
  1.544004e+00    1.206794e+00   1.620887e-02
  1.546214e+00    1.220611e+00   1.629990e-02
  1.548425e+00    1.215934e+00   1.626891e-02
  1.550635e+00    1.203076e+00   1.619217e-02
  1.552846e+00    1.219557e+00   1.631225e-02
  1.555056e+00    1.234621e+00   1.637138e-02
  1.557266e+00    1.216144e+00   1.613924e-02
  1.559477e+00    1.207821e+00   1.602566e-02
  1.561687e+00    1.217687e+00   1.606067e-02
  1.563898e+00    1.211365e+00   1.600197e-02
  1.566108e+00    1.215666e+00   1.601459e-02
  1.568319e+00    1.230249e+00   1.609482e-02
  1.570529e+00    1.218197e+00   1.599094e-02
  1.572740e+00    1.229255e+00   1.603588e-02
  1.574950e+00    1.236291e+00   1.605549e-02
  1.577161e+00    1.238832e+00   1.604658e-02
  1.579371e+00    1.219675e+00   1.589858e-02
  1.581582e+00    1.241910e+00   1.602310e-02
  1.583792e+00    1.257009e+00   1.610210e-02
  1.586002e+00    1.225129e+00   1.587912e-02
  1.588213e+00    1.235282e+00   1.592761e-02
  1.590423e+00    1.197329e+00   1.566132e-02
  1.592634e+00    1.199128e+00   1.565184e-02
  1.594844e+00    1.224438e+00   1.579492e-02
  1.597055e+00    1.230335e+00   1.581254e-02
  1.599265e+00    1.214041e+00   1.568698e-02
  1.601476e+00    1.199414e+00   1.557224e-02
  1.603686e+00    1.186301e+00   1.546754e-02
  1.605897e+00    1.201705e+00   1.554777e-02
  1.608107e+00    1.217580e+00   1.563075e-02
  1.610317e+00    1.214468e+00   1.559163e-02
  1.612528e+00    1.198016e+00   1.546679e-02
  1.614738e+00    1.175787e+00   1.530410e-02
  1.616949e+00    1.185428e+00   1.534805e-02
  1.619159e+00    1.168842e+00   1.522201e-02
  1.621370e+00    1.149099e+00   1.507498e-02
  1.623580e+00    1.161371e+00   1.513732e-02
  1.625791e+00    1.182847e+00   1.525859e-02
  1.628001e+00    1.158906e+00   1.508546e-02
  1.630212e+00    1.138898e+00   1.493731e-02
  1.632422e+00    1.142579e+00   1.494388e-02
  1.634632e+00    1.122016e+00   1.479192e-02
  1.636843e+00    1.143936e+00   1.491842e-02
  1.639053e+00    1.146365e+00   1.491716e-02
  1.641264e+00    1.152982e+00   1.494320e-02
  1.643474e+00    1.135640e+00   1.481319e-02
  1.645685e+00    1.147275e+00   1.487230e-02
  1.647895e+00    1.130457e+00   1.474648e-02
  1.650106e+00    1.122590e+00   1.467829e-02
  1.652316e+00    1.098336e+00   1.450273e-02
  1.654527e+00    1.107921e+00   1.454946e-02
  1.656737e+00    1.109337e+00   1.454240e-02
  1.658947e+00    1.101297e+00   1.447352e-02
  1.661158e+00    1.120185e+00   1.458092e-02
  1.663368e+00    1.086278e+00   1.434278e-02
  1.665579e+00    1.075675e+00   1.425678e-02
  1.667789e+00    1.066710e+00   1.418137e-02
  1.670000e+00    1.076324e+00   1.422990e-02
  1.672210e+00    1.076232e+00   1.421364e-02
  1.674421e+00    1.108319e+00   1.440863e-02
  1.676631e+00    1.094047e+00   1.429974e-02
  1.678842e+00    1.088103e+00   1.424515e-02
  1.681052e+00    1.085347e+00   1.421177e-02
  1.683263e+00    1.087456e+00   1.421045e-02
  1.685473e+00    1.064538e+00   1.404492e-02
  1.687683e+00    1.070457e+00   1.406856e-02
  1.689894e+00    1.060252e+00   1.398573e-02
  1.692104e+00    1.050596e+00   1.390716e-02
  1.694315e+00    1.075044e+00   1.405351e-02
  1.696525e+00    1.064350e+00   1.396835e-02
  1.698736e+00    1.064136e+00   1.395209e-02
  1.700946e+00    1.062496e+00   1.392621e-02
  1.703157e+00    1.043490e+00   1.378653e-02
  1.705367e+00    1.038310e+00   1.373789e-02
  1.707578e+00    1.024363e+00   1.363091e-02
  1.709788e+00    1.026821e+00   1.363325e-02
  1.711998e+00    1.020454e+00   1.357608e-02
  1.714209e+00    1.004004e+00   1.345201e-02
  1.716419e+00    1.002554e+00   1.342825e-02
  1.718630e+00    9.986750e-01   1.338821e-02
  1.720840e+00    9.918434e-01   1.332840e-02
  1.723051e+00    9.782490e-01   1.322320e-02
  1.725261e+00    9.910400e-01   1.329491e-02
  1.727472e+00    9.770882e-01   1.318713e-02
  1.729682e+00    9.825014e-01   1.321033e-02
  1.731893e+00    1.010459e+00   1.338308e-02
  1.734103e+00    1.004300e+00   1.332848e-02
  1.736313e+00    9.978411e-01   1.327160e-02
  1.738524e+00    9.970328e-01   1.325243e-02
  1.740734e+00    9.825026e-01   1.314193e-02
  1.742945e+00    9.747540e-01   1.307669e-02
  1.745155e+00    9.748210e-01   1.306381e-02
  1.747366e+00    9.520186e-01   1.289658e-02
  1.749576e+00    9.397009e-01   1.279951e-02
  1.751787e+00    9.530472e-01   1.287694e-02
  1.753997e+00    9.690905e-01   1.297157e-02
  1.756208e+00    1.034825e+00   1.339066e-02
  1.758418e+00    1.105586e+00   1.382693e-02
  1.760628e+00    1.112618e+00   1.385658e-02
  1.762839e+00    1.022742e+00   1.327154e-02
  1.765049e+00    9.676650e-01   1.289607e-02
  1.767260e+00    9.376370e-01   1.268173e-02
  1.769470e+00    9.370573e-01   1.266496e-02
  1.771681e+00    9.367017e-01   1.264950e-02
  1.773891e+00    9.449208e-01   1.269187e-02
  1.776102e+00    9.292665e-01   1.257356e-02
  1.778312e+00    9.306386e-01   1.257018e-02
  1.780523e+00    9.355624e-01   1.259071e-02
  1.782733e+00    9.393279e-01   1.260333e-02
  1.784944e+00    9.423202e-01   1.261047e-02
  1.787154e+00    9.330845e-01   1.253597e-02
  1.789364e+00    9.397401e-01   1.256807e-02
  1.791575e+00    9.582514e-01   1.267848e-02
  1.793785e+00    9.779072e-01   1.279510e-02
  1.795996e+00    9.608871e-01   1.267049e-02
  1.798206e+00    9.341010e-01   1.248000e-02
  1.800417e+00    9.139062e-01   1.233171e-02
  1.802627e+00    9.165902e-01   1.233783e-02
  1.804838e+00    9.361680e-01   1.245664e-02
  1.807048e+00    9.448004e-01   1.250086e-02
  1.809259e+00    9.150728e-01   1.228896e-02
  1.811469e+00    8.914762e-01   1.211463e-02
  1.813679e+00    8.804442e-01   1.202464e-02
  1.815890e+00    8.641747e-01   1.189855e-02
  1.818100e+00    8.567174e-01   1.183233e-02
  1.820311e+00    8.579386e-01   1.182628e-02
  1.822521e+00    8.811614e-01   1.197051e-02
  1.824732e+00    8.601301e-01   1.181224e-02
  1.826942e+00    8.600699e-01   1.179966e-02
  1.829153e+00    8.797070e-01   1.192196e-02
  1.831363e+00    8.791000e-01   1.190586e-02
  1.833574e+00    8.644553e-01   1.179469e-02
  1.835784e+00    8.500174e-01   1.168457e-02
  1.837994e+00    8.427223e-01   1.162282e-02
  1.840205e+00    8.579494e-01   1.171628e-02
  1.842415e+00    8.691187e-01   1.178057e-02
  1.844626e+00    8.925184e-01   1.192639e-02
  1.846836e+00    8.900853e-01   1.189857e-02
  1.849047e+00    8.673098e-01   1.173373e-02
  1.851257e+00    8.822545e-01   1.182470e-02
  1.853468e+00    8.750817e-01   1.176769e-02
  1.855678e+00    8.478562e-01   1.157438e-02
  1.857889e+00    8.326049e-01   1.146141e-02
  1.860099e+00    8.423263e-01   1.151958e-02
  1.862309e+00    8.549071e-01   1.159678e-02
  1.864520e+00    8.686922e-01   1.168127e-02
  1.866730e+00    8.553123e-01   1.158158e-02
  1.868941e+00    8.430040e-01   1.148707e-02
  1.871151e+00    8.183971e-01   1.130699e-02
  1.873362e+00    8.147457e-01   1.127065e-02
  1.875572e+00    8.187328e-01   1.128744e-02
  1.877783e+00    8.162736e-01   1.125927e-02
  1.879993e+00    8.254794e-01   1.131156e-02
  1.882204e+00    8.397733e-01   1.139822e-02
  1.884414e+00    8.466401e-01   1.143362e-02
  1.886624e+00    8.373398e-01   1.135965e-02
  1.888835e+00    8.359994e-01   1.133958e-02
  1.891045e+00    8.417436e-01   1.136761e-02
  1.893256e+00    8.249257e-01   1.124247e-02
  1.895466e+00    8.084168e-01   1.111842e-02
  1.897677e+00    7.866929e-01   1.095743e-02
  1.899887e+00    7.997627e-01   1.103729e-02
  1.902098e+00    8.211236e-01   1.117297e-02
  1.904308e+00    8.072581e-01   1.106781e-02
  1.906519e+00    7.839165e-01   1.089608e-02
  1.908729e+00    7.867931e-01   1.090572e-02
  1.910940e+00    8.064877e-01   1.103038e-02
  1.913150e+00    8.003532e-01   1.097793e-02
  1.915360e+00    8.266481e-01   1.114618e-02
  1.917571e+00    8.067243e-01   1.100027e-02
  1.919781e+00    8.048192e-01   1.097669e-02
  1.921992e+00    8.078067e-01   1.098652e-02
  1.924202e+00    7.916507e-01   1.086550e-02
  1.926413e+00    7.935176e-01   1.086815e-02
  1.928623e+00    7.891273e-01   1.082766e-02
  1.930834e+00    7.954425e-01   1.086058e-02
  1.933044e+00    8.183229e-01   1.100495e-02
  1.935255e+00    8.111205e-01   1.094611e-02
  1.937465e+00    7.876332e-01   1.077618e-02
  1.939675e+00    7.901774e-01   1.078285e-02
  1.941886e+00    7.767018e-01   1.068041e-02
  1.944096e+00    7.888975e-01   1.075382e-02
  1.946307e+00    8.026966e-01   1.083714e-02
  1.948517e+00    7.784362e-01   1.066181e-02
  1.950728e+00    7.952111e-01   1.076584e-02
  1.952938e+00    7.781568e-01   1.063982e-02
  1.955149e+00    7.810087e-01   1.064915e-02
  1.957359e+00    7.813334e-01   1.064143e-02
  1.959570e+00    7.839686e-01   1.064855e-02
  1.961780e+00    7.618724e-01   1.048771e-02
  1.963990e+00    7.780316e-01   1.058830e-02
  1.966201e+00    7.839708e-01   1.061863e-02
  1.968411e+00    7.838055e-01   1.060739e-02
  1.970622e+00    7.959413e-01   1.067904e-02
  1.972832e+00    7.939057e-01   1.065538e-02
  1.975043e+00    7.716270e-01   1.049486e-02
  1.977253e+00    7.620607e-01   1.041980e-02
  1.979464e+00    7.674677e-01   1.044676e-02
  1.981674e+00    7.578110e-01   1.037073e-02
  1.983885e+00    7.740287e-01   1.047114e-02
  1.986095e+00    7.661044e-01   1.040780e-02
  1.988305e+00    7.744408e-01   1.045440e-02
  1.990516e+00    7.612352e-01   1.035509e-02
  1.992726e+00    7.627966e-01   1.035611e-02
  1.994937e+00    7.729442e-01   1.041467e-02
  1.997147e+00    7.721637e-01   1.039972e-02
  1.999358e+00    7.619486e-01   1.032092e-02
  2.001568e+00    7.525145e-01   1.024617e-02
  2.003779e+00    7.718184e-01   1.036482e-02
  2.005989e+00    7.752322e-01   1.037569e-02
  2.008200e+00    7.748230e-01   1.036139e-02
  2.010410e+00    7.657260e-01   1.028867e-02
  2.012621e+00    7.720035e-01   1.031901e-02
  2.014831e+00    7.855352e-01   1.039746e-02
  2.017041e+00    7.593558e-01   1.021240e-02
  2.019252e+00    7.649498e-01   1.023999e-02
  2.021462e+00    7.606681e-01   1.020181e-02
  2.023673e+00    7.468330e-01   1.009934e-02
  2.025883e+00    7.449676e-01   1.007731e-02
  2.028094e+00    7.312168e-01   9.974423e-03
  2.030304e+00    7.393810e-01   1.002056e-02
  2.032515e+00    7.389529e-01   1.000849e-02
  2.034725e+00    7.502456e-01   1.007529e-02
  2.036936e+00    7.448663e-01   1.002986e-02
  2.039146e+00    7.384689e-01   9.977224e-03
  2.041356e+00    7.536376e-01   1.006956e-02
  2.043567e+00    7.519270e-01   1.004884e-02
  2.045777e+00    7.385455e-01   9.949884e-03
  2.047988e+00    7.468536e-01   9.996364e-03
  2.050198e+00    7.174880e-01   9.789666e-03
  2.052409e+00    7.194348e-01   9.795420e-03
  2.054619e+00    7.284365e-01   9.849269e-03
  2.056830e+00    7.319141e-01   9.865646e-03
  2.059040e+00    7.414468e-01   9.922248e-03
  2.061251e+00    7.373754e-01   9.887774e-03
  2.063461e+00    7.235145e-01   9.786935e-03
  2.065671e+00    7.278988e-01   9.807939e-03
  2.067882e+00    7.252471e-01   9.781207e-03
  2.070092e+00    7.390457e-01   9.864658e-03
  2.072303e+00    7.342268e-01   9.823401e-03
  2.074513e+00    7.249158e-01   9.751710e-03
  2.076724e+00    7.347358e-01   9.808132e-03
  2.078934e+00    7.427923e-01   9.852770e-03
  2.081145e+00    7.350169e-01   9.792033e-03
  2.083355e+00    7.426544e-01   9.833588e-03
  2.085566e+00    7.461910e-01   9.848036e-03
  2.087776e+00    7.441280e-01   9.824880e-03
  2.089986e+00    7.462512e-01   9.830061e-03
  2.092197e+00    7.457823e-01   9.817955e-03
  2.094407e+00    7.320105e-01   9.717708e-03
  2.096618e+00    7.262203e-01   9.670310e-03
  2.098828e+00    7.428962e-01   9.771378e-03
  2.101039e+00    7.336797e-01   9.701587e-03
  2.103249e+00    7.068259e-01   9.513875e-03
  2.105460e+00    7.038729e-01   9.485100e-03
  2.107670e+00    7.094387e-01   9.513929e-03
  2.109881e+00    7.071288e-01   9.489367e-03
  2.112091e+00    7.161880e-01   9.541048e-03
  2.114301e+00    7.279732e-01   9.610423e-03
  2.116512e+00    7.186075e-01   9.539631e-03
  2.118722e+00    7.325765e-01   9.623028e-03
  2.120933e+00    7.109365e-01   9.471035e-03
  2.123143e+00    7.124951e-01   9.472528e-03
  2.125354e+00    6.970114e-01   9.360648e-03
  2.127564e+00    6.926411e-01   9.322653e-03
  2.129775e+00    6.842795e-01   9.257695e-03
  2.131985e+00    6.907575e-01   9.292479e-03
  2.134196e+00    6.984766e-01   9.335767e-03
  2.136406e+00    7.082169e-01   9.391923e-03
  2.138617e+00    6.971828e-01   9.310105e-03
  2.140827e+00    6.810767e-01   9.217662e-03
  2.143037e+00    7.056026e-01   9.427583e-03
  2.145248e+00    6.953552e-01   9.380746e-03
  2.147458e+00    6.799039e-01   9.290779e-03
  2.149669e+00    6.906606e-01   9.375740e-03
  2.151879e+00    6.751034e-01   9.278589e-03
  2.154090e+00    7.015422e-01   9.465836e-03
  2.156300e+00    6.900043e-01   9.394243e-03
  2.158511e+00    6.870688e-01   9.379501e-03
  2.160721e+00    6.774596e-01   9.318414e-03
  2.162932e+00    6.749228e-01   9.304627e-03
  2.165142e+00    6.822210e-01   9.357785e-03
  2.167352e+00    6.878480e-01   9.399201e-03
  2.169563e+00    7.002040e-01   9.485183e-03
  2.171773e+00    6.972619e-01   9.467727e-03
  2.173984e+00    6.660680e-01   9.254902e-03
  2.176194e+00    6.804169e-01   9.355215e-03
  2.178405e+00    6.868263e-01   9.399884e-03
  2.180615e+00    6.811672e-01   9.361766e-03
  2.182826e+00    6.806879e-01   9.359126e-03
  2.185036e+00    6.927584e-01   9.441813e-03
  2.187247e+00    6.594079e-01   9.211699e-03
  2.189457e+00    6.554620e-01   9.183674e-03
  2.191667e+00    6.606637e-01   9.219872e-03
  2.193878e+00    6.872465e-01   9.402957e-03
  2.196088e+00    6.902425e-01   9.422766e-03
  2.198299e+00    6.722338e-01   9.297946e-03
  2.200509e+00    6.579916e-01   9.197891e-03
  2.202720e+00    6.622695e-01   9.226592e-03
  2.204930e+00    6.559020e-01   9.180924e-03
  2.207141e+00    6.817868e-01   9.359196e-03
  2.209351e+00    6.891904e-01   9.408006e-03
  2.211562e+00    6.584336e-01   9.194088e-03
  2.213772e+00    6.536024e-01   9.105762e-03
  2.215982e+00    6.501943e-01   9.038627e-03
  2.218193e+00    6.608403e-01   9.083009e-03
  2.220403e+00    6.670250e-01   9.100989e-03
  2.222614e+00    6.641392e-01   9.060487e-03
  2.224824e+00    6.458359e-01   8.915771e-03
  2.227035e+00    6.481778e-01   8.914799e-03
  2.229245e+00    6.555237e-01   8.948411e-03
  2.231456e+00    6.572878e-01   8.944994e-03
  2.233666e+00    6.690589e-01   9.009650e-03
  2.235877e+00    6.693274e-01   8.997228e-03
  2.238087e+00    6.526962e-01   8.871426e-03
  2.240298e+00    6.581206e-01   8.894563e-03
  2.242508e+00    6.529459e-01   8.844578e-03
  2.244718e+00    6.489092e-01   8.801630e-03
  2.246929e+00    6.437840e-01   8.752638e-03
  2.249139e+00    6.602575e-01   8.851605e-03
  2.251350e+00    6.413642e-01   8.712568e-03
  2.253560e+00    6.528432e-01   8.778720e-03
  2.255771e+00    6.637728e-01   8.840530e-03
  2.257981e+00    6.334803e-01   8.625545e-03
  2.260192e+00    6.472347e-01   8.707689e-03
  2.262402e+00    6.593862e-01   8.778263e-03
  2.264613e+00    6.445456e-01   8.668224e-03
  2.266823e+00    6.493751e-01   8.690353e-03
  2.269033e+00    6.517060e-01   8.695650e-03
  2.271244e+00    6.341747e-01   8.567730e-03
  2.273454e+00    6.439639e-01   8.623465e-03
  2.275665e+00    6.466025e-01   8.630945e-03
  2.277875e+00    6.496645e-01   8.641511e-03
  2.280086e+00    6.460226e-01   8.607326e-03
  2.282296e+00    6.488621e-01   8.616880e-03
  2.284507e+00    6.538179e-01   8.639646e-03
  2.286717e+00    6.439656e-01   8.564926e-03
  2.288928e+00    6.550330e-01   8.628365e-03
  2.291138e+00    6.396219e-01   8.516961e-03
  2.293348e+00    6.363789e-01   8.485949e-03
  2.295559e+00    6.450112e-01   8.534059e-03
  2.297769e+00    6.525882e-01   8.574812e-03
  2.299980e+00    6.522791e-01   8.563454e-03
  2.302190e+00    6.416510e-01   8.484365e-03
  2.304401e+00    6.450729e-01   8.497668e-03
  2.306611e+00    6.391236e-01   8.449307e-03
  2.308822e+00    6.553985e-01   8.547779e-03
  2.311032e+00    6.354843e-01   8.410558e-03
  2.313243e+00    6.386983e-01   8.425568e-03
  2.315453e+00    6.466328e-01   8.470184e-03
  2.317663e+00    6.343292e-01   8.380196e-03
  2.319874e+00    6.281217e-01   8.330474e-03
  2.322084e+00    6.303511e-01   8.336388e-03
  2.324295e+00    6.533802e-01   8.479025e-03
  2.326505e+00    6.531102e-01   8.468163e-03
  2.328716e+00    6.307526e-01   8.313498e-03
  2.330926e+00    6.467503e-01   8.409434e-03
  2.333137e+00    6.399122e-01   8.356511e-03
  2.335347e+00    6.351280e-01   8.316385e-03
  2.337558e+00    6.132995e-01   8.164172e-03
  2.339768e+00    6.117145e-01   8.145218e-03
  2.341979e+00    6.152259e-01   8.160359e-03
  2.344189e+00    6.235570e-01   8.207126e-03
  2.346399e+00    6.312146e-01   8.248893e-03
  2.348610e+00    6.316270e-01   8.243173e-03
  2.350820e+00    6.206813e-01   8.163345e-03
  2.353031e+00    6.246427e-01   8.181123e-03
  2.355241e+00    6.143712e-01   8.105655e-03
  2.357452e+00    6.179968e-01   8.121204e-03
  2.359662e+00    6.141850e-01   8.088018e-03
  2.361873e+00    6.217248e-01   8.129324e-03
  2.364083e+00    6.257409e-01   8.147579e-03
  2.366294e+00    6.316183e-01   8.177632e-03
  2.368504e+00    6.021950e-01   7.976969e-03
  2.370714e+00    6.030448e-01   7.974667e-03
  2.372925e+00    6.080795e-01   7.999964e-03
  2.375135e+00    6.150228e-01   8.037492e-03
  2.377346e+00    6.095719e-01   7.993964e-03
  2.379556e+00    6.053283e-01   7.958288e-03
  2.381767e+00    5.904882e-01   7.852472e-03
  2.383977e+00    6.035123e-01   7.930774e-03
  2.386188e+00    6.076633e-01   7.950156e-03
  2.388398e+00    6.079302e-01   7.944020e-03
  2.390609e+00    5.989200e-01   7.877324e-03
  2.392819e+00    6.084685e-01   7.932127e-03
  2.395029e+00    6.129642e-01   7.953757e-03
  2.397240e+00    6.160254e-01   7.965693e-03
  2.399450e+00    6.031833e-01   7.874514e-03
  2.401661e+00    6.072760e-01   7.893506e-03
  2.403871e+00    5.944479e-01   7.802051e-03
  2.406082e+00    5.908166e-01   7.770870e-03
  2.408292e+00    5.918736e-01   7.770124e-03
  2.410503e+00    6.031913e-01   7.836617e-03
  2.412713e+00    5.990312e-01   7.801803e-03
  2.414924e+00    5.974402e-01   7.783997e-03
  2.417134e+00    6.079946e-01   7.844800e-03
  2.419344e+00    5.856915e-01   7.692270e-03
  2.421555e+00    5.917429e-01   7.724464e-03
  2.423765e+00    5.877559e-01   7.691068e-03
  2.425976e+00    5.770225e-01   7.612867e-03
  2.428186e+00    5.758106e-01   7.597785e-03
  2.430397e+00    5.912219e-01   7.691337e-03
  2.432607e+00    5.860193e-01   7.650221e-03
  2.434818e+00    5.739592e-01   7.563685e-03
  2.437028e+00    5.881293e-01   7.649353e-03
  2.439239e+00    5.972254e-01   7.700610e-03
  2.441449e+00    5.845691e-01   7.611440e-03
  2.443659e+00    5.681325e-01   7.496467e-03
  2.445870e+00    5.533099e-01   7.409872e-03
  2.448080e+00    5.603675e-01   7.491114e-03
  2.450291e+00    5.657265e-01   7.543289e-03
  2.452501e+00    5.532858e-01   7.470818e-03
  2.454712e+00    5.583475e-01   7.513242e-03
  2.456922e+00    5.479292e-01   7.449302e-03
  2.459133e+00    5.581936e-01   7.524123e-03
  2.461343e+00    5.551959e-01   7.508225e-03
  2.463554e+00    5.475515e-01   7.459759e-03
  2.465764e+00    5.447822e-01   7.443962e-03
  2.467975e+00    5.432783e-01   7.435927e-03
  2.470185e+00    5.509603e-01   7.490549e-03
  2.472395e+00    5.417279e-01   7.428745e-03
  2.474606e+00    5.278639e-01   7.334589e-03
  2.476816e+00    5.319545e-01   7.363674e-03
  2.479027e+00    5.348381e-01   7.384439e-03
  2.481237e+00    5.264397e-01   7.326507e-03
  2.483448e+00    5.406371e-01   7.424928e-03
  2.485658e+00    5.433889e-01   7.443683e-03
  2.487869e+00    5.282755e-01   7.339457e-03
  2.490079e+00    5.208793e-01   7.287417e-03
  2.492290e+00    5.098979e-01   7.209735e-03
  2.494500e+00    5.197727e-01   7.278512e-03
  2.496710e+00    5.274081e-01   7.331062e-03
  2.498921e+00    5.352818e-01   7.384620e-03
  2.501131e+00    5.244889e-01   7.308838e-03
  2.503342e+00    5.265480e-01   7.321913e-03
  2.505552e+00    5.193106e-01   7.270323e-03
  2.507763e+00    5.031992e-01   7.155252e-03
  2.509973e+00    5.135628e-01   7.227187e-03
  2.512184e+00    5.158706e-01   7.241818e-03
  2.514394e+00    5.047922e-01   7.154468e-03
  2.516605e+00    5.221608e-01   7.229639e-03
  2.518815e+00    5.071374e-01   7.097084e-03
  2.521025e+00    5.130769e-01   7.117783e-03
  2.523236e+00    5.253927e-01   7.184728e-03
  2.525446e+00    5.172665e-01   7.113485e-03
  2.527657e+00    5.157318e-01   7.088428e-03
  2.529867e+00    5.262061e-01   7.145882e-03
  2.532078e+00    5.079127e-01   7.005763e-03
  2.534288e+00    5.115377e-01   7.017008e-03
  2.536499e+00    5.217789e-01   7.074991e-03
  2.538709e+00    5.249224e-01   7.085279e-03
  2.540920e+00    5.262955e-01   7.083884e-03
  2.543130e+00    5.108089e-01   6.968630e-03
  2.545340e+00    5.137431e-01   6.978661e-03
  2.547551e+00    5.138457e-01   6.969499e-03
  2.549761e+00    5.118135e-01   6.946211e-03
  2.551972e+00    5.170074e-01   6.972061e-03
  2.554182e+00    5.070115e-01   6.895293e-03
  2.556393e+00    4.987583e-01   6.830034e-03
  2.558603e+00    5.063857e-01   6.873109e-03
  2.560814e+00    5.043893e-01   6.850980e-03
  2.563024e+00    5.037953e-01   6.838490e-03
  2.565235e+00    5.173160e-01   6.920144e-03
  2.567445e+00    5.295140e-01   6.991620e-03
  2.569656e+00    5.151241e-01   6.886261e-03
  2.571866e+00    5.040143e-01   6.802347e-03
  2.574076e+00    5.075844e-01   6.817220e-03
  2.576287e+00    4.984800e-01   6.747617e-03
  2.578497e+00    4.972202e-01   6.731385e-03
  2.580708e+00    5.039889e-01   6.769048e-03
  2.582918e+00    5.016994e-01   6.746003e-03
  2.585129e+00    5.013367e-01   6.735903e-03
  2.587339e+00    5.015523e-01   6.729776e-03
  2.589550e+00    4.993335e-01   6.707415e-03
  2.591760e+00    5.001107e-01   6.704987e-03
  2.593971e+00    5.050366e-01   6.730449e-03
  2.596181e+00    5.061709e-01   6.731816e-03
  2.598391e+00    5.150228e-01   6.785211e-03
  2.600602e+00    5.008126e-01   6.685104e-03
  2.602812e+00    4.928604e-01   6.624382e-03
  2.605023e+00    4.974313e-01   6.647945e-03
  2.607233e+00    5.112687e-01   6.732613e-03
  2.609444e+00    5.103743e-01   6.719477e-03
  2.611654e+00    5.017193e-01   6.654971e-03
  2.613865e+00    5.017959e-01   6.648476e-03
  2.616075e+00    4.979277e-01   6.615724e-03
  2.618286e+00    4.996452e-01   6.620157e-03
  2.620496e+00    4.966658e-01   6.593763e-03
  2.622706e+00    4.960379e-01   6.583893e-03
  2.624917e+00    5.008096e-01   6.609652e-03
  2.627127e+00    5.087720e-01   6.656228e-03
  2.629338e+00    5.036960e-01   6.616954e-03
  2.631548e+00    5.044614e-01   6.615821e-03
  2.633759e+00    4.839670e-01   6.473029e-03
  2.635969e+00    4.788662e-01   6.432272e-03
  2.638180e+00    4.790904e-01   6.426962e-03
  2.640390e+00    4.823909e-01   6.442576e-03
  2.642601e+00    4.894672e-01   6.483071e-03
  2.644811e+00    4.934245e-01   6.502209e-03
  2.647021e+00    4.802391e-01   6.408308e-03
  2.649232e+00    4.799932e-01   6.400078e-03
  2.651442e+00    4.828330e-01   6.412583e-03
  2.653653e+00    4.927465e-01   6.471318e-03
  2.655863e+00    5.027802e-01   6.530186e-03
  2.658074e+00    4.908425e-01   6.445634e-03
  2.660284e+00    4.782891e-01   6.356433e-03
  2.662495e+00    4.650730e-01   6.261467e-03
  2.664705e+00    4.858481e-01   6.393277e-03
  2.666916e+00    4.973132e-01   6.461828e-03
  2.669126e+00    4.937556e-01   6.432215e-03
  2.671337e+00    4.959984e-01   6.440242e-03
  2.673547e+00    4.893413e-01   6.390517e-03
  2.675757e+00    4.903848e-01   6.390916e-03
  2.677968e+00    4.888904e-01   6.374673e-03
  2.680178e+00    4.974079e-01   6.423547e-03
  2.682389e+00    4.811704e-01   6.311525e-03
  2.684599e+00    4.771580e-01   6.279049e-03
  2.686810e+00    4.924581e-01   6.372321e-03
  2.689020e+00    4.826167e-01   6.302102e-03
  2.691231e+00    4.895064e-01   6.340630e-03
  2.693441e+00    4.914272e-01   6.346925e-03
  2.695652e+00    4.781828e-01   6.254377e-03
  2.697862e+00    4.748202e-01   6.226095e-03
  2.700072e+00    4.759819e-01   6.227714e-03
  2.702283e+00    4.809495e-01   6.253959e-03
  2.704493e+00    4.752226e-01   6.210422e-03
  2.706704e+00    4.778346e-01   6.221122e-03
  2.708914e+00    4.861790e-01   6.269257e-03
  2.711125e+00    4.812632e-01   6.231279e-03
  2.713335e+00    4.853730e-01   6.251751e-03
  2.715546e+00    4.792123e-01   6.205543e-03
  2.717756e+00    4.683555e-01   6.129066e-03
  2.719967e+00    4.650950e-01   6.101621e-03
  2.722177e+00    4.737605e-01   6.152135e-03
  2.724387e+00    4.869130e-01   6.230846e-03
  2.726598e+00    4.918507e-01   6.256266e-03
  2.728808e+00    4.737832e-01   6.134206e-03
  2.731019e+00    4.725741e-01   6.120319e-03
  2.733229e+00    4.818254e-01   6.174145e-03
  2.735440e+00    4.843313e-01   6.183911e-03
  2.737650e+00    4.841243e-01   6.176574e-03
  2.739861e+00    4.814061e-01   6.153154e-03
  2.742071e+00    4.664200e-01   6.050985e-03
  2.744282e+00    4.556395e-01   5.974569e-03
  2.746492e+00    4.684942e-01   6.052309e-03
  2.748702e+00    4.755278e-01   6.091707e-03
  2.750913e+00    4.656410e-01   6.022364e-03
  2.753123e+00    4.654845e-01   6.015326e-03
  2.755334e+00    4.716949e-01   6.049307e-03
  2.757544e+00    4.758849e-01   6.070405e-03
  2.759755e+00    4.746201e-01   6.056476e-03
  2.761965e+00    4.687501e-01   6.013016e-03
  2.764176e+00    4.697963e-01   6.013783e-03
  2.766386e+00    4.739233e-01   6.034384e-03
  2.768597e+00    4.794641e-01   6.063714e-03
  2.770807e+00    4.609783e-01   5.939897e-03
  2.773017e+00    4.644768e-01   5.956509e-03
  2.775228e+00    4.646882e-01   5.952166e-03
  2.777438e+00    4.641360e-01   5.942918e-03
  2.779649e+00    4.667809e-01   5.953997e-03
  2.781859e+00    4.643835e-01   5.933016e-03
  2.784070e+00    4.569432e-01   5.879544e-03
  2.786280e+00    4.775990e-01   6.005196e-03
  2.788491e+00    4.820150e-01   6.027042e-03
  2.790701e+00    4.737513e-01   5.969525e-03
  2.792912e+00    4.641895e-01   5.903082e-03
  2.795122e+00    4.737030e-01   5.957547e-03
  2.797333e+00    4.778751e-01   5.978135e-03
  2.799543e+00    4.725496e-01   5.938923e-03
  2.801753e+00    4.738294e-01   5.941088e-03
  2.803964e+00    4.709917e-01   5.917644e-03
  2.806174e+00    4.692885e-01   5.900824e-03
  2.808385e+00    4.651778e-01   5.868201e-03
  2.810595e+00    4.646510e-01   5.858076e-03
  2.812806e+00    4.577221e-01   5.807755e-03
  2.815016e+00    4.505543e-01   5.757461e-03
  2.817227e+00    4.794447e-01   5.965257e-03
  2.819437e+00    4.691826e-01   5.912121e-03
  2.821648e+00    4.532582e-01   5.813150e-03
  2.823858e+00    4.580567e-01   5.849082e-03
  2.826068e+00    4.662116e-01   5.905875e-03
  2.828279e+00    4.607430e-01   5.875122e-03
  2.830489e+00    4.689731e-01   5.930680e-03
  2.832700e+00    4.629036e-01   5.894727e-03
  2.834910e+00    4.563231e-01   5.854689e-03
  2.837121e+00    4.604808e-01   5.883008e-03
  2.839331e+00    4.580051e-01   5.868382e-03
  2.841542e+00    4.542365e-01   5.845179e-03
  2.843752e+00    4.620695e-01   5.896136e-03
  2.845963e+00    4.588901e-01   5.876216e-03
  2.848173e+00    4.606606e-01   5.887617e-03
  2.850383e+00    4.672241e-01   5.929715e-03
  2.852594e+00    4.695056e-01   5.944093e-03
  2.854804e+00    4.720543e-01   5.959704e-03
  2.857015e+00    4.560703e-01   5.857517e-03
  2.859225e+00    4.429170e-01   5.772176e-03
  2.861436e+00    4.552653e-01   5.851427e-03
  2.863646e+00    4.517307e-01   5.828728e-03
  2.865857e+00    4.568233e-01   5.861795e-03
  2.868067e+00    4.540670e-01   5.844339e-03
  2.870278e+00    4.601547e-01   5.883013e-03
  2.872488e+00    4.657292e-01   5.917383e-03
  2.874698e+00    4.650003e-01   5.911707e-03
  2.876909e+00    4.564680e-01   5.855906e-03
  2.879119e+00    4.537075e-01   5.836570e-03
  2.881330e+00    4.491541e-01   5.805740e-03
  2.883540e+00    4.514461e-01   5.819176e-03
  2.885751e+00    4.548616e-01   5.839502e-03
  2.887961e+00    4.645628e-01   5.899565e-03
  2.890172e+00    4.670420e-01   5.913686e-03
  2.892382e+00    4.446128e-01   5.768157e-03
  2.894593e+00    4.438584e-01   5.761477e-03
  2.896803e+00    4.472589e-01   5.781554e-03
  2.899014e+00    4.446772e-01   5.762964e-03
  2.901224e+00    4.482602e-01   5.784167e-03
  2.903434e+00    4.436342e-01   5.752338e-03
  2.905645e+00    4.464006e-01   5.768057e-03
  2.907855e+00    4.350368e-01   5.692119e-03
  2.910066e+00    4.522092e-01   5.801302e-03
  2.912276e+00    4.590304e-01   5.842783e-03
  2.914487e+00    4.629923e-01   5.865469e-03
  2.916697e+00    4.583840e-01   5.833990e-03
  2.918908e+00    4.520410e-01   5.791495e-03
  2.921118e+00    4.589226e-01   5.832708e-03
  2.923329e+00    4.426391e-01   5.726028e-03
  2.925539e+00    4.581136e-01   5.822974e-03
  2.927749e+00    4.547358e-01   5.799146e-03
  2.929960e+00    4.504578e-01   5.769059e-03
  2.932170e+00    4.546615e-01   5.793597e-03
  2.934381e+00    4.559219e-01   5.799175e-03
  2.936591e+00    4.523198e-01   5.773664e-03
  2.938802e+00    4.392059e-01   5.686687e-03
  2.941012e+00    4.432842e-01   5.710718e-03
  2.943223e+00    4.478439e-01   5.737349e-03
  2.945433e+00    4.478162e-01   5.733467e-03
  2.947644e+00    4.450056e-01   5.711356e-03
  2.949854e+00    4.451298e-01   5.707939e-03
  2.952064e+00    4.456072e-01   5.706810e-03
  2.954275e+00    4.614106e-01   5.802689e-03
  2.956485e+00    4.506843e-01   5.730680e-03
  2.958696e+00    4.539538e-01   5.747052e-03
  2.960906e+00    4.539673e-01   5.742973e-03
  2.963117e+00    4.609263e-01   5.782298e-03
  2.965327e+00    4.366808e-01   5.624359e-03
  2.967538e+00    4.312841e-01   5.586640e-03
  2.969748e+00    4.514818e-01   5.713127e-03
  2.971959e+00    4.697942e-01   5.824687e-03
  2.974169e+00    4.587772e-01   5.753387e-03
  2.976379e+00    4.477919e-01   5.681187e-03
  2.978590e+00    4.573433e-01   5.738297e-03
  2.980800e+00    4.613590e-01   5.760632e-03
  2.983011e+00    4.377897e-01   5.608820e-03
  2.985221e+00    4.227764e-01   5.508746e-03
  2.987432e+00    4.420862e-01   5.630071e-03
  2.989642e+00    4.393084e-01   5.609784e-03
  2.991853e+00    4.307853e-01   5.551901e-03
  2.994063e+00    4.431224e-01   5.627961e-03
  2.996274e+00    4.416519e-01   5.615478e-03
  2.998484e+00    4.405278e-01   5.605669e-03
  3.000694e+00    4.427311e-01   5.616260e-03
  3.002905e+00    4.511329e-01   5.666367e-03
  3.005115e+00    4.387453e-01   5.585107e-03
  3.007326e+00    4.485185e-01   5.643810e-03
  3.009536e+00    4.500159e-01   5.650000e-03
  3.011747e+00    4.535080e-01   5.668958e-03
  3.013957e+00    4.517213e-01   5.654600e-03
  3.016168e+00    4.342144e-01   5.540780e-03
  3.018378e+00    4.252714e-01   5.480448e-03
  3.020589e+00    4.419344e-01   5.583603e-03
  3.022799e+00    4.434912e-01   5.590320e-03
  3.025010e+00    4.392693e-01   5.560443e-03
  3.027220e+00    4.418994e-01   5.574007e-03
  3.029430e+00    4.406159e-01   5.562686e-03
  3.031641e+00    4.257007e-01   5.464685e-03
  3.033851e+00    4.510788e-01   5.621702e-03
  3.036062e+00    4.481004e-01   5.600342e-03
  3.038272e+00    4.402463e-01   5.547521e-03
  3.040483e+00    4.332697e-01   5.500221e-03
  3.042693e+00    4.411877e-01   5.547021e-03
  3.044904e+00    4.544113e-01   5.625512e-03
  3.047114e+00    4.418917e-01   5.542712e-03
  3.049325e+00    4.364579e-01   5.504212e-03
  3.051535e+00    4.397589e-01   5.520635e-03
  3.053745e+00    4.439021e-01   5.541875e-03
  3.055956e+00    4.450990e-01   5.544789e-03
  3.058166e+00    4.609747e-01   5.638497e-03
  3.060377e+00    4.507045e-01   5.570565e-03
  3.062587e+00    4.522996e-01   5.575782e-03
  3.064798e+00    4.344272e-01   5.460319e-03
  3.067008e+00    4.509458e-01   5.558420e-03
  3.069219e+00    4.406498e-01   5.490138e-03
  3.071429e+00    4.483210e-01   5.534220e-03
  3.073640e+00    4.431339e-01   5.498789e-03
  3.075850e+00    4.480897e-01   5.525880e-03
  3.078060e+00    4.434033e-01   5.493825e-03
  3.080271e+00    4.337343e-01   5.430195e-03
  3.082481e+00    4.304962e-01   5.406477e-03
  3.084692e+00    4.476811e-01   5.509979e-03
  3.086902e+00    4.477032e-01   5.506862e-03
  3.089113e+00    4.418644e-01   5.467299e-03
  3.091323e+00    4.470495e-01   5.495905e-03
  3.093534e+00    4.445592e-01   5.477222e-03
  3.095744e+00    4.342997e-01   5.410324e-03
  3.097955e+00    4.354554e-01   5.414014e-03
  3.100165e+00    4.457764e-01   5.474474e-03
  3.102375e+00    4.386847e-01   5.427372e-03
  3.104586e+00    4.362273e-01   5.408693e-03
  3.106796e+00    4.406184e-01   5.432348e-03
  3.109007e+00    4.368740e-01   5.406047e-03
  3.111217e+00    4.426214e-01   5.437789e-03
  3.113428e+00    4.497032e-01   5.477714e-03
  3.115638e+00    4.399444e-01   5.414715e-03
  3.117849e+00    4.367617e-01   5.391424e-03
  3.120059e+00    4.305081e-01   5.349281e-03
  3.122270e+00    4.286835e-01   5.334728e-03
  3.124480e+00    4.298001e-01   5.338054e-03
  3.126691e+00    4.337142e-01   5.358755e-03
  3.128901e+00    4.421024e-01   5.407268e-03
  3.131111e+00    4.291590e-01   5.323716e-03
  3.133322e+00    4.331487e-01   5.345002e-03
  3.135532e+00    4.400606e-01   5.384107e-03
  3.137743e+00    4.431696e-01   5.399613e-03
  3.139953e+00    4.495063e-01   5.434364e-03
  3.142164e+00    4.418995e-01   5.400201e-03
  3.144374e+00    4.375418e-01   5.401751e-03
  3.146585e+00    4.362197e-01   5.408043e-03
  3.148795e+00    4.400581e-01   5.442538e-03
  3.151006e+00    4.420836e-01   5.463590e-03
  3.153216e+00    4.369340e-01   5.438790e-03
  3.155426e+00    4.368435e-01   5.444487e-03
  3.157637e+00    4.153469e-01   5.314215e-03
  3.159847e+00    4.268782e-01   5.392266e-03
  3.162058e+00    4.304673e-01   5.419264e-03
  3.164268e+00    4.362006e-01   5.459290e-03
  3.166479e+00    4.298136e-01   5.422787e-03
  3.168689e+00    4.280197e-01   5.414783e-03
  3.170900e+00    4.294128e-01   5.426706e-03
  3.173110e+00    4.404617e-01   5.498966e-03
  3.175321e+00    4.290311e-01   5.429628e-03
  3.177531e+00    4.344589e-01   5.466568e-03
  3.179741e+00    4.230569e-01   5.396409e-03
  3.181952e+00    4.325419e-01   5.458659e-03
  3.184162e+00    4.365647e-01   5.486180e-03
  3.186373e+00    4.197995e-01   5.381380e-03
  3.188583e+00    4.308346e-01   5.453411e-03
  3.190794e+00    4.201854e-01   5.387328e-03
  3.193004e+00    4.153798e-01   5.357639e-03
  3.195215e+00    4.205755e-01   5.392504e-03
  3.197425e+00    4.305421e-01   5.457251e-03
  3.199636e+00    4.173331e-01   5.372109e-03
  3.201846e+00    4.259722e-01   5.426841e-03
  3.204056e+00    4.249315e-01   5.421090e-03
  3.206267e+00    4.135270e-01   5.348678e-03
  3.208477e+00    4.247494e-01   5.421669e-03
  3.210688e+00    4.293467e-01   5.451784e-03
  3.212898e+00    4.193568e-01   5.388550e-03
  3.215109e+00    4.260271e-01   5.431977e-03
  3.217319e+00    4.253767e-01   5.428469e-03
  3.219530e+00    4.239108e-01   5.419485e-03
  3.221740e+00    4.311328e-01   5.466018e-03
  3.223951e+00    4.237369e-01   5.419429e-03
  3.226161e+00    4.196078e-01   5.393102e-03
  3.228372e+00    4.183049e-01   5.385273e-03
  3.230582e+00    4.234524e-01   5.418432e-03
  3.232792e+00    4.174935e-01   5.380410e-03
  3.235003e+00    4.215035e-01   5.406403e-03
  3.237213e+00    4.340453e-01   5.486365e-03
  3.239424e+00    4.046345e-01   5.297251e-03
  3.241634e+00    4.123507e-01   5.347604e-03
  3.243845e+00    4.170777e-01   5.378242e-03
  3.246055e+00    4.219412e-01   5.409257e-03
  3.248266e+00    4.158216e-01   5.370078e-03
  3.250476e+00    4.203777e-01   5.399108e-03
  3.252687e+00    4.187274e-01   5.388429e-03
  3.254897e+00    4.195013e-01   5.393285e-03
  3.257107e+00    4.229523e-01   5.415109e-03
  3.259318e+00    4.243357e-01   5.423727e-03
  3.261528e+00    4.120174e-01   5.344307e-03
  3.263739e+00    4.022034e-01   5.279708e-03
  3.265949e+00    4.015407e-01   5.275245e-03
  3.268160e+00    4.187163e-01   5.386450e-03
  3.270370e+00    4.197955e-01   5.392910e-03
  3.272581e+00    4.173673e-01   5.376997e-03
  3.274791e+00    4.049910e-01   5.296187e-03
  3.277002e+00    4.103093e-01   5.330268e-03
  3.279212e+00    4.266636e-01   5.435084e-03
  3.281422e+00    4.143483e-01   5.355511e-03
  3.283633e+00    4.016920e-01   5.272410e-03
  3.285843e+00    4.106541e-01   5.330563e-03
  3.288054e+00    4.118875e-01   5.337650e-03
  3.290264e+00    4.205453e-01   5.393139e-03
  3.292475e+00    4.128246e-01   5.342600e-03
  3.294685e+00    4.106168e-01   5.327642e-03
  3.296896e+00    4.273078e-01   5.434087e-03
  3.299106e+00    4.283676e-01   5.440282e-03
  3.301317e+00    4.167277e-01   5.364838e-03
  3.303527e+00    4.189987e-01   5.378960e-03
  3.305737e+00    4.226584e-01   5.401362e-03
  3.307948e+00    4.252974e-01   5.417521e-03
  3.310158e+00    4.137978e-01   5.342951e-03
  3.312369e+00    4.144235e-01   5.346099e-03
  3.314579e+00    4.144929e-01   5.345663e-03
  3.316790e+00    4.064184e-01   5.292628e-03
  3.319000e+00    4.019703e-01   5.262440e-03
  3.321211e+00    4.085734e-01   5.304875e-03
  3.323421e+00    4.102700e-01   5.314712e-03
  3.325632e+00    4.075145e-01   5.295944e-03
  3.327842e+00    4.153408e-01   5.345660e-03
  3.330052e+00    4.108435e-01   5.315584e-03
  3.332263e+00    4.033595e-01   5.265946e-03
  3.334473e+00    4.157125e-01   5.345070e-03
  3.336684e+00    4.055937e-01   5.278389e-03
  3.338894e+00    4.088448e-01   5.298659e-03
  3.341105e+00    4.117392e-01   5.316178e-03
  3.343315e+00    4.179424e-01   5.354950e-03
  3.345526e+00    4.084668e-01   5.293012e-03
  3.347736e+00    4.246055e-01   5.395145e-03
  3.349947e+00    4.207329e-01   5.369557e-03
  3.352157e+00    4.168837e-01   5.343765e-03
  3.354368e+00    4.140899e-01   5.324551e-03
  3.356578e+00    4.107311e-01   5.301889e-03
  3.358788e+00    4.175549e-01   5.344429e-03
  3.360999e+00    4.120498e-01   5.307845e-03
  3.363209e+00    4.166152e-01   5.336152e-03
  3.365420e+00    4.067560e-01   5.271160e-03
  3.367630e+00    3.991455e-01   5.220598e-03
  3.369841e+00    4.046708e-01   5.255195e-03
  3.372051e+00    4.150084e-01   5.319931e-03
  3.374262e+00    4.087536e-01   5.277290e-03
  3.376472e+00    3.932186e-01   5.173652e-03
  3.378683e+00    4.089173e-01   5.273413e-03
  3.380893e+00    4.184601e-01   5.332260e-03
  3.383103e+00    4.133274e-01   5.296763e-03
  3.385314e+00    4.073073e-01   5.255845e-03
  3.387524e+00    4.108419e-01   5.275872e-03
  3.389735e+00    4.024898e-01   5.219385e-03
  3.391945e+00    3.919756e-01   5.147171e-03
  3.394156e+00    4.044275e-01   5.224119e-03
  3.396366e+00    3.909589e-01   5.133071e-03
  3.398577e+00    3.842938e-01   5.086185e-03
  3.400787e+00    3.981125e-01   5.188520e-03
  3.402998e+00    4.161794e-01   5.343336e-03
  3.405208e+00    4.024846e-01   5.275264e-03
  3.407418e+00    3.826794e-01   5.159238e-03
  3.409629e+00    3.898167e-01   5.220912e-03
  3.411839e+00    3.829409e-01   5.186189e-03
  3.414050e+00    3.778669e-01   5.162433e-03
  3.416260e+00    3.843934e-01   5.216347e-03
  3.418471e+00    3.877180e-01   5.248183e-03
  3.420681e+00    3.891136e-01   5.266121e-03
  3.422892e+00    3.826057e-01   5.229769e-03
  3.425102e+00    3.904448e-01   5.290929e-03
  3.427313e+00    3.762101e-01   5.200642e-03
  3.429523e+00    3.861753e-01   5.276140e-03
  3.431733e+00    3.797526e-01   5.238670e-03
  3.433944e+00    3.980087e-01   5.369719e-03
  3.436154e+00    3.855824e-01   5.291515e-03
  3.438365e+00    3.630880e-01   5.140610e-03
  3.440575e+00    3.730700e-01   5.216659e-03
  3.442786e+00    3.600806e-01   5.130512e-03
  3.444996e+00    3.693483e-01   5.201552e-03
  3.447207e+00    3.569612e-01   5.118751e-03
  3.449417e+00    3.645545e-01   5.213337e-03
  3.451628e+00    3.512817e-01   5.146286e-03
  3.453838e+00    3.643115e-01   5.261939e-03
  3.456049e+00    3.618040e-01   5.267508e-03
  3.458259e+00    3.583418e-01   5.263945e-03
  3.460469e+00    3.605521e-01   5.299773e-03
  3.462680e+00    3.566982e-01   5.290198e-03
  3.464890e+00    3.554563e-01   5.298499e-03
  3.467101e+00    3.467984e-01   5.250546e-03
  3.469311e+00    3.650309e-01   5.403212e-03
  3.471522e+00    3.694097e-01   5.451803e-03
  3.473732e+00    3.890793e-01   5.611232e-03
  3.475943e+00    3.932866e-01   5.657417e-03
  3.478153e+00    4.012399e-01   5.730050e-03
  3.480364e+00    3.799108e-01   5.590540e-03
  3.482574e+00    4.210218e-01   5.900902e-03
  3.484784e+00    4.174765e-01   5.891037e-03
  3.486995e+00    4.134385e-01   5.877510e-03
  3.489205e+00    4.311368e-01   6.016804e-03
  3.491416e+00    4.253234e-01   5.990983e-03
  3.493626e+00    4.282532e-01   6.026048e-03
  3.495837e+00    4.403163e-01   6.125106e-03
  3.498047e+00    4.388731e-01   6.129448e-03
  3.500258e+00    4.645809e-01   6.321186e-03
  3.502468e+00    4.547261e-01   6.268237e-03
  3.504679e+00    4.414288e-01   6.190082e-03
  3.506889e+00    4.518884e-01   6.277201e-03
  3.509099e+00    4.613502e-01   6.356780e-03
  3.511310e+00    4.727871e-01   6.449519e-03
  3.513520e+00    4.714110e-01   6.454370e-03
  3.515731e+00    4.828760e-01   6.546702e-03
  3.517941e+00    5.020018e-01   6.689647e-03
  3.520152e+00    5.137761e-01   6.782244e-03
  3.522362e+00    4.965261e-01   6.681830e-03
  3.524573e+00    5.076923e-01   6.770857e-03
  3.526783e+00    5.048633e-01   6.765225e-03
  3.528994e+00    5.122569e-01   6.826780e-03
  3.531204e+00    5.173075e-01   6.872749e-03
  3.533414e+00    5.193907e-01   6.898611e-03
  3.535625e+00    5.217952e-01   6.926819e-03
  3.537835e+00    5.353178e-01   7.028171e-03
  3.540046e+00    5.322781e-01   7.017080e-03
  3.542256e+00    5.401517e-01   7.076374e-03
  3.544467e+00    5.200303e-01   6.950828e-03
  3.546677e+00    5.317132e-01   7.035985e-03
  3.548888e+00    5.460047e-01   7.137506e-03
  3.551098e+00    5.361550e-01   7.080127e-03
  3.553309e+00    5.353025e-01   7.082656e-03
  3.555519e+00    5.302601e-01   7.060451e-03
  3.557729e+00    5.268859e-01   7.049576e-03
  3.559940e+00    5.202963e-01   7.016728e-03
  3.562150e+00    5.402121e-01   7.161510e-03
  3.564361e+00    5.252336e-01   7.074727e-03
  3.566571e+00    5.311252e-01   7.128042e-03
  3.568782e+00    5.389296e-01   7.194393e-03
  3.570992e+00    5.264663e-01   7.124344e-03
  3.573203e+00    5.388618e-01   7.221900e-03
  3.575413e+00    5.415859e-01   7.253991e-03
  3.577624e+00    5.513786e-01   7.333588e-03
  3.579834e+00    5.302776e-01   7.205730e-03
  3.582045e+00    5.368288e-01   7.264123e-03
  3.584255e+00    5.379177e-01   7.285580e-03
  3.586465e+00    5.297508e-01   7.243924e-03
  3.588676e+00    5.126752e-01   7.140070e-03
  3.590886e+00    5.334412e-01   7.296924e-03
  3.593097e+00    5.193042e-01   7.213871e-03
  3.595307e+00    5.130885e-01   7.184189e-03
  3.597518e+00    5.302123e-01   7.317241e-03
  3.599728e+00    5.239511e-01   7.287845e-03
  3.601939e+00    5.303662e-01   7.346320e-03
  3.604149e+00    5.244007e-01   7.319138e-03
  3.606360e+00    5.330116e-01   7.393104e-03
  3.608570e+00    5.295361e-01   7.383068e-03
  3.610780e+00    5.322565e-01   7.413002e-03
  3.612991e+00    5.159937e-01   7.308734e-03
  3.615201e+00    5.364645e-01   7.462091e-03
  3.617412e+00    5.282143e-01   7.411757e-03
  3.619622e+00    5.199574e-01   7.359443e-03
  3.621833e+00    5.307872e-01   7.442366e-03
  3.624043e+00    5.273483e-01   7.427664e-03
  3.626254e+00    5.407003e-01   7.530896e-03
  3.628464e+00    5.450090e-01   7.571891e-03
  3.630675e+00    5.492971e-01   7.615979e-03
  3.632885e+00    5.365369e-01   7.541483e-03
  3.635095e+00    5.274044e-01   7.491339e-03
  3.637306e+00    5.429600e-01   7.615468e-03
  3.639516e+00    5.412819e-01   7.618349e-03
  3.641727e+00    5.465481e-01   7.670059e-03
  3.643937e+00    5.304009e-01   7.570446e-03
  3.646148e+00    5.294798e-01   7.578415e-03
  3.648358e+00    5.345433e-01   7.629437e-03
  3.650569e+00    5.439156e-01   7.710920e-03
  3.652779e+00    5.287172e-01   7.617173e-03
  3.654990e+00    5.198500e-01   7.567689e-03
  3.657200e+00    5.179057e-01   7.568251e-03
  3.659410e+00    5.350935e-01   7.707802e-03
  3.661621e+00    5.275218e-01   7.668125e-03
  3.663831e+00    5.109911e-01   7.561840e-03
  3.666042e+00    5.359825e-01   7.759737e-03
  3.668252e+00    5.327840e-01   7.751869e-03
  3.670463e+00    5.335918e-01   7.772968e-03
  3.672673e+00    5.200527e-01   7.689036e-03
  3.674884e+00    5.113178e-01   7.639256e-03
  3.677094e+00    5.335997e-01   7.819492e-03
  3.679305e+00    5.285770e-01   7.798188e-03
  3.681515e+00    4.981974e-01   7.585855e-03
  3.683726e+00    5.219897e-01   7.780573e-03
  3.685936e+00    5.283071e-01   7.843227e-03
  3.688146e+00    5.256096e-01   7.838914e-03
  3.690357e+00    5.213320e-01   7.822804e-03
  3.692567e+00    5.290038e-01   7.896283e-03
  3.694778e+00    5.326802e-01   7.939874e-03
  3.696988e+00    5.087150e-01   7.774872e-03
  3.699199e+00    5.020658e-01   7.739791e-03
  3.701409e+00    5.199734e-01   7.892879e-03
  3.703620e+00    5.364002e-01   8.033088e-03
  3.705830e+00    5.472437e-01   8.130654e-03
  3.708041e+00    5.318758e-01   8.032384e-03
  3.710251e+00    5.188658e-01   7.950174e-03
  3.712461e+00    5.109965e-01   7.906212e-03
  3.714672e+00    5.204016e-01   7.995303e-03
  3.716882e+00    5.268702e-01   8.061720e-03
  3.719093e+00    5.176241e-01   8.007742e-03
  3.721303e+00    5.117915e-01   7.979291e-03
  3.723514e+00    5.144316e-01   8.017063e-03
  3.725724e+00    5.155599e-01   8.042951e-03
  3.727935e+00    5.198125e-01   8.093542e-03
  3.730145e+00    5.275083e-01   8.170719e-03
  3.732356e+00    5.223792e-01   8.148592e-03
  3.734566e+00    5.106405e-01   8.073947e-03
  3.736776e+00    4.990920e-01   7.999591e-03
  3.738987e+00    5.012675e-01   8.034535e-03
  3.741197e+00    5.136292e-01   8.151011e-03
  3.743408e+00    5.206614e-01   8.224802e-03
  3.745618e+00    5.185606e-01   8.226614e-03
  3.747829e+00    5.229739e-01   8.279833e-03
  3.750039e+00    4.977359e-01   8.095738e-03
  3.752250e+00    4.969231e-01   8.107302e-03
  3.754460e+00    5.028193e-01   8.173663e-03
  3.756671e+00    4.936672e-01   8.117466e-03
  3.758881e+00    4.987894e-01   8.177899e-03
  3.761091e+00    5.024826e-01   8.227183e-03
  3.763302e+00    4.947492e-01   8.182406e-03
  3.765512e+00    5.078641e-01   8.309445e-03
  3.767723e+00    5.110295e-01   8.354678e-03
  3.769933e+00    5.122063e-01   8.383794e-03
  3.772144e+00    5.069264e-01   8.360044e-03
  3.774354e+00    4.800053e-01   8.154367e-03
  3.776565e+00    4.918335e-01   8.273781e-03
  3.778775e+00    4.944516e-01   8.315557e-03
  3.780986e+00    5.082266e-01   8.450965e-03
  3.783196e+00    5.112567e-01   8.496580e-03
  3.785407e+00    4.902689e-01   8.340477e-03
  3.787617e+00    4.984384e-01   8.430300e-03
  3.789827e+00    4.818805e-01   8.309295e-03
  3.792038e+00    4.844442e-01   8.351762e-03
  3.794248e+00    5.007416e-01   8.512233e-03
  3.796459e+00    4.789095e-01   8.345507e-03
  3.798669e+00    5.166485e-01   8.689794e-03
  3.800880e+00    5.019718e-01   8.586968e-03
  3.803090e+00    5.090536e-01   8.669310e-03
  3.805301e+00    5.106767e-01   8.705482e-03
  3.807511e+00    4.886884e-01   8.537725e-03
  3.809722e+00    5.027002e-01   8.681551e-03
  3.811932e+00    5.186091e-01   8.840529e-03
  3.814142e+00    4.886475e-01   8.603979e-03
  3.816353e+00    4.827876e-01   8.574718e-03
  3.818563e+00    4.881740e-01   8.645252e-03
  3.820774e+00    4.792923e-01   8.588934e-03
  3.822984e+00    4.942818e-01   8.745550e-03
  3.825195e+00    4.683715e-01   8.536266e-03
  3.827405e+00    4.714087e-01   8.587055e-03
  3.829616e+00    4.968638e-01   8.839958e-03
  3.831826e+00    4.850805e-01   8.758362e-03
  3.834037e+00    4.982347e-01   8.900854e-03
  3.836247e+00    4.990864e-01   8.933200e-03
  3.838457e+00    4.984762e-01   8.952818e-03
  3.840668e+00    5.097644e-01   9.079118e-03
  3.842878e+00    5.209662e-01   9.204577e-03
  3.845089e+00    4.892955e-01   8.945750e-03
  3.847299e+00    5.070198e-01   9.132429e-03
  3.849510e+00    4.735358e-01   8.851054e-03
  3.851720e+00    4.697272e-01   8.836167e-03
  3.853931e+00    4.735422e-01   8.890631e-03
  3.856141e+00    4.925247e-01   9.085971e-03
  3.858352e+00    5.052752e-01   9.222338e-03
  3.860562e+00    4.853550e-01   9.057850e-03
  3.862772e+00    4.981088e-01   9.195738e-03
  3.864983e+00    4.939260e-01   9.176742e-03
  3.867193e+00    5.074255e-01   9.321345e-03
  3.869404e+00    4.980343e-01   9.254590e-03
  3.871614e+00    4.822221e-01   9.126253e-03
  3.873825e+00    4.807602e-01   9.132482e-03
  3.876035e+00    4.652493e-01   9.003854e-03
  3.878246e+00    5.048980e-01   9.405841e-03
  3.880456e+00    4.721918e-01   9.124488e-03
  3.882667e+00    4.824470e-01   9.252045e-03
  3.884877e+00    5.072814e-01   9.517414e-03
  3.887087e+00    4.830613e-01   9.317165e-03
  3.889298e+00    4.542555e-01   9.064223e-03
  3.891508e+00    4.725406e-01   9.274845e-03
  3.893719e+00    4.855352e-01   9.432283e-03
  3.895929e+00    4.860009e-01   9.468122e-03
  3.898140e+00    4.968528e-01   9.605162e-03
  3.900350e+00    4.880053e-01   9.551226e-03
  3.902561e+00    4.883853e-01   9.587378e-03
  3.904771e+00    4.846099e-01   9.582776e-03
  3.906982e+00    5.019823e-01   9.786665e-03
  3.909192e+00    4.977801e-01   9.779369e-03
  3.911403e+00    4.972124e-01   9.808137e-03
  3.913613e+00    4.778305e-01   9.648913e-03
  3.915823e+00    4.885145e-01   9.791048e-03
  3.918034e+00    4.733803e-01   9.672863e-03
  3.920244e+00    4.857639e-01   9.834146e-03
  3.922455e+00    4.918438e-01   9.931794e-03
  3.924665e+00    5.036918e-01   1.008764e-02
  3.926876e+00    4.992432e-01   1.008059e-02
  3.929086e+00    4.960815e-01   1.008633e-02
  3.931297e+00    4.803156e-01   9.959258e-03
  3.933507e+00    4.605596e-01   9.780450e-03
  3.935718e+00    4.833812e-01   1.004839e-02
  3.937928e+00    4.670977e-01   9.906610e-03
  3.940138e+00    5.082393e-01   1.036357e-02
  3.942349e+00    4.987523e-01   1.029669e-02
  3.944559e+00    4.825914e-01   1.015831e-02
  3.946770e+00    4.647698e-01   9.998427e-03
  3.948980e+00    4.948322e-01   1.034777e-02
  3.951191e+00    4.698676e-01   1.011361e-02
  3.953401e+00    4.951105e-01   1.041344e-02
  3.955612e+00    5.059615e-01   1.055914e-02
  3.957822e+00    4.903116e-01   1.042642e-02
  3.960033e+00    4.965068e-01   1.052504e-02
  3.962243e+00    4.852154e-01   1.043758e-02
  3.964453e+00    4.690390e-01   1.029453e-02
  3.966664e+00    4.937164e-01   1.059563e-02
  3.968874e+00    4.993520e-01   1.068474e-02
  3.971085e+00    4.822630e-01   1.052208e-02
  3.973295e+00    4.792295e-01   1.051034e-02
  3.975506e+00    4.639296e-01   1.036229e-02
  3.977716e+00    4.895566e-01   1.066676e-02
  3.979927e+00    4.681543e-01   1.045273e-02
  3.982137e+00    5.009778e-01   1.083553e-02
  3.984348e+00    4.924244e-01   1.076545e-02
  3.986558e+00    4.992563e-01   1.086244e-02
  3.988768e+00    4.892194e-01   1.077587e-02
  3.990979e+00    4.860555e-01   1.076367e-02
  3.993189e+00    4.818327e-01   1.073986e-02
  3.995400e+00    4.803423e-01   1.074669e-02
  3.997610e+00    4.892232e-01   1.087542e-02
  3.999821e+00    4.929341e-01   1.095444e-02
  4.002031e+00    4.930265e-01   1.099427e-02
  4.004242e+00    4.701235e-01   1.077373e-02
  4.006452e+00    4.577704e-01   1.066952e-02
  4.008663e+00    4.783830e-01   1.094674e-02
  4.010873e+00    4.763601e-01   1.096337e-02
  4.013084e+00    4.519812e-01   1.071859e-02
  4.015294e+00    4.768791e-01   1.105045e-02
  4.017504e+00    5.138735e-01   1.151433e-02
  4.019715e+00    4.755729e-01   1.111903e-02
  4.021925e+00    4.559633e-01   1.092900e-02
  4.024136e+00    4.791790e-01   1.124724e-02
  4.026346e+00    5.017797e-01   1.155444e-02
  4.028557e+00    4.463753e-01   1.094044e-02
  4.030767e+00    4.591708e-01   1.114059e-02
  4.032978e+00    4.609828e-01   1.120778e-02
  4.035188e+00    4.567255e-01   1.120069e-02
  4.037399e+00    4.647478e-01   1.134537e-02
  4.039609e+00    4.749433e-01   1.151643e-02
  4.041819e+00    4.820539e-01   1.165099e-02
  4.044030e+00    4.736413e-01   1.159837e-02
  4.046240e+00    4.404989e-01   1.123279e-02
  4.048451e+00    4.527211e-01   1.143686e-02
  4.050661e+00    4.673599e-01   1.167079e-02
  4.052872e+00    5.148592e-01   1.230409e-02
  4.055082e+00    4.572902e-01   1.164793e-02
  4.057293e+00    5.004802e-01   1.224020e-02
  4.059503e+00    4.991736e-01   1.227989e-02
  4.061714e+00    4.668333e-01   1.193110e-02
  4.063924e+00    4.329992e-01   1.154431e-02
  4.066134e+00    4.668746e-01   1.204387e-02
  4.068345e+00    4.721340e-01   1.216984e-02
  4.070555e+00    4.657460e-01   1.214546e-02
  4.072766e+00    4.936097e-01   1.256510e-02
  4.074976e+00    5.137370e-01   1.288265e-02
  4.077187e+00    4.938675e-01   1.269398e-02
  4.079397e+00    4.467549e-01   1.213499e-02
  4.081608e+00    4.290896e-01   1.195437e-02
  4.083818e+00    4.681517e-01   1.255159e-02
  4.086029e+00    4.941337e-01   1.296312e-02
  4.088239e+00    5.173809e-01   1.333624e-02
  4.090449e+00    4.805681e-01   1.292266e-02
  4.092660e+00    4.399445e-01   1.243242e-02
  4.094870e+00    4.660585e-01   1.286709e-02
  4.097081e+00    4.482541e-01   1.268823e-02
  4.099291e+00    4.769981e-01   1.314268e-02
  4.101502e+00    5.054513e-01   1.357965e-02
  4.103712e+00    5.027795e-01   1.359408e-02
  4.105923e+00    4.414988e-01   1.278817e-02
  4.108133e+00    4.313881e-01   1.268951e-02
  4.110344e+00    4.510432e-01   1.302486e-02
  4.112554e+00    4.784301e-01   1.346767e-02
  4.114764e+00    4.910121e-01   1.369838e-02
  4.116975e+00    4.713600e-01   1.347447e-02
  4.119185e+00    4.449207e-01   1.314416e-02
  4.121396e+00    4.927940e-01   1.389030e-02
  4.123606e+00    4.834655e-01   1.381475e-02
  4.125817e+00    5.013261e-01   1.412647e-02
  4.128027e+00    4.884718e-01   1.400308e-02
  4.130238e+00    5.052401e-01   1.430234e-02
  4.132448e+00    4.831917e-01   1.404757e-02
  4.134659e+00    4.573296e-01   1.372522e-02
  4.136869e+00    4.789496e-01   1.410864e-02
  4.139080e+00    4.864286e-01   1.428224e-02
  4.141290e+00    5.155670e-01   1.476907e-02
  4.143500e+00    4.718970e-01   1.419495e-02
  4.145711e+00    4.699221e-01   1.423133e-02
  4.147921e+00    4.813020e-01   1.446866e-02
  4.150132e+00    4.626967e-01   1.425401e-02
  4.152342e+00    4.819142e-01   1.461736e-02
  4.154553e+00    4.649729e-01   1.442659e-02
  4.156763e+00    4.867635e-01   1.483358e-02
  4.158974e+00    4.950401e-01   1.503450e-02
  4.161184e+00    4.666415e-01   1.466944e-02
  4.163395e+00    5.107936e-01   1.542581e-02
  4.165605e+00    4.595939e-01   1.470857e-02
  4.167815e+00    5.183221e-01   1.570149e-02
  4.170026e+00    5.001168e-01   1.550463e-02
  4.172236e+00    5.005977e-01   1.559576e-02
  4.174447e+00    5.260877e-01   1.607497e-02
  4.176657e+00    4.871689e-01   1.555368e-02
  4.178868e+00    4.510235e-01   1.505009e-02
  4.181078e+00    4.614107e-01   1.530823e-02
  4.183289e+00    4.819035e-01   1.573379e-02
  4.185499e+00    4.891748e-01   1.594573e-02
  4.187710e+00    5.378485e-01   1.681829e-02
  4.189920e+00    4.868940e-01   1.609815e-02
  4.192130e+00    4.833236e-01   1.613708e-02
  4.194341e+00    4.848988e-01   1.626248e-02
  4.196551e+00    4.800420e-01   1.628320e-02
  4.198762e+00    4.776362e-01   1.634562e-02
  4.200972e+00    4.728629e-01   1.636890e-02
  4.203183e+00    4.511335e-01   1.609359e-02
  4.205393e+00    4.932768e-01   1.694068e-02
  4.207604e+00    4.728038e-01   1.669871e-02
  4.209814e+00    4.600847e-01   1.658521e-02
  4.212025e+00    4.432920e-01   1.639516e-02
  4.214235e+00    4.921349e-01   1.739736e-02
  4.216445e+00    4.607272e-01   1.695480e-02
  4.218656e+00    4.394212e-01   1.668240e-02
  4.220866e+00    4.420295e-01   1.685522e-02
  4.223077e+00    5.024790e-01   1.810955e-02
  4.225287e+00    4.973163e-01   1.815773e-02
  4.227498e+00    4.764301e-01   1.791187e-02
  4.229708e+00    5.168972e-01   1.880852e-02
  4.231919e+00    5.326456e-01   1.925109e-02
  4.234129e+00    5.544149e-01   1.980529e-02
  4.236340e+00    5.280448e-01   1.949386e-02
  4.238550e+00    4.843495e-01   1.883489e-02
  4.240761e+00    5.360950e-01   1.999013e-02
  4.242971e+00    5.453472e-01   2.034688e-02
  4.245181e+00    4.735571e-01   1.913844e-02
  4.247392e+00    5.127971e-01   2.010166e-02
  4.249602e+00    4.791602e-01   1.962462e-02
  4.251813e+00    4.526863e-01   1.926238e-02
  4.254023e+00    4.537851e-01   1.947995e-02
  4.256234e+00    4.829932e-01   2.031200e-02
  4.258444e+00    5.416510e-01   2.173482e-02
  4.260655e+00    5.068955e-01   2.125763e-02
  4.262865e+00    4.912192e-01   2.116377e-02
  4.265076e+00    4.847812e-01   2.126319e-02
  4.267286e+00    5.378556e-01   2.266301e-02
  4.269496e+00    4.192652e-01   2.025342e-02
  4.271707e+00    4.774755e-01   2.188047e-02
  4.273917e+00    4.448280e-01   2.139200e-02
  4.276128e+00    4.650806e-01   2.216452e-02
  4.278338e+00    4.613603e-01   2.237026e-02
  4.280549e+00    4.990797e-01   2.360081e-02
  4.282759e+00    4.384509e-01   2.243825e-02
  4.284970e+00    4.659204e-01   2.347321e-02
  4.287180e+00    4.461005e-01   2.324333e-02
  4.289391e+00    4.826944e-01   2.435988e-02
  4.291601e+00    4.805740e-01   2.449999e-02
  4.293811e+00    4.525235e-01   2.396106e-02
  4.296022e+00    4.096438e-01   2.298024e-02
  4.298232e+00    4.581301e-01   2.450499e-02
  4.300443e+00    4.759468e-01   2.518388e-02
  4.302653e+00    4.990744e-01   2.601163e-02
  4.304864e+00    4.129207e-01   2.386534e-02
  4.307074e+00    4.993643e-01   2.648011e-02
  4.309285e+00    5.138391e-01   2.710577e-02
  4.311495e+00    4.512055e-01   2.563683e-02
  4.313706e+00    4.701220e-01   2.641542e-02
  4.315916e+00    4.167191e-01   2.511437e-02
  4.318126e+00    4.662121e-01   2.682706e-02
  4.320337e+00    4.415664e-01   2.637199e-02
  4.322547e+00    4.548450e-01   2.704989e-02
  4.324758e+00    4.460353e-01   2.706427e-02
  4.326968e+00    5.108804e-01   2.929178e-02
  4.329179e+00    3.872899e-01   2.578558e-02
  4.331389e+00    3.898987e-01   2.616944e-02
  4.333600e+00    4.446339e-01   2.827943e-02
  4.335810e+00    4.181759e-01   2.775210e-02
  4.338021e+00    5.022650e-01   3.080324e-02
  4.340231e+00    5.176309e-01   3.166343e-02
  4.342442e+00    5.000104e-01   3.153778e-02
  4.344652e+00    3.986491e-01   2.854293e-02
  4.346862e+00    3.917270e-01   2.869009e-02
  4.349073e+00    4.587431e-01   3.149876e-02
  4.351283e+00    5.578865e-01   3.525526e-02
  4.353494e+00    5.003619e-01   3.390475e-02
  4.355704e+00    4.367534e-01   3.218575e-02
  4.357915e+00    3.860401e-01   3.076367e-02
  4.360125e+00    4.881550e-01   3.518352e-02
  4.362336e+00    4.916340e-01   3.595266e-02
  4.364546e+00    4.316127e-01   3.430004e-02
  4.366757e+00    4.349674e-01   3.511812e-02
  4.368967e+00    4.076273e-01   3.467555e-02
  4.371177e+00    3.858491e-01   3.445169e-02
  4.373388e+00    3.889647e-01   3.536601e-02
  4.375598e+00    3.476853e-01   3.419808e-02
  4.377809e+00    4.127452e-01   3.820359e-02
  4.380019e+00    4.864366e-01   4.251799e-02
  4.382230e+00    3.111492e-01   3.495418e-02
  4.384440e+00    3.149867e-01   3.618009e-02
  4.386651e+00    3.590711e-01   3.981992e-02
  4.388861e+00    3.006836e-01   3.766358e-02
  4.391072e+00    3.070427e-01   3.939639e-02
  4.393282e+00    2.548274e-01   3.727732e-02
  4.395492e+00    5.010209e-01   5.443867e-02
  4.397703e+00    3.179686e-01   4.535769e-02
  4.399913e+00    4.776905e-01   5.839859e-02
  4.402124e+00    3.431828e-01   5.231310e-02
  4.404334e+00    2.157014e-01   4.407994e-02
  4.406545e+00    2.726502e-01   5.324673e-02
  4.408755e+00    4.048207e-01   7.036664e-02
  4.410966e+00    3.947081e-01   7.691015e-02
  4.413176e+00    4.300671e-01   9.085997e-02
  4.415387e+00   -7.353514e-01            nan
  4.417597e+00   -1.914176e+00            nan
  4.419807e+00   -3.766224e-01            nan
