# == pyFAI calibration ==
# Distance Sample to Detector: 0.216 m
# PONI: 1.166e-01, 1.308e-01 m
# Rotations: 0.000000 0.000000 0.000000 rad
# 
# == Fit2d calibration ==
# Distance Sample-beamCenter: 216.000 mm
# Center: x=1744.293, y=1555.000 pix
# Tilt: 0.000 deg  TiltPlanRot: 0.000 deg
# 
# Detector Eiger 9M	 PixelSize= 7.500e-05, 7.500e-05 m
#    Detector has a mask: True 
#    Detector has a dark current: False 
#    detector has a flat field: False 
# 
# Wavelength: 9.8e-11 m
# Mask applied: from detector
# Dark current applied: False
# Flat field applied: False
# Polarization factor: None
# Normalization factor: 1.0
# 
# Headers of the input frame:
# {
# "_array_data.header_convention": "SLS_1.0",
# "_array_data.header_contents": "# Detector: Dectris Eiger 9M, S/N E-18-0102\r\n# Pixel_size 75e-6 m x 75e-6 m\r\n# Silicon sensor, thickness 0.000450 m\r\n# Exposure_time 0.024997 s\r\n# Exposure_period 0.025000 s\r\n# Count_cutoff 62318 counts\r\n# Wavelength 0.980106 A\r\n# Detector_distance 0.215992 m\r\n# Beam_xy (1555, 1744) pixels\r\n# Start_angle 0.000000 deg.\r\n# Angle_increment 0.000000 deg.",
# "Content-Type": "application/octet-stream;",
# "conversions": "x-CBF_BYTE_OFFSET",
# "Content-Transfer-Encoding": "BINARY",
# "X-Binary-Size": "10166602",
# "X-Binary-ID": "1",
# "X-Binary-Element-Type": "signed 32-bit integer",
# "X-Binary-Element-Byte-Order": "LITTLE_ENDIAN",
# "Content-MD5": "wkfxdcZ/pLZ7hyZO6H5Lpw==",
# "X-Binary-Number-of-Elements": "10166590",
# "X-Binary-Size-Fastest-Dimension": "3110",
# "X-Binary-Size-Second-Dimension": "3269",
# "X-Binary-Size-Padding": "4095"
# }
# --> H:/Proxima2a_2019-04-05/RAW_DATA/C5_gel17_position5/C5_mesh_1_data.cbf/C5_mesh_1_data.cbf000063.dat
#        q_A^-1              I           sigma 
  1.105228e-03    1.069094e+00   5.594932e-01
  3.315685e-03    1.045604e+00   3.363791e-01
  5.526141e-03    7.892984e-01   2.259918e-01
  7.736597e-03    1.049068e+00   2.201009e-01
  9.947054e-03    1.450281e+00   2.281406e-01
  1.215751e-02    1.206309e+00   1.881473e-01
  1.436797e-02    1.236298e+00   1.752014e-01
  1.657842e-02    1.325653e+00   1.688726e-01
  1.878888e-02    1.384632e+00   1.621178e-01
  2.099934e-02    1.515869e+00   1.604844e-01
  2.320979e-02    1.274546e+00   1.399621e-01
  2.542025e-02    1.254828e+00   1.327094e-01
  2.763070e-02    1.441243e+00   1.364140e-01
  2.984116e-02    1.486923e+00   1.333278e-01
  3.205162e-02    1.444892e+00   1.268247e-01
  3.426207e-02    1.408666e+00   1.211097e-01
  3.647253e-02    1.287017e+00   1.121972e-01
  3.868299e-02    1.358476e+00   1.119365e-01
  4.089344e-02    1.384388e+00   1.099030e-01
  4.310390e-02    1.341225e+00   1.053598e-01
  4.531436e-02    1.367446e+00   1.037578e-01
  4.752481e-02    1.402235e+00   1.025958e-01
  4.973527e-02    1.445872e+00   1.018396e-01
  5.194572e-02    1.405670e+00   9.825274e-02
  5.415618e-02    1.493080e+00   9.916999e-02
  5.636664e-02    1.470397e+00   9.646782e-02
  5.857709e-02    1.453154e+00   9.407415e-02
  6.078755e-02    1.498684e+00   9.378048e-02
  6.299801e-02    1.363856e+00   8.787812e-02
  6.520846e-02    1.519748e+00   9.117934e-02
  6.741892e-02    1.531393e+00   9.001050e-02
  6.962938e-02    1.474016e+00   8.689954e-02
  7.183983e-02    1.512148e+00   8.665013e-02
  7.405029e-02    1.453289e+00   8.366760e-02
  7.626074e-02    1.379211e+00   8.031666e-02
  7.847120e-02    1.478692e+00   8.198093e-02
  8.068166e-02    1.407390e+00   7.887613e-02
  8.289211e-02    1.394214e+00   7.745178e-02
  8.510257e-02    1.404813e+00   7.672884e-02
  8.731303e-02    1.409892e+00   7.588529e-02
  8.952348e-02    1.478296e+00   7.674114e-02
  9.173394e-02    1.458851e+00   7.530773e-02
  9.394439e-02    1.371147e+00   7.214250e-02
  9.615485e-02    1.461946e+00   7.363009e-02
  9.836531e-02    1.514502e+00   7.409303e-02
  1.005758e-01    1.581081e+00   7.486805e-02
  1.027862e-01    1.512288e+00   7.242779e-02
  1.049967e-01    1.536911e+00   7.224110e-02
  1.072071e-01    1.500062e+00   7.062939e-02
  1.094176e-01    1.424441e+00   6.812625e-02
  1.116280e-01    1.506913e+00   6.937193e-02
  1.138385e-01    1.504261e+00   6.863330e-02
  1.160490e-01    1.498628e+00   6.784830e-02
  1.182594e-01    1.553946e+00   6.843894e-02
  1.204699e-01    1.600373e+00   6.881312e-02
  1.226803e-01    1.601489e+00   6.821130e-02
  1.248908e-01    1.586229e+00   6.728134e-02
  1.271012e-01    1.455502e+00   6.388511e-02
  1.293117e-01    1.542404e+00   6.519929e-02
  1.315222e-01    1.478785e+00   6.330029e-02
  1.337326e-01    1.495253e+00   6.312232e-02
  1.359431e-01    1.588744e+00   6.510386e-02
  1.381535e-01    1.597155e+00   6.615219e-02
  1.403640e-01    1.530708e+00   6.504110e-02
  1.425744e-01    1.537381e+00   6.528683e-02
  1.447849e-01    1.592080e+00   6.645343e-02
  1.469953e-01    1.588703e+00   6.634133e-02
  1.492058e-01    1.558646e+00   6.563441e-02
  1.514163e-01    1.556963e+00   6.549005e-02
  1.536267e-01    1.611259e+00   6.649209e-02
  1.558372e-01    1.559528e+00   6.527159e-02
  1.580476e-01    1.568307e+00   6.529620e-02
  1.602581e-01    1.566983e+00   6.510289e-02
  1.624685e-01    1.490539e+00   6.332116e-02
  1.646790e-01    1.633326e+00   6.609444e-02
  1.668895e-01    1.676996e+00   6.677877e-02
  1.690999e-01    1.685623e+00   6.674927e-02
  1.713104e-01    1.734856e+00   6.750691e-02
  1.735208e-01    1.752580e+00   6.763986e-02
  1.757313e-01    1.763897e+00   6.764524e-02
  1.779417e-01    1.790777e+00   6.793641e-02
  1.801522e-01    1.742038e+00   6.679213e-02
  1.823626e-01    1.868203e+00   6.893825e-02
  1.845731e-01    1.913305e+00   6.953947e-02
  1.867836e-01    1.892714e+00   6.893083e-02
  1.889940e-01    1.967350e+00   7.004713e-02
  1.912045e-01    1.968956e+00   6.984170e-02
  1.934149e-01    1.986768e+00   6.992212e-02
  1.956254e-01    1.934806e+00   6.877410e-02
  1.978358e-01    2.024417e+00   7.010762e-02
  2.000463e-01    2.013898e+00   6.969354e-02
  2.022568e-01    1.896704e+00   6.741331e-02
  2.044672e-01    1.966742e+00   6.841151e-02
  2.066777e-01    2.017161e+00   6.905291e-02
  2.088881e-01    1.998086e+00   6.850079e-02
  2.110986e-01    1.959424e+00   6.760222e-02
  2.133090e-01    1.822000e+00   6.497656e-02
  2.155195e-01    1.952532e+00   6.704070e-02
  2.177300e-01    1.967837e+00   6.677422e-02
  2.199404e-01    1.964934e+00   6.496676e-02
  2.221509e-01    1.931690e+00   6.335711e-02
  2.243613e-01    1.921917e+00   6.239548e-02
  2.265718e-01    1.998838e+00   6.293049e-02
  2.287822e-01    2.115946e+00   6.410688e-02
  2.309927e-01    2.051167e+00   6.254297e-02
  2.332031e-01    2.076500e+00   6.238940e-02
  2.354136e-01    2.063920e+00   6.169602e-02
  2.376241e-01    2.083627e+00   6.150868e-02
  2.398345e-01    2.144702e+00   6.194182e-02
  2.420450e-01    2.144824e+00   6.150086e-02
  2.442554e-01    2.213081e+00   6.204147e-02
  2.464659e-01    2.061229e+00   5.947314e-02
  2.486763e-01    2.127068e+00   6.001836e-02
  2.508868e-01    2.038352e+00   5.838278e-02
  2.530973e-01    2.078705e+00   5.859230e-02
  2.553077e-01    2.140133e+00   5.909113e-02
  2.575182e-01    2.061651e+00   5.765439e-02
  2.597286e-01    2.008780e+00   5.657949e-02
  2.619391e-01    2.062352e+00   5.699892e-02
  2.641495e-01    2.027308e+00   5.619979e-02
  2.663600e-01    2.056770e+00   5.629540e-02
  2.685704e-01    2.003367e+00   5.525859e-02
  2.707809e-01    1.969766e+00   5.450236e-02
  2.729914e-01    1.979740e+00   5.435544e-02
  2.752018e-01    1.935516e+00   5.346518e-02
  2.774123e-01    1.951188e+00   5.340698e-02
  2.796227e-01    1.981910e+00   5.355954e-02
  2.818332e-01    1.955104e+00   5.293073e-02
  2.840436e-01    1.959172e+00   5.272894e-02
  2.862541e-01    1.937321e+00   5.218199e-02
  2.884646e-01    1.963618e+00   5.228566e-02
  2.906750e-01    1.873666e+00   5.083187e-02
  2.928855e-01    1.901947e+00   5.097672e-02
  2.950959e-01    1.923617e+00   5.103083e-02
  2.973064e-01    1.885835e+00   5.030010e-02
  2.995168e-01    1.941052e+00   5.080005e-02
  3.017273e-01    1.903314e+00   5.008202e-02
  3.039377e-01    1.874537e+00   4.948434e-02
  3.061482e-01    1.915492e+00   4.980559e-02
  3.083587e-01    1.900942e+00   4.940132e-02
  3.105691e-01    1.896156e+00   4.912835e-02
  3.127796e-01    1.851892e+00   4.834741e-02
  3.149900e-01    1.858134e+00   4.822704e-02
  3.172005e-01    1.870403e+00   4.818815e-02
  3.194109e-01    1.844219e+00   4.765213e-02
  3.216214e-01    1.908046e+00   4.827194e-02
  3.238319e-01    1.886529e+00   4.780883e-02
  3.260423e-01    1.875922e+00   4.748434e-02
  3.282528e-01    1.845716e+00   4.691299e-02
  3.304632e-01    1.827327e+00   4.649786e-02
  3.326737e-01    1.875420e+00   4.692199e-02
  3.348841e-01    1.829930e+00   4.616969e-02
  3.370946e-01    1.891902e+00   4.676834e-02
  3.393050e-01    1.827177e+00   4.578727e-02
  3.415155e-01    1.808155e+00   4.537704e-02
  3.437260e-01    1.763265e+00   4.464415e-02
  3.459364e-01    1.753295e+00   4.435306e-02
  3.481469e-01    1.783473e+00   4.456986e-02
  3.503573e-01    1.770276e+00   4.424290e-02
  3.525678e-01    1.802778e+00   4.448807e-02
  3.547782e-01    1.782329e+00   4.407518e-02
  3.569887e-01    1.778093e+00   4.386677e-02
  3.591992e-01    1.767415e+00   4.358012e-02
  3.614096e-01    1.826391e+00   4.414764e-02
  3.636201e-01    1.812560e+00   4.382563e-02
  3.658305e-01    1.710449e+00   4.242805e-02
  3.680410e-01    1.827509e+00   4.370501e-02
  3.702514e-01    1.807647e+00   4.332071e-02
  3.724619e-01    1.730415e+00   4.224081e-02
  3.746724e-01    1.745026e+00   4.227725e-02
  3.768828e-01    1.721266e+00   4.184715e-02
  3.790933e-01    1.736434e+00   4.189417e-02
  3.813037e-01    1.744444e+00   4.185329e-02
  3.835142e-01    1.708305e+00   4.128148e-02
  3.857246e-01    1.748525e+00   4.162943e-02
  3.879351e-01    1.696844e+00   4.087690e-02
  3.901455e-01    1.715331e+00   4.096808e-02
  3.923560e-01    1.744625e+00   4.118513e-02
  3.945665e-01    1.792144e+00   4.160987e-02
  3.967769e-01    1.828297e+00   4.189586e-02
  3.989874e-01    1.794338e+00   4.137535e-02
  4.011978e-01    1.765115e+00   4.091085e-02
  4.034083e-01    1.773683e+00   4.088412e-02
  4.056187e-01    1.703983e+00   3.994933e-02
  4.078292e-01    1.713441e+00   3.993879e-02
  4.100397e-01    1.752708e+00   4.027050e-02
  4.122501e-01    1.731585e+00   3.990737e-02
  4.144606e-01    1.748560e+00   3.998357e-02
  4.166710e-01    1.802090e+00   4.047028e-02
  4.188815e-01    1.784663e+00   4.015518e-02
  4.210919e-01    1.764698e+00   3.981290e-02
  4.233024e-01    1.770654e+00   3.976273e-02
  4.255128e-01    1.783798e+00   3.979467e-02
  4.277233e-01    1.740970e+00   3.920110e-02
  4.299338e-01    1.778030e+00   3.950215e-02
  4.321442e-01    1.781372e+00   3.942611e-02
  4.343547e-01    1.770029e+00   3.918926e-02
  4.365651e-01    1.733136e+00   3.866851e-02
  4.387756e-01    1.759845e+00   3.885623e-02
  4.409860e-01    1.758204e+00   3.873051e-02
  4.431965e-01    1.706248e+00   3.804847e-02
  4.454070e-01    1.701972e+00   3.789502e-02
  4.476174e-01    1.768853e+00   3.852635e-02
  4.498279e-01    1.709425e+00   3.777059e-02
  4.520383e-01    1.730684e+00   3.790043e-02
  4.542488e-01    1.669074e+00   3.711937e-02
  4.564592e-01    1.704532e+00   3.741092e-02
  4.586697e-01    1.699788e+00   3.725970e-02
  4.608801e-01    1.678281e+00   3.692402e-02
  4.630906e-01    1.670028e+00   3.673562e-02
  4.653011e-01    1.660887e+00   3.653860e-02
  4.675115e-01    1.673475e+00   3.658019e-02
  4.697220e-01    1.744090e+00   3.724623e-02
  4.719324e-01    1.638551e+00   3.600837e-02
  4.741429e-01    1.675224e+00   3.631523e-02
  4.763533e-01    1.683179e+00   3.630808e-02
  4.785638e-01    1.657234e+00   3.593406e-02
  4.807743e-01    1.680801e+00   3.609664e-02
  4.829847e-01    1.687896e+00   3.608137e-02
  4.851952e-01    1.659845e+00   3.568975e-02
  4.874056e-01    1.700908e+00   3.603742e-02
  4.896161e-01    1.707864e+00   3.602149e-02
  4.918265e-01    1.688298e+00   3.572561e-02
  4.940370e-01    1.662370e+00   3.536272e-02
  4.962475e-01    1.631352e+00   3.494472e-02
  4.984579e-01    1.674140e+00   3.531278e-02
  5.006684e-01    1.682700e+00   3.531663e-02
  5.028788e-01    1.674694e+00   3.514715e-02
  5.050893e-01    1.638304e+00   3.467865e-02
  5.072997e-01    1.597857e+00   3.416517e-02
  5.095102e-01    1.610009e+00   3.421270e-02
  5.117206e-01    1.651424e+00   3.456755e-02
  5.139311e-01    1.653355e+00   3.450590e-02
  5.161416e-01    1.619675e+00   3.407192e-02
  5.183520e-01    1.642522e+00   3.422985e-02
  5.205625e-01    1.607443e+00   3.378304e-02
  5.227729e-01    1.633617e+00   3.397752e-02
  5.249834e-01    1.644158e+00   3.400785e-02
  5.271938e-01    1.615739e+00   3.363399e-02
  5.294043e-01    1.673995e+00   3.415596e-02
  5.316148e-01    1.686746e+00   3.420728e-02
  5.338252e-01    1.718313e+00   3.444697e-02
  5.360357e-01    1.742583e+00   3.461042e-02
  5.382461e-01    1.727393e+00   3.438136e-02
  5.404566e-01    1.703280e+00   3.406283e-02
  5.426670e-01    1.728554e+00   3.423730e-02
  5.448775e-01    1.759560e+00   3.446585e-02
  5.470879e-01    1.743060e+00   3.422736e-02
  5.492984e-01    1.748239e+00   3.420194e-02
  5.515089e-01    1.746707e+00   3.411114e-02
  5.537193e-01    1.726943e+00   3.384288e-02
  5.559298e-01    1.732151e+00   3.381953e-02
  5.581402e-01    1.722749e+00   3.365391e-02
  5.603507e-01    1.743115e+00   3.377859e-02
  5.625611e-01    1.761325e+00   3.388088e-02
  5.647716e-01    1.749174e+00   3.369051e-02
  5.669821e-01    1.748038e+00   3.360695e-02
  5.691925e-01    1.757960e+00   3.362986e-02
  5.714030e-01    1.733289e+00   3.332186e-02
  5.736134e-01    1.673698e+00   3.267440e-02
  5.758239e-01    1.711778e+00   3.297346e-02
  5.780343e-01    1.679690e+00   3.259387e-02
  5.802448e-01    1.708141e+00   3.279994e-02
  5.824552e-01    1.662754e+00   3.229335e-02
  5.846657e-01    1.629279e+00   3.189999e-02
  5.868762e-01    1.604139e+00   3.158702e-02
  5.890866e-01    1.624964e+00   3.172543e-02
  5.912971e-01    1.604525e+00   3.146001e-02
  5.935075e-01    1.635359e+00   3.169521e-02
  5.957180e-01    1.628425e+00   3.156305e-02
  5.979284e-01    1.623113e+00   3.144722e-02
  6.001389e-01    1.602649e+00   3.118470e-02
  6.023494e-01    1.594416e+00   3.104135e-02
  6.045598e-01    1.588049e+00   3.091623e-02
  6.067703e-01    1.610470e+00   3.107109e-02
  6.089807e-01    1.653982e+00   3.142474e-02
  6.111912e-01    1.621111e+00   3.104879e-02
  6.134016e-01    1.623678e+00   3.101137e-02
  6.156121e-01    1.657588e+00   3.127126e-02
  6.178226e-01    1.688382e+00   3.149791e-02
  6.200330e-01    1.684966e+00   3.140396e-02
  6.222435e-01    1.697167e+00   3.145502e-02
  6.244539e-01    1.670631e+00   3.114704e-02
  6.266644e-01    1.696657e+00   3.132748e-02
  6.288748e-01    1.693460e+00   3.123705e-02
  6.310853e-01    1.660900e+00   3.087523e-02
  6.332957e-01    1.679165e+00   3.098458e-02
  6.355062e-01    1.682574e+00   3.095578e-02
  6.377167e-01    1.681363e+00   3.088524e-02
  6.399271e-01    1.694546e+00   3.094669e-02
  6.421376e-01    1.645675e+00   3.043897e-02
  6.443480e-01    1.637006e+00   3.030092e-02
  6.465585e-01    1.661729e+00   3.047105e-02
  6.487689e-01    1.687190e+00   3.064562e-02
  6.509794e-01    1.688685e+00   3.060138e-02
  6.531899e-01    1.626926e+00   2.998011e-02
  6.554003e-01    1.616327e+00   2.982611e-02
  6.576108e-01    1.573473e+00   2.937326e-02
  6.598212e-01    1.565673e+00   2.924592e-02
  6.620317e-01    1.592454e+00   2.944030e-02
  6.642421e-01    1.658297e+00   2.998720e-02
  6.664526e-01    1.651817e+00   2.987342e-02
  6.686630e-01    1.630956e+00   2.962931e-02
  6.708735e-01    1.581292e+00   2.912117e-02
  6.730840e-01    1.574998e+00   2.901017e-02
  6.752944e-01    1.561733e+00   2.883523e-02
  6.775049e-01    1.531097e+00   2.849913e-02
  6.797153e-01    1.611033e+00   2.918069e-02
  6.819258e-01    1.579891e+00   2.884517e-02
  6.841362e-01    1.576378e+00   2.876127e-02
  6.863467e-01    1.562367e+00   2.858188e-02
  6.885572e-01    1.570120e+00   2.860137e-02
  6.907676e-01    1.536614e+00   2.824385e-02
  6.929781e-01    1.561563e+00   2.842159e-02
  6.951885e-01    1.575293e+00   2.849572e-02
  6.973990e-01    1.570565e+00   2.840262e-02
  6.996094e-01    1.558511e+00   2.824363e-02
  7.018199e-01    1.598718e+00   2.855541e-02
  7.040303e-01    1.615370e+00   2.865335e-02
  7.062408e-01    1.565126e+00   2.815480e-02
  7.084513e-01    1.573136e+00   2.817766e-02
  7.106617e-01    1.551821e+00   2.793748e-02
  7.128722e-01    1.557736e+00   2.794224e-02
  7.150826e-01    1.573069e+00   2.803102e-02
  7.172931e-01    1.600902e+00   2.822919e-02
  7.195035e-01    1.530170e+00   2.755107e-02
  7.217140e-01    1.513271e+00   2.744699e-02
  7.239245e-01    1.506681e+00   2.760896e-02
  7.261349e-01    1.493172e+00   2.759064e-02
  7.283454e-01    1.569634e+00   2.836056e-02
  7.305558e-01    1.552161e+00   2.825587e-02
  7.327663e-01    1.546112e+00   2.824287e-02
  7.349767e-01    1.546921e+00   2.826647e-02
  7.371872e-01    1.567904e+00   2.844640e-02
  7.393976e-01    1.556619e+00   2.832965e-02
  7.416081e-01    1.566833e+00   2.840632e-02
  7.438186e-01    1.561061e+00   2.821025e-02
  7.460290e-01    1.533006e+00   2.766529e-02
  7.482395e-01    1.535576e+00   2.751943e-02
  7.504499e-01    1.554702e+00   2.755488e-02
  7.526604e-01    1.521551e+00   2.714494e-02
  7.548708e-01    1.540371e+00   2.722386e-02
  7.570813e-01    1.539453e+00   2.716536e-02
  7.592918e-01    1.527766e+00   2.702739e-02
  7.615022e-01    1.559901e+00   2.727651e-02
  7.637127e-01    1.553050e+00   2.718400e-02
  7.659231e-01    1.565868e+00   2.726404e-02
  7.681336e-01    1.551269e+00   2.710528e-02
  7.703440e-01    1.549129e+00   2.705561e-02
  7.725545e-01    1.565076e+00   2.716371e-02
  7.747650e-01    1.620532e+00   2.760205e-02
  7.769754e-01    1.544637e+00   2.689577e-02
  7.791859e-01    1.542633e+00   2.682536e-02
  7.813963e-01    1.598251e+00   2.725176e-02
  7.836068e-01    1.582710e+00   2.706698e-02
  7.858172e-01    1.564154e+00   2.685752e-02
  7.880277e-01    1.562325e+00   2.679076e-02
  7.902381e-01    1.579103e+00   2.688528e-02
  7.924486e-01    1.601767e+00   2.702739e-02
  7.946591e-01    1.597767e+00   2.694535e-02
  7.968695e-01    1.631093e+00   2.717621e-02
  7.990800e-01    1.629138e+00   2.711139e-02
  8.012904e-01    1.597285e+00   2.679861e-02
  8.035009e-01    1.586751e+00   2.666255e-02
  8.057113e-01    1.600692e+00   2.673312e-02
  8.079218e-01    1.584845e+00   2.655455e-02
  8.101323e-01    1.628029e+00   2.686819e-02
  8.123427e-01    1.650806e+00   2.700937e-02
  8.145532e-01    1.653610e+00   2.698606e-02
  8.167636e-01    1.635893e+00   2.679596e-02
  8.189741e-01    1.614437e+00   2.657528e-02
  8.211845e-01    1.656707e+00   2.687580e-02
  8.233950e-01    1.640169e+00   2.669786e-02
  8.256054e-01    1.627852e+00   2.655334e-02
  8.278159e-01    1.638497e+00   2.659604e-02
  8.300264e-01    1.636379e+00   2.653578e-02
  8.322368e-01    1.635542e+00   2.648592e-02
  8.344473e-01    1.611415e+00   2.624683e-02
  8.366577e-01    1.601127e+00   2.612082e-02
  8.388682e-01    1.594492e+00   2.602497e-02
  8.410786e-01    1.606236e+00   2.607900e-02
  8.432891e-01    1.623464e+00   2.617683e-02
  8.454996e-01    1.613411e+00   2.605437e-02
  8.477100e-01    1.618379e+00   2.605303e-02
  8.499205e-01    1.580471e+00   2.570567e-02
  8.521309e-01    1.595624e+00   2.578833e-02
  8.543414e-01    1.582156e+00   2.563920e-02
  8.565518e-01    1.599927e+00   2.574265e-02
  8.587623e-01    1.607883e+00   2.576639e-02
  8.609727e-01    1.574629e+00   2.545904e-02
  8.631832e-01    1.559107e+00   2.529416e-02
  8.653937e-01    1.603914e+00   2.561562e-02
  8.676041e-01    1.583560e+00   2.541418e-02
  8.698146e-01    1.591528e+00   2.543908e-02
  8.720250e-01    1.609253e+00   2.554137e-02
  8.742355e-01    1.593434e+00   2.537683e-02
  8.764459e-01    1.571780e+00   2.516538e-02
  8.786564e-01    1.535262e+00   2.483423e-02
  8.808669e-01    1.565787e+00   2.504185e-02
  8.830773e-01    1.614997e+00   2.539406e-02
  8.852878e-01    1.596466e+00   2.521010e-02
  8.874982e-01    1.577777e+00   2.502572e-02
  8.897087e-01    1.572300e+00   2.494491e-02
  8.919191e-01    1.555718e+00   2.477580e-02
  8.941296e-01    1.559135e+00   2.476618e-02
  8.963401e-01    1.566786e+00   2.479084e-02
  8.985505e-01    1.586126e+00   2.490658e-02
  9.007610e-01    1.565467e+00   2.470752e-02
  9.029714e-01    1.520624e+00   2.431610e-02
  9.051819e-01    1.561115e+00   2.460096e-02
  9.073923e-01    1.555425e+00   2.452002e-02
  9.096028e-01    1.551450e+00   2.445430e-02
  9.118132e-01    1.578140e+00   2.462777e-02
  9.140237e-01    1.577484e+00   2.458629e-02
  9.162342e-01    1.568136e+00   2.447912e-02
  9.184446e-01    1.575385e+00   2.450015e-02
  9.206551e-01    1.591539e+00   2.458994e-02
  9.228655e-01    1.600404e+00   2.462309e-02
  9.250760e-01    1.585651e+00   2.447415e-02
  9.272864e-01    1.584795e+00   2.443349e-02
  9.294969e-01    1.578925e+00   2.435264e-02
  9.317074e-01    1.591564e+00   2.441538e-02
  9.339178e-01    1.571685e+00   2.422927e-02
  9.361283e-01    1.613386e+00   2.451242e-02
  9.383387e-01    1.624634e+00   2.456425e-02
  9.405492e-01    1.633711e+00   2.459840e-02
  9.427596e-01    1.589456e+00   2.422801e-02
  9.449701e-01    1.605980e+00   2.432052e-02
  9.471805e-01    1.656568e+00   2.466561e-02
  9.493910e-01    1.635090e+00   2.447157e-02
  9.516015e-01    1.650070e+00   2.454909e-02
  9.538119e-01    1.693319e+00   2.483463e-02
  9.560224e-01    1.720660e+00   2.499910e-02
  9.582328e-01    1.710247e+00   2.488991e-02
  9.604433e-01    1.716718e+00   2.490163e-02
  9.626537e-01    1.764120e+00   2.520914e-02
  9.648642e-01    1.752436e+00   2.509112e-02
  9.670747e-01    1.775923e+00   2.522386e-02
  9.692851e-01    1.798841e+00   2.535235e-02
  9.714956e-01    1.831116e+00   2.554271e-02
  9.737060e-01    1.824437e+00   2.546260e-02
  9.759165e-01    1.852473e+00   2.562129e-02
  9.781269e-01    1.880393e+00   2.577990e-02
  9.803374e-01    1.854837e+00   2.556872e-02
  9.825478e-01    1.775633e+00   2.498386e-02
  9.847583e-01    1.773964e+00   2.493818e-02
  9.869688e-01    1.779210e+00   2.494160e-02
  9.891792e-01    1.781961e+00   2.492771e-02
  9.913897e-01    1.778225e+00   2.486794e-02
  9.936001e-01    1.753621e+00   2.466299e-02
  9.958106e-01    1.703412e+00   2.427432e-02
  9.980210e-01    1.654689e+00   2.389358e-02
  1.000231e+00    1.673306e+00   2.415924e-02
  1.002442e+00    1.639151e+00   2.403847e-02
  1.004652e+00    1.601844e+00   2.382962e-02
  1.006863e+00    1.576869e+00   2.369219e-02
  1.009073e+00    1.563021e+00   2.362401e-02
  1.011284e+00    1.586714e+00   2.383421e-02
  1.013494e+00    1.587725e+00   2.386548e-02
  1.015705e+00    1.537160e+00   2.350456e-02
  1.017915e+00    1.490117e+00   2.315804e-02
  1.020126e+00    1.540912e+00   2.356533e-02
  1.022336e+00    1.530974e+00   2.350083e-02
  1.024547e+00    1.507965e+00   2.333461e-02
  1.026757e+00    1.487419e+00   2.318330e-02
  1.028967e+00    1.523322e+00   2.346904e-02
  1.031178e+00    1.527370e+00   2.350639e-02
  1.033388e+00    1.479083e+00   2.313679e-02
  1.035599e+00    1.473057e+00   2.309298e-02
  1.037809e+00    1.451323e+00   2.292514e-02
  1.040020e+00    1.476065e+00   2.312098e-02
  1.042230e+00    1.462417e+00   2.301575e-02
  1.044441e+00    1.479657e+00   2.315079e-02
  1.046651e+00    1.471503e+00   2.308710e-02
  1.048862e+00    1.469529e+00   2.307081e-02
  1.051072e+00    1.443593e+00   2.286402e-02
  1.053282e+00    1.454952e+00   2.295285e-02
  1.055493e+00    1.439073e+00   2.282304e-02
  1.057703e+00    1.446236e+00   2.287827e-02
  1.059914e+00    1.424881e+00   2.270457e-02
  1.062124e+00    1.408205e+00   2.256738e-02
  1.064335e+00    1.425814e+00   2.270464e-02
  1.066545e+00    1.456001e+00   2.293781e-02
  1.068756e+00    1.404925e+00   2.252827e-02
  1.070966e+00    1.413068e+00   2.258704e-02
  1.073177e+00    1.437734e+00   2.277735e-02
  1.075387e+00    1.431355e+00   2.272161e-02
  1.077597e+00    1.435359e+00   2.274620e-02
  1.079808e+00    1.417608e+00   2.247449e-02
  1.082018e+00    1.398353e+00   2.213651e-02
  1.084229e+00    1.350194e+00   2.164615e-02
  1.086439e+00    1.397054e+00   2.193288e-02
  1.088650e+00    1.417195e+00   2.201576e-02
  1.090860e+00    1.394824e+00   2.177506e-02
  1.093071e+00    1.384457e+00   2.163323e-02
  1.095281e+00    1.397567e+00   2.167913e-02
  1.097492e+00    1.415129e+00   2.176058e-02
  1.099702e+00    1.412022e+00   2.168580e-02
  1.101912e+00    1.372614e+00   2.133337e-02
  1.104123e+00    1.369366e+00   2.126098e-02
  1.106333e+00    1.388605e+00   2.136611e-02
  1.108544e+00    1.392392e+00   2.135153e-02
  1.110754e+00    1.411713e+00   2.145638e-02
  1.112965e+00    1.403967e+00   2.135716e-02
  1.115175e+00    1.383923e+00   2.116350e-02
  1.117386e+00    1.413182e+00   2.134681e-02
  1.119596e+00    1.399729e+00   2.120726e-02
  1.121807e+00    1.346436e+00   2.076169e-02
  1.124017e+00    1.348231e+00   2.073963e-02
  1.126228e+00    1.355185e+00   2.075795e-02
  1.128438e+00    1.347679e+00   2.066432e-02
  1.130648e+00    1.362577e+00   2.074435e-02
  1.132859e+00    1.343107e+00   2.056193e-02
  1.135069e+00    1.370933e+00   2.073933e-02
  1.137280e+00    1.394196e+00   2.088155e-02
  1.139490e+00    1.361261e+00   2.060067e-02
  1.141701e+00    1.387146e+00   2.076245e-02
  1.143911e+00    1.359315e+00   2.052155e-02
  1.146122e+00    1.362052e+00   2.051039e-02
  1.148332e+00    1.395248e+00   2.072676e-02
  1.150543e+00    1.357892e+00   2.041684e-02
  1.152753e+00    1.333348e+00   2.020108e-02
  1.154963e+00    1.363409e+00   2.039662e-02
  1.157174e+00    1.354013e+00   2.029626e-02
  1.159384e+00    1.364843e+00   2.034751e-02
  1.161595e+00    1.336224e+00   2.010357e-02
  1.163805e+00    1.343575e+00   2.012979e-02
  1.166016e+00    1.334417e+00   2.003202e-02
  1.168226e+00    1.322811e+00   1.991621e-02
  1.170437e+00    1.340432e+00   2.002006e-02
  1.172647e+00    1.346167e+00   2.003417e-02
  1.174858e+00    1.338881e+00   1.995203e-02
  1.177068e+00    1.322419e+00   1.980119e-02
  1.179278e+00    1.306547e+00   1.965399e-02
  1.181489e+00    1.333839e+00   1.983143e-02
  1.183699e+00    1.331299e+00   1.978528e-02
  1.185910e+00    1.326688e+00   1.972351e-02
  1.188120e+00    1.331049e+00   1.972949e-02
  1.190331e+00    1.340943e+00   1.977604e-02
  1.192541e+00    1.349681e+00   1.981306e-02
  1.194752e+00    1.370773e+00   1.994003e-02
  1.196962e+00    1.349106e+00   1.975610e-02
  1.199173e+00    1.362296e+00   1.982582e-02
  1.201383e+00    1.359850e+00   1.978076e-02
  1.203593e+00    1.316374e+00   1.943748e-02
  1.205804e+00    1.329453e+00   1.950807e-02
  1.208014e+00    1.329387e+00   1.948095e-02
  1.210225e+00    1.338176e+00   1.952002e-02
  1.212435e+00    1.317715e+00   1.934573e-02
  1.214646e+00    1.314681e+00   1.929768e-02
  1.216856e+00    1.302475e+00   1.918285e-02
  1.219067e+00    1.316989e+00   1.926528e-02
  1.221277e+00    1.314815e+00   1.922467e-02
  1.223488e+00    1.339223e+00   1.937663e-02
  1.225698e+00    1.357199e+00   1.947930e-02
  1.227909e+00    1.307375e+00   1.908870e-02
  1.230119e+00    1.331055e+00   1.922918e-02
  1.232329e+00    1.316145e+00   1.909083e-02
  1.234540e+00    1.335703e+00   1.920203e-02
  1.236750e+00    1.353430e+00   1.929873e-02
  1.238961e+00    1.332161e+00   1.911971e-02
  1.241171e+00    1.354556e+00   1.925551e-02
  1.243382e+00    1.350581e+00   1.920374e-02
  1.245592e+00    1.330132e+00   1.903389e-02
  1.247803e+00    1.316512e+00   1.891282e-02
  1.250013e+00    1.341845e+00   1.907043e-02
  1.252224e+00    1.364925e+00   1.921036e-02
  1.254434e+00    1.408072e+00   1.948740e-02
  1.256644e+00    1.385874e+00   1.930967e-02
  1.258855e+00    1.318317e+00   1.881017e-02
  1.261065e+00    1.310753e+00   1.873306e-02
  1.263276e+00    1.325542e+00   1.881573e-02
  1.265486e+00    1.324262e+00   1.878399e-02
  1.267697e+00    1.319379e+00   1.872656e-02
  1.269907e+00    1.357341e+00   1.897130e-02
  1.272118e+00    1.362901e+00   1.898744e-02
  1.274328e+00    1.330917e+00   1.874076e-02
  1.276539e+00    1.330295e+00   1.871375e-02
  1.278749e+00    1.316728e+00   1.859606e-02
  1.280959e+00    1.313624e+00   1.855191e-02
  1.283170e+00    1.379969e+00   1.899191e-02
  1.285380e+00    1.452092e+00   1.945861e-02
  1.287591e+00    1.435593e+00   1.932510e-02
  1.289801e+00    1.345200e+00   1.868559e-02
  1.292012e+00    1.329161e+00   1.855689e-02
  1.294222e+00    1.335052e+00   1.858180e-02
  1.296433e+00    1.328974e+00   1.852399e-02
  1.298643e+00    1.335797e+00   1.855509e-02
  1.300854e+00    1.328355e+00   1.848705e-02
  1.303064e+00    1.343649e+00   1.857400e-02
  1.305274e+00    1.340374e+00   1.852998e-02
  1.307485e+00    1.342138e+00   1.852069e-02
  1.309695e+00    1.334015e+00   1.844245e-02
  1.311906e+00    1.329092e+00   1.838684e-02
  1.314116e+00    1.345021e+00   1.847594e-02
  1.316327e+00    1.342049e+00   1.843390e-02
  1.318537e+00    1.355602e+00   1.850481e-02
  1.320748e+00    1.376054e+00   1.862212e-02
  1.322958e+00    1.349326e+00   1.841988e-02
  1.325169e+00    1.356462e+00   1.844742e-02
  1.327379e+00    1.346005e+00   1.835443e-02
  1.329589e+00    1.334291e+00   1.825342e-02
  1.331800e+00    1.363467e+00   1.843111e-02
  1.334010e+00    1.389039e+00   1.858220e-02
  1.336221e+00    1.381034e+00   1.850660e-02
  1.338431e+00    1.338423e+00   1.819807e-02
  1.340642e+00    1.342172e+00   1.828752e-02
  1.342852e+00    1.338253e+00   1.836103e-02
  1.345063e+00    1.315572e+00   1.825364e-02
  1.347273e+00    1.302396e+00   1.819660e-02
  1.349484e+00    1.310463e+00   1.828012e-02
  1.351694e+00    1.335881e+00   1.847916e-02
  1.353905e+00    1.332616e+00   1.847443e-02
  1.356115e+00    1.320858e+00   1.840764e-02
  1.358325e+00    1.310525e+00   1.834860e-02
  1.360536e+00    1.340895e+00   1.857159e-02
  1.362746e+00    1.323129e+00   1.845762e-02
  1.364957e+00    1.313941e+00   1.840099e-02
  1.367167e+00    1.336527e+00   1.856557e-02
  1.369378e+00    1.337719e+00   1.857986e-02
  1.371588e+00    1.358030e+00   1.872553e-02
  1.373799e+00    1.380870e+00   1.888609e-02
  1.376009e+00    1.361045e+00   1.875344e-02
  1.378220e+00    1.364314e+00   1.877850e-02
  1.380430e+00    1.366401e+00   1.879561e-02
  1.382640e+00    1.329460e+00   1.854071e-02
  1.384851e+00    1.320257e+00   1.847730e-02
  1.387061e+00    1.288590e+00   1.825466e-02
  1.389272e+00    1.261669e+00   1.806315e-02
  1.391482e+00    1.288988e+00   1.825700e-02
  1.393693e+00    1.274796e+00   1.815535e-02
  1.395903e+00    1.258531e+00   1.803768e-02
  1.398114e+00    1.261427e+00   1.805703e-02
  1.400324e+00    1.252579e+00   1.799151e-02
  1.402535e+00    1.270278e+00   1.811584e-02
  1.404745e+00    1.268094e+00   1.809793e-02
  1.406955e+00    1.273967e+00   1.813707e-02
  1.409166e+00    1.276693e+00   1.815318e-02
  1.411376e+00    1.287700e+00   1.822810e-02
  1.413587e+00    1.277354e+00   1.815093e-02
  1.415797e+00    1.251954e+00   1.796603e-02
  1.418008e+00    1.259459e+00   1.797810e-02
  1.420218e+00    1.248838e+00   1.775367e-02
  1.422429e+00    1.256349e+00   1.772211e-02
  1.424639e+00    1.272522e+00   1.777107e-02
  1.426850e+00    1.272668e+00   1.771733e-02
  1.429060e+00    1.266389e+00   1.762466e-02
  1.431270e+00    1.251660e+00   1.747787e-02
  1.433481e+00    1.253476e+00   1.744986e-02
  1.435691e+00    1.263239e+00   1.747934e-02
  1.437902e+00    1.266801e+00   1.746757e-02
  1.440112e+00    1.267288e+00   1.743561e-02
  1.442323e+00    1.275953e+00   1.746201e-02
  1.444533e+00    1.238769e+00   1.717353e-02
  1.446744e+00    1.264189e+00   1.731777e-02
  1.448954e+00    1.302216e+00   1.754574e-02
  1.451165e+00    1.283933e+00   1.739222e-02
  1.453375e+00    1.278919e+00   1.733008e-02
  1.455586e+00    1.246192e+00   1.707900e-02
  1.457796e+00    1.274456e+00   1.724404e-02
  1.460006e+00    1.231276e+00   1.692258e-02
  1.462217e+00    1.218429e+00   1.680836e-02
  1.464427e+00    1.246125e+00   1.697295e-02
  1.466638e+00    1.264318e+00   1.707113e-02
  1.468848e+00    1.270763e+00   1.708924e-02
  1.471059e+00    1.257850e+00   1.697722e-02
  1.473269e+00    1.255585e+00   1.693769e-02
  1.475480e+00    1.227608e+00   1.672453e-02
  1.477690e+00    1.246458e+00   1.682880e-02
  1.479901e+00    1.264893e+00   1.692900e-02
  1.482111e+00    1.237805e+00   1.672370e-02
  1.484321e+00    1.249351e+00   1.677855e-02
  1.486532e+00    1.264083e+00   1.685488e-02
  1.488742e+00    1.262014e+00   1.681846e-02
  1.490953e+00    1.251509e+00   1.672582e-02
  1.493163e+00    1.261878e+00   1.677270e-02
  1.495374e+00    1.237019e+00   1.658541e-02
  1.497584e+00    1.230177e+00   1.651809e-02
  1.499795e+00    1.208325e+00   1.634954e-02
  1.502005e+00    1.198295e+00   1.626039e-02
  1.504216e+00    1.216602e+00   1.636343e-02
  1.506426e+00    1.234389e+00   1.646201e-02
  1.508636e+00    1.237441e+00   1.646207e-02
  1.510847e+00    1.245522e+00   1.649401e-02
  1.513057e+00    1.236416e+00   1.640870e-02
  1.515268e+00    1.237974e+00   1.639351e-02
  1.517478e+00    1.224824e+00   1.628134e-02
  1.519689e+00    1.273091e+00   1.657388e-02
  1.521899e+00    1.267738e+00   1.651579e-02
  1.524110e+00    1.251476e+00   1.638920e-02
  1.526320e+00    1.238271e+00   1.628301e-02
  1.528531e+00    1.259334e+00   1.640109e-02
  1.530741e+00    1.253914e+00   1.634659e-02
  1.532951e+00    1.245092e+00   1.626943e-02
  1.535162e+00    1.233913e+00   1.628229e-02
  1.537372e+00    1.234011e+00   1.634942e-02
  1.539583e+00    1.246332e+00   1.646506e-02
  1.541793e+00    1.217463e+00   1.628011e-02
  1.544004e+00    1.251193e+00   1.650432e-02
  1.546214e+00    1.242823e+00   1.644757e-02
  1.548425e+00    1.227831e+00   1.634828e-02
  1.550635e+00    1.262468e+00   1.658705e-02
  1.552846e+00    1.250965e+00   1.652096e-02
  1.555056e+00    1.256303e+00   1.651453e-02
  1.557266e+00    1.230277e+00   1.623273e-02
  1.559477e+00    1.209279e+00   1.603536e-02
  1.561687e+00    1.227741e+00   1.612680e-02
  1.563898e+00    1.237429e+00   1.617321e-02
  1.566108e+00    1.219139e+00   1.603745e-02
  1.568319e+00    1.214677e+00   1.599262e-02
  1.570529e+00    1.236862e+00   1.611297e-02
  1.572740e+00    1.231435e+00   1.605010e-02
  1.574950e+00    1.239453e+00   1.607601e-02
  1.577161e+00    1.228747e+00   1.598111e-02
  1.579371e+00    1.265510e+00   1.619456e-02
  1.581582e+00    1.240247e+00   1.601238e-02
  1.583792e+00    1.245353e+00   1.602727e-02
  1.586002e+00    1.215556e+00   1.581697e-02
  1.588213e+00    1.240479e+00   1.596105e-02
  1.590423e+00    1.211704e+00   1.575507e-02
  1.592634e+00    1.206734e+00   1.570141e-02
  1.594844e+00    1.203512e+00   1.565938e-02
  1.597055e+00    1.227850e+00   1.579655e-02
  1.599265e+00    1.222452e+00   1.574123e-02
  1.601476e+00    1.214315e+00   1.566867e-02
  1.603686e+00    1.215609e+00   1.565745e-02
  1.605897e+00    1.197942e+00   1.552343e-02
  1.608107e+00    1.216395e+00   1.562313e-02
  1.610317e+00    1.210996e+00   1.556933e-02
  1.612528e+00    1.246264e+00   1.577513e-02
  1.614738e+00    1.291786e+00   1.604126e-02
  1.616949e+00    1.278344e+00   1.593823e-02
  1.619159e+00    1.205521e+00   1.545901e-02
  1.621370e+00    1.188146e+00   1.532898e-02
  1.623580e+00    1.178067e+00   1.524574e-02
  1.625791e+00    1.187312e+00   1.528736e-02
  1.628001e+00    1.175822e+00   1.519515e-02
  1.630212e+00    1.146911e+00   1.498978e-02
  1.632422e+00    1.147205e+00   1.497409e-02
  1.634632e+00    1.155792e+00   1.501292e-02
  1.636843e+00    1.160237e+00   1.502434e-02
  1.639053e+00    1.162457e+00   1.502151e-02
  1.641264e+00    1.162053e+00   1.500185e-02
  1.643474e+00    1.128921e+00   1.476932e-02
  1.645685e+00    1.148595e+00   1.488084e-02
  1.647895e+00    1.140307e+00   1.481059e-02
  1.650106e+00    1.119161e+00   1.465585e-02
  1.652316e+00    1.112081e+00   1.459320e-02
  1.654527e+00    1.093915e+00   1.445720e-02
  1.656737e+00    1.114467e+00   1.457596e-02
  1.658947e+00    1.153143e+00   1.481031e-02
  1.661158e+00    1.101802e+00   1.446079e-02
  1.663368e+00    1.087709e+00   1.435221e-02
  1.665579e+00    1.088240e+00   1.433981e-02
  1.667789e+00    1.099058e+00   1.439478e-02
  1.670000e+00    1.091893e+00   1.433246e-02
  1.672210e+00    1.078242e+00   1.422692e-02
  1.674421e+00    1.056876e+00   1.407027e-02
  1.676631e+00    1.055142e+00   1.404318e-02
  1.678842e+00    1.080641e+00   1.419621e-02
  1.681052e+00    1.066644e+00   1.408879e-02
  1.683263e+00    1.050120e+00   1.396437e-02
  1.685473e+00    1.037919e+00   1.386821e-02
  1.687683e+00    1.042618e+00   1.388441e-02
  1.689894e+00    1.051369e+00   1.392702e-02
  1.692104e+00    1.035393e+00   1.380616e-02
  1.694315e+00    1.046884e+00   1.386823e-02
  1.696525e+00    1.025630e+00   1.371191e-02
  1.698736e+00    1.028489e+00   1.371642e-02
  1.700946e+00    1.032613e+00   1.372897e-02
  1.703157e+00    1.018266e+00   1.361889e-02
  1.705367e+00    1.018514e+00   1.360629e-02
  1.707578e+00    1.016825e+00   1.358065e-02
  1.709788e+00    1.019219e+00   1.358269e-02
  1.711998e+00    1.019147e+00   1.356738e-02
  1.714209e+00    1.011945e+00   1.350511e-02
  1.716419e+00    9.830748e-01   1.329717e-02
  1.718630e+00    9.951637e-01   1.336463e-02
  1.720840e+00    1.013271e+00   1.347160e-02
  1.723051e+00    9.969555e-01   1.334905e-02
  1.725261e+00    9.731870e-01   1.317462e-02
  1.727472e+00    9.729802e-01   1.315935e-02
  1.729682e+00    9.893239e-01   1.325615e-02
  1.731893e+00    9.523414e-01   1.299252e-02
  1.734103e+00    9.831883e-01   1.318764e-02
  1.736313e+00    9.603877e-01   1.302016e-02
  1.738524e+00    9.694315e-01   1.306769e-02
  1.740734e+00    9.690456e-01   1.305163e-02
  1.742945e+00    9.502693e-01   1.291140e-02
  1.745155e+00    9.626496e-01   1.298199e-02
  1.747366e+00    9.663564e-01   1.299332e-02
  1.749576e+00    9.481229e-01   1.285675e-02
  1.751787e+00    9.339807e-01   1.274749e-02
  1.753997e+00    9.409159e-01   1.278161e-02
  1.756208e+00    9.388959e-01   1.275494e-02
  1.758418e+00    9.195690e-01   1.261022e-02
  1.760628e+00    9.302009e-01   1.266982e-02
  1.762839e+00    9.239639e-01   1.261435e-02
  1.765049e+00    9.137524e-01   1.253167e-02
  1.767260e+00    9.131184e-01   1.251481e-02
  1.769470e+00    9.188683e-01   1.254143e-02
  1.771681e+00    9.258822e-01   1.257624e-02
  1.773891e+00    9.010236e-01   1.239357e-02
  1.776102e+00    8.935802e-01   1.232975e-02
  1.778312e+00    8.981168e-01   1.234860e-02
  1.780523e+00    9.024360e-01   1.236580e-02
  1.782733e+00    9.035224e-01   1.236078e-02
  1.784944e+00    9.040962e-01   1.235206e-02
  1.787154e+00    8.736309e-01   1.213003e-02
  1.789364e+00    8.879676e-01   1.221695e-02
  1.791575e+00    8.862194e-01   1.219266e-02
  1.793785e+00    8.867617e-01   1.218424e-02
  1.795996e+00    8.813245e-01   1.213457e-02
  1.798206e+00    9.017670e-01   1.226210e-02
  1.800417e+00    8.823812e-01   1.211715e-02
  1.802627e+00    8.970845e-01   1.220585e-02
  1.804838e+00    8.706790e-01   1.201306e-02
  1.807048e+00    8.773117e-01   1.204610e-02
  1.809259e+00    8.594049e-01   1.190930e-02
  1.811469e+00    8.631806e-01   1.192080e-02
  1.813679e+00    8.679266e-01   1.193885e-02
  1.815890e+00    8.582957e-01   1.185801e-02
  1.818100e+00    8.443973e-01   1.174695e-02
  1.820311e+00    8.588883e-01   1.183283e-02
  1.822521e+00    8.568794e-01   1.180443e-02
  1.824732e+00    8.632489e-01   1.183362e-02
  1.826942e+00    8.572742e-01   1.178048e-02
  1.829153e+00    8.719534e-01   1.186930e-02
  1.831363e+00    8.614803e-01   1.178593e-02
  1.833574e+00    8.638304e-01   1.179044e-02
  1.835784e+00    8.462200e-01   1.165842e-02
  1.837994e+00    8.641579e-01   1.176972e-02
  1.840205e+00    8.409027e-01   1.159932e-02
  1.842415e+00    8.602197e-01   1.172010e-02
  1.844626e+00    8.525007e-01   1.165597e-02
  1.846836e+00    8.584551e-01   1.168523e-02
  1.849047e+00    8.566387e-01   1.166132e-02
  1.851257e+00    8.503994e-01   1.160928e-02
  1.853468e+00    8.229738e-01   1.141195e-02
  1.855678e+00    8.298076e-01   1.145049e-02
  1.857889e+00    8.528029e-01   1.159961e-02
  1.860099e+00    8.276076e-01   1.141850e-02
  1.862309e+00    8.167365e-01   1.133493e-02
  1.864520e+00    8.395674e-01   1.148377e-02
  1.866730e+00    8.458302e-01   1.151720e-02
  1.868941e+00    8.265765e-01   1.137460e-02
  1.871151e+00    8.286620e-01   1.137767e-02
  1.873362e+00    8.531842e-01   1.153344e-02
  1.875572e+00    8.349267e-01   1.139854e-02
  1.877783e+00    8.258593e-01   1.132519e-02
  1.879993e+00    8.279222e-01   1.132828e-02
  1.882204e+00    8.387036e-01   1.139096e-02
  1.884414e+00    8.307538e-01   1.132586e-02
  1.886624e+00    8.178358e-01   1.122655e-02
  1.888835e+00    8.219959e-01   1.124422e-02
  1.891045e+00    8.261582e-01   1.126186e-02
  1.893256e+00    8.204001e-01   1.121159e-02
  1.895466e+00    8.200145e-01   1.119788e-02
  1.897677e+00    8.452575e-01   1.135795e-02
  1.899887e+00    8.253953e-01   1.121281e-02
  1.902098e+00    8.223044e-01   1.118098e-02
  1.904308e+00    8.312275e-01   1.123091e-02
  1.906519e+00    8.167558e-01   1.112198e-02
  1.908729e+00    7.947611e-01   1.096080e-02
  1.910940e+00    8.140384e-01   1.108190e-02
  1.913150e+00    8.262537e-01   1.115415e-02
  1.915360e+00    8.167614e-01   1.107932e-02
  1.917571e+00    8.256274e-01   1.112840e-02
  1.919781e+00    8.077967e-01   1.099699e-02
  1.921992e+00    7.912606e-01   1.087341e-02
  1.924202e+00    7.949377e-01   1.088803e-02
  1.926413e+00    7.893990e-01   1.083990e-02
  1.928623e+00    8.137174e-01   1.099505e-02
  1.930834e+00    8.174635e-01   1.100991e-02
  1.933044e+00    8.019736e-01   1.089447e-02
  1.935255e+00    7.915666e-01   1.081336e-02
  1.937465e+00    7.847876e-01   1.075669e-02
  1.939675e+00    7.877365e-01   1.076618e-02
  1.941886e+00    7.753937e-01   1.067140e-02
  1.944096e+00    7.872639e-01   1.074269e-02
  1.946307e+00    7.849147e-01   1.071643e-02
  1.948517e+00    7.995237e-01   1.080524e-02
  1.950728e+00    7.749901e-01   1.062810e-02
  1.952938e+00    7.723908e-01   1.060032e-02
  1.955149e+00    7.655063e-01   1.054293e-02
  1.957359e+00    7.887114e-01   1.069154e-02
  1.959570e+00    7.950845e-01   1.072378e-02
  1.961780e+00    7.751831e-01   1.057892e-02
  1.963990e+00    7.696069e-01   1.053084e-02
  1.966201e+00    7.789553e-01   1.058459e-02
  1.968411e+00    8.294858e-01   1.091207e-02
  1.970622e+00    8.476148e-01   1.102029e-02
  1.972832e+00    7.961506e-01   1.067043e-02
  1.975043e+00    8.018335e-01   1.069830e-02
  1.977253e+00    8.144532e-01   1.077202e-02
  1.979464e+00    7.940319e-01   1.062603e-02
  1.981674e+00    7.747303e-01   1.048588e-02
  1.983885e+00    7.637926e-01   1.040167e-02
  1.986095e+00    7.651691e-01   1.040144e-02
  1.988305e+00    8.208696e-01   1.076319e-02
  1.990516e+00    8.468708e-01   1.092202e-02
  1.992726e+00    7.910725e-01   1.054634e-02
  1.994937e+00    7.652662e-01   1.036283e-02
  1.997147e+00    7.793365e-01   1.044789e-02
  1.999358e+00    7.767690e-01   1.042081e-02
  2.001568e+00    7.687029e-01   1.035579e-02
  2.003779e+00    7.584032e-01   1.027437e-02
  2.005989e+00    7.658297e-01   1.031256e-02
  2.008200e+00    7.848552e-01   1.042826e-02
  2.010410e+00    7.737998e-01   1.034276e-02
  2.012621e+00    7.852818e-01   1.040738e-02
  2.014831e+00    7.874984e-01   1.041043e-02
  2.017041e+00    7.706589e-01   1.028814e-02
  2.019252e+00    7.614336e-01   1.021643e-02
  2.021462e+00    7.459250e-01   1.010247e-02
  2.023673e+00    7.564913e-01   1.016441e-02
  2.025883e+00    7.810932e-01   1.031875e-02
  2.028094e+00    7.436363e-01   1.005879e-02
  2.030304e+00    7.477039e-01   1.007678e-02
  2.032515e+00    7.570708e-01   1.013045e-02
  2.034725e+00    7.565185e-01   1.011732e-02
  2.036936e+00    7.702314e-01   1.019918e-02
  2.039146e+00    7.626126e-01   1.013904e-02
  2.041356e+00    7.679027e-01   1.016440e-02
  2.043567e+00    7.715183e-01   1.017891e-02
  2.045777e+00    7.623274e-01   1.010880e-02
  2.047988e+00    7.392695e-01   9.945506e-03
  2.050198e+00    7.345810e-01   9.905558e-03
  2.052409e+00    7.478305e-01   9.986866e-03
  2.054619e+00    7.507697e-01   9.999110e-03
  2.056830e+00    7.450539e-01   9.953823e-03
  2.059040e+00    7.563080e-01   1.002119e-02
  2.061251e+00    7.413568e-01   9.914430e-03
  2.063461e+00    7.542198e-01   9.992446e-03
  2.065671e+00    7.372057e-01   9.870457e-03
  2.067882e+00    7.288582e-01   9.805519e-03
  2.070092e+00    7.264262e-01   9.780095e-03
  2.072303e+00    7.307168e-01   9.799867e-03
  2.074513e+00    7.384309e-01   9.842208e-03
  2.076724e+00    7.286400e-01   9.767368e-03
  2.078934e+00    7.218695e-01   9.713010e-03
  2.081145e+00    7.260300e-01   9.731988e-03
  2.083355e+00    7.222983e-01   9.697879e-03
  2.085566e+00    7.346230e-01   9.771411e-03
  2.087776e+00    7.106589e-01   9.601395e-03
  2.089986e+00    7.325487e-01   9.739382e-03
  2.092197e+00    7.271312e-01   9.694416e-03
  2.094407e+00    7.341039e-01   9.731568e-03
  2.096618e+00    7.318210e-01   9.707550e-03
  2.098828e+00    7.146687e-01   9.583946e-03
  2.101039e+00    6.930410e-01   9.429074e-03
  2.103249e+00    7.077038e-01   9.519747e-03
  2.105460e+00    7.227708e-01   9.611604e-03
  2.107670e+00    6.997699e-01   9.448873e-03
  2.109881e+00    6.973479e-01   9.423516e-03
  2.112091e+00    7.173265e-01   9.548616e-03
  2.114301e+00    7.221336e-01   9.571816e-03
  2.116512e+00    6.979795e-01   9.401713e-03
  2.118722e+00    7.187716e-01   9.531924e-03
  2.120933e+00    7.088393e-01   9.457055e-03
  2.123143e+00    6.886697e-01   9.312808e-03
  2.125354e+00    6.892222e-01   9.308195e-03
  2.127564e+00    6.985645e-01   9.362420e-03
  2.129775e+00    7.073762e-01   9.412632e-03
  2.131985e+00    6.960552e-01   9.328065e-03
  2.134196e+00    6.850091e-01   9.245327e-03
  2.136406e+00    6.954092e-01   9.306611e-03
  2.138617e+00    6.936092e-01   9.286202e-03
  2.140827e+00    6.926579e-01   9.295707e-03
  2.143037e+00    6.879468e-01   9.308899e-03
  2.145248e+00    6.910405e-01   9.351568e-03
  2.147458e+00    6.884068e-01   9.348703e-03
  2.149669e+00    6.872495e-01   9.352563e-03
  2.151879e+00    6.958538e-01   9.420102e-03
  2.154090e+00    6.924320e-01   9.404182e-03
  2.156300e+00    6.982519e-01   9.450217e-03
  2.158511e+00    6.880469e-01   9.386169e-03
  2.160721e+00    6.841213e-01   9.364118e-03
  2.162932e+00    6.889748e-01   9.400993e-03
  2.165142e+00    6.846280e-01   9.374286e-03
  2.167352e+00    6.547405e-01   9.170221e-03
  2.169563e+00    6.774353e-01   9.329680e-03
  2.171773e+00    6.966913e-01   9.463838e-03
  2.173984e+00    6.935026e-01   9.443562e-03
  2.176194e+00    6.837862e-01   9.378376e-03
  2.178405e+00    6.685655e-01   9.274086e-03
  2.180615e+00    6.643032e-01   9.245144e-03
  2.182826e+00    6.776770e-01   9.338406e-03
  2.185036e+00    6.697851e-01   9.283944e-03
  2.187247e+00    6.619529e-01   9.229427e-03
  2.189457e+00    6.834578e-01   9.377752e-03
  2.191667e+00    6.836444e-01   9.378869e-03
  2.193878e+00    6.673256e-01   9.265681e-03
  2.196088e+00    6.851732e-01   9.388086e-03
  2.198299e+00    6.939669e-01   9.447042e-03
  2.200509e+00    6.824284e-01   9.367132e-03
  2.202720e+00    6.863263e-01   9.392682e-03
  2.204930e+00    6.809645e-01   9.354673e-03
  2.207141e+00    6.933210e-01   9.438057e-03
  2.209351e+00    6.846477e-01   9.376936e-03
  2.211562e+00    6.647170e-01   9.237857e-03
  2.213772e+00    6.602983e-01   9.152278e-03
  2.215982e+00    6.754429e-01   9.212446e-03
  2.218193e+00    6.653748e-01   9.114144e-03
  2.220403e+00    6.594909e-01   9.049439e-03
  2.222614e+00    6.655908e-01   9.070365e-03
  2.224824e+00    6.638029e-01   9.038939e-03
  2.227035e+00    6.802275e-01   9.132545e-03
  2.229245e+00    6.577049e-01   8.963298e-03
  2.231456e+00    6.554763e-01   8.932656e-03
  2.233666e+00    6.579058e-01   8.934255e-03
  2.235877e+00    6.456591e-01   8.836710e-03
  2.238087e+00    6.662410e-01   8.963007e-03
  2.240298e+00    6.536281e-01   8.864151e-03
  2.242508e+00    6.510649e-01   8.831833e-03
  2.244718e+00    6.528697e-01   8.828440e-03
  2.246929e+00    6.604731e-01   8.865356e-03
  2.249139e+00    6.704966e-01   8.919982e-03
  2.251350e+00    6.551112e-01   8.805433e-03
  2.253560e+00    6.679967e-01   8.880031e-03
  2.255771e+00    6.667750e-01   8.860501e-03
  2.257981e+00    6.506351e-01   8.741551e-03
  2.260192e+00    6.536827e-01   8.750957e-03
  2.262402e+00    6.637052e-01   8.806963e-03
  2.264613e+00    6.463928e-01   8.680641e-03
  2.266823e+00    6.670789e-01   8.808008e-03
  2.269033e+00    6.593768e-01   8.746687e-03
  2.271244e+00    6.374726e-01   8.589964e-03
  2.273454e+00    6.586245e-01   8.721081e-03
  2.275665e+00    6.659208e-01   8.758920e-03
  2.277875e+00    6.516322e-01   8.654598e-03
  2.280086e+00    6.487834e-01   8.625690e-03
  2.282296e+00    6.703601e-01   8.758459e-03
  2.284507e+00    6.591448e-01   8.674771e-03
  2.286717e+00    6.471997e-01   8.586422e-03
  2.288928e+00    6.338156e-01   8.487476e-03
  2.291138e+00    6.312488e-01   8.461022e-03
  2.293348e+00    6.551746e-01   8.610345e-03
  2.295559e+00    6.437440e-01   8.525680e-03
  2.297769e+00    6.503998e-01   8.560425e-03
  2.299980e+00    6.516506e-01   8.559326e-03
  2.302190e+00    6.412501e-01   8.481713e-03
  2.304401e+00    6.471430e-01   8.511300e-03
  2.306611e+00    6.297016e-01   8.386794e-03
  2.308822e+00    6.354034e-01   8.416383e-03
  2.311032e+00    6.411725e-01   8.448105e-03
  2.313243e+00    6.349981e-01   8.401130e-03
  2.315453e+00    6.425643e-01   8.443500e-03
  2.317663e+00    6.369341e-01   8.397373e-03
  2.319874e+00    6.369588e-01   8.388875e-03
  2.322084e+00    6.345209e-01   8.363914e-03
  2.324295e+00    6.504083e-01   8.459716e-03
  2.326505e+00    6.346418e-01   8.347596e-03
  2.328716e+00    6.294537e-01   8.304918e-03
  2.330926e+00    6.347408e-01   8.330993e-03
  2.333137e+00    6.484904e-01   8.412323e-03
  2.335347e+00    6.357809e-01   8.320664e-03
  2.337558e+00    6.399082e-01   8.339384e-03
  2.339768e+00    6.262347e-01   8.241334e-03
  2.341979e+00    6.285192e-01   8.248047e-03
  2.344189e+00    6.324415e-01   8.265391e-03
  2.346399e+00    6.094285e-01   8.105309e-03
  2.348610e+00    6.002446e-01   8.035778e-03
  2.350820e+00    6.190724e-01   8.152746e-03
  2.353031e+00    6.199624e-01   8.150415e-03
  2.355241e+00    6.145426e-01   8.106783e-03
  2.357452e+00    6.248770e-01   8.166282e-03
  2.359662e+00    6.366704e-01   8.234737e-03
  2.361873e+00    6.190688e-01   8.111961e-03
  2.364083e+00    6.093884e-01   8.040411e-03
  2.366294e+00    6.138335e-01   8.061671e-03
  2.368504e+00    6.165597e-01   8.071540e-03
  2.370714e+00    6.114711e-01   8.030201e-03
  2.372925e+00    5.890051e-01   7.873494e-03
  2.375135e+00    5.922198e-01   7.887088e-03
  2.377346e+00    5.911584e-01   7.872295e-03
  2.379556e+00    5.982414e-01   7.911552e-03
  2.381767e+00    6.189977e-01   8.039792e-03
  2.383977e+00    6.131359e-01   7.993769e-03
  2.386188e+00    5.989022e-01   7.892648e-03
  2.388398e+00    5.931531e-01   7.846870e-03
  2.390609e+00    6.187080e-01   8.006397e-03
  2.392819e+00    5.984197e-01   7.866367e-03
  2.395029e+00    5.982336e-01   7.857598e-03
  2.397240e+00    5.976328e-01   7.845887e-03
  2.399450e+00    6.086195e-01   7.909887e-03
  2.401661e+00    6.311190e-01   8.046980e-03
  2.403871e+00    6.040116e-01   7.864580e-03
  2.406082e+00    5.961298e-01   7.805721e-03
  2.408292e+00    5.971384e-01   7.804615e-03
  2.410503e+00    6.028354e-01   7.834299e-03
  2.412713e+00    6.048164e-01   7.839380e-03
  2.414924e+00    5.963593e-01   7.776964e-03
  2.417134e+00    5.943229e-01   7.756093e-03
  2.419344e+00    5.827811e-01   7.673140e-03
  2.421555e+00    5.773409e-01   7.629886e-03
  2.423765e+00    5.814743e-01   7.649848e-03
  2.425976e+00    5.887346e-01   7.689734e-03
  2.428186e+00    5.907927e-01   7.695995e-03
  2.430397e+00    5.823983e-01   7.633742e-03
  2.432607e+00    5.900578e-01   7.676513e-03
  2.434818e+00    5.781014e-01   7.590945e-03
  2.437028e+00    5.868943e-01   7.641317e-03
  2.439239e+00    5.990531e-01   7.712381e-03
  2.441449e+00    5.798341e-01   7.580553e-03
  2.443659e+00    5.718273e-01   7.520784e-03
  2.445870e+00    5.740160e-01   7.547260e-03
  2.448080e+00    5.634862e-01   7.511927e-03
  2.450291e+00    5.596966e-01   7.502984e-03
  2.452501e+00    5.570849e-01   7.496429e-03
  2.454712e+00    5.504487e-01   7.459900e-03
  2.456922e+00    5.550507e-01   7.497550e-03
  2.459133e+00    5.571094e-01   7.516832e-03
  2.461343e+00    5.446888e-01   7.436827e-03
  2.463554e+00    5.474407e-01   7.459004e-03
  2.465764e+00    5.380154e-01   7.397589e-03
  2.467975e+00    5.517102e-01   7.493397e-03
  2.470185e+00    5.434023e-01   7.439014e-03
  2.472395e+00    5.391396e-01   7.410964e-03
  2.474606e+00    5.476533e-01   7.470794e-03
  2.476816e+00    5.456510e-01   7.457882e-03
  2.479027e+00    5.335578e-01   7.375591e-03
  2.481237e+00    5.475079e-01   7.471666e-03
  2.483448e+00    5.362287e-01   7.394624e-03
  2.485658e+00    5.292765e-01   7.346369e-03
  2.487869e+00    5.436790e-01   7.445688e-03
  2.490079e+00    5.436451e-01   7.444950e-03
  2.492290e+00    5.269575e-01   7.329372e-03
  2.494500e+00    5.264452e-01   7.325073e-03
  2.496710e+00    5.216132e-01   7.290693e-03
  2.498921e+00    5.295715e-01   7.345115e-03
  2.501131e+00    5.259254e-01   7.318845e-03
  2.503342e+00    5.192457e-01   7.270967e-03
  2.505552e+00    5.222014e-01   7.290516e-03
  2.507763e+00    5.179792e-01   7.259576e-03
  2.509973e+00    5.148856e-01   7.236492e-03
  2.512184e+00    5.151466e-01   7.236739e-03
  2.514394e+00    5.105088e-01   7.194858e-03
  2.516605e+00    5.196520e-01   7.212264e-03
  2.518815e+00    5.006027e-01   7.051196e-03
  2.521025e+00    5.100703e-01   7.096904e-03
  2.523236e+00    5.219624e-01   7.161237e-03
  2.525446e+00    5.205930e-01   7.136308e-03
  2.527657e+00    5.282847e-01   7.174188e-03
  2.529867e+00    5.106053e-01   7.039154e-03
  2.532078e+00    5.193025e-01   7.083872e-03
  2.534288e+00    5.096732e-01   7.004220e-03
  2.536499e+00    5.086146e-01   6.985176e-03
  2.538709e+00    5.181001e-01   7.039078e-03
  2.540920e+00    5.153921e-01   7.010115e-03
  2.543130e+00    5.114990e-01   6.973350e-03
  2.545340e+00    5.037304e-01   6.910313e-03
  2.547551e+00    5.176547e-01   6.995260e-03
  2.549761e+00    5.244581e-01   7.031509e-03
  2.551972e+00    5.174543e-01   6.975081e-03
  2.554182e+00    5.066847e-01   6.893069e-03
  2.556393e+00    4.963121e-01   6.813264e-03
  2.558603e+00    5.084153e-01   6.886861e-03
  2.560814e+00    5.103468e-01   6.891317e-03
  2.563024e+00    5.143753e-01   6.909931e-03
  2.565235e+00    5.161251e-01   6.912183e-03
  2.567445e+00    5.061999e-01   6.835983e-03
  2.569656e+00    4.922106e-01   6.731341e-03
  2.571866e+00    4.930104e-01   6.727688e-03
  2.574076e+00    4.998679e-01   6.765188e-03
  2.576287e+00    5.046840e-01   6.789479e-03
  2.578497e+00    5.105223e-01   6.820831e-03
  2.580708e+00    5.062612e-01   6.784292e-03
  2.582918e+00    5.029169e-01   6.754186e-03
  2.585129e+00    4.980370e-01   6.713700e-03
  2.587339e+00    5.057355e-01   6.757773e-03
  2.589550e+00    5.081986e-01   6.766698e-03
  2.591760e+00    5.089058e-01   6.763682e-03
  2.593971e+00    5.107972e-01   6.768740e-03
  2.596181e+00    4.900560e-01   6.623786e-03
  2.598391e+00    4.911481e-01   6.626081e-03
  2.600602e+00    4.946815e-01   6.644045e-03
  2.602812e+00    4.895132e-01   6.601854e-03
  2.605023e+00    5.015875e-01   6.675654e-03
  2.607233e+00    4.985536e-01   6.648378e-03
  2.609444e+00    5.009287e-01   6.657003e-03
  2.611654e+00    4.847672e-01   6.541588e-03
  2.613865e+00    4.912083e-01   6.577945e-03
  2.616075e+00    4.942610e-01   6.591323e-03
  2.618286e+00    4.922831e-01   6.571205e-03
  2.620496e+00    4.961592e-01   6.590385e-03
  2.622706e+00    4.987755e-01   6.602044e-03
  2.624917e+00    4.975847e-01   6.588337e-03
  2.627127e+00    5.024802e-01   6.614947e-03
  2.629338e+00    4.848211e-01   6.491799e-03
  2.631548e+00    4.915844e-01   6.530826e-03
  2.633759e+00    4.984921e-01   6.569433e-03
  2.635969e+00    4.897861e-01   6.505210e-03
  2.638180e+00    5.028743e-01   6.584552e-03
  2.640390e+00    4.938679e-01   6.518770e-03
  2.642601e+00    4.944584e-01   6.516051e-03
  2.644811e+00    4.852058e-01   6.447827e-03
  2.647021e+00    5.017581e-01   6.550293e-03
  2.649232e+00    5.087877e-01   6.589257e-03
  2.651442e+00    4.786311e-01   6.384630e-03
  2.653653e+00    4.845354e-01   6.417187e-03
  2.655863e+00    4.926452e-01   6.464018e-03
  2.658074e+00    4.939736e-01   6.466163e-03
  2.660284e+00    4.802624e-01   6.369526e-03
  2.662495e+00    4.815713e-01   6.371556e-03
  2.664705e+00    4.734664e-01   6.311316e-03
  2.666916e+00    4.823248e-01   6.363688e-03
  2.669126e+00    4.808299e-01   6.347480e-03
  2.671337e+00    4.787921e-01   6.327534e-03
  2.673547e+00    4.865199e-01   6.372073e-03
  2.675757e+00    4.872598e-01   6.370511e-03
  2.677968e+00    4.945663e-01   6.411583e-03
  2.680178e+00    4.799632e-01   6.309904e-03
  2.682389e+00    4.789627e-01   6.297018e-03
  2.684599e+00    4.831414e-01   6.318297e-03
  2.686810e+00    4.871206e-01   6.337698e-03
  2.689020e+00    4.812399e-01   6.293105e-03
  2.691231e+00    4.753887e-01   6.248540e-03
  2.693441e+00    4.787020e-01   6.264200e-03
  2.695652e+00    4.712882e-01   6.209126e-03
  2.697862e+00    4.689265e-01   6.187340e-03
  2.700072e+00    4.711619e-01   6.196084e-03
  2.702283e+00    4.778773e-01   6.233962e-03
  2.704493e+00    4.863796e-01   6.282892e-03
  2.706704e+00    4.975503e-01   6.348173e-03
  2.708914e+00    4.782872e-01   6.218185e-03
  2.711125e+00    4.728912e-01   6.176832e-03
  2.713335e+00    4.749933e-01   6.184552e-03
  2.715546e+00    4.705541e-01   6.149215e-03
  2.717756e+00    4.738075e-01   6.164639e-03
  2.719967e+00    4.839144e-01   6.223832e-03
  2.722177e+00    4.759751e-01   6.166522e-03
  2.724387e+00    4.792385e-01   6.181539e-03
  2.726598e+00    4.821968e-01   6.194554e-03
  2.728808e+00    4.847255e-01   6.204637e-03
  2.731019e+00    4.718457e-01   6.115608e-03
  2.733229e+00    4.746810e-01   6.128202e-03
  2.735440e+00    4.729618e-01   6.110903e-03
  2.737650e+00    4.758267e-01   6.123411e-03
  2.739861e+00    4.711033e-01   6.086950e-03
  2.742071e+00    4.757556e-01   6.111227e-03
  2.744282e+00    4.661192e-01   6.042898e-03
  2.746492e+00    4.535155e-01   5.954765e-03
  2.748702e+00    4.661928e-01   6.031617e-03
  2.750913e+00    4.704876e-01   6.053622e-03
  2.753123e+00    4.748883e-01   6.075783e-03
  2.755334e+00    4.755458e-01   6.073949e-03
  2.757544e+00    4.666074e-01   6.010955e-03
  2.759755e+00    4.828638e-01   6.108840e-03
  2.761965e+00    4.779643e-01   6.071823e-03
  2.764176e+00    4.626353e-01   5.967787e-03
  2.766386e+00    4.688566e-01   6.002042e-03
  2.768597e+00    4.795138e-01   6.064009e-03
  2.770807e+00    4.756087e-01   6.033418e-03
  2.773017e+00    4.721257e-01   6.005364e-03
  2.775228e+00    4.766888e-01   6.028531e-03
  2.777438e+00    4.690617e-01   5.974375e-03
  2.779649e+00    4.637354e-01   5.934544e-03
  2.781859e+00    4.659144e-01   5.942779e-03
  2.784070e+00    4.670529e-01   5.944235e-03
  2.786280e+00    4.677553e-01   5.943000e-03
  2.788491e+00    4.662313e-01   5.927537e-03
  2.790701e+00    4.737785e-01   5.969678e-03
  2.792912e+00    4.881689e-01   6.053636e-03
  2.795122e+00    4.864058e-01   6.036899e-03
  2.797333e+00    4.661770e-01   5.904534e-03
  2.799543e+00    4.738250e-01   5.946917e-03
  2.801753e+00    4.710576e-01   5.923689e-03
  2.803964e+00    4.666940e-01   5.890584e-03
  2.806174e+00    4.680946e-01   5.893308e-03
  2.808385e+00    4.715322e-01   5.908141e-03
  2.810595e+00    4.707032e-01   5.896102e-03
  2.812806e+00    4.771236e-01   5.929549e-03
  2.815016e+00    4.750673e-01   5.912025e-03
  2.817227e+00    4.642018e-01   5.869665e-03
  2.819437e+00    4.789658e-01   5.973428e-03
  2.821648e+00    4.750530e-01   5.951270e-03
  2.823858e+00    4.654688e-01   5.896236e-03
  2.826068e+00    4.709951e-01   5.936076e-03
  2.828279e+00    4.801006e-01   5.997274e-03
  2.830489e+00    4.727432e-01   5.954481e-03
  2.832700e+00    4.734519e-01   5.961498e-03
  2.834910e+00    4.727343e-01   5.959048e-03
  2.837121e+00    4.594108e-01   5.876163e-03
  2.839331e+00    4.710509e-01   5.951370e-03
  2.841542e+00    4.656933e-01   5.918446e-03
  2.843752e+00    4.636600e-01   5.906265e-03
  2.845963e+00    4.831845e-01   6.029752e-03
  2.848173e+00    4.721973e-01   5.960906e-03
  2.850383e+00    4.599151e-01   5.883157e-03
  2.852594e+00    4.504323e-01   5.822109e-03
  2.854804e+00    4.500124e-01   5.818898e-03
  2.857015e+00    4.498967e-01   5.817717e-03
  2.859225e+00    4.542816e-01   5.845756e-03
  2.861436e+00    4.511610e-01   5.825011e-03
  2.863646e+00    4.527595e-01   5.835334e-03
  2.865857e+00    4.646901e-01   5.912082e-03
  2.868067e+00    4.490595e-01   5.812009e-03
  2.870278e+00    4.585559e-01   5.872790e-03
  2.872488e+00    4.565063e-01   5.858505e-03
  2.874698e+00    4.614304e-01   5.888957e-03
  2.876909e+00    4.541232e-01   5.840854e-03
  2.879119e+00    4.553836e-01   5.847326e-03
  2.881330e+00    4.537052e-01   5.835097e-03
  2.883540e+00    4.520179e-01   5.822857e-03
  2.885751e+00    4.501253e-01   5.809027e-03
  2.887961e+00    4.425797e-01   5.758300e-03
  2.890172e+00    4.304816e-01   5.677487e-03
  2.892382e+00    4.522606e-01   5.817548e-03
  2.894593e+00    4.532554e-01   5.822145e-03
  2.896803e+00    4.411601e-01   5.742014e-03
  2.899014e+00    4.478247e-01   5.783306e-03
  2.901224e+00    4.574291e-01   5.843024e-03
  2.903434e+00    4.463269e-01   5.769789e-03
  2.905645e+00    4.512903e-01   5.799538e-03
  2.907855e+00    4.466098e-01   5.767351e-03
  2.910066e+00    4.460572e-01   5.761713e-03
  2.912276e+00    4.388257e-01   5.712746e-03
  2.914487e+00    4.572357e-01   5.828889e-03
  2.916697e+00    4.587026e-01   5.836006e-03
  2.918908e+00    4.540770e-01   5.804534e-03
  2.921118e+00    4.496228e-01   5.773305e-03
  2.923329e+00    4.486273e-01   5.764624e-03
  2.925539e+00    4.518332e-01   5.782922e-03
  2.927749e+00    4.454326e-01   5.739537e-03
  2.929960e+00    4.529202e-01   5.784785e-03
  2.932170e+00    4.567178e-01   5.806691e-03
  2.934381e+00    4.449089e-01   5.728710e-03
  2.936591e+00    4.451098e-01   5.727451e-03
  2.938802e+00    4.542677e-01   5.783367e-03
  2.941012e+00    4.492743e-01   5.749194e-03
  2.943223e+00    4.439098e-01   5.712079e-03
  2.945433e+00    4.472116e-01   5.729603e-03
  2.947644e+00    4.456099e-01   5.715231e-03
  2.949854e+00    4.515941e-01   5.749230e-03
  2.952064e+00    4.454485e-01   5.705811e-03
  2.954275e+00    4.390691e-01   5.660462e-03
  2.956485e+00    4.360680e-01   5.636983e-03
  2.958696e+00    4.468608e-01   5.701979e-03
  2.960906e+00    4.450130e-01   5.686051e-03
  2.963117e+00    4.320472e-01   5.598229e-03
  2.965327e+00    4.404150e-01   5.648333e-03
  2.967538e+00    4.448049e-01   5.673538e-03
  2.969748e+00    4.613309e-01   5.775123e-03
  2.971959e+00    4.564811e-01   5.741562e-03
  2.974169e+00    4.531138e-01   5.717761e-03
  2.976379e+00    4.468707e-01   5.675337e-03
  2.978590e+00    4.390927e-01   5.622653e-03
  2.980800e+00    4.390505e-01   5.619621e-03
  2.983011e+00    4.445387e-01   5.651869e-03
  2.985221e+00    4.419263e-01   5.632135e-03
  2.987432e+00    4.469355e-01   5.660868e-03
  2.989642e+00    4.433395e-01   5.635460e-03
  2.991853e+00    4.497404e-01   5.672720e-03
  2.994063e+00    4.504174e-01   5.674115e-03
  2.996274e+00    4.486252e-01   5.659631e-03
  2.998484e+00    4.510182e-01   5.672024e-03
  3.000694e+00    4.348904e-01   5.566303e-03
  3.002905e+00    4.343472e-01   5.559959e-03
  3.005115e+00    4.414051e-01   5.602004e-03
  3.007326e+00    4.472080e-01   5.635554e-03
  3.009536e+00    4.610987e-01   5.719145e-03
  3.011747e+00    4.472898e-01   5.629970e-03
  3.013957e+00    4.451021e-01   5.613029e-03
  3.016168e+00    4.387069e-01   5.569332e-03
  3.018378e+00    4.495025e-01   5.634432e-03
  3.020589e+00    4.430006e-01   5.590354e-03
  3.022799e+00    4.365406e-01   5.546333e-03
  3.025010e+00    4.389350e-01   5.558331e-03
  3.027220e+00    4.280578e-01   5.486010e-03
  3.029430e+00    4.318883e-01   5.507321e-03
  3.031641e+00    4.346892e-01   5.522077e-03
  3.033851e+00    4.347447e-01   5.518976e-03
  3.036062e+00    4.513521e-01   5.620617e-03
  3.038272e+00    4.557322e-01   5.644239e-03
  3.040483e+00    4.396940e-01   5.540862e-03
  3.042693e+00    4.243186e-01   5.439952e-03
  3.044904e+00    4.278967e-01   5.458910e-03
  3.047114e+00    4.516327e-01   5.603461e-03
  3.049325e+00    4.465454e-01   5.567462e-03
  3.051535e+00    4.405766e-01   5.525779e-03
  3.053745e+00    4.465618e-01   5.558436e-03
  3.055956e+00    4.372562e-01   5.495748e-03
  3.058166e+00    4.215749e-01   5.392151e-03
  3.060377e+00    4.366787e-01   5.483197e-03
  3.062587e+00    4.465925e-01   5.540473e-03
  3.064798e+00    4.571507e-01   5.601309e-03
  3.067008e+00    4.485638e-01   5.543739e-03
  3.069219e+00    4.330664e-01   5.442693e-03
  3.071429e+00    4.365987e-01   5.461385e-03
  3.073640e+00    4.242009e-01   5.380046e-03
  3.075850e+00    4.383857e-01   5.465709e-03
  3.078060e+00    4.319079e-01   5.422146e-03
  3.080271e+00    4.356777e-01   5.442330e-03
  3.082481e+00    4.389126e-01   5.459086e-03
  3.084692e+00    4.384553e-01   5.452900e-03
  3.086902e+00    4.384086e-01   5.449411e-03
  3.089113e+00    4.221140e-01   5.343718e-03
  3.091323e+00    4.290456e-01   5.384091e-03
  3.093534e+00    4.347341e-01   5.416360e-03
  3.095744e+00    4.360195e-01   5.421013e-03
  3.097955e+00    4.451873e-01   5.474179e-03
  3.100165e+00    4.481621e-01   5.489106e-03
  3.102375e+00    4.485440e-01   5.488014e-03
  3.104586e+00    4.402114e-01   5.433349e-03
  3.106796e+00    4.335696e-01   5.388711e-03
  3.109007e+00    4.517175e-01   5.497108e-03
  3.111217e+00    4.395894e-01   5.419155e-03
  3.113428e+00    4.406239e-01   5.422114e-03
  3.115638e+00    4.396684e-01   5.413033e-03
  3.117849e+00    4.361821e-01   5.387850e-03
  3.120059e+00    4.251972e-01   5.316167e-03
  3.122270e+00    4.259419e-01   5.317649e-03
  3.124480e+00    4.333205e-01   5.359864e-03
  3.126691e+00    4.356191e-01   5.370528e-03
  3.128901e+00    4.373049e-01   5.377823e-03
  3.131111e+00    4.447943e-01   5.419829e-03
  3.133322e+00    4.445782e-01   5.415092e-03
  3.135532e+00    4.285598e-01   5.313272e-03
  3.137743e+00    4.316744e-01   5.329120e-03
  3.139953e+00    4.332697e-01   5.335325e-03
  3.142164e+00    4.269033e-01   5.307780e-03
  3.144374e+00    4.419873e-01   5.429107e-03
  3.146585e+00    4.358930e-01   5.406030e-03
  3.148795e+00    4.367058e-01   5.421764e-03
  3.151006e+00    4.304945e-01   5.391507e-03
  3.153216e+00    4.289213e-01   5.388682e-03
  3.155426e+00    4.254723e-01   5.373158e-03
  3.157637e+00    4.248993e-01   5.374971e-03
  3.159847e+00    4.311342e-01   5.419086e-03
  3.162058e+00    4.281502e-01   5.404667e-03
  3.164268e+00    4.331402e-01   5.440099e-03
  3.166479e+00    4.364190e-01   5.464294e-03
  3.168689e+00    4.255882e-01   5.399390e-03
  3.170900e+00    4.309724e-01   5.436555e-03
  3.173110e+00    4.230297e-01   5.389048e-03
  3.175321e+00    4.411369e-01   5.505683e-03
  3.177531e+00    4.397152e-01   5.499546e-03
  3.179741e+00    4.348255e-01   5.470959e-03
  3.181952e+00    4.359078e-01   5.479849e-03
  3.184162e+00    4.333009e-01   5.465641e-03
  3.186373e+00    4.199088e-01   5.382075e-03
  3.188583e+00    4.179117e-01   5.371005e-03
  3.190794e+00    4.213015e-01   5.394469e-03
  3.193004e+00    4.260239e-01   5.425843e-03
  3.195215e+00    4.329187e-01   5.471068e-03
  3.197425e+00    4.375856e-01   5.501698e-03
  3.199636e+00    4.339335e-01   5.477917e-03
  3.201846e+00    4.329169e-01   5.470915e-03
  3.204056e+00    4.157682e-01   5.362312e-03
  3.206267e+00    4.235123e-01   5.412865e-03
  3.208477e+00    4.157408e-01   5.363867e-03
  3.210688e+00    4.307904e-01   5.460940e-03
  3.212898e+00    4.267405e-01   5.435783e-03
  3.215109e+00    4.328863e-01   5.475528e-03
  3.217319e+00    4.304909e-01   5.461018e-03
  3.219530e+00    4.146912e-01   5.360227e-03
  3.221740e+00    4.282328e-01   5.447609e-03
  3.223951e+00    4.286381e-01   5.450652e-03
  3.226161e+00    4.221309e-01   5.409319e-03
  3.228372e+00    4.214889e-01   5.405715e-03
  3.230582e+00    4.322565e-01   5.474470e-03
  3.232792e+00    4.286987e-01   5.452127e-03
  3.235003e+00    4.316665e-01   5.471206e-03
  3.237213e+00    4.324653e-01   5.476370e-03
  3.239424e+00    4.332919e-01   5.481600e-03
  3.241634e+00    4.182036e-01   5.385450e-03
  3.243845e+00    4.120698e-01   5.345854e-03
  3.246055e+00    4.101260e-01   5.332987e-03
  3.248266e+00    4.086913e-01   5.323830e-03
  3.250476e+00    4.154795e-01   5.367573e-03
  3.252687e+00    4.058792e-01   5.305110e-03
  3.254897e+00    4.164122e-01   5.373391e-03
  3.257107e+00    4.203474e-01   5.398410e-03
  3.259318e+00    4.142249e-01   5.358729e-03
  3.261528e+00    4.072996e-01   5.313620e-03
  3.263739e+00    4.019943e-01   5.278328e-03
  3.265949e+00    4.175243e-01   5.379202e-03
  3.268160e+00    4.070609e-01   5.310977e-03
  3.270370e+00    4.246387e-01   5.423910e-03
  3.272581e+00    4.221032e-01   5.407432e-03
  3.274791e+00    4.095030e-01   5.325591e-03
  3.277002e+00    4.091454e-01   5.322709e-03
  3.279212e+00    4.230069e-01   5.411735e-03
  3.281422e+00    4.171272e-01   5.373450e-03
  3.283633e+00    4.081242e-01   5.314445e-03
  3.285843e+00    4.157192e-01   5.363346e-03
  3.288054e+00    4.275703e-01   5.438319e-03
  3.290264e+00    4.115811e-01   5.335365e-03
  3.292475e+00    4.088491e-01   5.316786e-03
  3.294685e+00    4.182383e-01   5.376873e-03
  3.296896e+00    4.108998e-01   5.328747e-03
  3.299106e+00    4.121421e-01   5.336248e-03
  3.301317e+00    4.061201e-01   5.296117e-03
  3.303527e+00    4.114714e-01   5.330421e-03
  3.305737e+00    4.117778e-01   5.331384e-03
  3.307948e+00    4.063323e-01   5.295355e-03
  3.310158e+00    4.172535e-01   5.365201e-03
  3.312369e+00    4.289560e-01   5.439023e-03
  3.314579e+00    4.268812e-01   5.424967e-03
  3.316790e+00    4.106432e-01   5.320055e-03
  3.319000e+00    4.164691e-01   5.356517e-03
  3.321211e+00    4.228087e-01   5.396514e-03
  3.323421e+00    4.015638e-01   5.258010e-03
  3.325632e+00    4.202386e-01   5.377979e-03
  3.327842e+00    4.324005e-01   5.454333e-03
  3.330052e+00    4.050446e-01   5.277948e-03
  3.332263e+00    4.099872e-01   5.309039e-03
  3.334473e+00    4.045772e-01   5.273000e-03
  3.336684e+00    4.083662e-01   5.296380e-03
  3.338894e+00    4.195431e-01   5.367538e-03
  3.341105e+00    4.035246e-01   5.262889e-03
  3.343315e+00    4.111850e-01   5.311494e-03
  3.345526e+00    4.129997e-01   5.322286e-03
  3.347736e+00    4.203740e-01   5.368195e-03
  3.349947e+00    4.130211e-01   5.320126e-03
  3.352157e+00    4.076222e-01   5.284057e-03
  3.354368e+00    4.289782e-01   5.419430e-03
  3.356578e+00    4.273321e-01   5.407976e-03
  3.358788e+00    4.132122e-01   5.316570e-03
  3.360999e+00    4.163576e-01   5.335511e-03
  3.363209e+00    4.047125e-01   5.259377e-03
  3.365420e+00    4.061604e-01   5.267284e-03
  3.367630e+00    4.122694e-01   5.305734e-03
  3.369841e+00    3.993197e-01   5.220331e-03
  3.372051e+00    4.174939e-01   5.335846e-03
  3.374262e+00    4.129898e-01   5.304557e-03
  3.376472e+00    4.120032e-01   5.295775e-03
  3.378683e+00    4.062640e-01   5.256298e-03
  3.380893e+00    3.988543e-01   5.205856e-03
  3.383103e+00    4.067466e-01   5.254407e-03
  3.385314e+00    4.216238e-01   5.347413e-03
  3.387524e+00    4.145693e-01   5.299770e-03
  3.389735e+00    3.981505e-01   5.191157e-03
  3.391945e+00    4.065256e-01   5.241832e-03
  3.394156e+00    4.115771e-01   5.270086e-03
  3.396366e+00    4.244123e-01   5.348180e-03
  3.398577e+00    3.997514e-01   5.187470e-03
  3.400787e+00    4.014198e-01   5.210056e-03
  3.402998e+00    4.001022e-01   5.239108e-03
  3.405208e+00    3.784407e-01   5.115252e-03
  3.407418e+00    3.920269e-01   5.221883e-03
  3.409629e+00    3.907621e-01   5.227230e-03
  3.411839e+00    3.791538e-01   5.160486e-03
  3.414050e+00    3.890469e-01   5.238223e-03
  3.416260e+00    4.005121e-01   5.324605e-03
  3.418471e+00    3.864111e-01   5.239351e-03
  3.420681e+00    3.621759e-01   5.080563e-03
  3.422892e+00    3.711032e-01   5.150561e-03
  3.425102e+00    3.755761e-01   5.189207e-03
  3.427313e+00    3.748073e-01   5.190937e-03
  3.429523e+00    3.614919e-01   5.104743e-03
  3.431733e+00    3.647897e-01   5.134421e-03
  3.433944e+00    3.779479e-01   5.232634e-03
  3.436154e+00    3.860411e-01   5.294648e-03
  3.438365e+00    3.752626e-01   5.226084e-03
  3.440575e+00    3.677007e-01   5.178994e-03
  3.442786e+00    3.858898e-01   5.311175e-03
  3.444996e+00    3.750644e-01   5.241678e-03
  3.447207e+00    3.549238e-01   5.104121e-03
  3.449417e+00    3.633766e-01   5.204910e-03
  3.451628e+00    3.462586e-01   5.109374e-03
  3.453838e+00    3.631803e-01   5.253727e-03
  3.456049e+00    3.402066e-01   5.107902e-03
  3.458259e+00    3.518191e-01   5.215797e-03
  3.460469e+00    3.635443e-01   5.321693e-03
  3.462680e+00    3.789289e-01   5.452572e-03
  3.464890e+00    3.631649e-01   5.355651e-03
  3.467101e+00    3.608103e-01   5.355559e-03
  3.469311e+00    3.743537e-01   5.471785e-03
  3.471522e+00    3.778042e-01   5.513402e-03
  3.473732e+00    3.980618e-01   5.675625e-03
  3.475943e+00    4.075060e-01   5.758788e-03
  3.478153e+00    3.945237e-01   5.681880e-03
  3.480364e+00    4.096584e-01   5.805298e-03
  3.482574e+00    4.203080e-01   5.895904e-03
  3.484784e+00    4.277658e-01   5.963186e-03
  3.486995e+00    4.066708e-01   5.829219e-03
  3.489205e+00    4.144177e-01   5.898980e-03
  3.491416e+00    4.330129e-01   6.044888e-03
  3.493626e+00    4.356325e-01   6.077772e-03
  3.495837e+00    4.370269e-01   6.102159e-03
  3.498047e+00    4.493716e-01   6.202320e-03
  3.500258e+00    4.478138e-01   6.206085e-03
  3.502468e+00    4.612016e-01   6.312688e-03
  3.504679e+00    4.725139e-01   6.404318e-03
  3.506889e+00    4.660804e-01   6.375010e-03
  3.509099e+00    4.737342e-01   6.441542e-03
  3.511310e+00    4.948632e-01   6.598352e-03
  3.513520e+00    4.894313e-01   6.576611e-03
  3.515731e+00    4.903001e-01   6.596832e-03
  3.517941e+00    5.024256e-01   6.692494e-03
  3.520152e+00    5.030561e-01   6.711097e-03
  3.522362e+00    5.104736e-01   6.775025e-03
  3.524573e+00    5.176433e-01   6.836884e-03
  3.526783e+00    5.140261e-01   6.826338e-03
  3.528994e+00    5.158077e-01   6.850420e-03
  3.531204e+00    5.308757e-01   6.962294e-03
  3.533414e+00    5.265638e-01   6.946059e-03
  3.535625e+00    5.432019e-01   7.067513e-03
  3.537835e+00    5.264964e-01   6.970012e-03
  3.540046e+00    5.315208e-01   7.012099e-03
  3.542256e+00    5.217248e-01   6.954608e-03
  3.544467e+00    5.222651e-01   6.965766e-03
  3.546677e+00    5.183771e-01   6.947177e-03
  3.548888e+00    5.390937e-01   7.092203e-03
  3.551098e+00    5.207164e-01   6.977431e-03
  3.553309e+00    5.273010e-01   7.029528e-03
  3.555519e+00    5.218666e-01   7.004336e-03
  3.557729e+00    5.331300e-01   7.091228e-03
  3.559940e+00    5.222293e-01   7.029757e-03
  3.562150e+00    5.403682e-01   7.162531e-03
  3.564361e+00    5.259486e-01   7.079548e-03
  3.566571e+00    5.281537e-01   7.108079e-03
  3.568782e+00    5.441483e-01   7.229146e-03
  3.570992e+00    5.274912e-01   7.131270e-03
  3.573203e+00    5.262706e-01   7.137041e-03
  3.575413e+00    5.211682e-01   7.115933e-03
  3.577624e+00    5.358135e-01   7.229350e-03
  3.579834e+00    5.434904e-01   7.294913e-03
  3.582045e+00    5.334672e-01   7.241367e-03
  3.584255e+00    5.246275e-01   7.195009e-03
  3.586465e+00    5.310091e-01   7.252495e-03
  3.588676e+00    5.382590e-01   7.316069e-03
  3.590886e+00    5.288019e-01   7.265151e-03
  3.593097e+00    5.256197e-01   7.257584e-03
  3.595307e+00    5.402895e-01   7.372153e-03
  3.597518e+00    5.481113e-01   7.439724e-03
  3.599728e+00    5.344927e-01   7.360802e-03
  3.601939e+00    5.331940e-01   7.365885e-03
  3.604149e+00    5.317718e-01   7.370409e-03
  3.606360e+00    5.288353e-01   7.364099e-03
  3.608570e+00    5.061640e-01   7.218266e-03
  3.610780e+00    5.365524e-01   7.442885e-03
  3.612991e+00    5.387869e-01   7.468385e-03
  3.615201e+00    5.301464e-01   7.418041e-03
  3.617412e+00    5.242707e-01   7.384020e-03
  3.619622e+00    5.239548e-01   7.387684e-03
  3.621833e+00    5.263011e-01   7.410851e-03
  3.624043e+00    5.451802e-01   7.552214e-03
  3.626254e+00    5.251487e-01   7.421807e-03
  3.628464e+00    5.070952e-01   7.303798e-03
  3.630675e+00    5.176242e-01   7.393151e-03
  3.632885e+00    5.363011e-01   7.539764e-03
  3.635095e+00    5.292645e-01   7.504555e-03
  3.637306e+00    5.230492e-01   7.474537e-03
  3.639516e+00    5.284490e-01   7.527500e-03
  3.641727e+00    5.203904e-01   7.484301e-03
  3.643937e+00    5.205773e-01   7.499964e-03
  3.646148e+00    5.480227e-01   7.709965e-03
  3.648358e+00    5.413305e-01   7.677759e-03
  3.650569e+00    5.042871e-01   7.424709e-03
  3.652779e+00    5.280734e-01   7.612485e-03
  3.654990e+00    5.344507e-01   7.673258e-03
  3.657200e+00    5.284140e-01   7.644623e-03
  3.659410e+00    5.483003e-01   7.802354e-03
  3.661621e+00    5.248785e-01   7.648896e-03
  3.663831e+00    5.082949e-01   7.541870e-03
  3.666042e+00    5.320636e-01   7.731311e-03
  3.668252e+00    5.191516e-01   7.652048e-03
  3.670463e+00    5.281709e-01   7.733389e-03
  3.672673e+00    5.292628e-01   7.756813e-03
  3.674884e+00    5.152475e-01   7.668562e-03
  3.677094e+00    5.219571e-01   7.733744e-03
  3.679305e+00    5.181118e-01   7.720544e-03
  3.681515e+00    5.157253e-01   7.718185e-03
  3.683726e+00    5.184166e-01   7.753903e-03
  3.685936e+00    5.004179e-01   7.633405e-03
  3.688146e+00    5.188164e-01   7.788083e-03
  3.690357e+00    4.969801e-01   7.637925e-03
  3.692567e+00    5.054702e-01   7.718639e-03
  3.694778e+00    5.137771e-01   7.797679e-03
  3.696988e+00    5.103184e-01   7.787145e-03
  3.699199e+00    5.195284e-01   7.873229e-03
  3.701409e+00    5.010079e-01   7.747640e-03
  3.703620e+00    5.082639e-01   7.819541e-03
  3.705830e+00    5.208676e-01   7.932276e-03
  3.708041e+00    5.285400e-01   8.007155e-03
  3.710251e+00    5.164575e-01   7.931703e-03
  3.712461e+00    5.245125e-01   8.010077e-03
  3.714672e+00    5.100372e-01   7.915364e-03
  3.716882e+00    4.886985e-01   7.764151e-03
  3.719093e+00    5.138149e-01   7.978194e-03
  3.721303e+00    5.099123e-01   7.964663e-03
  3.723514e+00    5.032780e-01   7.929658e-03
  3.725724e+00    5.055150e-01   7.964225e-03
  3.727935e+00    4.931819e-01   7.883476e-03
  3.730145e+00    5.292650e-01   8.184337e-03
  3.732356e+00    5.134189e-01   8.078379e-03
  3.734566e+00    5.096938e-01   8.066484e-03
  3.736776e+00    4.874521e-01   7.905771e-03
  3.738987e+00    5.051540e-01   8.065600e-03
  3.741197e+00    5.011516e-01   8.051420e-03
  3.743408e+00    4.954682e-01   8.023361e-03
  3.745618e+00    4.949055e-01   8.036762e-03
  3.747829e+00    5.151664e-01   8.217780e-03
  3.750039e+00    5.108691e-01   8.201851e-03
  3.752250e+00    4.974218e-01   8.111366e-03
  3.754460e+00    4.943040e-01   8.104160e-03
  3.756671e+00    5.152324e-01   8.292871e-03
  3.758881e+00    5.142913e-01   8.304001e-03
  3.761091e+00    5.152536e-01   8.331086e-03
  3.763302e+00    4.974793e-01   8.204978e-03
  3.765512e+00    4.988654e-01   8.235461e-03
  3.767723e+00    5.034843e-01   8.292804e-03
  3.769933e+00    5.192044e-01   8.440841e-03
  3.772144e+00    4.951073e-01   8.262027e-03
  3.774354e+00    4.895000e-01   8.234637e-03
  3.776565e+00    4.814007e-01   8.185575e-03
  3.778775e+00    4.891964e-01   8.271239e-03
  3.780986e+00    4.899136e-01   8.297339e-03
  3.783196e+00    5.151373e-01   8.528694e-03
  3.785407e+00    5.130340e-01   8.531900e-03
  3.787617e+00    5.017903e-01   8.458682e-03
  3.789827e+00    4.816909e-01   8.307596e-03
  3.792038e+00    4.941120e-01   8.434731e-03
  3.794248e+00    4.786515e-01   8.322385e-03
  3.796459e+00    4.758444e-01   8.318719e-03
  3.798669e+00    5.166671e-01   8.689926e-03
  3.800880e+00    5.123693e-01   8.675469e-03
  3.803090e+00    5.054175e-01   8.638317e-03
  3.805301e+00    5.122021e-01   8.718435e-03
  3.807511e+00    4.976874e-01   8.615964e-03
  3.809722e+00    5.014641e-01   8.670946e-03
  3.811932e+00    4.752699e-01   8.463041e-03
  3.814142e+00    5.088091e-01   8.779670e-03
  3.816353e+00    4.966687e-01   8.697088e-03
  3.818563e+00    4.910381e-01   8.670580e-03
  3.820774e+00    4.913191e-01   8.696057e-03
  3.822984e+00    4.778043e-01   8.598546e-03
  3.825195e+00    4.913154e-01   8.742740e-03
  3.827405e+00    4.943470e-01   8.793581e-03
  3.829616e+00    4.774971e-01   8.666004e-03
  3.831826e+00    4.798461e-01   8.710922e-03
  3.834037e+00    5.101546e-01   9.006713e-03
  3.836247e+00    5.193663e-01   9.112863e-03
  3.838457e+00    5.036764e-01   8.999437e-03
  3.840668e+00    4.872445e-01   8.876365e-03
  3.842878e+00    5.113819e-01   9.119430e-03
  3.845089e+00    5.028217e-01   9.068594e-03
  3.847299e+00    4.898840e-01   8.976761e-03
  3.849510e+00    4.754583e-01   8.868980e-03
  3.851720e+00    4.997736e-01   9.114385e-03
  3.853931e+00    4.919713e-01   9.061980e-03
  3.856141e+00    4.789467e-01   8.959860e-03
  3.858352e+00    5.110576e-01   9.274988e-03
  3.860562e+00    4.888245e-01   9.090132e-03
  3.862772e+00    5.014695e-01   9.226722e-03
  3.864983e+00    4.800838e-01   9.047265e-03
  3.867193e+00    4.907783e-01   9.167168e-03
  3.869404e+00    4.688916e-01   8.979722e-03
  3.871614e+00    5.038682e-01   9.328782e-03
  3.873825e+00    5.013121e-01   9.325678e-03
  3.876035e+00    4.890665e-01   9.231452e-03
  3.878246e+00    4.983755e-01   9.344933e-03
  3.880456e+00    4.950646e-01   9.342791e-03
  3.882667e+00    4.845456e-01   9.272211e-03
  3.884877e+00    4.986006e-01   9.435587e-03
  3.887087e+00    5.154403e-01   9.624355e-03
  3.889298e+00    4.845386e-01   9.361478e-03
  3.891508e+00    4.778663e-01   9.326953e-03
  3.893719e+00    5.083778e-01   9.651630e-03
  3.895929e+00    4.942833e-01   9.548483e-03
  3.898140e+00    4.981625e-01   9.617805e-03
  3.900350e+00    4.641095e-01   9.314567e-03
  3.902561e+00    4.619638e-01   9.324321e-03
  3.904771e+00    4.832094e-01   9.568969e-03
  3.906982e+00    5.006185e-01   9.773329e-03
  3.909192e+00    4.994152e-01   9.795443e-03
  3.911403e+00    4.975893e-01   9.811835e-03
  3.913613e+00    4.848760e-01   9.719779e-03
  3.915823e+00    4.786778e-01   9.691951e-03
  3.918034e+00    4.744111e-01   9.683383e-03
  3.920244e+00    5.038728e-01   1.001580e-02
  3.922455e+00    4.717402e-01   9.726699e-03
  3.924665e+00    4.847759e-01   9.896474e-03
  3.926876e+00    4.668250e-01   9.747776e-03
  3.929086e+00    4.781241e-01   9.902097e-03
  3.931297e+00    4.809997e-01   9.966295e-03
  3.933507e+00    4.885174e-01   1.007293e-02
  3.935718e+00    4.758580e-01   9.969962e-03
  3.937928e+00    4.675551e-01   9.911441e-03
  3.940138e+00    4.685113e-01   9.950278e-03
  3.942349e+00    4.759429e-01   1.005845e-02
  3.944559e+00    5.090126e-01   1.043266e-02
  3.946770e+00    5.057527e-01   1.043000e-02
  3.948980e+00    4.837361e-01   1.023117e-02
  3.951191e+00    4.650640e-01   1.006175e-02
  3.953401e+00    4.760822e-01   1.021139e-02
  3.955612e+00    4.591912e-01   1.005930e-02
  3.957822e+00    4.716642e-01   1.022624e-02
  3.960033e+00    4.963322e-01   1.052313e-02
  3.962243e+00    4.890241e-01   1.047843e-02
  3.964453e+00    4.807647e-01   1.042249e-02
  3.966664e+00    4.943618e-01   1.060255e-02
  3.968874e+00    4.703646e-01   1.036997e-02
  3.971085e+00    4.579115e-01   1.025301e-02
  3.973295e+00    4.606022e-01   1.030399e-02
  3.975506e+00    4.598700e-01   1.031698e-02
  3.977716e+00    4.705416e-01   1.045745e-02
  3.979927e+00    4.877397e-01   1.066910e-02
  3.982137e+00    4.802472e-01   1.060903e-02
  3.984348e+00    4.743203e-01   1.056571e-02
  3.986558e+00    4.556744e-01   1.037746e-02
  3.988768e+00    5.077940e-01   1.097851e-02
  3.990979e+00    5.012692e-01   1.093086e-02
  3.993189e+00    5.058088e-01   1.100384e-02
  3.995400e+00    4.814420e-01   1.075897e-02
  3.997610e+00    5.105962e-01   1.111044e-02
  3.999821e+00    4.761069e-01   1.076593e-02
  4.002031e+00    4.703256e-01   1.073816e-02
  4.004242e+00    4.676876e-01   1.074581e-02
  4.006452e+00    4.789046e-01   1.091293e-02
  4.008663e+00    4.941064e-01   1.112533e-02
  4.010873e+00    4.738660e-01   1.093457e-02
  4.013084e+00    4.932805e-01   1.119753e-02
  4.015294e+00    4.825659e-01   1.111626e-02
  4.017504e+00    4.741479e-01   1.106028e-02
  4.019715e+00    4.845699e-01   1.122361e-02
  4.021925e+00    4.917523e-01   1.134986e-02
  4.024136e+00    4.614873e-01   1.103780e-02
  4.026346e+00    4.646365e-01   1.111845e-02
  4.028557e+00    4.817512e-01   1.136566e-02
  4.030767e+00    4.782456e-01   1.136966e-02
  4.032978e+00    4.696080e-01   1.131215e-02
  4.035188e+00    4.746950e-01   1.141894e-02
  4.037399e+00    4.752833e-01   1.147323e-02
  4.039609e+00    4.734189e-01   1.149794e-02
  4.041819e+00    4.678274e-01   1.147769e-02
  4.044030e+00    4.878647e-01   1.177125e-02
  4.046240e+00    5.050591e-01   1.202775e-02
  4.048451e+00    5.066054e-01   1.209828e-02
  4.050661e+00    4.851843e-01   1.189149e-02
  4.052872e+00    4.626358e-01   1.166335e-02
  4.055082e+00    4.781957e-01   1.191113e-02
  4.057293e+00    4.536483e-01   1.165366e-02
  4.059503e+00    4.574372e-01   1.175523e-02
  4.061714e+00    4.740300e-01   1.202260e-02
  4.063924e+00    4.877028e-01   1.225181e-02
  4.066134e+00    5.058154e-01   1.253610e-02
  4.068345e+00    4.601711e-01   1.201468e-02
  4.070555e+00    5.219713e-01   1.285776e-02
  4.072766e+00    4.718245e-01   1.228479e-02
  4.074976e+00    4.626467e-01   1.222533e-02
  4.077187e+00    4.666873e-01   1.233967e-02
  4.079397e+00    4.633901e-01   1.235873e-02
  4.081608e+00    4.755814e-01   1.258539e-02
  4.083818e+00    4.565564e-01   1.239528e-02
  4.086029e+00    4.512314e-01   1.238768e-02
  4.088239e+00    4.869837e-01   1.293841e-02
  4.090449e+00    4.834944e-01   1.296191e-02
  4.092660e+00    4.945916e-01   1.318174e-02
  4.094870e+00    5.056487e-01   1.340266e-02
  4.097081e+00    4.778857e-01   1.310083e-02
  4.099291e+00    4.716506e-01   1.306899e-02
  4.101502e+00    4.657726e-01   1.303568e-02
  4.103712e+00    5.102584e-01   1.369471e-02
  4.105923e+00    4.947682e-01   1.353777e-02
  4.108133e+00    4.346370e-01   1.273714e-02
  4.110344e+00    4.504152e-01   1.301597e-02
  4.112554e+00    4.838361e-01   1.354339e-02
  4.114764e+00    4.785005e-01   1.352283e-02
  4.116975e+00    4.915032e-01   1.375919e-02
  4.119185e+00    4.503381e-01   1.322404e-02
  4.121396e+00    4.543391e-01   1.333737e-02
  4.123606e+00    5.079762e-01   1.416063e-02
  4.125817e+00    4.460306e-01   1.332480e-02
  4.128027e+00    4.912740e-01   1.404304e-02
  4.130238e+00    5.110199e-01   1.438389e-02
  4.132448e+00    5.034533e-01   1.433908e-02
  4.134659e+00    4.969812e-01   1.430785e-02
  4.136869e+00    4.943302e-01   1.433329e-02
  4.139080e+00    4.546266e-01   1.380766e-02
  4.141290e+00    4.609011e-01   1.396418e-02
  4.143500e+00    3.999622e-01   1.306818e-02
  4.145711e+00    4.873593e-01   1.449291e-02
  4.147921e+00    4.919914e-01   1.462837e-02
  4.150132e+00    4.485629e-01   1.403480e-02
  4.152342e+00    4.339909e-01   1.387149e-02
  4.154553e+00    4.428540e-01   1.407939e-02
  4.156763e+00    4.173222e-01   1.373481e-02
  4.158974e+00    4.939104e-01   1.501716e-02
  4.161184e+00    5.035346e-01   1.523809e-02
  4.163395e+00    5.144406e-01   1.548106e-02
  4.165605e+00    5.207787e-01   1.565685e-02
  4.167815e+00    5.036142e-01   1.547721e-02
  4.170026e+00    5.386010e-01   1.608997e-02
  4.172236e+00    4.882556e-01   1.540251e-02
  4.174447e+00    5.125109e-01   1.586614e-02
  4.176657e+00    5.066875e-01   1.586197e-02
  4.178868e+00    5.044367e-01   1.591649e-02
  4.181078e+00    5.038228e-01   1.599629e-02
  4.183289e+00    4.760737e-01   1.563866e-02
  4.185499e+00    4.591690e-01   1.544903e-02
  4.187710e+00    5.059068e-01   1.631112e-02
  4.189920e+00    4.573316e-01   1.560180e-02
  4.192130e+00    4.467123e-01   1.551381e-02
  4.194341e+00    5.350268e-01   1.708229e-02
  4.196551e+00    4.251379e-01   1.532391e-02
  4.198762e+00    4.439398e-01   1.575850e-02
  4.200972e+00    4.201966e-01   1.543025e-02
  4.203183e+00    4.350474e-01   1.580426e-02
  4.205393e+00    4.342749e-01   1.589507e-02
  4.207604e+00    4.977729e-01   1.713401e-02
  4.209814e+00    4.901664e-01   1.711902e-02
  4.212025e+00    4.607052e-01   1.671389e-02
  4.214235e+00    5.091265e-01   1.769523e-02
  4.216445e+00    4.865905e-01   1.742407e-02
  4.218656e+00    4.462267e-01   1.681082e-02
  4.220866e+00    4.928158e-01   1.779761e-02
  4.223077e+00    3.985474e-01   1.612835e-02
  4.225287e+00    4.421430e-01   1.712089e-02
  4.227498e+00    4.664659e-01   1.772360e-02
  4.229708e+00    4.508176e-01   1.756516e-02
  4.231919e+00    4.350005e-01   1.739750e-02
  4.234129e+00    3.952050e-01   1.672143e-02
  4.236340e+00    4.786580e-01   1.855945e-02
  4.238550e+00    4.957519e-01   1.905540e-02
  4.240761e+00    4.604056e-01   1.852555e-02
  4.242971e+00    4.841010e-01   1.917002e-02
  4.245181e+00    4.834158e-01   1.933661e-02
  4.247392e+00    5.045256e-01   1.993912e-02
  4.249602e+00    5.137022e-01   2.031930e-02
  4.251813e+00    4.727339e-01   1.968409e-02
  4.254023e+00    4.484714e-01   1.936605e-02
  4.256234e+00    5.042378e-01   2.075387e-02
  4.258444e+00    4.793312e-01   2.044667e-02
  4.260655e+00    4.686017e-01   2.043881e-02
  4.262865e+00    4.234014e-01   1.964839e-02
  4.265076e+00    4.357447e-01   2.015908e-02
  4.267286e+00    4.766145e-01   2.133370e-02
  4.269496e+00    5.008063e-01   2.213537e-02
  4.271707e+00    4.546656e-01   2.135148e-02
  4.273917e+00    4.766829e-01   2.214511e-02
  4.276128e+00    4.143497e-01   2.092048e-02
  4.278338e+00    5.273651e-01   2.391742e-02
  4.280549e+00    3.647140e-01   2.017481e-02
  4.282759e+00    4.608017e-01   2.300288e-02
  4.284970e+00    4.662242e-01   2.348096e-02
  4.287180e+00    5.141687e-01   2.495403e-02
  4.289391e+00    4.742278e-01   2.414514e-02
  4.291601e+00    3.959777e-01   2.223965e-02
  4.293811e+00    4.880251e-01   2.488277e-02
  4.296022e+00    4.205728e-01   2.328465e-02
  4.298232e+00    4.312915e-01   2.377622e-02
  4.300443e+00    4.779642e-01   2.523718e-02
  4.302653e+00    4.546673e-01   2.482757e-02
  4.304864e+00    4.637895e-01   2.529233e-02
  4.307074e+00    5.302030e-01   2.728562e-02
  4.309285e+00    4.556213e-01   2.552394e-02
  4.311495e+00    4.713763e-01   2.620357e-02
  4.313706e+00    5.530648e-01   2.865046e-02
  4.315916e+00    5.228521e-01   2.813235e-02
  4.318126e+00    3.583662e-01   2.351988e-02
  4.320337e+00    3.535412e-01   2.359721e-02
  4.322547e+00    4.152403e-01   2.584557e-02
  4.324758e+00    3.722011e-01   2.472338e-02
  4.326968e+00    4.888883e-01   2.865383e-02
  4.329179e+00    5.421219e-01   3.050643e-02
  4.331389e+00    5.056014e-01   2.980110e-02
  4.333600e+00    4.751656e-01   2.923431e-02
  4.335810e+00    4.600838e-01   2.910989e-02
  4.338021e+00    5.379877e-01   3.187985e-02
  4.340231e+00    4.933925e-01   3.091430e-02
  4.342442e+00    4.551447e-01   3.008944e-02
  4.344652e+00    3.469977e-01   2.662938e-02
  4.346862e+00    4.228436e-01   2.980746e-02
  4.349073e+00    4.061644e-01   2.963887e-02
  4.351283e+00    4.742007e-01   3.250387e-02
  4.353494e+00    4.944955e-01   3.370481e-02
  4.355704e+00    5.052190e-01   3.461716e-02
  4.357915e+00    3.932991e-01   3.105072e-02
  4.360125e+00    4.483702e-01   3.372082e-02
  4.362336e+00    4.305410e-01   3.364342e-02
  4.364546e+00    4.971050e-01   3.681137e-02
  4.366757e+00    4.031394e-01   3.380803e-02
  4.368967e+00    5.642631e-01   4.079584e-02
  4.371177e+00    5.550842e-01   4.132332e-02
  4.373388e+00    4.204803e-01   3.677015e-02
  4.375598e+00    3.431173e-01   3.397338e-02
  4.377809e+00    4.717188e-01   4.084112e-02
  4.380019e+00    4.658052e-01   4.160856e-02
  4.382230e+00    3.631397e-01   3.776079e-02
  4.384440e+00    2.375036e-01   3.141606e-02
  4.386651e+00    5.026243e-01   4.711178e-02
  4.388861e+00    3.349336e-01   3.975141e-02
  4.391072e+00    4.421865e-01   4.727459e-02
  4.393282e+00    7.310356e-01   6.313851e-02
  4.395492e+00    4.767172e-01   5.310359e-02
  4.397703e+00    3.859043e-01   4.996546e-02
  4.399913e+00    5.344484e-01   6.177503e-02
  4.402124e+00    4.848217e-01   6.217276e-02
  4.404334e+00    3.659341e-01   5.741907e-02
  4.406545e+00    2.327859e-01   4.920573e-02
  4.408755e+00    3.327340e-01   6.379217e-02
  4.410966e+00    5.685660e-01   9.229702e-02
  4.413176e+00    5.200620e-01   9.992333e-02
  4.415387e+00   -7.845659e-01            nan
  4.417597e+00   -1.864377e+00            nan
  4.419807e+00    1.372970e-01   1.330704e-01
