# == pyFAI calibration ==
# Distance Sample to Detector: 0.216 m
# PONI: 1.166e-01, 1.308e-01 m
# Rotations: 0.000000 0.000000 0.000000 rad
# 
# == Fit2d calibration ==
# Distance Sample-beamCenter: 216.000 mm
# Center: x=1744.293, y=1555.000 pix
# Tilt: 0.000 deg  TiltPlanRot: 0.000 deg
# 
# Detector Eiger 9M	 PixelSize= 7.500e-05, 7.500e-05 m
#    Detector has a mask: True 
#    Detector has a dark current: False 
#    detector has a flat field: False 
# 
# Wavelength: 9.8e-11 m
# Mask applied: from detector
# Dark current applied: False
# Flat field applied: False
# Polarization factor: None
# Normalization factor: 1.0
# 
# Headers of the input frame:
# {
# "_array_data.header_convention": "SLS_1.0",
# "_array_data.header_contents": "# Detector: Dectris Eiger 9M, S/N E-18-0102\r\n# Pixel_size 75e-6 m x 75e-6 m\r\n# Silicon sensor, thickness 0.000450 m\r\n# Exposure_time 0.024997 s\r\n# Exposure_period 0.025000 s\r\n# Count_cutoff 62318 counts\r\n# Wavelength 0.980106 A\r\n# Detector_distance 0.215992 m\r\n# Beam_xy (1555, 1744) pixels\r\n# Start_angle 0.000000 deg.\r\n# Angle_increment 0.000000 deg.",
# "Content-Type": "application/octet-stream;",
# "conversions": "x-CBF_BYTE_OFFSET",
# "Content-Transfer-Encoding": "BINARY",
# "X-Binary-Size": "10166608",
# "X-Binary-ID": "1",
# "X-Binary-Element-Type": "signed 32-bit integer",
# "X-Binary-Element-Byte-Order": "LITTLE_ENDIAN",
# "Content-MD5": "/ZwloOMvafffqqbcXKLoVg==",
# "X-Binary-Number-of-Elements": "10166590",
# "X-Binary-Size-Fastest-Dimension": "3110",
# "X-Binary-Size-Second-Dimension": "3269",
# "X-Binary-Size-Padding": "4095"
# }
# --> H:/Proxima2a_2019-04-05/RAW_DATA/C5_gel17_position5/C5_mesh_1_data.cbf/C5_mesh_1_data.cbf000026.dat
#        q_A^-1              I           sigma 
  1.105228e-03    2.140780e+00   7.917224e-01
  3.315685e-03    1.586513e+00   4.143499e-01
  5.526141e-03    1.396887e+00   3.006441e-01
  7.736597e-03    1.441827e+00   2.580339e-01
  9.947054e-03    1.312131e+00   2.170027e-01
  1.215751e-02    1.346473e+00   1.987776e-01
  1.436797e-02    1.314265e+00   1.806414e-01
  1.657842e-02    1.250962e+00   1.640463e-01
  1.878888e-02    1.205611e+00   1.512750e-01
  2.099934e-02    1.338111e+00   1.507815e-01
  2.320979e-02    1.484329e+00   1.510421e-01
  2.542025e-02    1.271358e+00   1.335806e-01
  2.763070e-02    1.356185e+00   1.323274e-01
  2.984116e-02    1.253233e+00   1.224031e-01
  3.205162e-02    1.294303e+00   1.200340e-01
  3.426207e-02    1.277362e+00   1.153272e-01
  3.647253e-02    1.247122e+00   1.104445e-01
  3.868299e-02    1.496023e+00   1.174667e-01
  4.089344e-02    1.378279e+00   1.096603e-01
  4.310390e-02    1.420248e+00   1.084191e-01
  4.531436e-02    1.200868e+00   9.723296e-02
  4.752481e-02    1.335640e+00   1.001299e-01
  4.973527e-02    1.521128e+00   1.044563e-01
  5.194572e-02    1.407966e+00   9.833294e-02
  5.415618e-02    1.522750e+00   1.001505e-01
  5.636664e-02    1.539665e+00   9.871392e-02
  5.857709e-02    1.415033e+00   9.283204e-02
  6.078755e-02    1.375489e+00   8.984337e-02
  6.299801e-02    1.295199e+00   8.563764e-02
  6.520846e-02    1.472297e+00   8.974460e-02
  6.741892e-02    1.425996e+00   8.685784e-02
  6.962938e-02    1.394636e+00   8.452726e-02
  7.183983e-02    1.358037e+00   8.211602e-02
  7.405029e-02    1.262099e+00   7.797008e-02
  7.626074e-02    1.344303e+00   7.929374e-02
  7.847120e-02    1.373252e+00   7.900400e-02
  8.068166e-02    1.355854e+00   7.741848e-02
  8.289211e-02    1.406231e+00   7.778487e-02
  8.510257e-02    1.353477e+00   7.531382e-02
  8.731303e-02    1.454910e+00   7.708728e-02
  8.952348e-02    1.339296e+00   7.304424e-02
  9.173394e-02    1.376755e+00   7.315806e-02
  9.394439e-02    1.421815e+00   7.346337e-02
  9.615485e-02    1.427538e+00   7.275847e-02
  9.836531e-02    1.396316e+00   7.114334e-02
  1.005758e-01    1.439913e+00   7.144757e-02
  1.027862e-01    1.445382e+00   7.080748e-02
  1.049967e-01    1.466968e+00   7.057815e-02
  1.072071e-01    1.435682e+00   6.909713e-02
  1.094176e-01    1.463860e+00   6.906247e-02
  1.116280e-01    1.485026e+00   6.886631e-02
  1.138385e-01    1.420007e+00   6.668352e-02
  1.160490e-01    1.509431e+00   6.809238e-02
  1.182594e-01    1.522092e+00   6.773385e-02
  1.204699e-01    1.526471e+00   6.720550e-02
  1.226803e-01    1.551483e+00   6.713791e-02
  1.248908e-01    1.477568e+00   6.493597e-02
  1.271012e-01    1.491300e+00   6.466596e-02
  1.293117e-01    1.516716e+00   6.465407e-02
  1.315222e-01    1.531675e+00   6.442235e-02
  1.337326e-01    1.551193e+00   6.429224e-02
  1.359431e-01    1.587444e+00   6.507721e-02
  1.381535e-01    1.595637e+00   6.612073e-02
  1.403640e-01    1.514313e+00   6.469186e-02
  1.425744e-01    1.478034e+00   6.401432e-02
  1.447849e-01    1.549464e+00   6.555799e-02
  1.469953e-01    1.550003e+00   6.552833e-02
  1.492058e-01    1.492968e+00   6.423670e-02
  1.514163e-01    1.480861e+00   6.386945e-02
  1.536267e-01    1.578165e+00   6.580570e-02
  1.558372e-01    1.493873e+00   6.388286e-02
  1.580476e-01    1.501705e+00   6.389467e-02
  1.602581e-01    1.534661e+00   6.442793e-02
  1.624685e-01    1.594727e+00   6.549685e-02
  1.646790e-01    1.625229e+00   6.593041e-02
  1.668895e-01    1.578126e+00   6.478032e-02
  1.690999e-01    1.684564e+00   6.672828e-02
  1.713104e-01    1.726764e+00   6.734928e-02
  1.735208e-01    1.679649e+00   6.621756e-02
  1.757313e-01    1.769179e+00   6.774642e-02
  1.779417e-01    1.746196e+00   6.708545e-02
  1.801522e-01    1.811698e+00   6.811444e-02
  1.823626e-01    1.863938e+00   6.885954e-02
  1.845731e-01    1.789675e+00   6.725527e-02
  1.867836e-01    1.798612e+00   6.719544e-02
  1.889940e-01    1.806681e+00   6.712593e-02
  1.912045e-01    1.897199e+00   6.855723e-02
  1.934149e-01    1.862816e+00   6.770582e-02
  1.956254e-01    1.898430e+00   6.812450e-02
  1.978358e-01    1.969548e+00   6.915103e-02
  2.000463e-01    1.920133e+00   6.805178e-02
  2.022568e-01    1.911178e+00   6.767005e-02
  2.044672e-01    1.915059e+00   6.750668e-02
  2.066777e-01    1.911840e+00   6.722602e-02
  2.088881e-01    1.947378e+00   6.762600e-02
  2.110986e-01    1.898018e+00   6.653450e-02
  2.133090e-01    1.980824e+00   6.774939e-02
  2.155195e-01    2.003380e+00   6.790804e-02
  2.177300e-01    1.920960e+00   6.597410e-02
  2.199404e-01    1.858214e+00   6.317787e-02
  2.221509e-01    1.904936e+00   6.291683e-02
  2.243613e-01    1.950733e+00   6.286149e-02
  2.265718e-01    1.990719e+00   6.280255e-02
  2.287822e-01    2.030914e+00   6.280556e-02
  2.309927e-01    2.030135e+00   6.222150e-02
  2.332031e-01    2.005587e+00   6.131484e-02
  2.354136e-01    1.972164e+00   6.030902e-02
  2.376241e-01    2.039663e+00   6.085631e-02
  2.398345e-01    2.145099e+00   6.194757e-02
  2.420450e-01    2.049400e+00   6.011724e-02
  2.442554e-01    2.063089e+00   5.990212e-02
  2.464659e-01    2.038562e+00   5.914522e-02
  2.486763e-01    2.035584e+00   5.871351e-02
  2.508868e-01    2.075516e+00   5.891259e-02
  2.530973e-01    2.096957e+00   5.884900e-02
  2.553077e-01    1.996831e+00   5.707850e-02
  2.575182e-01    2.009711e+00   5.692349e-02
  2.597286e-01    1.995116e+00   5.638672e-02
  2.619391e-01    2.002798e+00   5.616994e-02
  2.641495e-01    1.942872e+00   5.501702e-02
  2.663600e-01    1.968374e+00   5.507239e-02
  2.685704e-01    1.888179e+00   5.364645e-02
  2.707809e-01    1.933679e+00   5.400082e-02
  2.729914e-01    1.895929e+00   5.319244e-02
  2.752018e-01    1.949626e+00   5.365969e-02
  2.774123e-01    1.933120e+00   5.315915e-02
  2.796227e-01    1.951040e+00   5.314076e-02
  2.818332e-01    2.043485e+00   5.411390e-02
  2.840436e-01    1.854035e+00   5.129462e-02
  2.862541e-01    1.899995e+00   5.167684e-02
  2.884646e-01    1.933141e+00   5.187830e-02
  2.906750e-01    1.909985e+00   5.132214e-02
  2.928855e-01    1.912436e+00   5.111710e-02
  2.950959e-01    1.911109e+00   5.086464e-02
  2.973064e-01    1.879056e+00   5.020962e-02
  2.995168e-01    1.816575e+00   4.914422e-02
  3.017273e-01    1.802048e+00   4.873149e-02
  3.039377e-01    1.863426e+00   4.933747e-02
  3.061482e-01    1.907757e+00   4.970494e-02
  3.083587e-01    1.835432e+00   4.854263e-02
  3.105691e-01    1.846998e+00   4.848732e-02
  3.127796e-01    1.849787e+00   4.831994e-02
  3.149900e-01    1.809479e+00   4.759144e-02
  3.172005e-01    1.790891e+00   4.715277e-02
  3.194109e-01    1.808410e+00   4.718722e-02
  3.216214e-01    1.825384e+00   4.721475e-02
  3.238319e-01    1.778554e+00   4.642050e-02
  3.260423e-01    1.767435e+00   4.609086e-02
  3.282528e-01    1.700045e+00   4.502366e-02
  3.304632e-01    1.808010e+00   4.625142e-02
  3.326737e-01    1.840088e+00   4.647790e-02
  3.348841e-01    1.777124e+00   4.549867e-02
  3.370946e-01    1.776510e+00   4.531964e-02
  3.393050e-01    1.744801e+00   4.474324e-02
  3.415155e-01    1.769104e+00   4.488437e-02
  3.437260e-01    1.783091e+00   4.489443e-02
  3.459364e-01    1.748412e+00   4.429127e-02
  3.481469e-01    1.764032e+00   4.432628e-02
  3.503573e-01    1.786180e+00   4.444120e-02
  3.525678e-01    1.746615e+00   4.378962e-02
  3.547782e-01    1.685180e+00   4.285716e-02
  3.569887e-01    1.679485e+00   4.263306e-02
  3.591992e-01    1.762047e+00   4.351386e-02
  3.614096e-01    1.781872e+00   4.360628e-02
  3.636201e-01    1.779297e+00   4.342163e-02
  3.658305e-01    1.740841e+00   4.280333e-02
  3.680410e-01    1.739410e+00   4.263856e-02
  3.702514e-01    1.748981e+00   4.261193e-02
  3.724619e-01    1.706288e+00   4.194531e-02
  3.746724e-01    1.729943e+00   4.209414e-02
  3.768828e-01    1.750153e+00   4.219684e-02
  3.790933e-01    1.745779e+00   4.200675e-02
  3.813037e-01    1.684318e+00   4.112571e-02
  3.835142e-01    1.671394e+00   4.083304e-02
  3.857246e-01    1.716046e+00   4.124099e-02
  3.879351e-01    1.768914e+00   4.173591e-02
  3.901455e-01    1.772572e+00   4.164605e-02
  3.923560e-01    1.723160e+00   4.093098e-02
  3.945665e-01    1.722697e+00   4.079571e-02
  3.967769e-01    1.636589e+00   3.963852e-02
  3.989874e-01    1.704660e+00   4.032816e-02
  4.011978e-01    1.719685e+00   4.038094e-02
  4.034083e-01    1.733951e+00   4.042360e-02
  4.056187e-01    1.693101e+00   3.982155e-02
  4.078292e-01    1.708958e+00   3.988652e-02
  4.100397e-01    1.703507e+00   3.970125e-02
  4.122501e-01    1.746709e+00   4.008127e-02
  4.144606e-01    1.729470e+00   3.976472e-02
  4.166710e-01    1.718773e+00   3.952368e-02
  4.188815e-01    1.698039e+00   3.916851e-02
  4.210919e-01    1.730936e+00   3.943021e-02
  4.233024e-01    1.702156e+00   3.898604e-02
  4.255128e-01    1.735557e+00   3.925287e-02
  4.277233e-01    1.731446e+00   3.909373e-02
  4.299338e-01    1.707432e+00   3.870997e-02
  4.321442e-01    1.738017e+00   3.894338e-02
  4.343547e-01    1.754262e+00   3.901433e-02
  4.365651e-01    1.688692e+00   3.816951e-02
  4.387756e-01    1.650026e+00   3.762432e-02
  4.409860e-01    1.716247e+00   3.826559e-02
  4.431965e-01    1.677458e+00   3.772609e-02
  4.454070e-01    1.695672e+00   3.782484e-02
  4.476174e-01    1.605634e+00   3.670586e-02
  4.498279e-01    1.662642e+00   3.725014e-02
  4.520383e-01    1.650446e+00   3.701144e-02
  4.542488e-01    1.616243e+00   3.652717e-02
  4.564592e-01    1.658607e+00   3.690349e-02
  4.586697e-01    1.727163e+00   3.755851e-02
  4.608801e-01    1.742767e+00   3.762674e-02
  4.630906e-01    1.659714e+00   3.662202e-02
  4.653011e-01    1.622741e+00   3.611656e-02
  4.675115e-01    1.659921e+00   3.643176e-02
  4.697220e-01    1.629859e+00   3.600585e-02
  4.719324e-01    1.653766e+00   3.617513e-02
  4.741429e-01    1.668043e+00   3.623733e-02
  4.763533e-01    1.642992e+00   3.587199e-02
  4.785638e-01    1.718427e+00   3.659148e-02
  4.807743e-01    1.666849e+00   3.594653e-02
  4.829847e-01    1.635515e+00   3.551709e-02
  4.851952e-01    1.679242e+00   3.589768e-02
  4.874056e-01    1.663852e+00   3.564272e-02
  4.896161e-01    1.604583e+00   3.491533e-02
  4.918265e-01    1.604042e+00   3.482274e-02
  4.940370e-01    1.626741e+00   3.498168e-02
  4.962475e-01    1.639728e+00   3.503434e-02
  4.984579e-01    1.593679e+00   3.445376e-02
  5.006684e-01    1.625672e+00   3.471301e-02
  5.028788e-01    1.622924e+00   3.459964e-02
  5.050893e-01    1.639760e+00   3.469403e-02
  5.072997e-01    1.630056e+00   3.450769e-02
  5.095102e-01    1.629961e+00   3.442404e-02
  5.117206e-01    1.613740e+00   3.417087e-02
  5.139311e-01    1.591669e+00   3.385608e-02
  5.161416e-01    1.584748e+00   3.370256e-02
  5.183520e-01    1.558075e+00   3.333831e-02
  5.205625e-01    1.598225e+00   3.368602e-02
  5.227729e-01    1.601104e+00   3.363771e-02
  5.249834e-01    1.581660e+00   3.335523e-02
  5.271938e-01    1.604805e+00   3.351998e-02
  5.294043e-01    1.677739e+00   3.419413e-02
  5.316148e-01    1.719828e+00   3.454110e-02
  5.338252e-01    1.713971e+00   3.440343e-02
  5.360357e-01    1.695933e+00   3.414401e-02
  5.382461e-01    1.642386e+00   3.352470e-02
  5.404566e-01    1.686410e+00   3.389372e-02
  5.426670e-01    1.704277e+00   3.399602e-02
  5.448775e-01    1.711990e+00   3.399677e-02
  5.470879e-01    1.635354e+00   3.315303e-02
  5.492984e-01    1.694591e+00   3.367307e-02
  5.515089e-01    1.723474e+00   3.388351e-02
  5.537193e-01    1.775575e+00   3.431609e-02
  5.559298e-01    1.763526e+00   3.412446e-02
  5.581402e-01    1.659587e+00   3.303123e-02
  5.603507e-01    1.702677e+00   3.338447e-02
  5.625611e-01    1.738022e+00   3.365602e-02
  5.647716e-01    1.699936e+00   3.321294e-02
  5.669821e-01    1.713191e+00   3.327027e-02
  5.691925e-01    1.731871e+00   3.337939e-02
  5.714030e-01    1.675982e+00   3.276637e-02
  5.736134e-01    1.660767e+00   3.254793e-02
  5.758239e-01    1.634209e+00   3.221773e-02
  5.780343e-01    1.637806e+00   3.218491e-02
  5.802448e-01    1.673701e+00   3.246760e-02
  5.824552e-01    1.614900e+00   3.182524e-02
  5.846657e-01    1.627983e+00   3.188730e-02
  5.868762e-01    1.600869e+00   3.155481e-02
  5.890866e-01    1.593039e+00   3.141223e-02
  5.912971e-01    1.605027e+00   3.146493e-02
  5.935075e-01    1.584711e+00   3.120054e-02
  5.957180e-01    1.608901e+00   3.137327e-02
  5.979284e-01    1.622228e+00   3.143862e-02
  6.001389e-01    1.613556e+00   3.129064e-02
  6.023494e-01    1.607103e+00   3.116460e-02
  6.045598e-01    1.586831e+00   3.090438e-02
  6.067703e-01    1.574836e+00   3.072544e-02
  6.089807e-01    1.610317e+00   3.100716e-02
  6.111912e-01    1.643603e+00   3.126343e-02
  6.134016e-01    1.689553e+00   3.163422e-02
  6.156121e-01    1.645537e+00   3.115740e-02
  6.178226e-01    1.638871e+00   3.103263e-02
  6.200330e-01    1.624196e+00   3.083246e-02
  6.222435e-01    1.615480e+00   3.068870e-02
  6.244539e-01    1.662919e+00   3.107506e-02
  6.266644e-01    1.654296e+00   3.093394e-02
  6.288748e-01    1.650160e+00   3.083510e-02
  6.310853e-01    1.659248e+00   3.085986e-02
  6.332957e-01    1.693837e+00   3.111967e-02
  6.355062e-01    1.692807e+00   3.104977e-02
  6.377167e-01    1.673927e+00   3.081689e-02
  6.399271e-01    1.648102e+00   3.051965e-02
  6.421376e-01    1.638479e+00   3.037234e-02
  6.443480e-01    1.619982e+00   3.014295e-02
  6.465585e-01    1.598995e+00   2.989036e-02
  6.487689e-01    1.587014e+00   2.972191e-02
  6.509794e-01    1.616408e+00   2.993932e-02
  6.531899e-01    1.592976e+00   2.966565e-02
  6.554003e-01    1.585964e+00   2.954462e-02
  6.576108e-01    1.559913e+00   2.924641e-02
  6.598212e-01    1.559600e+00   2.918916e-02
  6.620317e-01    1.525627e+00   2.881596e-02
  6.642421e-01    1.536652e+00   2.886639e-02
  6.664526e-01    1.565794e+00   2.908514e-02
  6.686630e-01    1.537700e+00   2.876975e-02
  6.708735e-01    1.540520e+00   2.874329e-02
  6.730840e-01    1.557264e+00   2.884638e-02
  6.752944e-01    1.563853e+00   2.885478e-02
  6.775049e-01    1.565042e+00   2.881333e-02
  6.797153e-01    1.540908e+00   2.853855e-02
  6.819258e-01    1.524879e+00   2.833852e-02
  6.841362e-01    1.561234e+00   2.862277e-02
  6.863467e-01    1.578150e+00   2.872588e-02
  6.885572e-01    1.565986e+00   2.856368e-02
  6.907676e-01    1.570665e+00   2.855506e-02
  6.929781e-01    1.607002e+00   2.883215e-02
  6.951885e-01    1.548105e+00   2.824876e-02
  6.973990e-01    1.496898e+00   2.772850e-02
  6.996094e-01    1.518534e+00   2.787904e-02
  7.018199e-01    1.532645e+00   2.795912e-02
  7.040303e-01    1.516853e+00   2.776584e-02
  7.062408e-01    1.548473e+00   2.800461e-02
  7.084513e-01    1.542092e+00   2.789826e-02
  7.106617e-01    1.530449e+00   2.774441e-02
  7.128722e-01    1.563835e+00   2.799690e-02
  7.150826e-01    1.546801e+00   2.779599e-02
  7.172931e-01    1.554124e+00   2.781370e-02
  7.195035e-01    1.502281e+00   2.729885e-02
  7.217140e-01    1.546785e+00   2.774924e-02
  7.239245e-01    1.559191e+00   2.808594e-02
  7.261349e-01    1.539965e+00   2.801964e-02
  7.283454e-01    1.563689e+00   2.830679e-02
  7.305558e-01    1.529473e+00   2.804862e-02
  7.327663e-01    1.526276e+00   2.806110e-02
  7.349767e-01    1.536526e+00   2.817136e-02
  7.371872e-01    1.489409e+00   2.772520e-02
  7.393976e-01    1.503374e+00   2.784091e-02
  7.416081e-01    1.531290e+00   2.808226e-02
  7.438186e-01    1.541870e+00   2.803632e-02
  7.460290e-01    1.536749e+00   2.769904e-02
  7.482395e-01    1.534606e+00   2.751073e-02
  7.504499e-01    1.516637e+00   2.721548e-02
  7.526604e-01    1.490008e+00   2.686210e-02
  7.548708e-01    1.493365e+00   2.680527e-02
  7.570813e-01    1.506652e+00   2.687440e-02
  7.592918e-01    1.518445e+00   2.694481e-02
  7.615022e-01    1.556495e+00   2.724671e-02
  7.637127e-01    1.547248e+00   2.713319e-02
  7.659231e-01    1.529718e+00   2.694749e-02
  7.681336e-01    1.538739e+00   2.699559e-02
  7.703440e-01    1.534992e+00   2.693188e-02
  7.725545e-01    1.542578e+00   2.696777e-02
  7.747650e-01    1.561498e+00   2.709462e-02
  7.769754e-01    1.520077e+00   2.668108e-02
  7.791859e-01    1.524699e+00   2.666898e-02
  7.813963e-01    1.522396e+00   2.659719e-02
  7.836068e-01    1.518643e+00   2.651349e-02
  7.858172e-01    1.520349e+00   2.647877e-02
  7.880277e-01    1.535781e+00   2.656219e-02
  7.902381e-01    1.565394e+00   2.676833e-02
  7.924486e-01    1.568618e+00   2.674625e-02
  7.946591e-01    1.572328e+00   2.672999e-02
  7.968695e-01    1.575149e+00   2.670609e-02
  7.990800e-01    1.575587e+00   2.666207e-02
  8.012904e-01    1.592452e+00   2.675802e-02
  8.035009e-01    1.560106e+00   2.643774e-02
  8.057113e-01    1.603071e+00   2.675296e-02
  8.079218e-01    1.619690e+00   2.684488e-02
  8.101323e-01    1.609066e+00   2.671126e-02
  8.123427e-01    1.607378e+00   2.665175e-02
  8.145532e-01    1.586179e+00   2.643010e-02
  8.167636e-01    1.606171e+00   2.655142e-02
  8.189741e-01    1.608951e+00   2.653009e-02
  8.211845e-01    1.592201e+00   2.634740e-02
  8.233950e-01    1.597423e+00   2.634766e-02
  8.256054e-01    1.598364e+00   2.631173e-02
  8.278159e-01    1.576402e+00   2.608721e-02
  8.300264e-01    1.626937e+00   2.645911e-02
  8.322368e-01    1.595316e+00   2.615819e-02
  8.344473e-01    1.585643e+00   2.603609e-02
  8.366577e-01    1.594755e+00   2.606879e-02
  8.388682e-01    1.574643e+00   2.586248e-02
  8.410786e-01    1.583808e+00   2.589628e-02
  8.432891e-01    1.589732e+00   2.590346e-02
  8.454996e-01    1.617041e+00   2.608366e-02
  8.477100e-01    1.556809e+00   2.555265e-02
  8.499205e-01    1.583422e+00   2.572965e-02
  8.521309e-01    1.582314e+00   2.568056e-02
  8.543414e-01    1.570832e+00   2.554728e-02
  8.565518e-01    1.599371e+00   2.573817e-02
  8.587623e-01    1.591199e+00   2.563237e-02
  8.609727e-01    1.578431e+00   2.548974e-02
  8.631832e-01    1.541541e+00   2.515128e-02
  8.653937e-01    1.520135e+00   2.493764e-02
  8.676041e-01    1.563555e+00   2.525314e-02
  8.698146e-01    1.546235e+00   2.507450e-02
  8.720250e-01    1.548120e+00   2.505153e-02
  8.742355e-01    1.544275e+00   2.498232e-02
  8.764459e-01    1.560293e+00   2.507324e-02
  8.786564e-01    1.559395e+00   2.502866e-02
  8.808669e-01    1.550671e+00   2.492071e-02
  8.830773e-01    1.554303e+00   2.491231e-02
  8.852878e-01    1.539797e+00   2.475863e-02
  8.874982e-01    1.506811e+00   2.445644e-02
  8.897087e-01    1.524259e+00   2.456086e-02
  8.919191e-01    1.548309e+00   2.471673e-02
  8.941296e-01    1.576791e+00   2.490602e-02
  8.963401e-01    1.576756e+00   2.486960e-02
  8.985505e-01    1.544255e+00   2.457563e-02
  9.007610e-01    1.533797e+00   2.445631e-02
  9.029714e-01    1.549925e+00   2.454925e-02
  9.051819e-01    1.567458e+00   2.465090e-02
  9.073923e-01    1.523876e+00   2.427008e-02
  9.096028e-01    1.543433e+00   2.439103e-02
  9.118132e-01    1.540669e+00   2.433363e-02
  9.140237e-01    1.570895e+00   2.453488e-02
  9.162342e-01    1.569502e+00   2.448977e-02
  9.184446e-01    1.544282e+00   2.425710e-02
  9.206551e-01    1.547380e+00   2.424641e-02
  9.228655e-01    1.557440e+00   2.429033e-02
  9.250760e-01    1.550944e+00   2.420482e-02
  9.272864e-01    1.575900e+00   2.436483e-02
  9.294969e-01    1.530559e+00   2.397675e-02
  9.317074e-01    1.570181e+00   2.425081e-02
  9.339178e-01    1.568125e+00   2.420181e-02
  9.361283e-01    1.583251e+00   2.428243e-02
  9.383387e-01    1.577375e+00   2.420435e-02
  9.405492e-01    1.593561e+00   2.429423e-02
  9.427596e-01    1.600510e+00   2.431212e-02
  9.449701e-01    1.610408e+00   2.435402e-02
  9.471805e-01    1.628615e+00   2.445663e-02
  9.493910e-01    1.605957e+00   2.425258e-02
  9.516015e-01    1.626507e+00   2.437318e-02
  9.538119e-01    1.638310e+00   2.442792e-02
  9.560224e-01    1.672557e+00   2.464717e-02
  9.582328e-01    1.699484e+00   2.481146e-02
  9.604433e-01    1.729645e+00   2.499522e-02
  9.626537e-01    1.703025e+00   2.476879e-02
  9.648642e-01    1.687789e+00   2.462396e-02
  9.670747e-01    1.732631e+00   2.491451e-02
  9.692851e-01    1.787492e+00   2.527224e-02
  9.714956e-01    1.784652e+00   2.521657e-02
  9.737060e-01    1.788013e+00   2.520714e-02
  9.759165e-01    1.811434e+00   2.533591e-02
  9.781269e-01    1.790152e+00   2.515371e-02
  9.803374e-01    1.803468e+00   2.521216e-02
  9.825478e-01    1.776735e+00   2.499160e-02
  9.847583e-01    1.737016e+00   2.467710e-02
  9.869688e-01    1.793833e+00   2.504388e-02
  9.891792e-01    1.772441e+00   2.486104e-02
  9.913897e-01    1.747736e+00   2.465385e-02
  9.936001e-01    1.719975e+00   2.442524e-02
  9.958106e-01    1.730991e+00   2.447004e-02
  9.980210e-01    1.677191e+00   2.405551e-02
  1.000231e+00    1.623606e+00   2.379777e-02
  1.002442e+00    1.608565e+00   2.381312e-02
  1.004652e+00    1.628105e+00   2.402417e-02
  1.006863e+00    1.621864e+00   2.402781e-02
  1.009073e+00    1.599602e+00   2.389889e-02
  1.011284e+00    1.558257e+00   2.361955e-02
  1.013494e+00    1.591507e+00   2.389384e-02
  1.015705e+00    1.563576e+00   2.370568e-02
  1.017915e+00    1.526482e+00   2.343890e-02
  1.020126e+00    1.533984e+00   2.351232e-02
  1.022336e+00    1.536156e+00   2.354055e-02
  1.024547e+00    1.517977e+00   2.341195e-02
  1.026757e+00    1.504012e+00   2.331226e-02
  1.028967e+00    1.496828e+00   2.326407e-02
  1.031178e+00    1.491102e+00   2.322561e-02
  1.033388e+00    1.482707e+00   2.316510e-02
  1.035599e+00    1.487831e+00   2.320848e-02
  1.037809e+00    1.475392e+00   2.311447e-02
  1.040020e+00    1.472926e+00   2.309639e-02
  1.042230e+00    1.475120e+00   2.311549e-02
  1.044441e+00    1.483293e+00   2.317922e-02
  1.046651e+00    1.505166e+00   2.334967e-02
  1.048862e+00    1.505599e+00   2.335224e-02
  1.051072e+00    1.480489e+00   2.315437e-02
  1.053282e+00    1.462434e+00   2.301178e-02
  1.055493e+00    1.475436e+00   2.310960e-02
  1.057703e+00    1.422881e+00   2.269279e-02
  1.059914e+00    1.446167e+00   2.287352e-02
  1.062124e+00    1.438071e+00   2.280543e-02
  1.064335e+00    1.444193e+00   2.285052e-02
  1.066545e+00    1.450675e+00   2.289581e-02
  1.068756e+00    1.449786e+00   2.288511e-02
  1.070966e+00    1.442168e+00   2.281844e-02
  1.073177e+00    1.427464e+00   2.269584e-02
  1.075387e+00    1.480421e+00   2.310775e-02
  1.077597e+00    1.522882e+00   2.342941e-02
  1.079808e+00    1.524504e+00   2.330646e-02
  1.082018e+00    1.484054e+00   2.280475e-02
  1.084229e+00    1.526787e+00   2.301819e-02
  1.086439e+00    1.614537e+00   2.357835e-02
  1.088650e+00    1.590565e+00   2.332355e-02
  1.090860e+00    1.532425e+00   2.282388e-02
  1.093071e+00    1.503343e+00   2.254297e-02
  1.095281e+00    1.451406e+00   2.209279e-02
  1.097492e+00    1.395902e+00   2.161225e-02
  1.099702e+00    1.413029e+00   2.169353e-02
  1.101912e+00    1.503896e+00   2.233021e-02
  1.104123e+00    1.605213e+00   2.301920e-02
  1.106333e+00    1.515388e+00   2.232023e-02
  1.108544e+00    1.412609e+00   2.150600e-02
  1.110754e+00    1.408345e+00   2.143077e-02
  1.112965e+00    1.384594e+00   2.120929e-02
  1.115175e+00    1.386086e+00   2.118003e-02
  1.117386e+00    1.369244e+00   2.101234e-02
  1.119596e+00    1.355631e+00   2.087053e-02
  1.121807e+00    1.351315e+00   2.079925e-02
  1.124017e+00    1.383778e+00   2.101126e-02
  1.126228e+00    1.402597e+00   2.111794e-02
  1.128438e+00    1.363714e+00   2.078689e-02
  1.130648e+00    1.331794e+00   2.050870e-02
  1.132859e+00    1.325678e+00   2.042806e-02
  1.135069e+00    1.340603e+00   2.050866e-02
  1.137280e+00    1.363543e+00   2.065071e-02
  1.139490e+00    1.360793e+00   2.059711e-02
  1.141701e+00    1.356099e+00   2.052881e-02
  1.143911e+00    1.345312e+00   2.041556e-02
  1.146122e+00    1.345293e+00   2.038383e-02
  1.148332e+00    1.337814e+00   2.029568e-02
  1.150543e+00    1.360924e+00   2.043959e-02
  1.152753e+00    1.321976e+00   2.011477e-02
  1.154963e+00    1.325634e+00   2.011207e-02
  1.157174e+00    1.324827e+00   2.007634e-02
  1.159384e+00    1.337149e+00   2.014000e-02
  1.161595e+00    1.343944e+00   2.016157e-02
  1.163805e+00    1.303335e+00   1.982607e-02
  1.166016e+00    1.301081e+00   1.978021e-02
  1.168226e+00    1.343107e+00   2.006842e-02
  1.170437e+00    1.323200e+00   1.989098e-02
  1.172647e+00    1.315879e+00   1.980750e-02
  1.174858e+00    1.331521e+00   1.989712e-02
  1.177068e+00    1.351245e+00   2.001582e-02
  1.179278e+00    1.314888e+00   1.971664e-02
  1.181489e+00    1.314120e+00   1.968431e-02
  1.183699e+00    1.324585e+00   1.973532e-02
  1.185910e+00    1.326313e+00   1.972072e-02
  1.188120e+00    1.352219e+00   1.988576e-02
  1.190331e+00    1.340271e+00   1.977110e-02
  1.192541e+00    1.317051e+00   1.957209e-02
  1.194752e+00    1.306467e+00   1.946669e-02
  1.196962e+00    1.312980e+00   1.948979e-02
  1.199173e+00    1.319094e+00   1.950892e-02
  1.201383e+00    1.328664e+00   1.955262e-02
  1.203593e+00    1.350178e+00   1.968545e-02
  1.205804e+00    1.304974e+00   1.932766e-02
  1.208014e+00    1.309796e+00   1.933688e-02
  1.210225e+00    1.304367e+00   1.927185e-02
  1.212435e+00    1.302433e+00   1.923322e-02
  1.214646e+00    1.302008e+00   1.920443e-02
  1.216856e+00    1.324527e+00   1.934456e-02
  1.219067e+00    1.310248e+00   1.921592e-02
  1.221277e+00    1.310509e+00   1.919316e-02
  1.223488e+00    1.308438e+00   1.915265e-02
  1.225698e+00    1.280440e+00   1.892043e-02
  1.227909e+00    1.309088e+00   1.910120e-02
  1.230119e+00    1.322938e+00   1.917045e-02
  1.232329e+00    1.317673e+00   1.910191e-02
  1.234540e+00    1.332618e+00   1.917986e-02
  1.236750e+00    1.334118e+00   1.916052e-02
  1.238961e+00    1.350409e+00   1.925023e-02
  1.241171e+00    1.295254e+00   1.882931e-02
  1.243382e+00    1.299515e+00   1.883717e-02
  1.245592e+00    1.318122e+00   1.894775e-02
  1.247803e+00    1.338854e+00   1.907262e-02
  1.250013e+00    1.334297e+00   1.901672e-02
  1.252224e+00    1.329316e+00   1.895814e-02
  1.254434e+00    1.310835e+00   1.880248e-02
  1.256644e+00    1.315481e+00   1.881287e-02
  1.258855e+00    1.301036e+00   1.868647e-02
  1.261065e+00    1.302170e+00   1.867164e-02
  1.263276e+00    1.309083e+00   1.869856e-02
  1.265486e+00    1.317038e+00   1.873267e-02
  1.267697e+00    1.316395e+00   1.870537e-02
  1.269907e+00    1.323659e+00   1.873444e-02
  1.272118e+00    1.319488e+00   1.868259e-02
  1.274328e+00    1.319028e+00   1.865684e-02
  1.276539e+00    1.310369e+00   1.857308e-02
  1.278749e+00    1.313272e+00   1.857162e-02
  1.280959e+00    1.341162e+00   1.874536e-02
  1.283170e+00    1.316791e+00   1.855211e-02
  1.285380e+00    1.318639e+00   1.854292e-02
  1.287591e+00    1.327808e+00   1.858543e-02
  1.289801e+00    1.349321e+00   1.871417e-02
  1.292012e+00    1.328389e+00   1.855149e-02
  1.294222e+00    1.329419e+00   1.854256e-02
  1.296433e+00    1.342866e+00   1.862054e-02
  1.298643e+00    1.365019e+00   1.875695e-02
  1.300854e+00    1.373493e+00   1.879852e-02
  1.303064e+00    1.379704e+00   1.882155e-02
  1.305274e+00    1.383044e+00   1.882261e-02
  1.307485e+00    1.399997e+00   1.891567e-02
  1.309695e+00    1.380514e+00   1.876114e-02
  1.311906e+00    1.372010e+00   1.868134e-02
  1.314116e+00    1.412820e+00   1.893589e-02
  1.316327e+00    1.402607e+00   1.884521e-02
  1.318537e+00    1.424552e+00   1.896958e-02
  1.320748e+00    1.399032e+00   1.877698e-02
  1.322958e+00    1.381779e+00   1.864006e-02
  1.325169e+00    1.420514e+00   1.887794e-02
  1.327379e+00    1.437995e+00   1.897125e-02
  1.329589e+00    1.401554e+00   1.870789e-02
  1.331800e+00    1.367648e+00   1.845935e-02
  1.334010e+00    1.368239e+00   1.844257e-02
  1.336221e+00    1.342250e+00   1.824487e-02
  1.338431e+00    1.361130e+00   1.835178e-02
  1.340642e+00    1.390351e+00   1.861283e-02
  1.342852e+00    1.382190e+00   1.866001e-02
  1.345063e+00    1.334162e+00   1.838215e-02
  1.347273e+00    1.337151e+00   1.843778e-02
  1.349484e+00    1.359107e+00   1.861631e-02
  1.351694e+00    1.350864e+00   1.858250e-02
  1.353905e+00    1.329037e+00   1.844962e-02
  1.356115e+00    1.294267e+00   1.822142e-02
  1.358325e+00    1.280646e+00   1.813824e-02
  1.360536e+00    1.298167e+00   1.827329e-02
  1.362746e+00    1.291866e+00   1.823825e-02
  1.364957e+00    1.298000e+00   1.828902e-02
  1.367167e+00    1.283828e+00   1.819590e-02
  1.369378e+00    1.290337e+00   1.824784e-02
  1.371588e+00    1.317232e+00   1.844211e-02
  1.373799e+00    1.350295e+00   1.867582e-02
  1.376009e+00    1.322029e+00   1.848271e-02
  1.378220e+00    1.297651e+00   1.831397e-02
  1.380430e+00    1.305666e+00   1.837314e-02
  1.382640e+00    1.313083e+00   1.842614e-02
  1.384851e+00    1.297555e+00   1.831776e-02
  1.387061e+00    1.271773e+00   1.813515e-02
  1.389272e+00    1.252250e+00   1.799561e-02
  1.391482e+00    1.261952e+00   1.806451e-02
  1.393693e+00    1.243650e+00   1.793220e-02
  1.395903e+00    1.242664e+00   1.792359e-02
  1.398114e+00    1.277732e+00   1.817336e-02
  1.400324e+00    1.276044e+00   1.815926e-02
  1.402535e+00    1.243267e+00   1.792222e-02
  1.404745e+00    1.252162e+00   1.798385e-02
  1.406955e+00    1.260635e+00   1.804193e-02
  1.409166e+00    1.245289e+00   1.792852e-02
  1.411376e+00    1.218938e+00   1.773475e-02
  1.413587e+00    1.240689e+00   1.788851e-02
  1.415797e+00    1.245755e+00   1.792150e-02
  1.418008e+00    1.225698e+00   1.773551e-02
  1.420218e+00    1.230141e+00   1.762026e-02
  1.422429e+00    1.223730e+00   1.749054e-02
  1.424639e+00    1.235604e+00   1.751139e-02
  1.426850e+00    1.222805e+00   1.736678e-02
  1.429060e+00    1.231918e+00   1.738312e-02
  1.431270e+00    1.246487e+00   1.744171e-02
  1.433481e+00    1.234443e+00   1.731687e-02
  1.435691e+00    1.246807e+00   1.736529e-02
  1.437902e+00    1.257389e+00   1.740256e-02
  1.440112e+00    1.232263e+00   1.719300e-02
  1.442323e+00    1.234611e+00   1.717678e-02
  1.444533e+00    1.212969e+00   1.699375e-02
  1.446744e+00    1.248928e+00   1.721292e-02
  1.448954e+00    1.256432e+00   1.723454e-02
  1.451165e+00    1.255277e+00   1.719704e-02
  1.453375e+00    1.252083e+00   1.714730e-02
  1.455586e+00    1.237141e+00   1.701686e-02
  1.457796e+00    1.256698e+00   1.712348e-02
  1.460006e+00    1.232428e+00   1.693049e-02
  1.462217e+00    1.236963e+00   1.693570e-02
  1.464427e+00    1.261884e+00   1.707995e-02
  1.466638e+00    1.246208e+00   1.694843e-02
  1.468848e+00    1.253885e+00   1.697538e-02
  1.471059e+00    1.258706e+00   1.698299e-02
  1.473269e+00    1.239014e+00   1.682553e-02
  1.475480e+00    1.230140e+00   1.674179e-02
  1.477690e+00    1.222079e+00   1.666341e-02
  1.479901e+00    1.237480e+00   1.674456e-02
  1.482111e+00    1.220851e+00   1.660876e-02
  1.484321e+00    1.251426e+00   1.679248e-02
  1.486532e+00    1.266469e+00   1.687078e-02
  1.488742e+00    1.241591e+00   1.668182e-02
  1.490953e+00    1.256001e+00   1.675581e-02
  1.493163e+00    1.291393e+00   1.696772e-02
  1.495374e+00    1.248557e+00   1.666259e-02
  1.497584e+00    1.242481e+00   1.660048e-02
  1.499795e+00    1.230796e+00   1.650086e-02
  1.502005e+00    1.227569e+00   1.645780e-02
  1.504216e+00    1.200212e+00   1.625286e-02
  1.506426e+00    1.200350e+00   1.623345e-02
  1.508636e+00    1.199858e+00   1.621014e-02
  1.510847e+00    1.229315e+00   1.638634e-02
  1.513057e+00    1.221368e+00   1.630856e-02
  1.515268e+00    1.204127e+00   1.616783e-02
  1.517478e+00    1.243050e+00   1.640203e-02
  1.519689e+00    1.242712e+00   1.637496e-02
  1.521899e+00    1.234598e+00   1.629850e-02
  1.524110e+00    1.196619e+00   1.602596e-02
  1.526320e+00    1.221526e+00   1.617254e-02
  1.528531e+00    1.232092e+00   1.622273e-02
  1.530741e+00    1.225254e+00   1.615869e-02
  1.532951e+00    1.226017e+00   1.614433e-02
  1.535162e+00    1.196384e+00   1.603277e-02
  1.537372e+00    1.209778e+00   1.618809e-02
  1.539583e+00    1.219059e+00   1.628391e-02
  1.541793e+00    1.216360e+00   1.627272e-02
  1.544004e+00    1.227276e+00   1.634585e-02
  1.546214e+00    1.224055e+00   1.632288e-02
  1.548425e+00    1.233869e+00   1.638844e-02
  1.550635e+00    1.244320e+00   1.646738e-02
  1.552846e+00    1.237738e+00   1.643342e-02
  1.555056e+00    1.234468e+00   1.637036e-02
  1.557266e+00    1.250409e+00   1.636501e-02
  1.559477e+00    1.253479e+00   1.632576e-02
  1.561687e+00    1.248657e+00   1.626361e-02
  1.563898e+00    1.233795e+00   1.614944e-02
  1.566108e+00    1.237131e+00   1.615535e-02
  1.568319e+00    1.223720e+00   1.605207e-02
  1.570529e+00    1.237838e+00   1.611930e-02
  1.572740e+00    1.241344e+00   1.611456e-02
  1.574950e+00    1.238421e+00   1.606933e-02
  1.577161e+00    1.220263e+00   1.592585e-02
  1.579371e+00    1.227371e+00   1.594866e-02
  1.581582e+00    1.225047e+00   1.591395e-02
  1.583792e+00    1.224499e+00   1.589250e-02
  1.586002e+00    1.226947e+00   1.589090e-02
  1.588213e+00    1.209429e+00   1.576004e-02
  1.590423e+00    1.235331e+00   1.590791e-02
  1.592634e+00    1.214050e+00   1.574895e-02
  1.594844e+00    1.248195e+00   1.594741e-02
  1.597055e+00    1.254171e+00   1.596498e-02
  1.599265e+00    1.236467e+00   1.583121e-02
  1.601476e+00    1.234564e+00   1.579876e-02
  1.603686e+00    1.261871e+00   1.595258e-02
  1.605897e+00    1.294212e+00   1.613512e-02
  1.608107e+00    1.294853e+00   1.611912e-02
  1.610317e+00    1.249170e+00   1.581283e-02
  1.612528e+00    1.281009e+00   1.599350e-02
  1.614738e+00    1.374781e+00   1.654855e-02
  1.616949e+00    1.306197e+00   1.611095e-02
  1.619159e+00    1.233584e+00   1.563791e-02
  1.621370e+00    1.222010e+00   1.554587e-02
  1.623580e+00    1.221966e+00   1.552722e-02
  1.625791e+00    1.227141e+00   1.554165e-02
  1.628001e+00    1.209941e+00   1.541404e-02
  1.630212e+00    1.195777e+00   1.530578e-02
  1.632422e+00    1.138984e+00   1.492036e-02
  1.634632e+00    1.154389e+00   1.500379e-02
  1.636843e+00    1.154367e+00   1.498629e-02
  1.639053e+00    1.159383e+00   1.500163e-02
  1.641264e+00    1.163665e+00   1.501226e-02
  1.643474e+00    1.151160e+00   1.491408e-02
  1.645685e+00    1.156102e+00   1.492940e-02
  1.647895e+00    1.123678e+00   1.470221e-02
  1.650106e+00    1.112369e+00   1.461132e-02
  1.652316e+00    1.114895e+00   1.461163e-02
  1.654527e+00    1.116888e+00   1.460823e-02
  1.656737e+00    1.112235e+00   1.456136e-02
  1.658947e+00    1.122770e+00   1.461396e-02
  1.661158e+00    1.121502e+00   1.458947e-02
  1.663368e+00    1.110167e+00   1.449965e-02
  1.665579e+00    1.092459e+00   1.436757e-02
  1.667789e+00    1.072828e+00   1.422198e-02
  1.670000e+00    1.075726e+00   1.422595e-02
  1.672210e+00    1.077857e+00   1.422438e-02
  1.674421e+00    1.068744e+00   1.414905e-02
  1.676631e+00    1.066585e+00   1.411912e-02
  1.678842e+00    1.067440e+00   1.410925e-02
  1.681052e+00    1.063169e+00   1.406580e-02
  1.683263e+00    1.072134e+00   1.410999e-02
  1.685473e+00    1.069726e+00   1.407909e-02
  1.687683e+00    1.087941e+00   1.418299e-02
  1.689894e+00    1.061995e+00   1.399723e-02
  1.692104e+00    1.059011e+00   1.396272e-02
  1.694315e+00    1.070876e+00   1.402625e-02
  1.696525e+00    1.049253e+00   1.386891e-02
  1.698736e+00    1.025832e+00   1.369871e-02
  1.700946e+00    1.010642e+00   1.358211e-02
  1.703157e+00    1.043075e+00   1.378379e-02
  1.705367e+00    1.022522e+00   1.363304e-02
  1.707578e+00    1.013292e+00   1.355704e-02
  1.709788e+00    1.020924e+00   1.359405e-02
  1.711998e+00    1.020079e+00   1.357358e-02
  1.714209e+00    1.016048e+00   1.353245e-02
  1.716419e+00    1.039561e+00   1.367384e-02
  1.718630e+00    9.969833e-01   1.337687e-02
  1.720840e+00    9.906378e-01   1.332029e-02
  1.723051e+00    9.913247e-01   1.331129e-02
  1.725261e+00    9.782974e-01   1.320916e-02
  1.727472e+00    9.760252e-01   1.317994e-02
  1.729682e+00    9.831600e-01   1.321477e-02
  1.731893e+00    9.829696e-01   1.319980e-02
  1.734103e+00    9.743434e-01   1.312820e-02
  1.736313e+00    9.579054e-01   1.300331e-02
  1.738524e+00    9.659076e-01   1.304393e-02
  1.740734e+00    9.845079e-01   1.315532e-02
  1.742945e+00    9.552656e-01   1.294533e-02
  1.745155e+00    9.285879e-01   1.275026e-02
  1.747366e+00    9.516147e-01   1.289381e-02
  1.749576e+00    9.579096e-01   1.292293e-02
  1.751787e+00    9.430239e-01   1.280906e-02
  1.753997e+00    9.490782e-01   1.283693e-02
  1.756208e+00    9.465495e-01   1.280682e-02
  1.758418e+00    9.484925e-01   1.280701e-02
  1.760628e+00    9.291940e-01   1.266296e-02
  1.762839e+00    9.473507e-01   1.277299e-02
  1.765049e+00    9.642262e-01   1.287312e-02
  1.767260e+00    9.671630e-01   1.287985e-02
  1.769470e+00    9.657472e-01   1.285736e-02
  1.771681e+00    9.843277e-01   1.296710e-02
  1.773891e+00    9.907461e-01   1.299598e-02
  1.776102e+00    9.783525e-01   1.290137e-02
  1.778312e+00    9.627614e-01   1.278530e-02
  1.780523e+00    9.666997e-01   1.279851e-02
  1.782733e+00    9.963554e-01   1.298027e-02
  1.784944e+00    9.939904e-01   1.295159e-02
  1.787154e+00    9.795429e-01   1.284428e-02
  1.789364e+00    9.417222e-01   1.258132e-02
  1.791575e+00    9.299216e-01   1.248968e-02
  1.793785e+00    9.367982e-01   1.252326e-02
  1.795996e+00    9.560325e-01   1.263845e-02
  1.798206e+00    9.526546e-01   1.260332e-02
  1.800417e+00    9.688300e-01   1.269685e-02
  1.802627e+00    9.192884e-01   1.235601e-02
  1.804838e+00    9.198707e-01   1.234774e-02
  1.807048e+00    9.206046e-01   1.233974e-02
  1.809259e+00    9.230048e-01   1.234211e-02
  1.811469e+00    9.193492e-01   1.230254e-02
  1.813679e+00    9.028515e-01   1.217669e-02
  1.815890e+00    8.869742e-01   1.205450e-02
  1.818100e+00    8.676818e-01   1.190781e-02
  1.820311e+00    8.534599e-01   1.179538e-02
  1.822521e+00    8.579128e-01   1.181154e-02
  1.824732e+00    8.591504e-01   1.180550e-02
  1.826942e+00    8.527204e-01   1.174915e-02
  1.829153e+00    8.538968e-01   1.174577e-02
  1.831363e+00    8.517756e-01   1.171936e-02
  1.833574e+00    8.434892e-01   1.165078e-02
  1.835784e+00    8.708208e-01   1.182668e-02
  1.837994e+00    8.645678e-01   1.177251e-02
  1.840205e+00    8.454567e-01   1.163069e-02
  1.842415e+00    8.529327e-01   1.167035e-02
  1.844626e+00    8.282858e-01   1.148924e-02
  1.846836e+00    8.484320e-01   1.161680e-02
  1.849047e+00    8.535833e-01   1.164051e-02
  1.851257e+00    8.436117e-01   1.156286e-02
  1.853468e+00    8.625787e-01   1.168330e-02
  1.855678e+00    8.744922e-01   1.175476e-02
  1.857889e+00    8.706120e-01   1.172010e-02
  1.860099e+00    8.368508e-01   1.148209e-02
  1.862309e+00    8.305554e-01   1.143042e-02
  1.864520e+00    8.141865e-01   1.130887e-02
  1.866730e+00    8.266823e-01   1.138608e-02
  1.868941e+00    8.514858e-01   1.154469e-02
  1.871151e+00    8.442187e-01   1.148401e-02
  1.873362e+00    8.184912e-01   1.129651e-02
  1.875572e+00    8.287509e-01   1.135629e-02
  1.877783e+00    8.432670e-01   1.144391e-02
  1.879993e+00    8.545788e-01   1.150922e-02
  1.882204e+00    8.362481e-01   1.137427e-02
  1.884414e+00    8.352674e-01   1.135658e-02
  1.886624e+00    8.323749e-01   1.132591e-02
  1.888835e+00    8.198141e-01   1.122929e-02
  1.891045e+00    8.204454e-01   1.122287e-02
  1.893256e+00    8.215210e-01   1.121922e-02
  1.895466e+00    8.391114e-01   1.132754e-02
  1.897677e+00    8.330967e-01   1.127595e-02
  1.899887e+00    8.206442e-01   1.118049e-02
  1.902098e+00    8.213968e-01   1.117481e-02
  1.904308e+00    8.359874e-01   1.126302e-02
  1.906519e+00    8.415334e-01   1.128940e-02
  1.908729e+00    8.496743e-01   1.133315e-02
  1.910940e+00    9.219206e-01   1.179333e-02
  1.913150e+00    1.028571e+00   1.244505e-02
  1.915360e+00    9.246778e-01   1.178863e-02
  1.917571e+00    8.295643e-01   1.115492e-02
  1.919781e+00    8.161937e-01   1.105399e-02
  1.921992e+00    8.117276e-01   1.101315e-02
  1.924202e+00    8.018038e-01   1.093496e-02
  1.926413e+00    7.917575e-01   1.085608e-02
  1.928623e+00    7.969450e-01   1.088116e-02
  1.930834e+00    7.917666e-01   1.083547e-02
  1.933044e+00    7.862022e-01   1.078681e-02
  1.935255e+00    7.980736e-01   1.085770e-02
  1.937465e+00    7.911550e-01   1.080025e-02
  1.939675e+00    7.988720e-01   1.084201e-02
  1.941886e+00    7.828828e-01   1.072282e-02
  1.944096e+00    7.725114e-01   1.064156e-02
  1.946307e+00    7.759604e-01   1.065513e-02
  1.948517e+00    7.780066e-01   1.065887e-02
  1.950728e+00    7.596616e-01   1.052246e-02
  1.952938e+00    7.801695e-01   1.065357e-02
  1.955149e+00    7.583797e-01   1.049376e-02
  1.957359e+00    7.603967e-01   1.049787e-02
  1.959570e+00    7.797076e-01   1.061958e-02
  1.961780e+00    7.709749e-01   1.055017e-02
  1.963990e+00    7.665250e-01   1.050972e-02
  1.966201e+00    7.574962e-01   1.043779e-02
  1.968411e+00    7.532786e-01   1.039878e-02
  1.970622e+00    7.619929e-01   1.044882e-02
  1.972832e+00    7.646146e-01   1.045696e-02
  1.975043e+00    7.739759e-01   1.051081e-02
  1.977253e+00    7.913132e-01   1.061791e-02
  1.979464e+00    7.669790e-01   1.044344e-02
  1.981674e+00    7.699600e-01   1.045353e-02
  1.983885e+00    7.808958e-01   1.051750e-02
  1.986095e+00    7.697207e-01   1.043234e-02
  1.988305e+00    7.549705e-01   1.032215e-02
  1.990516e+00    7.467566e-01   1.025613e-02
  1.992726e+00    7.553707e-01   1.030558e-02
  1.994937e+00    7.571542e-01   1.030775e-02
  1.997147e+00    7.707510e-01   1.039018e-02
  1.999358e+00    7.691897e-01   1.036985e-02
  2.001568e+00    7.794479e-01   1.042791e-02
  2.003779e+00    7.579424e-01   1.027126e-02
  2.005989e+00    7.456619e-01   1.017587e-02
  2.008200e+00    7.575219e-01   1.024506e-02
  2.010410e+00    7.554626e-01   1.021948e-02
  2.012621e+00    7.640185e-01   1.026550e-02
  2.014831e+00    7.663984e-01   1.027003e-02
  2.017041e+00    7.613911e-01   1.022608e-02
  2.019252e+00    7.523532e-01   1.015534e-02
  2.021462e+00    7.372104e-01   1.004328e-02
  2.023673e+00    7.404804e-01   1.005628e-02
  2.025883e+00    7.685312e-01   1.023544e-02
  2.028094e+00    7.434503e-01   1.005752e-02
  2.030304e+00    7.434093e-01   1.004781e-02
  2.032515e+00    7.417038e-01   1.002711e-02
  2.034725e+00    7.395589e-01   1.000327e-02
  2.036936e+00    7.382126e-01   9.984957e-03
  2.039146e+00    7.291834e-01   9.914309e-03
  2.041356e+00    7.420931e-01   9.992125e-03
  2.043567e+00    7.420655e-01   9.982736e-03
  2.045777e+00    7.425730e-01   9.976964e-03
  2.047988e+00    7.464859e-01   9.993914e-03
  2.050198e+00    7.506887e-01   1.001357e-02
  2.052409e+00    7.589327e-01   1.006074e-02
  2.054619e+00    7.534648e-01   1.001704e-02
  2.056830e+00    7.682495e-01   1.010757e-02
  2.059040e+00    7.984663e-01   1.029670e-02
  2.061251e+00    7.567170e-01   1.001662e-02
  2.063461e+00    7.408846e-01   9.903715e-03
  2.065671e+00    7.492519e-01   9.950765e-03
  2.067882e+00    7.420711e-01   9.894004e-03
  2.070092e+00    7.466622e-01   9.915362e-03
  2.072303e+00    7.521955e-01   9.942872e-03
  2.074513e+00    7.364969e-01   9.829308e-03
  2.076724e+00    7.353947e-01   9.812528e-03
  2.078934e+00    7.333376e-01   9.789874e-03
  2.081145e+00    7.187375e-01   9.682980e-03
  2.083355e+00    7.384918e-01   9.805989e-03
  2.085566e+00    7.169847e-01   9.653402e-03
  2.087776e+00    7.088466e-01   9.589138e-03
  2.089986e+00    7.127233e-01   9.606688e-03
  2.092197e+00    7.258142e-01   9.685629e-03
  2.094407e+00    7.285910e-01   9.694962e-03
  2.096618e+00    7.217273e-01   9.640386e-03
  2.098828e+00    7.037598e-01   9.510492e-03
  2.101039e+00    7.217420e-01   9.622336e-03
  2.103249e+00    7.302372e-01   9.670125e-03
  2.105460e+00    7.287722e-01   9.651424e-03
  2.107670e+00    7.198343e-01   9.583372e-03
  2.109881e+00    7.092416e-01   9.503555e-03
  2.112091e+00    6.985235e-01   9.422651e-03
  2.114301e+00    7.116344e-01   9.501949e-03
  2.116512e+00    7.094208e-01   9.478481e-03
  2.118722e+00    6.911548e-01   9.347009e-03
  2.120933e+00    7.013843e-01   9.407178e-03
  2.123143e+00    6.988450e-01   9.381356e-03
  2.125354e+00    7.081531e-01   9.435150e-03
  2.127564e+00    7.153885e-01   9.474494e-03
  2.129775e+00    7.357014e-01   9.599232e-03
  2.131985e+00    7.118464e-01   9.433289e-03
  2.134196e+00    7.036408e-01   9.370225e-03
  2.136406e+00    6.842630e-01   9.231721e-03
  2.138617e+00    6.888296e-01   9.254155e-03
  2.140827e+00    6.929255e-01   9.297502e-03
  2.143037e+00    6.852477e-01   9.290623e-03
  2.145248e+00    6.764073e-01   9.252022e-03
  2.147458e+00    6.939029e-01   9.385944e-03
  2.149669e+00    6.975027e-01   9.422067e-03
  2.151879e+00    6.853337e-01   9.348632e-03
  2.154090e+00    7.000586e-01   9.455826e-03
  2.156300e+00    6.898041e-01   9.392885e-03
  2.158511e+00    6.833639e-01   9.354166e-03
  2.160721e+00    6.928988e-01   9.423995e-03
  2.162932e+00    6.795677e-01   9.336603e-03
  2.165142e+00    6.866313e-01   9.387990e-03
  2.167352e+00    6.707516e-01   9.281651e-03
  2.169563e+00    6.843846e-01   9.377437e-03
  2.171773e+00    6.896482e-01   9.415876e-03
  2.173984e+00    6.854436e-01   9.388532e-03
  2.176194e+00    6.745458e-01   9.314796e-03
  2.178405e+00    6.618063e-01   9.227080e-03
  2.180615e+00    6.775134e-01   9.336608e-03
  2.182826e+00    6.768422e-01   9.332669e-03
  2.185036e+00    6.725522e-01   9.303078e-03
  2.187247e+00    6.740947e-01   9.313706e-03
  2.189457e+00    6.502241e-01   9.146919e-03
  2.191667e+00    6.678528e-01   9.269892e-03
  2.193878e+00    6.742147e-01   9.313392e-03
  2.196088e+00    6.815480e-01   9.363218e-03
  2.198299e+00    6.714535e-01   9.292559e-03
  2.200509e+00    6.544777e-01   9.173293e-03
  2.202720e+00    6.921116e-01   9.432169e-03
  2.204930e+00    6.632090e-01   9.231938e-03
  2.207141e+00    6.625278e-01   9.226073e-03
  2.209351e+00    6.580654e-01   9.193091e-03
  2.211562e+00    6.818169e-01   9.355909e-03
  2.213772e+00    6.597115e-01   9.148233e-03
  2.215982e+00    6.786405e-01   9.234214e-03
  2.218193e+00    6.738992e-01   9.172341e-03
  2.220403e+00    6.624831e-01   9.069948e-03
  2.222614e+00    6.635427e-01   9.056418e-03
  2.224824e+00    6.498703e-01   8.943575e-03
  2.227035e+00    6.435223e-01   8.882727e-03
  2.229245e+00    6.592114e-01   8.973547e-03
  2.231456e+00    6.606237e-01   8.967650e-03
  2.233666e+00    6.758849e-01   9.055507e-03
  2.235877e+00    6.751107e-01   9.035997e-03
  2.238087e+00    6.749734e-01   9.021569e-03
  2.240298e+00    6.619116e-01   8.920142e-03
  2.242508e+00    6.474420e-01   8.807234e-03
  2.244718e+00    6.588908e-01   8.869034e-03
  2.246929e+00    6.623662e-01   8.878078e-03
  2.249139e+00    6.486471e-01   8.773439e-03
  2.251350e+00    6.517807e-01   8.783019e-03
  2.253560e+00    6.431445e-01   8.713292e-03
  2.255771e+00    6.357307e-01   8.651764e-03
  2.257981e+00    6.557374e-01   8.775745e-03
  2.260192e+00    6.535291e-01   8.749941e-03
  2.262402e+00    6.657907e-01   8.820786e-03
  2.264613e+00    6.421623e-01   8.652189e-03
  2.266823e+00    6.485042e-01   8.684524e-03
  2.269033e+00    6.451567e-01   8.651841e-03
  2.271244e+00    6.360381e-01   8.580301e-03
  2.273454e+00    6.515720e-01   8.674257e-03
  2.275665e+00    6.390696e-01   8.580534e-03
  2.277875e+00    6.360032e-01   8.550166e-03
  2.280086e+00    6.441589e-01   8.594901e-03
  2.282296e+00    6.309894e-01   8.497378e-03
  2.284507e+00    6.614787e-01   8.690103e-03
  2.286717e+00    6.355205e-01   8.508588e-03
  2.288928e+00    6.500366e-01   8.595385e-03
  2.291138e+00    6.495347e-01   8.582719e-03
  2.293348e+00    6.337360e-01   8.468306e-03
  2.295559e+00    6.369814e-01   8.480771e-03
  2.297769e+00    6.400252e-01   8.491875e-03
  2.299980e+00    6.383855e-01   8.471764e-03
  2.302190e+00    6.357334e-01   8.445132e-03
  2.304401e+00    6.532947e-01   8.551676e-03
  2.306611e+00    6.418402e-01   8.467230e-03
  2.308822e+00    6.413106e-01   8.455420e-03
  2.311032e+00    6.381489e-01   8.428163e-03
  2.313243e+00    6.456081e-01   8.471022e-03
  2.315453e+00    6.376998e-01   8.411489e-03
  2.317663e+00    6.142714e-01   8.246629e-03
  2.319874e+00    6.272047e-01   8.324388e-03
  2.322084e+00    6.192018e-01   8.262348e-03
  2.324295e+00    6.220254e-01   8.273065e-03
  2.326505e+00    6.319284e-01   8.329710e-03
  2.328716e+00    6.282986e-01   8.297314e-03
  2.330926e+00    6.172269e-01   8.215258e-03
  2.333137e+00    6.227655e-01   8.243779e-03
  2.335347e+00    6.267895e-01   8.261614e-03
  2.337558e+00    6.167685e-01   8.187231e-03
  2.339768e+00    6.052262e-01   8.101902e-03
  2.341979e+00    6.135272e-01   8.149100e-03
  2.344189e+00    5.986741e-01   8.041701e-03
  2.346399e+00    6.184722e-01   8.165205e-03
  2.348610e+00    6.131967e-01   8.122017e-03
  2.350820e+00    6.074312e-01   8.075732e-03
  2.353031e+00    6.287828e-01   8.208190e-03
  2.355241e+00    6.229552e-01   8.162084e-03
  2.357452e+00    6.081669e-01   8.056377e-03
  2.359662e+00    6.103477e-01   8.062696e-03
  2.361873e+00    6.041992e-01   8.013945e-03
  2.364083e+00    5.954499e-01   7.947932e-03
  2.366294e+00    6.072960e-01   8.018614e-03
  2.368504e+00    6.256000e-01   8.130495e-03
  2.370714e+00    6.200203e-01   8.086147e-03
  2.372925e+00    6.170988e-01   8.059071e-03
  2.375135e+00    6.069168e-01   7.984358e-03
  2.377346e+00    6.013610e-01   7.939932e-03
  2.379556e+00    6.062199e-01   7.964162e-03
  2.381767e+00    5.911562e-01   7.856905e-03
  2.383977e+00    5.974165e-01   7.890623e-03
  2.386188e+00    5.932271e-01   7.855157e-03
  2.388398e+00    5.913015e-01   7.834615e-03
  2.390609e+00    6.092488e-01   7.944947e-03
  2.392819e+00    6.094028e-01   7.938235e-03
  2.395029e+00    6.081086e-01   7.922176e-03
  2.397240e+00    6.083366e-01   7.915832e-03
  2.399450e+00    6.094174e-01   7.915093e-03
  2.401661e+00    5.961526e-01   7.820893e-03
  2.403871e+00    5.918584e-01   7.785037e-03
  2.406082e+00    5.803097e-01   7.701463e-03
  2.408292e+00    5.754213e-01   7.661383e-03
  2.410503e+00    5.771394e-01   7.665504e-03
  2.412713e+00    5.795717e-01   7.674040e-03
  2.414924e+00    5.815807e-01   7.679984e-03
  2.417134e+00    5.879685e-01   7.714514e-03
  2.419344e+00    5.979346e-01   7.772253e-03
  2.421555e+00    5.797472e-01   7.645774e-03
  2.423765e+00    5.697939e-01   7.572643e-03
  2.425976e+00    5.675827e-01   7.550325e-03
  2.428186e+00    5.764617e-01   7.602091e-03
  2.430397e+00    5.774638e-01   7.601311e-03
  2.432607e+00    5.783752e-01   7.600170e-03
  2.434818e+00    5.595559e-01   7.468170e-03
  2.437028e+00    5.743346e-01   7.559116e-03
  2.439239e+00    5.804672e-01   7.591805e-03
  2.441449e+00    5.779737e-01   7.568369e-03
  2.443659e+00    5.740631e-01   7.535481e-03
  2.445870e+00    5.758370e-01   7.559214e-03
  2.448080e+00    5.736347e-01   7.579274e-03
  2.450291e+00    5.772667e-01   7.619834e-03
  2.452501e+00    5.574274e-01   7.498753e-03
  2.454712e+00    5.614294e-01   7.533935e-03
  2.456922e+00    5.410608e-01   7.402472e-03
  2.459133e+00    5.421538e-01   7.415244e-03
  2.461343e+00    5.551435e-01   7.507851e-03
  2.463554e+00    5.512847e-01   7.485155e-03
  2.465764e+00    5.507597e-01   7.484685e-03
  2.467975e+00    5.536773e-01   7.506755e-03
  2.470185e+00    5.516592e-01   7.495310e-03
  2.472395e+00    5.396467e-01   7.414456e-03
  2.474606e+00    5.399498e-01   7.418083e-03
  2.476816e+00    5.313774e-01   7.359670e-03
  2.479027e+00    5.349191e-01   7.385003e-03
  2.481237e+00    5.412240e-01   7.428668e-03
  2.483448e+00    5.396480e-01   7.418153e-03
  2.485658e+00    5.508779e-01   7.494768e-03
  2.487869e+00    5.683923e-01   7.613048e-03
  2.490079e+00    5.645625e-01   7.586815e-03
  2.492290e+00    5.599615e-01   7.555407e-03
  2.494500e+00    5.454094e-01   7.455860e-03
  2.496710e+00    5.203410e-01   7.281802e-03
  2.498921e+00    5.224789e-01   7.295760e-03
  2.501131e+00    5.224606e-01   7.294689e-03
  2.503342e+00    5.108005e-01   7.211607e-03
  2.505552e+00    5.132464e-01   7.227726e-03
  2.507763e+00    5.019576e-01   7.146438e-03
  2.509973e+00    4.989025e-01   7.123283e-03
  2.512184e+00    5.045291e-01   7.161760e-03
  2.514394e+00    5.122297e-01   7.206984e-03
  2.516605e+00    5.274540e-01   7.266186e-03
  2.518815e+00    5.094857e-01   7.113491e-03
  2.521025e+00    5.191234e-01   7.159610e-03
  2.523236e+00    5.191852e-01   7.142160e-03
  2.525446e+00    5.315495e-01   7.211014e-03
  2.527657e+00    5.145665e-01   7.080439e-03
  2.529867e+00    5.084851e-01   7.024519e-03
  2.532078e+00    5.154756e-01   7.057711e-03
  2.534288e+00    5.180687e-01   7.061675e-03
  2.536499e+00    5.216746e-01   7.074285e-03
  2.538709e+00    5.192385e-01   7.046822e-03
  2.540920e+00    5.154841e-01   7.010729e-03
  2.543130e+00    5.172745e-01   7.012608e-03
  2.545340e+00    5.076323e-01   6.937031e-03
  2.547551e+00    5.109468e-01   6.949806e-03
  2.549761e+00    5.079153e-01   6.919714e-03
  2.551972e+00    5.004758e-01   6.859696e-03
  2.554182e+00    4.961377e-01   6.820942e-03
  2.556393e+00    4.993255e-01   6.833916e-03
  2.558603e+00    5.082828e-01   6.885976e-03
  2.560814e+00    4.958661e-01   6.792847e-03
  2.563024e+00    4.859486e-01   6.716284e-03
  2.565235e+00    5.023735e-01   6.819458e-03
  2.567445e+00    5.184688e-01   6.918316e-03
  2.569656e+00    5.148024e-01   6.884102e-03
  2.571866e+00    5.078773e-01   6.828366e-03
  2.574076e+00    5.172344e-01   6.881712e-03
  2.576287e+00    5.087002e-01   6.816443e-03
  2.578497e+00    5.143410e-01   6.846291e-03
  2.580708e+00    4.987799e-01   6.733992e-03
  2.582918e+00    4.944712e-01   6.697224e-03
  2.585129e+00    4.928890e-01   6.678922e-03
  2.587339e+00    4.950345e-01   6.685889e-03
  2.589550e+00    4.991983e-01   6.706514e-03
  2.591760e+00    5.023378e-01   6.719895e-03
  2.593971e+00    5.026379e-01   6.714453e-03
  2.596181e+00    4.954505e-01   6.660149e-03
  2.598391e+00    4.875185e-01   6.601545e-03
  2.600602e+00    4.906442e-01   6.616872e-03
  2.602812e+00    4.907553e-01   6.610227e-03
  2.605023e+00    5.008603e-01   6.670816e-03
  2.607233e+00    4.900644e-01   6.591531e-03
  2.609444e+00    4.914017e-01   6.593393e-03
  2.611654e+00    5.080569e-01   6.696871e-03
  2.613865e+00    4.907629e-01   6.574984e-03
  2.616075e+00    4.904813e-01   6.566061e-03
  2.618286e+00    4.949488e-01   6.588971e-03
  2.620496e+00    5.042685e-01   6.644033e-03
  2.622706e+00    4.963213e-01   6.585775e-03
  2.624917e+00    4.949195e-01   6.570670e-03
  2.627127e+00    5.079275e-01   6.650692e-03
  2.629338e+00    5.064291e-01   6.634891e-03
  2.631548e+00    5.126578e-01   6.669336e-03
  2.633759e+00    5.065528e-01   6.622341e-03
  2.635969e+00    4.901285e-01   6.507488e-03
  2.638180e+00    4.790768e-01   6.426859e-03
  2.640390e+00    4.938147e-01   6.518427e-03
  2.642601e+00    4.866450e-01   6.464361e-03
  2.644811e+00    4.944518e-01   6.508957e-03
  2.647021e+00    4.860440e-01   6.446941e-03
  2.649232e+00    4.726921e-01   6.351207e-03
  2.651442e+00    4.849404e-01   6.426564e-03
  2.653653e+00    4.893764e-01   6.449157e-03
  2.655863e+00    4.985007e-01   6.502321e-03
  2.658074e+00    4.974469e-01   6.488847e-03
  2.660284e+00    4.853275e-01   6.403045e-03
  2.662495e+00    4.767286e-01   6.339437e-03
  2.664705e+00    4.884301e-01   6.410260e-03
  2.666916e+00    4.868626e-01   6.393556e-03
  2.669126e+00    4.923247e-01   6.422905e-03
  2.671337e+00    4.853010e-01   6.370401e-03
  2.673547e+00    4.805677e-01   6.332981e-03
  2.675757e+00    4.894904e-01   6.385062e-03
  2.677968e+00    4.968467e-01   6.426360e-03
  2.680178e+00    4.698121e-01   6.242825e-03
  2.682389e+00    4.804720e-01   6.306918e-03
  2.684599e+00    4.756984e-01   6.269447e-03
  2.686810e+00    4.794628e-01   6.287683e-03
  2.689020e+00    4.937778e-01   6.374551e-03
  2.691231e+00    4.824899e-01   6.295034e-03
  2.693441e+00    4.725456e-01   6.223805e-03
  2.695652e+00    4.663890e-01   6.176755e-03
  2.697862e+00    4.811519e-01   6.267468e-03
  2.700072e+00    4.792413e-01   6.248998e-03
  2.702283e+00    4.668074e-01   6.161342e-03
  2.704493e+00    4.741533e-01   6.203413e-03
  2.706704e+00    4.852874e-01   6.269466e-03
  2.708914e+00    4.752872e-01   6.198639e-03
  2.711125e+00    4.761524e-01   6.198102e-03
  2.713335e+00    4.783326e-01   6.206242e-03
  2.715546e+00    4.750176e-01   6.178321e-03
  2.717756e+00    4.754273e-01   6.175172e-03
  2.719967e+00    4.757233e-01   6.170927e-03
  2.722177e+00    4.892766e-01   6.252082e-03
  2.724387e+00    4.829322e-01   6.205324e-03
  2.726598e+00    4.897189e-01   6.242685e-03
  2.728808e+00    4.824317e-01   6.189937e-03
  2.731019e+00    4.995603e-01   6.292629e-03
  2.733229e+00    5.327407e-01   6.492157e-03
  2.735440e+00    5.216345e-01   6.417660e-03
  2.737650e+00    5.025722e-01   6.293169e-03
  2.739861e+00    4.670176e-01   6.060513e-03
  2.742071e+00    4.618528e-01   6.021271e-03
  2.744282e+00    4.624320e-01   6.018940e-03
  2.746492e+00    4.667684e-01   6.041147e-03
  2.748702e+00    4.672798e-01   6.038654e-03
  2.750913e+00    4.644358e-01   6.014565e-03
  2.753123e+00    4.666472e-01   6.022822e-03
  2.755334e+00    4.763466e-01   6.079063e-03
  2.757544e+00    4.765628e-01   6.074729e-03
  2.759755e+00    4.702951e-01   6.028829e-03
  2.761965e+00    4.593971e-01   5.952719e-03
  2.764176e+00    4.524671e-01   5.901838e-03
  2.766386e+00    4.564101e-01   5.921840e-03
  2.768597e+00    4.598345e-01   5.938270e-03
  2.770807e+00    4.675304e-01   5.981962e-03
  2.773017e+00    4.681682e-01   5.980136e-03
  2.775228e+00    4.669240e-01   5.966471e-03
  2.777438e+00    4.710694e-01   5.987134e-03
  2.779649e+00    4.683332e-01   5.963894e-03
  2.781859e+00    4.715190e-01   5.978418e-03
  2.784070e+00    4.673333e-01   5.946019e-03
  2.786280e+00    4.683334e-01   5.946673e-03
  2.788491e+00    4.641601e-01   5.914354e-03
  2.790701e+00    4.613349e-01   5.890779e-03
  2.792912e+00    4.636852e-01   5.899872e-03
  2.795122e+00    4.603446e-01   5.872946e-03
  2.797333e+00    4.668210e-01   5.908599e-03
  2.799543e+00    4.713821e-01   5.931563e-03
  2.801753e+00    4.576600e-01   5.838855e-03
  2.803964e+00    4.573767e-01   5.831480e-03
  2.806174e+00    4.705669e-01   5.908843e-03
  2.808385e+00    4.758535e-01   5.935160e-03
  2.810595e+00    4.592564e-01   5.823966e-03
  2.812806e+00    4.567065e-01   5.801316e-03
  2.815016e+00    4.506461e-01   5.758046e-03
  2.817227e+00    4.509111e-01   5.785037e-03
  2.819437e+00    4.578357e-01   5.840173e-03
  2.821648e+00    4.625665e-01   5.872538e-03
  2.823858e+00    4.590285e-01   5.855290e-03
  2.826068e+00    4.591714e-01   5.861105e-03
  2.828279e+00    4.608561e-01   5.875851e-03
  2.830489e+00    4.511184e-01   5.816687e-03
  2.832700e+00    4.684117e-01   5.929680e-03
  2.834910e+00    4.590412e-01   5.872109e-03
  2.837121e+00    4.657097e-01   5.916305e-03
  2.839331e+00    4.602674e-01   5.882863e-03
  2.841542e+00    4.628149e-01   5.900117e-03
  2.843752e+00    4.531432e-01   5.838918e-03
  2.845963e+00    4.631341e-01   5.903316e-03
  2.848173e+00    4.599095e-01   5.882824e-03
  2.850383e+00    4.551217e-01   5.852414e-03
  2.852594e+00    4.582637e-01   5.872492e-03
  2.854804e+00    4.647303e-01   5.913298e-03
  2.857015e+00    4.521878e-01   5.832511e-03
  2.859225e+00    4.670943e-01   5.927622e-03
  2.861436e+00    4.604113e-01   5.884421e-03
  2.863646e+00    4.431691e-01   5.773223e-03
  2.865857e+00    4.561529e-01   5.857506e-03
  2.868067e+00    4.611212e-01   5.889550e-03
  2.870278e+00    4.523582e-01   5.832977e-03
  2.872488e+00    4.649145e-01   5.912188e-03
  2.874698e+00    4.723452e-01   5.958219e-03
  2.876909e+00    4.598075e-01   5.877293e-03
  2.879119e+00    4.458894e-01   5.786052e-03
  2.881330e+00    4.495059e-01   5.808028e-03
  2.883540e+00    4.516090e-01   5.820220e-03
  2.885751e+00    4.498735e-01   5.807404e-03
  2.887961e+00    4.318135e-01   5.687838e-03
  2.890172e+00    4.399257e-01   5.739414e-03
  2.892382e+00    4.565850e-01   5.845303e-03
  2.894593e+00    4.467000e-01   5.779894e-03
  2.896803e+00    4.462179e-01   5.774816e-03
  2.899014e+00    4.546891e-01   5.827488e-03
  2.901224e+00    4.423855e-01   5.746137e-03
  2.903434e+00    4.495678e-01   5.790672e-03
  2.905645e+00    4.472136e-01   5.773304e-03
  2.907855e+00    4.583663e-01   5.842745e-03
  2.910066e+00    4.586003e-01   5.842164e-03
  2.912276e+00    4.454060e-01   5.755424e-03
  2.914487e+00    4.490080e-01   5.776216e-03
  2.916697e+00    4.513488e-01   5.789043e-03
  2.918908e+00    4.505832e-01   5.782151e-03
  2.921118e+00    4.497788e-01   5.774310e-03
  2.923329e+00    4.540378e-01   5.799277e-03
  2.925539e+00    4.555683e-01   5.806773e-03
  2.927749e+00    4.500498e-01   5.769207e-03
  2.929960e+00    4.379551e-01   5.688431e-03
  2.932170e+00    4.570214e-01   5.808604e-03
  2.934381e+00    4.613415e-01   5.833535e-03
  2.936591e+00    4.555682e-01   5.794370e-03
  2.938802e+00    4.444329e-01   5.720423e-03
  2.941012e+00    4.321258e-01   5.638398e-03
  2.943223e+00    4.344395e-01   5.650827e-03
  2.945433e+00    4.458388e-01   5.720786e-03
  2.947644e+00    4.488523e-01   5.735986e-03
  2.949854e+00    4.555418e-01   5.774312e-03
  2.952064e+00    4.474839e-01   5.718820e-03
  2.954275e+00    4.475463e-01   5.714852e-03
  2.956485e+00    4.508284e-01   5.731582e-03
  2.958696e+00    4.436263e-01   5.681320e-03
  2.960906e+00    4.476258e-01   5.702713e-03
  2.963117e+00    4.462023e-01   5.689187e-03
  2.965327e+00    4.609692e-01   5.778637e-03
  2.967538e+00    4.569905e-01   5.750740e-03
  2.969748e+00    4.317190e-01   5.586713e-03
  2.971959e+00    4.437365e-01   5.660844e-03
  2.974169e+00    4.398334e-01   5.633335e-03
  2.976379e+00    4.587158e-01   5.750058e-03
  2.978590e+00    4.472484e-01   5.674630e-03
  2.980800e+00    4.451812e-01   5.658715e-03
  2.983011e+00    4.486764e-01   5.678121e-03
  2.985221e+00    4.567794e-01   5.725985e-03
  2.987432e+00    4.507503e-01   5.684988e-03
  2.989642e+00    4.451020e-01   5.646658e-03
  2.991853e+00    4.407854e-01   5.615960e-03
  2.994063e+00    4.584276e-01   5.724322e-03
  2.996274e+00    4.605333e-01   5.734275e-03
  2.998484e+00    4.310765e-01   5.545215e-03
  3.000694e+00    4.335074e-01   5.557445e-03
  3.002905e+00    4.419132e-01   5.608159e-03
  3.005115e+00    4.563642e-01   5.696133e-03
  3.007326e+00    4.474486e-01   5.637100e-03
  3.009536e+00    4.434533e-01   5.608636e-03
  3.011747e+00    4.547482e-01   5.676704e-03
  3.013957e+00    4.548682e-01   5.674266e-03
  3.016168e+00    4.521937e-01   5.654315e-03
  3.018378e+00    4.447712e-01   5.604694e-03
  3.020589e+00    4.443344e-01   5.598760e-03
  3.022799e+00    4.294667e-01   5.501216e-03
  3.025010e+00    4.417526e-01   5.576127e-03
  3.027220e+00    4.532119e-01   5.644901e-03
  3.029430e+00    4.402367e-01   5.560298e-03
  3.031641e+00    4.490150e-01   5.612316e-03
  3.033851e+00    4.519758e-01   5.627297e-03
  3.036062e+00    4.449871e-01   5.580859e-03
  3.038272e+00    4.399003e-01   5.545329e-03
  3.040483e+00    4.477260e-01   5.591236e-03
  3.042693e+00    4.384511e-01   5.529799e-03
  3.044904e+00    4.404509e-01   5.538426e-03
  3.047114e+00    4.333893e-01   5.489125e-03
  3.049325e+00    4.382650e-01   5.515588e-03
  3.051535e+00    4.507956e-01   5.589482e-03
  3.053745e+00    4.544186e-01   5.607130e-03
  3.055956e+00    4.601100e-01   5.637533e-03
  3.058166e+00    4.416051e-01   5.518766e-03
  3.060377e+00    4.443465e-01   5.531131e-03
  3.062587e+00    4.407897e-01   5.504374e-03
  3.064798e+00    4.465159e-01   5.535764e-03
  3.067008e+00    4.350511e-01   5.459595e-03
  3.069219e+00    4.291920e-01   5.418292e-03
  3.071429e+00    4.503863e-01   5.546938e-03
  3.073640e+00    4.434343e-01   5.500669e-03
  3.075850e+00    4.340352e-01   5.438539e-03
  3.078060e+00    4.429622e-01   5.491077e-03
  3.080271e+00    4.378034e-01   5.455595e-03
  3.082481e+00    4.427492e-01   5.482899e-03
  3.084692e+00    4.291103e-01   5.394485e-03
  3.086902e+00    4.377369e-01   5.445224e-03
  3.089113e+00    4.408396e-01   5.460953e-03
  3.091323e+00    4.279602e-01   5.377294e-03
  3.093534e+00    4.260584e-01   5.362031e-03
  3.095744e+00    4.429504e-01   5.463933e-03
  3.097955e+00    4.412635e-01   5.450010e-03
  3.100165e+00    4.462907e-01   5.477626e-03
  3.102375e+00    4.362405e-01   5.412233e-03
  3.104586e+00    4.405534e-01   5.435444e-03
  3.106796e+00    4.419102e-01   5.440311e-03
  3.109007e+00    4.383991e-01   5.415462e-03
  3.111217e+00    4.394009e-01   5.417989e-03
  3.113428e+00    4.359964e-01   5.393580e-03
  3.115638e+00    4.225230e-01   5.306437e-03
  3.117849e+00    4.341302e-01   5.375135e-03
  3.120059e+00    4.367073e-01   5.387664e-03
  3.122270e+00    4.287221e-01   5.334956e-03
  3.124480e+00    4.427992e-01   5.418171e-03
  3.126691e+00    4.500354e-01   5.458678e-03
  3.128901e+00    4.428753e-01   5.411975e-03
  3.131111e+00    4.334095e-01   5.350025e-03
  3.133322e+00    4.263167e-01   5.302697e-03
  3.135532e+00    4.326921e-01   5.338832e-03
  3.137743e+00    4.406417e-01   5.384191e-03
  3.139953e+00    4.324389e-01   5.330197e-03
  3.142164e+00    4.368029e-01   5.368962e-03
  3.144374e+00    4.322811e-01   5.369184e-03
  3.146585e+00    4.392684e-01   5.426916e-03
  3.148795e+00    4.204239e-01   5.319734e-03
  3.151006e+00    4.289608e-01   5.381886e-03
  3.153216e+00    4.259729e-01   5.370127e-03
  3.155426e+00    4.269781e-01   5.382663e-03
  3.157637e+00    4.352068e-01   5.439767e-03
  3.159847e+00    4.415262e-01   5.484005e-03
  3.162058e+00    4.375092e-01   5.463426e-03
  3.164268e+00    4.239242e-01   5.381917e-03
  3.166479e+00    4.115225e-01   5.306151e-03
  3.168689e+00    4.227451e-01   5.381293e-03
  3.170900e+00    4.377273e-01   5.479002e-03
  3.173110e+00    4.455269e-01   5.530497e-03
  3.175321e+00    4.376776e-01   5.484059e-03
  3.177531e+00    4.364551e-01   5.479116e-03
  3.179741e+00    4.465543e-01   5.544240e-03
  3.181952e+00    4.272861e-01   5.425408e-03
  3.184162e+00    4.199454e-01   5.380754e-03
  3.186373e+00    4.113344e-01   5.326834e-03
  3.188583e+00    4.218080e-01   5.395974e-03
  3.190794e+00    4.310025e-01   5.456229e-03
  3.193004e+00    4.308325e-01   5.456378e-03
  3.195215e+00    4.359873e-01   5.490416e-03
  3.197425e+00    4.420405e-01   5.529653e-03
  3.199636e+00    4.195560e-01   5.386400e-03
  3.201846e+00    4.179567e-01   5.375539e-03
  3.204056e+00    4.200844e-01   5.390092e-03
  3.206267e+00    4.323789e-01   5.469212e-03
  3.208477e+00    4.229407e-01   5.410134e-03
  3.210688e+00    4.127879e-01   5.345623e-03
  3.212898e+00    4.177097e-01   5.377956e-03
  3.215109e+00    4.175960e-01   5.377953e-03
  3.217319e+00    4.247892e-01   5.424721e-03
  3.219530e+00    4.258229e-01   5.431699e-03
  3.221740e+00    4.304385e-01   5.461613e-03
  3.223951e+00    4.362790e-01   5.499034e-03
  3.226161e+00    4.181418e-01   5.383694e-03
  3.228372e+00    4.257953e-01   5.433268e-03
  3.230582e+00    4.131444e-01   5.352088e-03
  3.232792e+00    4.108990e-01   5.337731e-03
  3.235003e+00    4.268232e-01   5.440407e-03
  3.237213e+00    4.239002e-01   5.421896e-03
  3.239424e+00    4.073085e-01   5.314692e-03
  3.241634e+00    4.130636e-01   5.352238e-03
  3.243845e+00    4.109034e-01   5.338294e-03
  3.246055e+00    4.199495e-01   5.396456e-03
  3.248266e+00    4.129255e-01   5.351358e-03
  3.250476e+00    3.867050e-01   5.178375e-03
  3.252687e+00    3.952146e-01   5.234954e-03
  3.254897e+00    4.008950e-01   5.272307e-03
  3.257107e+00    4.076632e-01   5.316340e-03
  3.259318e+00    4.156648e-01   5.368025e-03
  3.261528e+00    4.079318e-01   5.317731e-03
  3.263739e+00    4.114102e-01   5.339788e-03
  3.265949e+00    4.155359e-01   5.366392e-03
  3.268160e+00    4.181642e-01   5.382914e-03
  3.270370e+00    4.244998e-01   5.423023e-03
  3.272581e+00    4.122448e-01   5.343929e-03
  3.274791e+00    4.160513e-01   5.367996e-03
  3.277002e+00    4.099640e-01   5.328034e-03
  3.279212e+00    4.153792e-01   5.362740e-03
  3.281422e+00    4.115571e-01   5.337419e-03
  3.283633e+00    4.039234e-01   5.287053e-03
  3.285843e+00    4.156228e-01   5.362713e-03
  3.288054e+00    4.219834e-01   5.402664e-03
  3.290264e+00    4.203402e-01   5.391843e-03
  3.292475e+00    4.037921e-01   5.283811e-03
  3.294685e+00    4.118112e-01   5.335406e-03
  3.296896e+00    4.039465e-01   5.283458e-03
  3.299106e+00    4.128312e-01   5.340701e-03
  3.301317e+00    4.048000e-01   5.287502e-03
  3.303527e+00    4.122002e-01   5.335147e-03
  3.305737e+00    4.086365e-01   5.311002e-03
  3.307948e+00    4.073860e-01   5.302242e-03
  3.310158e+00    3.921386e-01   5.201223e-03
  3.312369e+00    4.065885e-01   5.295319e-03
  3.314579e+00    4.104986e-01   5.319817e-03
  3.316790e+00    4.277616e-01   5.429837e-03
  3.319000e+00    4.101055e-01   5.315431e-03
  3.321211e+00    3.922287e-01   5.197697e-03
  3.323421e+00    4.090451e-01   5.306759e-03
  3.325632e+00    4.110948e-01   5.319157e-03
  3.327842e+00    4.024019e-01   5.261743e-03
  3.330052e+00    4.004465e-01   5.247875e-03
  3.332263e+00    4.193485e-01   5.369316e-03
  3.334473e+00    4.047877e-01   5.274357e-03
  3.336684e+00    4.152557e-01   5.340890e-03
  3.338894e+00    4.069803e-01   5.286573e-03
  3.341105e+00    4.093848e-01   5.300961e-03
  3.343315e+00    4.175808e-01   5.352632e-03
  3.345526e+00    4.054658e-01   5.273540e-03
  3.347736e+00    4.163926e-01   5.342696e-03
  3.349947e+00    4.226236e-01   5.381607e-03
  3.352157e+00    4.170153e-01   5.344622e-03
  3.354368e+00    4.184743e-01   5.352651e-03
  3.356578e+00    4.064327e-01   5.274086e-03
  3.358788e+00    4.003694e-01   5.233286e-03
  3.360999e+00    4.065718e-01   5.272449e-03
  3.363209e+00    3.934533e-01   5.185705e-03
  3.365420e+00    4.113044e-01   5.300525e-03
  3.367630e+00    3.975138e-01   5.209933e-03
  3.369841e+00    3.984017e-01   5.214332e-03
  3.372051e+00    4.066339e-01   5.265987e-03
  3.374262e+00    3.940241e-01   5.181323e-03
  3.376472e+00    4.024028e-01   5.233717e-03
  3.378683e+00    3.983704e-01   5.204982e-03
  3.380893e+00    4.017657e-01   5.224812e-03
  3.383103e+00    3.906009e-01   5.149078e-03
  3.385314e+00    4.023517e-01   5.223772e-03
  3.387524e+00    3.894074e-01   5.136398e-03
  3.389735e+00    4.057876e-01   5.240722e-03
  3.391945e+00    3.958387e-01   5.172483e-03
  3.394156e+00    3.990843e-01   5.189480e-03
  3.396366e+00    3.988121e-01   5.184371e-03
  3.398577e+00    3.972828e-01   5.171427e-03
  3.400787e+00    4.037375e-01   5.225069e-03
  3.402998e+00    3.860241e-01   5.146111e-03
  3.405208e+00    3.889910e-01   5.186066e-03
  3.407418e+00    3.908206e-01   5.213837e-03
  3.409629e+00    3.736352e-01   5.111399e-03
  3.411839e+00    3.818085e-01   5.178490e-03
  3.414050e+00    3.993530e-01   5.307181e-03
  3.416260e+00    3.858899e-01   5.226510e-03
  3.418471e+00    3.824846e-01   5.212645e-03
  3.420681e+00    3.858192e-01   5.243768e-03
  3.422892e+00    3.699043e-01   5.142255e-03
  3.425102e+00    3.652589e-01   5.117438e-03
  3.427313e+00    3.697387e-01   5.155709e-03
  3.429523e+00    3.812737e-01   5.242545e-03
  3.431733e+00    3.707497e-01   5.176221e-03
  3.433944e+00    3.649965e-01   5.142207e-03
  3.436154e+00    3.752141e-01   5.219863e-03
  3.438365e+00    3.685499e-01   5.179141e-03
  3.440575e+00    3.564318e-01   5.099013e-03
  3.442786e+00    3.614423e-01   5.140200e-03
  3.444996e+00    3.634540e-01   5.159888e-03
  3.447207e+00    3.548124e-01   5.103309e-03
  3.449417e+00    3.566426e-01   5.156460e-03
  3.451628e+00    3.453401e-01   5.102582e-03
  3.453838e+00    3.617586e-01   5.243436e-03
  3.456049e+00    3.668965e-01   5.304458e-03
  3.458259e+00    3.738953e-01   5.376975e-03
  3.460469e+00    3.663709e-01   5.342377e-03
  3.462680e+00    3.610200e-01   5.322145e-03
  3.464890e+00    3.496855e-01   5.255296e-03
  3.467101e+00    3.597531e-01   5.347732e-03
  3.469311e+00    3.589578e-01   5.358079e-03
  3.471522e+00    3.728281e-01   5.476980e-03
  3.473732e+00    3.712856e-01   5.481427e-03
  3.475943e+00    3.801351e-01   5.562007e-03
  3.478153e+00    3.902636e-01   5.651122e-03
  3.480364e+00    4.104032e-01   5.810547e-03
  3.482574e+00    4.079383e-01   5.808537e-03
  3.484784e+00    4.096964e-01   5.835851e-03
  3.486995e+00    4.222611e-01   5.939906e-03
  3.489205e+00    4.307653e-01   6.014206e-03
  3.491416e+00    4.279941e-01   6.009777e-03
  3.493626e+00    4.220569e-01   5.982297e-03
  3.495837e+00    4.375411e-01   6.105758e-03
  3.498047e+00    4.478210e-01   6.191612e-03
  3.500258e+00    4.440599e-01   6.180012e-03
  3.502468e+00    4.451655e-01   6.202001e-03
  3.504679e+00    4.532528e-01   6.272407e-03
  3.506889e+00    4.608403e-01   6.339077e-03
  3.509099e+00    4.685063e-01   6.405894e-03
  3.511310e+00    4.724755e-01   6.447387e-03
  3.513520e+00    4.780132e-01   6.499418e-03
  3.515731e+00    4.835254e-01   6.551125e-03
  3.517941e+00    4.804961e-01   6.544784e-03
  3.520152e+00    4.883153e-01   6.612053e-03
  3.522362e+00    5.070824e-01   6.752468e-03
  3.524573e+00    5.179271e-01   6.838764e-03
  3.526783e+00    4.987198e-01   6.723959e-03
  3.528994e+00    5.029337e-01   6.764380e-03
  3.531204e+00    5.034687e-01   6.780188e-03
  3.533414e+00    5.202319e-01   6.904169e-03
  3.535625e+00    5.134143e-01   6.871010e-03
  3.537835e+00    5.209879e-01   6.933433e-03
  3.540046e+00    5.411396e-01   7.075268e-03
  3.542256e+00    5.310088e-01   7.016229e-03
  3.544467e+00    5.131038e-01   6.904370e-03
  3.546677e+00    5.294473e-01   7.020995e-03
  3.548888e+00    5.228707e-01   6.984657e-03
  3.551098e+00    5.372975e-01   7.087662e-03
  3.553309e+00    5.273802e-01   7.030045e-03
  3.555519e+00    5.319102e-01   7.071425e-03
  3.557729e+00    5.347664e-01   7.102095e-03
  3.559940e+00    5.326091e-01   7.099296e-03
  3.562150e+00    5.331051e-01   7.114216e-03
  3.564361e+00    5.399320e-01   7.173034e-03
  3.566571e+00    5.325202e-01   7.137427e-03
  3.568782e+00    5.306292e-01   7.138750e-03
  3.570992e+00    5.203466e-01   7.082845e-03
  3.573203e+00    5.180043e-01   7.080748e-03
  3.575413e+00    5.313920e-01   7.185388e-03
  3.577624e+00    5.290979e-01   7.183906e-03
  3.579834e+00    5.246385e-01   7.167289e-03
  3.582045e+00    5.309929e-01   7.224544e-03
  3.584255e+00    5.234551e-01   7.186955e-03
  3.586465e+00    5.420882e-01   7.327772e-03
  3.588676e+00    5.352831e-01   7.295825e-03
  3.590886e+00    5.285740e-01   7.263562e-03
  3.593097e+00    5.371678e-01   7.336891e-03
  3.595307e+00    5.278348e-01   7.286698e-03
  3.597518e+00    5.281491e-01   7.302999e-03
  3.599728e+00    5.264061e-01   7.304884e-03
  3.601939e+00    5.289747e-01   7.336683e-03
  3.604149e+00    5.354291e-01   7.395722e-03
  3.606360e+00    5.326659e-01   7.390701e-03
  3.608570e+00    5.247238e-01   7.349424e-03
  3.610780e+00    5.282813e-01   7.385284e-03
  3.612991e+00    5.343855e-01   7.437842e-03
  3.615201e+00    5.233494e-01   7.370320e-03
  3.617412e+00    5.355746e-01   7.463188e-03
  3.619622e+00    5.462233e-01   7.543034e-03
  3.621833e+00    5.275887e-01   7.419945e-03
  3.624043e+00    5.292026e-01   7.440716e-03
  3.626254e+00    5.239198e-01   7.413119e-03
  3.628464e+00    5.352603e-01   7.503871e-03
  3.630675e+00    5.320806e-01   7.495678e-03
  3.632885e+00    5.263832e-01   7.469779e-03
  3.635095e+00    5.181749e-01   7.425469e-03
  3.637306e+00    5.256602e-01   7.493184e-03
  3.639516e+00    5.191295e-01   7.460816e-03
  3.641727e+00    5.460005e-01   7.666237e-03
  3.643937e+00    5.308153e-01   7.573395e-03
  3.646148e+00    5.346147e-01   7.615073e-03
  3.648358e+00    5.411820e-01   7.676659e-03
  3.650569e+00    5.202873e-01   7.541603e-03
  3.652779e+00    5.193450e-01   7.549322e-03
  3.654990e+00    5.338416e-01   7.668875e-03
  3.657200e+00    5.195151e-01   7.579998e-03
  3.659410e+00    5.203171e-01   7.600641e-03
  3.661621e+00    5.180910e-01   7.599247e-03
  3.663831e+00    5.409244e-01   7.780164e-03
  3.666042e+00    5.222967e-01   7.660071e-03
  3.668252e+00    5.108989e-01   7.590964e-03
  3.670463e+00    5.221147e-01   7.688921e-03
  3.672673e+00    5.246722e-01   7.723101e-03
  3.674884e+00    5.178678e-01   7.688018e-03
  3.677094e+00    5.329359e-01   7.814645e-03
  3.679305e+00    5.329437e-01   7.830307e-03
  3.681515e+00    5.453171e-01   7.936477e-03
  3.683726e+00    5.327317e-01   7.860283e-03
  3.685936e+00    4.924121e-01   7.572113e-03
  3.688146e+00    4.975061e-01   7.626445e-03
  3.690357e+00    5.157368e-01   7.780703e-03
  3.692567e+00    5.108735e-01   7.759783e-03
  3.694778e+00    5.195484e-01   7.841351e-03
  3.696988e+00    5.434551e-01   8.035974e-03
  3.699199e+00    5.210386e-01   7.884663e-03
  3.701409e+00    5.350862e-01   8.006790e-03
  3.703620e+00    5.213830e-01   7.919861e-03
  3.705830e+00    5.082098e-01   7.835317e-03
  3.708041e+00    5.155263e-01   7.907960e-03
  3.710251e+00    5.006451e-01   7.809321e-03
  3.712461e+00    5.069562e-01   7.874888e-03
  3.714672e+00    5.252363e-01   8.032408e-03
  3.716882e+00    5.169934e-01   7.985754e-03
  3.719093e+00    4.980781e-01   7.855114e-03
  3.721303e+00    5.057950e-01   7.932402e-03
  3.723514e+00    5.113860e-01   7.993288e-03
  3.725724e+00    5.189981e-01   8.069731e-03
  3.727935e+00    5.184389e-01   8.082855e-03
  3.730145e+00    5.079888e-01   8.018151e-03
  3.732356e+00    5.190188e-01   8.122303e-03
  3.734566e+00    5.159639e-01   8.115917e-03
  3.736776e+00    5.009844e-01   8.014773e-03
  3.738987e+00    4.869561e-01   7.919020e-03
  3.741197e+00    5.026470e-01   8.063367e-03
  3.743408e+00    5.045039e-01   8.096209e-03
  3.745618e+00    4.972966e-01   8.056180e-03
  3.747829e+00    4.746222e-01   7.887809e-03
  3.750039e+00    4.945481e-01   8.069735e-03
  3.752250e+00    5.124686e-01   8.233124e-03
  3.754460e+00    4.901001e-01   8.069659e-03
  3.756671e+00    4.829709e-01   8.029041e-03
  3.758881e+00    4.900931e-01   8.106301e-03
  3.761091e+00    4.802194e-01   8.042822e-03
  3.763302e+00    4.886193e-01   8.131582e-03
  3.765512e+00    5.218152e-01   8.422770e-03
  3.767723e+00    5.194674e-01   8.423403e-03
  3.769933e+00    5.244943e-01   8.483743e-03
  3.772144e+00    5.146012e-01   8.423081e-03
  3.774354e+00    4.930978e-01   8.264850e-03
  3.776565e+00    5.145040e-01   8.462300e-03
  3.778775e+00    5.061116e-01   8.413055e-03
  3.780986e+00    5.069814e-01   8.440590e-03
  3.783196e+00    5.336229e-01   8.680425e-03
  3.785407e+00    5.081730e-01   8.491406e-03
  3.787617e+00    4.978940e-01   8.425757e-03
  3.789827e+00    4.855857e-01   8.341096e-03
  3.792038e+00    4.868252e-01   8.372324e-03
  3.794248e+00    5.046378e-01   8.545292e-03
  3.796459e+00    5.001226e-01   8.528332e-03
  3.798669e+00    4.814555e-01   8.388609e-03
  3.800880e+00    4.911163e-01   8.493599e-03
  3.803090e+00    4.990807e-01   8.583988e-03
  3.805301e+00    4.946855e-01   8.568079e-03
  3.807511e+00    4.854402e-01   8.509304e-03
  3.809722e+00    4.998520e-01   8.656954e-03
  3.811932e+00    4.846048e-01   8.545760e-03
  3.814142e+00    5.043907e-01   8.741492e-03
  3.816353e+00    4.812498e-01   8.561028e-03
  3.818563e+00    4.906653e-01   8.667252e-03
  3.820774e+00    4.803059e-01   8.598073e-03
  3.822984e+00    4.886918e-01   8.695880e-03
  3.825195e+00    4.996864e-01   8.817012e-03
  3.827405e+00    4.819180e-01   8.682316e-03
  3.829616e+00    4.815734e-01   8.702852e-03
  3.831826e+00    4.929087e-01   8.828736e-03
  3.834037e+00    4.707704e-01   8.652100e-03
  3.836247e+00    4.758109e-01   8.722396e-03
  3.838457e+00    4.666540e-01   8.662313e-03
  3.840668e+00    5.088220e-01   9.070739e-03
  3.842878e+00    5.064362e-01   9.075277e-03
  3.845089e+00    4.732794e-01   8.798166e-03
  3.847299e+00    4.705866e-01   8.798191e-03
  3.849510e+00    4.985482e-01   9.081726e-03
  3.851720e+00    4.990947e-01   9.108228e-03
  3.853931e+00    4.996882e-01   9.132779e-03
  3.856141e+00    4.897170e-01   9.060052e-03
  3.858352e+00    4.872217e-01   9.056098e-03
  3.860562e+00    4.607272e-01   8.825090e-03
  3.862772e+00    4.737863e-01   8.968389e-03
  3.864983e+00    4.740340e-01   8.990037e-03
  3.867193e+00    4.834209e-01   9.098222e-03
  3.869404e+00    4.785968e-01   9.072153e-03
  3.871614e+00    4.927509e-01   9.225329e-03
  3.873825e+00    4.996888e-01   9.310488e-03
  3.876035e+00    4.929191e-01   9.267805e-03
  3.878246e+00    4.855471e-01   9.223865e-03
  3.880456e+00    4.401589e-01   8.809569e-03
  3.882667e+00    4.678952e-01   9.111434e-03
  3.884877e+00    4.732987e-01   9.193098e-03
  3.887087e+00    4.746294e-01   9.235435e-03
  3.889298e+00    4.942583e-01   9.454912e-03
  3.891508e+00    4.792357e-01   9.340329e-03
  3.893719e+00    4.781536e-01   9.360323e-03
  3.895929e+00    4.823236e-01   9.432260e-03
  3.898140e+00    4.891689e-01   9.530545e-03
  3.900350e+00    4.825953e-01   9.498227e-03
  3.902561e+00    4.854521e-01   9.558460e-03
  3.904771e+00    4.750392e-01   9.487768e-03
  3.906982e+00    4.850357e-01   9.619992e-03
  3.909192e+00    4.987079e-01   9.788508e-03
  3.911403e+00    4.654657e-01   9.489815e-03
  3.913613e+00    4.970821e-01   9.841394e-03
  3.915823e+00    4.712521e-01   9.616418e-03
  3.918034e+00    4.903855e-01   9.845096e-03
  3.920244e+00    4.704087e-01   9.677565e-03
  3.922455e+00    4.685574e-01   9.693725e-03
  3.924665e+00    4.782796e-01   9.830002e-03
  3.926876e+00    4.562824e-01   9.637066e-03
  3.929086e+00    5.074813e-01   1.020150e-02
  3.931297e+00    4.935161e-01   1.009522e-02
  3.933507e+00    4.797304e-01   9.981937e-03
  3.935718e+00    4.839240e-01   1.005411e-02
  3.937928e+00    4.713891e-01   9.951947e-03
  3.940138e+00    4.786052e-01   1.005691e-02
  3.942349e+00    4.992236e-01   1.030152e-02
  3.944559e+00    4.670875e-01   9.993771e-03
  3.946770e+00    5.043462e-01   1.041546e-02
  3.948980e+00    4.843039e-01   1.023708e-02
  3.951191e+00    4.598745e-01   1.000552e-02
  3.953401e+00    4.893638e-01   1.035285e-02
  3.955612e+00    4.829567e-01   1.031632e-02
  3.957822e+00    4.913957e-01   1.043793e-02
  3.960033e+00    4.828797e-01   1.037961e-02
  3.962243e+00    4.823181e-01   1.040634e-02
  3.964453e+00    4.615592e-01   1.021216e-02
  3.966664e+00    4.873404e-01   1.052694e-02
  3.968874e+00    4.957488e-01   1.064606e-02
  3.971085e+00    4.931199e-01   1.063996e-02
  3.973295e+00    4.668570e-01   1.037376e-02
  3.975506e+00    4.629664e-01   1.035152e-02
  3.977716e+00    4.655488e-01   1.040198e-02
  3.979927e+00    4.305333e-01   1.002391e-02
  3.982137e+00    4.585647e-01   1.036671e-02
  3.984348e+00    4.603099e-01   1.040846e-02
  3.986558e+00    4.934228e-01   1.079878e-02
  3.988768e+00    5.060126e-01   1.095925e-02
  3.990979e+00    4.926873e-01   1.083688e-02
  3.993189e+00    4.681754e-01   1.058654e-02
  3.995400e+00    4.877148e-01   1.082875e-02
  3.997610e+00    4.869972e-01   1.085078e-02
  3.999821e+00    4.669683e-01   1.066202e-02
  4.002031e+00    4.600501e-01   1.062020e-02
  4.004242e+00    4.852281e-01   1.094545e-02
  4.006452e+00    4.756866e-01   1.087637e-02
  4.008663e+00    4.614823e-01   1.075163e-02
  4.010873e+00    4.698443e-01   1.088805e-02
  4.013084e+00    4.773766e-01   1.101565e-02
  4.015294e+00    4.597373e-01   1.085005e-02
  4.017504e+00    4.529316e-01   1.080999e-02
  4.019715e+00    4.516750e-01   1.083594e-02
  4.021925e+00    4.602946e-01   1.098087e-02
  4.024136e+00    4.538611e-01   1.094612e-02
  4.026346e+00    4.828494e-01   1.133439e-02
  4.028557e+00    4.636411e-01   1.114994e-02
  4.030767e+00    4.695621e-01   1.126601e-02
  4.032978e+00    4.651190e-01   1.125789e-02
  4.035188e+00    4.583071e-01   1.122021e-02
  4.037399e+00    4.487875e-01   1.114876e-02
  4.039609e+00    4.730395e-01   1.149332e-02
  4.041819e+00    4.744725e-01   1.155898e-02
  4.044030e+00    4.945549e-01   1.185165e-02
  4.046240e+00    4.456162e-01   1.129792e-02
  4.048451e+00    4.407784e-01   1.128498e-02
  4.050661e+00    4.926484e-01   1.198237e-02
  4.052872e+00    4.781846e-01   1.185774e-02
  4.055082e+00    4.748726e-01   1.186984e-02
  4.057293e+00    4.144515e-01   1.113873e-02
  4.059503e+00    4.395687e-01   1.152334e-02
  4.061714e+00    4.347050e-01   1.151317e-02
  4.063924e+00    4.521562e-01   1.179681e-02
  4.066134e+00    4.943158e-01   1.239277e-02
  4.068345e+00    4.478867e-01   1.185317e-02
  4.070555e+00    5.000293e-01   1.258471e-02
  4.072766e+00    4.588259e-01   1.211427e-02
  4.074976e+00    5.343734e-01   1.313874e-02
  4.077187e+00    5.304728e-01   1.315603e-02
  4.079397e+00    4.775125e-01   1.254575e-02
  4.081608e+00    4.766335e-01   1.259931e-02
  4.083818e+00    4.559700e-01   1.238724e-02
  4.086029e+00    4.571010e-01   1.246793e-02
  4.088239e+00    4.886068e-01   1.296002e-02
  4.090449e+00    4.977630e-01   1.315159e-02
  4.092660e+00    5.107960e-01   1.339617e-02
  4.094870e+00    4.744688e-01   1.298279e-02
  4.097081e+00    4.762027e-01   1.307777e-02
  4.099291e+00    4.382003e-01   1.259704e-02
  4.101502e+00    4.489987e-01   1.279889e-02
  4.103712e+00    4.762907e-01   1.323105e-02
  4.105923e+00    4.576675e-01   1.302011e-02
  4.108133e+00    4.467239e-01   1.291311e-02
  4.110344e+00    4.595247e-01   1.314696e-02
  4.112554e+00    4.403069e-01   1.291982e-02
  4.114764e+00    4.135658e-01   1.257187e-02
  4.116975e+00    4.940725e-01   1.379499e-02
  4.119185e+00    5.267993e-01   1.430265e-02
  4.121396e+00    4.872602e-01   1.381227e-02
  4.123606e+00    4.880624e-01   1.388010e-02
  4.125817e+00    5.086498e-01   1.422936e-02
  4.128027e+00    4.735568e-01   1.378769e-02
  4.130238e+00    4.476891e-01   1.346320e-02
  4.132448e+00    4.710521e-01   1.386982e-02
  4.134659e+00    4.875722e-01   1.417180e-02
  4.136869e+00    4.849116e-01   1.419611e-02
  4.139080e+00    4.558221e-01   1.382570e-02
  4.141290e+00    4.715220e-01   1.412411e-02
  4.143500e+00    4.576627e-01   1.397913e-02
  4.145711e+00    4.770139e-01   1.433826e-02
  4.147921e+00    4.836698e-01   1.450426e-02
  4.150132e+00    4.423888e-01   1.393769e-02
  4.152342e+00    4.522667e-01   1.416079e-02
  4.154553e+00    4.405181e-01   1.404179e-02
  4.156763e+00    4.729362e-01   1.462143e-02
  4.158974e+00    4.829603e-01   1.485002e-02
  4.161184e+00    4.562614e-01   1.450522e-02
  4.163395e+00    4.770461e-01   1.490753e-02
  4.165605e+00    4.909678e-01   1.520228e-02
  4.167815e+00    4.481657e-01   1.460056e-02
  4.170026e+00    4.002690e-01   1.387049e-02
  4.172236e+00    4.586121e-01   1.492748e-02
  4.174447e+00    4.248658e-01   1.444610e-02
  4.176657e+00    4.745114e-01   1.535004e-02
  4.178868e+00    4.824984e-01   1.556648e-02
  4.181078e+00    4.668668e-01   1.539832e-02
  4.183289e+00    4.965516e-01   1.597138e-02
  4.185499e+00    5.098289e-01   1.627896e-02
  4.187710e+00    4.577765e-01   1.551606e-02
  4.189920e+00    4.239501e-01   1.502155e-02
  4.192130e+00    4.817389e-01   1.611040e-02
  4.194341e+00    5.258601e-01   1.693547e-02
  4.196551e+00    4.415358e-01   1.561655e-02
  4.198762e+00    4.830342e-01   1.643769e-02
  4.200972e+00    4.470726e-01   1.591603e-02
  4.203183e+00    4.378035e-01   1.585417e-02
  4.205393e+00    4.870835e-01   1.683396e-02
  4.207604e+00    4.811562e-01   1.684550e-02
  4.209814e+00    5.157898e-01   1.756056e-02
  4.212025e+00    4.962433e-01   1.734683e-02
  4.214235e+00    5.324797e-01   1.809644e-02
  4.216445e+00    5.040543e-01   1.773413e-02
  4.218656e+00    4.536651e-01   1.695052e-02
  4.220866e+00    4.326466e-01   1.667563e-02
  4.223077e+00    5.032275e-01   1.812296e-02
  4.225287e+00    4.909786e-01   1.804159e-02
  4.227498e+00    4.670226e-01   1.773411e-02
  4.229708e+00    4.767278e-01   1.806311e-02
  4.231919e+00    4.569466e-01   1.783076e-02
  4.234129e+00    4.516704e-01   1.787611e-02
  4.236340e+00    4.677601e-01   1.834728e-02
  4.238550e+00    5.667401e-01   2.037374e-02
  4.240761e+00    4.744950e-01   1.880700e-02
  4.242971e+00    4.571379e-01   1.862888e-02
  4.245181e+00    5.018317e-01   1.970094e-02
  4.247392e+00    5.200441e-01   2.024350e-02
  4.249602e+00    4.200107e-01   1.837326e-02
  4.251813e+00    4.543809e-01   1.929837e-02
  4.254023e+00    3.966332e-01   1.821224e-02
  4.256234e+00    5.304222e-01   2.128576e-02
  4.258444e+00    4.061574e-01   1.882170e-02
  4.260655e+00    4.395124e-01   1.979414e-02
  4.262865e+00    4.276127e-01   1.974594e-02
  4.265076e+00    4.870030e-01   2.131171e-02
  4.267286e+00    5.459967e-01   2.283372e-02
  4.269496e+00    5.355592e-01   2.289066e-02
  4.271707e+00    4.821165e-01   2.198671e-02
  4.273917e+00    4.300407e-01   2.103351e-02
  4.276128e+00    4.531023e-01   2.187683e-02
  4.278338e+00    5.105695e-01   2.353327e-02
  4.280549e+00    4.276906e-01   2.184778e-02
  4.282759e+00    3.874592e-01   2.109329e-02
  4.284970e+00    4.116007e-01   2.206229e-02
  4.287180e+00    4.618418e-01   2.365001e-02
  4.289391e+00    4.114346e-01   2.248989e-02
  4.291601e+00    4.608003e-01   2.399117e-02
  4.293811e+00    4.372728e-01   2.355330e-02
  4.296022e+00    4.618407e-01   2.439998e-02
  4.298232e+00    4.751619e-01   2.495753e-02
  4.300443e+00    4.115051e-01   2.341672e-02
  4.302653e+00    3.676788e-01   2.232638e-02
  4.304864e+00    5.044830e-01   2.637823e-02
  4.307074e+00    5.360818e-01   2.743669e-02
  4.309285e+00    5.097208e-01   2.699664e-02
  4.311495e+00    4.093587e-01   2.441973e-02
  4.313706e+00    4.055098e-01   2.453294e-02
  4.315916e+00    4.009526e-01   2.463426e-02
  4.318126e+00    4.948403e-01   2.763856e-02
  4.320337e+00    4.580634e-01   2.686059e-02
  4.322547e+00    3.604465e-01   2.407932e-02
  4.324758e+00    4.433108e-01   2.698193e-02
  4.326968e+00    4.536137e-01   2.760128e-02
  4.329179e+00    5.083319e-01   2.954007e-02
  4.331389e+00    5.292864e-01   3.049129e-02
  4.333600e+00    4.038196e-01   2.695058e-02
  4.335810e+00    4.252248e-01   2.798511e-02
  4.338021e+00    3.698882e-01   2.643409e-02
  4.340231e+00    4.341223e-01   2.899710e-02
  4.342442e+00    4.450145e-01   2.975229e-02
  4.344652e+00    4.350925e-01   2.981980e-02
  4.346862e+00    2.785272e-01   2.419212e-02
  4.349073e+00    5.113417e-01   3.325524e-02
  4.351283e+00    4.385682e-01   3.125815e-02
  4.353494e+00    3.903984e-01   2.994800e-02
  4.355704e+00    3.785200e-01   2.996296e-02
  4.357915e+00    4.660894e-01   3.380321e-02
  4.360125e+00    4.191768e-01   3.260355e-02
  4.362336e+00    4.345734e-01   3.380000e-02
  4.364546e+00    5.416442e-01   3.842446e-02
  4.366757e+00    4.664523e-01   3.636738e-02
  4.368967e+00    4.417065e-01   3.609463e-02
  4.371177e+00    5.180922e-01   3.992344e-02
  4.373388e+00    3.741179e-01   3.468262e-02
  4.375598e+00    4.702766e-01   3.977258e-02
  4.377809e+00    4.189071e-01   3.848987e-02
  4.380019e+00    3.224408e-01   3.461498e-02
  4.382230e+00    3.598481e-01   3.759053e-02
  4.384440e+00    2.601924e-01   3.288267e-02
  4.386651e+00    5.341485e-01   4.856870e-02
  4.388861e+00    5.024001e-01   4.868089e-02
  4.391072e+00    6.392105e-01   5.684298e-02
  4.393282e+00    3.077051e-01   4.096467e-02
  4.395492e+00    4.436451e-01   5.122904e-02
  4.397703e+00    4.042217e-01   5.113613e-02
  4.399913e+00    6.824263e-01   6.980510e-02
  4.402124e+00    2.438782e-01   4.409835e-02
  4.404334e+00    3.938898e-01   5.956756e-02
  4.406545e+00    6.539631e-01   8.246741e-02
  4.408755e+00    2.973470e-01   6.030960e-02
  4.410966e+00    2.958223e-01   6.657363e-02
  4.413176e+00    1.741879e-01   5.783463e-02
  4.415387e+00   -5.308473e-01            nan
  4.417597e+00   -2.044852e+00            nan
  4.419807e+00   -3.766224e-01            nan
