# == pyFAI calibration ==
# Distance Sample to Detector: 0.216 m
# PONI: 1.166e-01, 1.308e-01 m
# Rotations: 0.000000 0.000000 0.000000 rad
# 
# == Fit2d calibration ==
# Distance Sample-beamCenter: 216.000 mm
# Center: x=1744.293, y=1555.000 pix
# Tilt: 0.000 deg  TiltPlanRot: 0.000 deg
# 
# Detector Eiger 9M	 PixelSize= 7.500e-05, 7.500e-05 m
#    Detector has a mask: True 
#    Detector has a dark current: False 
#    detector has a flat field: False 
# 
# Wavelength: 9.8e-11 m
# Mask applied: from detector
# Dark current applied: False
# Flat field applied: False
# Polarization factor: None
# Normalization factor: 1.0
# 
# Headers of the input frame:
# {
# "_array_data.header_convention": "SLS_1.0",
# "_array_data.header_contents": "# Detector: Dectris Eiger 9M, S/N E-18-0102\r\n# Pixel_size 75e-6 m x 75e-6 m\r\n# Silicon sensor, thickness 0.000450 m\r\n# Exposure_time 0.024997 s\r\n# Exposure_period 0.025000 s\r\n# Count_cutoff 62318 counts\r\n# Wavelength 0.980106 A\r\n# Detector_distance 0.215992 m\r\n# Beam_xy (1555, 1744) pixels\r\n# Start_angle 0.000000 deg.\r\n# Angle_increment 0.000000 deg.",
# "Content-Type": "application/octet-stream;",
# "conversions": "x-CBF_BYTE_OFFSET",
# "Content-Transfer-Encoding": "BINARY",
# "X-Binary-Size": "10166600",
# "X-Binary-ID": "1",
# "X-Binary-Element-Type": "signed 32-bit integer",
# "X-Binary-Element-Byte-Order": "LITTLE_ENDIAN",
# "Content-MD5": "k2X1R4GF+zre/lqC3eMCKw==",
# "X-Binary-Number-of-Elements": "10166590",
# "X-Binary-Size-Fastest-Dimension": "3110",
# "X-Binary-Size-Second-Dimension": "3269",
# "X-Binary-Size-Padding": "4095"
# }
# --> H:/Proxima2a_2019-04-05/RAW_DATA/C5_gel17_position5/C5_mesh_1_data.cbf/C5_mesh_1_data.cbf000137.dat
#        q_A^-1              I           sigma 
  1.105228e-03    1.076404e+00   5.614028e-01
  3.315685e-03    1.215239e+00   3.626405e-01
  5.526141e-03    1.044225e+00   2.599376e-01
  7.736597e-03    1.432673e+00   2.572135e-01
  9.947054e-03    1.379162e+00   2.224765e-01
  1.215751e-02    1.378983e+00   2.011630e-01
  1.436797e-02    1.280567e+00   1.783105e-01
  1.657842e-02    1.439949e+00   1.760021e-01
  1.878888e-02    1.410363e+00   1.636172e-01
  2.099934e-02    1.347593e+00   1.513148e-01
  2.320979e-02    1.382053e+00   1.457455e-01
  2.542025e-02    1.377279e+00   1.390338e-01
  2.763070e-02    1.480255e+00   1.382479e-01
  2.984116e-02    1.350554e+00   1.270669e-01
  3.205162e-02    1.441993e+00   1.266974e-01
  3.426207e-02    1.430184e+00   1.220312e-01
  3.647253e-02    1.454580e+00   1.192775e-01
  3.868299e-02    1.411162e+00   1.140864e-01
  4.089344e-02    1.465198e+00   1.130652e-01
  4.310390e-02    1.371702e+00   1.065501e-01
  4.531436e-02    1.446055e+00   1.066985e-01
  4.752481e-02    1.371160e+00   1.014526e-01
  4.973527e-02    1.414390e+00   1.007248e-01
  5.194572e-02    1.461053e+00   1.001696e-01
  5.415618e-02    1.472829e+00   9.849517e-02
  5.636664e-02    1.431420e+00   9.518068e-02
  5.857709e-02    1.343794e+00   9.046505e-02
  6.078755e-02    1.397530e+00   9.056030e-02
  6.299801e-02    1.343097e+00   8.720677e-02
  6.520846e-02    1.373688e+00   8.668713e-02
  6.741892e-02    1.533021e+00   9.005833e-02
  6.962938e-02    1.529650e+00   8.852427e-02
  7.183983e-02    1.601354e+00   8.916938e-02
  7.405029e-02    1.619233e+00   8.831532e-02
  7.626074e-02    1.608841e+00   8.674549e-02
  7.847120e-02    1.508388e+00   8.280005e-02
  8.068166e-02    1.479970e+00   8.088439e-02
  8.289211e-02    1.554493e+00   8.178262e-02
  8.510257e-02    1.502586e+00   7.935406e-02
  8.731303e-02    1.505055e+00   7.840449e-02
  8.952348e-02    1.493659e+00   7.713889e-02
  9.173394e-02    1.511995e+00   7.666709e-02
  9.394439e-02    1.585634e+00   7.758017e-02
  9.615485e-02    1.591947e+00   7.683410e-02
  9.836531e-02    1.591281e+00   7.594790e-02
  1.005758e-01    1.604658e+00   7.542419e-02
  1.027862e-01    1.593641e+00   7.435036e-02
  1.049967e-01    1.537012e+00   7.224348e-02
  1.072071e-01    1.462845e+00   6.974769e-02
  1.094176e-01    1.574903e+00   7.163401e-02
  1.116280e-01    1.559266e+00   7.056672e-02
  1.138385e-01    1.513541e+00   6.884468e-02
  1.160490e-01    1.560394e+00   6.923237e-02
  1.182594e-01    1.627559e+00   7.004122e-02
  1.204699e-01    1.608154e+00   6.898019e-02
  1.226803e-01    1.517680e+00   6.640252e-02
  1.248908e-01    1.535777e+00   6.620267e-02
  1.271012e-01    1.556123e+00   6.605646e-02
  1.293117e-01    1.568898e+00   6.575686e-02
  1.315222e-01    1.631860e+00   6.649587e-02
  1.337326e-01    1.644276e+00   6.619316e-02
  1.359431e-01    1.547668e+00   6.425674e-02
  1.381535e-01    1.610860e+00   6.643540e-02
  1.403640e-01    1.555931e+00   6.557478e-02
  1.425744e-01    1.523103e+00   6.498299e-02
  1.447849e-01    1.494498e+00   6.438468e-02
  1.469953e-01    1.575683e+00   6.606894e-02
  1.492058e-01    1.553663e+00   6.552941e-02
  1.514163e-01    1.505093e+00   6.438991e-02
  1.536267e-01    1.508555e+00   6.433806e-02
  1.558372e-01    1.594081e+00   6.599068e-02
  1.580476e-01    1.620904e+00   6.638211e-02
  1.602581e-01    1.624980e+00   6.629670e-02
  1.624685e-01    1.673661e+00   6.709823e-02
  1.646790e-01    1.702118e+00   6.747195e-02
  1.668895e-01    1.700724e+00   6.724955e-02
  1.690999e-01    1.688032e+00   6.679694e-02
  1.713104e-01    1.657060e+00   6.597594e-02
  1.735208e-01    1.694205e+00   6.650385e-02
  1.757313e-01    1.747916e+00   6.733810e-02
  1.779417e-01    1.832262e+00   6.871881e-02
  1.801522e-01    1.815351e+00   6.818312e-02
  1.823626e-01    1.822954e+00   6.809827e-02
  1.845731e-01    1.889523e+00   6.910592e-02
  1.867836e-01    1.943714e+00   6.985334e-02
  1.889940e-01    1.976009e+00   7.020111e-02
  1.912045e-01    1.982025e+00   7.007311e-02
  1.934149e-01    1.953908e+00   6.934147e-02
  1.956254e-01    1.957703e+00   6.917982e-02
  1.978358e-01    2.075572e+00   7.098789e-02
  2.000463e-01    2.081138e+00   7.084743e-02
  2.022568e-01    2.104783e+00   7.101493e-02
  2.044672e-01    2.037986e+00   6.963960e-02
  2.066777e-01    1.972789e+00   6.828924e-02
  2.088881e-01    1.906885e+00   6.691919e-02
  2.110986e-01    1.924481e+00   6.699673e-02
  2.133090e-01    1.951023e+00   6.723782e-02
  2.155195e-01    1.996495e+00   6.779127e-02
  2.177300e-01    1.901183e+00   6.563360e-02
  2.199404e-01    1.932438e+00   6.442729e-02
  2.221509e-01    1.996665e+00   6.441385e-02
  2.243613e-01    2.016027e+00   6.390489e-02
  2.265718e-01    2.022109e+00   6.329575e-02
  2.287822e-01    2.120552e+00   6.417663e-02
  2.309927e-01    2.011819e+00   6.194018e-02
  2.332031e-01    2.064663e+00   6.221132e-02
  2.354136e-01    2.171981e+00   6.329051e-02
  2.376241e-01    2.221224e+00   6.350715e-02
  2.398345e-01    2.219815e+00   6.301717e-02
  2.420450e-01    2.269410e+00   6.326187e-02
  2.442554e-01    2.167227e+00   6.139537e-02
  2.464659e-01    2.107755e+00   6.014059e-02
  2.486763e-01    2.150287e+00   6.034507e-02
  2.508868e-01    2.130831e+00   5.969248e-02
  2.530973e-01    2.120074e+00   5.917248e-02
  2.553077e-01    2.106485e+00   5.862475e-02
  2.575182e-01    2.187421e+00   5.938692e-02
  2.597286e-01    2.163374e+00   5.871631e-02
  2.619391e-01    1.994779e+00   5.605736e-02
  2.641495e-01    1.992337e+00   5.571297e-02
  2.663600e-01    2.061425e+00   5.635907e-02
  2.685704e-01    2.081020e+00   5.631932e-02
  2.707809e-01    2.140745e+00   5.681862e-02
  2.729914e-01    2.016590e+00   5.485899e-02
  2.752018e-01    2.013718e+00   5.453457e-02
  2.774123e-01    2.046736e+00   5.469901e-02
  2.796227e-01    2.078480e+00   5.484888e-02
  2.818332e-01    2.039059e+00   5.405525e-02
  2.840436e-01    2.057473e+00   5.403557e-02
  2.862541e-01    1.994851e+00   5.295113e-02
  2.884646e-01    1.972072e+00   5.239807e-02
  2.906750e-01    2.008230e+00   5.262554e-02
  2.928855e-01    1.973575e+00   5.192777e-02
  2.950959e-01    1.989177e+00   5.189315e-02
  2.973064e-01    1.949110e+00   5.113700e-02
  2.995168e-01    1.924388e+00   5.058152e-02
  3.017273e-01    1.920384e+00   5.030610e-02
  3.039377e-01    1.978608e+00   5.083941e-02
  3.061482e-01    1.958072e+00   5.035613e-02
  3.083587e-01    1.945037e+00   4.997098e-02
  3.105691e-01    1.914632e+00   4.936712e-02
  3.127796e-01    1.876060e+00   4.866188e-02
  3.149900e-01    1.847476e+00   4.808851e-02
  3.172005e-01    1.887994e+00   4.841423e-02
  3.194109e-01    1.886060e+00   4.818964e-02
  3.216214e-01    1.981059e+00   4.918686e-02
  3.238319e-01    1.912568e+00   4.813764e-02
  3.260423e-01    1.916865e+00   4.799972e-02
  3.282528e-01    1.881592e+00   4.736672e-02
  3.304632e-01    1.913631e+00   4.758324e-02
  3.326737e-01    1.856376e+00   4.668316e-02
  3.348841e-01    1.833316e+00   4.621238e-02
  3.370946e-01    1.831118e+00   4.601092e-02
  3.393050e-01    1.821670e+00   4.571820e-02
  3.415155e-01    1.886353e+00   4.634788e-02
  3.437260e-01    1.887416e+00   4.618910e-02
  3.459364e-01    1.897221e+00   4.613760e-02
  3.481469e-01    1.850691e+00   4.540202e-02
  3.503573e-01    1.854041e+00   4.527752e-02
  3.525678e-01    1.825193e+00   4.476382e-02
  3.547782e-01    1.855977e+00   4.497657e-02
  3.569887e-01    1.831435e+00   4.451993e-02
  3.591992e-01    1.820918e+00   4.423482e-02
  3.614096e-01    1.822498e+00   4.410057e-02
  3.636201e-01    1.820618e+00   4.392294e-02
  3.658305e-01    1.789177e+00   4.339349e-02
  3.680410e-01    1.792460e+00   4.328390e-02
  3.702514e-01    1.838101e+00   4.368408e-02
  3.724619e-01    1.794517e+00   4.301612e-02
  3.746724e-01    1.749226e+00   4.232809e-02
  3.768828e-01    1.787188e+00   4.264097e-02
  3.790933e-01    1.782393e+00   4.244496e-02
  3.813037e-01    1.796398e+00   4.247197e-02
  3.835142e-01    1.867488e+00   4.316195e-02
  3.857246e-01    1.863482e+00   4.297614e-02
  3.879351e-01    1.775164e+00   4.180959e-02
  3.901455e-01    1.792654e+00   4.188127e-02
  3.923560e-01    1.810010e+00   4.194979e-02
  3.945665e-01    1.837696e+00   4.213537e-02
  3.967769e-01    1.793382e+00   4.149389e-02
  3.989874e-01    1.779878e+00   4.120830e-02
  4.011978e-01    1.801122e+00   4.132600e-02
  4.034083e-01    1.840057e+00   4.164206e-02
  4.056187e-01    1.848792e+00   4.161221e-02
  4.078292e-01    1.830884e+00   4.128488e-02
  4.100397e-01    1.812693e+00   4.095381e-02
  4.122501e-01    1.788038e+00   4.055270e-02
  4.144606e-01    1.732885e+00   3.980394e-02
  4.166710e-01    1.750044e+00   3.988161e-02
  4.188815e-01    1.816602e+00   4.051287e-02
  4.210919e-01    1.837604e+00   4.062700e-02
  4.233024e-01    1.821346e+00   4.032790e-02
  4.255128e-01    1.851527e+00   4.054314e-02
  4.277233e-01    1.781016e+00   3.964938e-02
  4.299338e-01    1.799121e+00   3.973574e-02
  4.321442e-01    1.783010e+00   3.944424e-02
  4.343547e-01    1.767046e+00   3.915622e-02
  4.365651e-01    1.798674e+00   3.939286e-02
  4.387756e-01    1.703909e+00   3.823374e-02
  4.409860e-01    1.677171e+00   3.782747e-02
  4.431965e-01    1.711440e+00   3.810629e-02
  4.454070e-01    1.778518e+00   3.873783e-02
  4.476174e-01    1.776444e+00   3.860893e-02
  4.498279e-01    1.710579e+00   3.778334e-02
  4.520383e-01    1.756449e+00   3.818151e-02
  4.542488e-01    1.757727e+00   3.809239e-02
  4.564592e-01    1.725586e+00   3.764128e-02
  4.586697e-01    1.744239e+00   3.774372e-02
  4.608801e-01    1.715086e+00   3.732673e-02
  4.630906e-01    1.713797e+00   3.721388e-02
  4.653011e-01    1.774304e+00   3.776556e-02
  4.675115e-01    1.704801e+00   3.692101e-02
  4.697220e-01    1.674842e+00   3.649934e-02
  4.719324e-01    1.732517e+00   3.702642e-02
  4.741429e-01    1.727566e+00   3.687823e-02
  4.763533e-01    1.727467e+00   3.678263e-02
  4.785638e-01    1.700339e+00   3.639839e-02
  4.807743e-01    1.713140e+00   3.644224e-02
  4.829847e-01    1.671372e+00   3.590434e-02
  4.851952e-01    1.645071e+00   3.553055e-02
  4.874056e-01    1.717904e+00   3.621702e-02
  4.896161e-01    1.676246e+00   3.568652e-02
  4.918265e-01    1.717097e+00   3.602901e-02
  4.940370e-01    1.692356e+00   3.568023e-02
  4.962475e-01    1.659236e+00   3.524211e-02
  4.984579e-01    1.690668e+00   3.548666e-02
  5.006684e-01    1.743190e+00   3.594581e-02
  5.028788e-01    1.702245e+00   3.543510e-02
  5.050893e-01    1.676935e+00   3.508510e-02
  5.072997e-01    1.681558e+00   3.504860e-02
  5.095102e-01    1.688351e+00   3.503519e-02
  5.117206e-01    1.659805e+00   3.465516e-02
  5.139311e-01    1.664264e+00   3.461955e-02
  5.161416e-01    1.684727e+00   3.474941e-02
  5.183520e-01    1.660024e+00   3.441175e-02
  5.205625e-01    1.618687e+00   3.390098e-02
  5.227729e-01    1.679626e+00   3.445268e-02
  5.249834e-01    1.654632e+00   3.411602e-02
  5.271938e-01    1.641659e+00   3.390268e-02
  5.294043e-01    1.742221e+00   3.484504e-02
  5.316148e-01    1.781196e+00   3.515195e-02
  5.338252e-01    1.780619e+00   3.506593e-02
  5.360357e-01    1.785790e+00   3.503686e-02
  5.382461e-01    1.739200e+00   3.449866e-02
  5.404566e-01    1.732368e+00   3.435244e-02
  5.426670e-01    1.777585e+00   3.471949e-02
  5.448775e-01    1.785543e+00   3.471938e-02
  5.470879e-01    1.784907e+00   3.463579e-02
  5.492984e-01    1.795624e+00   3.466235e-02
  5.515089e-01    1.779584e+00   3.443067e-02
  5.537193e-01    1.789400e+00   3.444943e-02
  5.559298e-01    1.761700e+00   3.410678e-02
  5.581402e-01    1.773206e+00   3.414319e-02
  5.603507e-01    1.810183e+00   3.442229e-02
  5.625611e-01    1.814587e+00   3.438934e-02
  5.647716e-01    1.800380e+00   3.418009e-02
  5.669821e-01    1.769328e+00   3.381100e-02
  5.691925e-01    1.802867e+00   3.405668e-02
  5.714030e-01    1.790676e+00   3.386898e-02
  5.736134e-01    1.761383e+00   3.351938e-02
  5.758239e-01    1.710389e+00   3.296009e-02
  5.780343e-01    1.703046e+00   3.281968e-02
  5.802448e-01    1.673058e+00   3.246137e-02
  5.824552e-01    1.583926e+00   3.151857e-02
  5.846657e-01    1.638490e+00   3.199001e-02
  5.868762e-01    1.647126e+00   3.200745e-02
  5.890866e-01    1.607825e+00   3.155769e-02
  5.912971e-01    1.605744e+00   3.147194e-02
  5.935075e-01    1.618116e+00   3.152768e-02
  5.957180e-01    1.612157e+00   3.140499e-02
  5.979284e-01    1.632943e+00   3.154228e-02
  6.001389e-01    1.668380e+00   3.181777e-02
  6.023494e-01    1.644048e+00   3.152080e-02
  6.045598e-01    1.633185e+00   3.135250e-02
  6.067703e-01    1.669328e+00   3.163378e-02
  6.089807e-01    1.679224e+00   3.166363e-02
  6.111912e-01    1.652837e+00   3.135113e-02
  6.134016e-01    1.650909e+00   3.127037e-02
  6.156121e-01    1.655088e+00   3.124767e-02
  6.178226e-01    1.670467e+00   3.133035e-02
  6.200330e-01    1.664923e+00   3.121662e-02
  6.222435e-01    1.650717e+00   3.102159e-02
  6.244539e-01    1.662580e+00   3.107188e-02
  6.266644e-01    1.726439e+00   3.160124e-02
  6.288748e-01    1.763893e+00   3.188002e-02
  6.310853e-01    1.738973e+00   3.159256e-02
  6.332957e-01    1.716598e+00   3.132806e-02
  6.355062e-01    1.730761e+00   3.139590e-02
  6.377167e-01    1.734463e+00   3.136917e-02
  6.399271e-01    1.736715e+00   3.132938e-02
  6.421376e-01    1.744800e+00   3.134229e-02
  6.443480e-01    1.671679e+00   3.062015e-02
  6.465585e-01    1.678453e+00   3.062401e-02
  6.487689e-01    1.681868e+00   3.059724e-02
  6.509794e-01    1.697370e+00   3.067997e-02
  6.531899e-01    1.629137e+00   3.000047e-02
  6.554003e-01    1.612305e+00   2.978896e-02
  6.576108e-01    1.638924e+00   2.997795e-02
  6.598212e-01    1.602782e+00   2.959049e-02
  6.620317e-01    1.586109e+00   2.938161e-02
  6.642421e-01    1.590919e+00   2.937168e-02
  6.664526e-01    1.611388e+00   2.950556e-02
  6.686630e-01    1.618619e+00   2.951703e-02
  6.708735e-01    1.613847e+00   2.941940e-02
  6.730840e-01    1.619145e+00   2.941395e-02
  6.752944e-01    1.603288e+00   2.921633e-02
  6.775049e-01    1.600667e+00   2.913943e-02
  6.797153e-01    1.585738e+00   2.895072e-02
  6.819258e-01    1.603192e+00   2.905708e-02
  6.841362e-01    1.615871e+00   2.911933e-02
  6.863467e-01    1.581950e+00   2.876044e-02
  6.885572e-01    1.608779e+00   2.895134e-02
  6.907676e-01    1.565130e+00   2.850471e-02
  6.929781e-01    1.555779e+00   2.836892e-02
  6.951885e-01    1.569252e+00   2.844103e-02
  6.973990e-01    1.574286e+00   2.843625e-02
  6.996094e-01    1.556136e+00   2.822211e-02
  7.018199e-01    1.585605e+00   2.843807e-02
  7.040303e-01    1.607259e+00   2.858131e-02
  7.062408e-01    1.587245e+00   2.835307e-02
  7.084513e-01    1.549861e+00   2.796843e-02
  7.106617e-01    1.572095e+00   2.811938e-02
  7.128722e-01    1.590951e+00   2.823858e-02
  7.150826e-01    1.577128e+00   2.806717e-02
  7.172931e-01    1.592144e+00   2.815186e-02
  7.195035e-01    1.581813e+00   2.801213e-02
  7.217140e-01    1.555815e+00   2.783015e-02
  7.239245e-01    1.570396e+00   2.818665e-02
  7.261349e-01    1.574171e+00   2.832915e-02
  7.283454e-01    1.556392e+00   2.824066e-02
  7.305558e-01    1.555550e+00   2.828670e-02
  7.327663e-01    1.529813e+00   2.809361e-02
  7.349767e-01    1.535680e+00   2.816360e-02
  7.371872e-01    1.568043e+00   2.844765e-02
  7.393976e-01    1.546237e+00   2.823503e-02
  7.416081e-01    1.570467e+00   2.843924e-02
  7.438186e-01    1.596897e+00   2.853221e-02
  7.460290e-01    1.557418e+00   2.788470e-02
  7.482395e-01    1.570370e+00   2.782945e-02
  7.504499e-01    1.591728e+00   2.788106e-02
  7.526604e-01    1.581989e+00   2.767882e-02
  7.548708e-01    1.560361e+00   2.739995e-02
  7.570813e-01    1.583316e+00   2.754963e-02
  7.592918e-01    1.620747e+00   2.783771e-02
  7.615022e-01    1.566469e+00   2.733388e-02
  7.637127e-01    1.551509e+00   2.717053e-02
  7.659231e-01    1.546047e+00   2.709092e-02
  7.681336e-01    1.593150e+00   2.746874e-02
  7.703440e-01    1.585180e+00   2.736863e-02
  7.725545e-01    1.568170e+00   2.719055e-02
  7.747650e-01    1.639798e+00   2.776562e-02
  7.769754e-01    1.579834e+00   2.720049e-02
  7.791859e-01    1.559230e+00   2.696927e-02
  7.813963e-01    1.581238e+00   2.710632e-02
  7.836068e-01    1.585898e+00   2.709422e-02
  7.858172e-01    1.598944e+00   2.715456e-02
  7.880277e-01    1.599754e+00   2.710978e-02
  7.902381e-01    1.596169e+00   2.703019e-02
  7.924486e-01    1.582566e+00   2.686490e-02
  7.946591e-01    1.634374e+00   2.725227e-02
  7.968695e-01    1.632949e+00   2.719169e-02
  7.990800e-01    1.623006e+00   2.706030e-02
  8.012904e-01    1.638300e+00   2.714048e-02
  8.035009e-01    1.662892e+00   2.729477e-02
  8.057113e-01    1.628702e+00   2.696601e-02
  8.079218e-01    1.638087e+00   2.699690e-02
  8.101323e-01    1.621887e+00   2.681749e-02
  8.123427e-01    1.635277e+00   2.688202e-02
  8.145532e-01    1.646214e+00   2.692564e-02
  8.167636e-01    1.642276e+00   2.684819e-02
  8.189741e-01    1.647186e+00   2.684346e-02
  8.211845e-01    1.656196e+00   2.687167e-02
  8.233950e-01    1.679652e+00   2.701728e-02
  8.256054e-01    1.662138e+00   2.683152e-02
  8.278159e-01    1.662323e+00   2.678871e-02
  8.300264e-01    1.671482e+00   2.681889e-02
  8.322368e-01    1.672050e+00   2.677988e-02
  8.344473e-01    1.659731e+00   2.663741e-02
  8.366577e-01    1.679593e+00   2.675319e-02
  8.388682e-01    1.662740e+00   2.657611e-02
  8.410786e-01    1.650916e+00   2.643923e-02
  8.432891e-01    1.605692e+00   2.603318e-02
  8.454996e-01    1.638361e+00   2.625503e-02
  8.477100e-01    1.657078e+00   2.636268e-02
  8.499205e-01    1.728102e+00   2.687944e-02
  8.521309e-01    1.688660e+00   2.652952e-02
  8.543414e-01    1.644015e+00   2.613562e-02
  8.565518e-01    1.638714e+00   2.605282e-02
  8.587623e-01    1.646757e+00   2.607601e-02
  8.609727e-01    1.662802e+00   2.616211e-02
  8.631832e-01    1.632269e+00   2.588085e-02
  8.653937e-01    1.606753e+00   2.563829e-02
  8.676041e-01    1.624056e+00   2.573708e-02
  8.698146e-01    1.618521e+00   2.565392e-02
  8.720250e-01    1.596963e+00   2.544365e-02
  8.742355e-01    1.616436e+00   2.555933e-02
  8.764459e-01    1.603975e+00   2.542179e-02
  8.786564e-01    1.613093e+00   2.545594e-02
  8.808669e-01    1.616459e+00   2.544386e-02
  8.830773e-01    1.584344e+00   2.515190e-02
  8.852878e-01    1.634750e+00   2.551058e-02
  8.874982e-01    1.592287e+00   2.514055e-02
  8.897087e-01    1.547094e+00   2.474415e-02
  8.919191e-01    1.576850e+00   2.494349e-02
  8.941296e-01    1.561226e+00   2.478280e-02
  8.963401e-01    1.591661e+00   2.498684e-02
  8.985505e-01    1.644442e+00   2.536030e-02
  9.007610e-01    1.633803e+00   2.524100e-02
  9.029714e-01    1.628775e+00   2.516598e-02
  9.051819e-01    1.577583e+00   2.473038e-02
  9.073923e-01    1.587477e+00   2.477137e-02
  9.096028e-01    1.593887e+00   2.478649e-02
  9.118132e-01    1.571563e+00   2.457640e-02
  9.140237e-01    1.570138e+00   2.452897e-02
  9.162342e-01    1.599623e+00   2.472364e-02
  9.184446e-01    1.588633e+00   2.460297e-02
  9.206551e-01    1.544580e+00   2.422446e-02
  9.228655e-01    1.553154e+00   2.425688e-02
  9.250760e-01    1.610609e+00   2.466601e-02
  9.272864e-01    1.639908e+00   2.485470e-02
  9.294969e-01    1.638848e+00   2.481045e-02
  9.317074e-01    1.623132e+00   2.465633e-02
  9.339178e-01    1.601119e+00   2.445511e-02
  9.361283e-01    1.603712e+00   2.443883e-02
  9.383387e-01    1.601731e+00   2.439048e-02
  9.405492e-01    1.665554e+00   2.483696e-02
  9.427596e-01    1.675282e+00   2.487353e-02
  9.449701e-01    1.677306e+00   2.485473e-02
  9.471805e-01    1.654187e+00   2.464789e-02
  9.493910e-01    1.711816e+00   2.503912e-02
  9.516015e-01    1.725781e+00   2.510598e-02
  9.538119e-01    1.721755e+00   2.504230e-02
  9.560224e-01    1.744515e+00   2.517180e-02
  9.582328e-01    1.713353e+00   2.491251e-02
  9.604433e-01    1.697081e+00   2.475880e-02
  9.626537e-01    1.741987e+00   2.505052e-02
  9.648642e-01    1.741989e+00   2.501621e-02
  9.670747e-01    1.777147e+00   2.523255e-02
  9.692851e-01    1.764385e+00   2.510838e-02
  9.714956e-01    1.789707e+00   2.525223e-02
  9.737060e-01    1.818655e+00   2.542222e-02
  9.759165e-01    1.811098e+00   2.533356e-02
  9.781269e-01    1.872086e+00   2.572289e-02
  9.803374e-01    1.860681e+00   2.560896e-02
  9.825478e-01    1.809872e+00   2.522358e-02
  9.847583e-01    1.799633e+00   2.511795e-02
  9.869688e-01    1.817063e+00   2.520554e-02
  9.891792e-01    1.760192e+00   2.477498e-02
  9.913897e-01    1.723185e+00   2.448008e-02
  9.936001e-01    1.696212e+00   2.425593e-02
  9.958106e-01    1.686482e+00   2.415339e-02
  9.980210e-01    1.671835e+00   2.401707e-02
  1.000231e+00    1.652866e+00   2.401124e-02
  1.002442e+00    1.658790e+00   2.418203e-02
  1.004652e+00    1.653976e+00   2.421429e-02
  1.006863e+00    1.631212e+00   2.409697e-02
  1.009073e+00    1.606025e+00   2.394681e-02
  1.011284e+00    1.584748e+00   2.381946e-02
  1.013494e+00    1.598073e+00   2.394309e-02
  1.015705e+00    1.627103e+00   2.418242e-02
  1.017915e+00    1.615153e+00   2.411007e-02
  1.020126e+00    1.562848e+00   2.373251e-02
  1.022336e+00    1.547412e+00   2.362664e-02
  1.024547e+00    1.537280e+00   2.356033e-02
  1.026757e+00    1.559498e+00   2.373836e-02
  1.028967e+00    1.592437e+00   2.399556e-02
  1.031178e+00    1.592634e+00   2.400333e-02
  1.033388e+00    1.620992e+00   2.422126e-02
  1.035599e+00    1.606755e+00   2.411821e-02
  1.037809e+00    1.557014e+00   2.374523e-02
  1.040020e+00    1.573801e+00   2.387418e-02
  1.042230e+00    1.609551e+00   2.414579e-02
  1.044441e+00    1.695005e+00   2.477826e-02
  1.046651e+00    1.685462e+00   2.470861e-02
  1.048862e+00    1.650712e+00   2.445173e-02
  1.051072e+00    1.616923e+00   2.419774e-02
  1.053282e+00    1.601280e+00   2.407942e-02
  1.055493e+00    1.591942e+00   2.400466e-02
  1.057703e+00    1.581087e+00   2.392112e-02
  1.059914e+00    1.569283e+00   2.382728e-02
  1.062124e+00    1.542134e+00   2.361616e-02
  1.064335e+00    1.538421e+00   2.358419e-02
  1.066545e+00    1.521163e+00   2.344547e-02
  1.068756e+00    1.513039e+00   2.337901e-02
  1.070966e+00    1.515792e+00   2.339363e-02
  1.073177e+00    1.526238e+00   2.346796e-02
  1.075387e+00    1.497762e+00   2.324272e-02
  1.077597e+00    1.456201e+00   2.291075e-02
  1.079808e+00    1.487930e+00   2.302516e-02
  1.082018e+00    1.508661e+00   2.299303e-02
  1.084229e+00    1.453909e+00   2.246216e-02
  1.086439e+00    1.444610e+00   2.230307e-02
  1.088650e+00    1.458503e+00   2.233430e-02
  1.090860e+00    1.449132e+00   2.219492e-02
  1.093071e+00    1.443153e+00   2.208705e-02
  1.095281e+00    1.429654e+00   2.192661e-02
  1.097492e+00    1.408050e+00   2.170608e-02
  1.099702e+00    1.414652e+00   2.170599e-02
  1.101912e+00    1.435416e+00   2.181593e-02
  1.104123e+00    1.459133e+00   2.194680e-02
  1.106333e+00    1.424979e+00   2.164415e-02
  1.108544e+00    1.415205e+00   2.152573e-02
  1.110754e+00    1.417749e+00   2.150219e-02
  1.112965e+00    1.443335e+00   2.165451e-02
  1.115175e+00    1.424839e+00   2.147407e-02
  1.117386e+00    1.418937e+00   2.139023e-02
  1.119596e+00    1.409904e+00   2.128420e-02
  1.121807e+00    1.393727e+00   2.112314e-02
  1.124017e+00    1.401778e+00   2.114749e-02
  1.126228e+00    1.426520e+00   2.129726e-02
  1.128438e+00    1.408232e+00   2.112348e-02
  1.130648e+00    1.358962e+00   2.071682e-02
  1.132859e+00    1.360660e+00   2.069582e-02
  1.135069e+00    1.424398e+00   2.113989e-02
  1.137280e+00    1.387054e+00   2.082800e-02
  1.139490e+00    1.352344e+00   2.053308e-02
  1.141701e+00    1.381360e+00   2.071909e-02
  1.143911e+00    1.410050e+00   2.090101e-02
  1.146122e+00    1.395444e+00   2.076030e-02
  1.148332e+00    1.381508e+00   2.062446e-02
  1.150543e+00    1.379427e+00   2.057806e-02
  1.152753e+00    1.391838e+00   2.063942e-02
  1.154963e+00    1.378043e+00   2.050579e-02
  1.157174e+00    1.358060e+00   2.032657e-02
  1.159384e+00    1.353700e+00   2.026427e-02
  1.161595e+00    1.362253e+00   2.029842e-02
  1.163805e+00    1.357949e+00   2.023718e-02
  1.166016e+00    1.365200e+00   2.026175e-02
  1.168226e+00    1.360474e+00   2.019775e-02
  1.170437e+00    1.378251e+00   2.030052e-02
  1.172647e+00    1.389997e+00   2.035771e-02
  1.174858e+00    1.376888e+00   2.023326e-02
  1.177068e+00    1.340428e+00   1.993555e-02
  1.179278e+00    1.355472e+00   2.001859e-02
  1.181489e+00    1.340538e+00   1.988119e-02
  1.183699e+00    1.334546e+00   1.980938e-02
  1.185910e+00    1.350372e+00   1.989879e-02
  1.188120e+00    1.371409e+00   2.002637e-02
  1.190331e+00    1.368464e+00   1.997794e-02
  1.192541e+00    1.385987e+00   2.007777e-02
  1.194752e+00    1.370359e+00   1.993703e-02
  1.196962e+00    1.373652e+00   1.993501e-02
  1.199173e+00    1.349259e+00   1.973073e-02
  1.201383e+00    1.356282e+00   1.975479e-02
  1.203593e+00    1.375198e+00   1.986702e-02
  1.205804e+00    1.356792e+00   1.970765e-02
  1.208014e+00    1.342927e+00   1.957990e-02
  1.210225e+00    1.358142e+00   1.966510e-02
  1.212435e+00    1.361645e+00   1.966554e-02
  1.214646e+00    1.367986e+00   1.968502e-02
  1.216856e+00    1.350267e+00   1.953163e-02
  1.219067e+00    1.344048e+00   1.946219e-02
  1.221277e+00    1.352151e+00   1.949571e-02
  1.223488e+00    1.332566e+00   1.932844e-02
  1.225698e+00    1.367937e+00   1.955619e-02
  1.227909e+00    1.366762e+00   1.951744e-02
  1.230119e+00    1.353886e+00   1.939339e-02
  1.232329e+00    1.353698e+00   1.936128e-02
  1.234540e+00    1.319942e+00   1.908842e-02
  1.236750e+00    1.339188e+00   1.919691e-02
  1.238961e+00    1.354866e+00   1.928195e-02
  1.241171e+00    1.360712e+00   1.929922e-02
  1.243382e+00    1.342548e+00   1.914655e-02
  1.245592e+00    1.314754e+00   1.892352e-02
  1.247803e+00    1.316609e+00   1.891351e-02
  1.250013e+00    1.319565e+00   1.891145e-02
  1.252224e+00    1.332735e+00   1.898249e-02
  1.254434e+00    1.331300e+00   1.894869e-02
  1.256644e+00    1.371709e+00   1.921072e-02
  1.258855e+00    1.366825e+00   1.915310e-02
  1.261065e+00    1.336502e+00   1.891618e-02
  1.263276e+00    1.375162e+00   1.916465e-02
  1.265486e+00    1.382314e+00   1.919129e-02
  1.267697e+00    1.372609e+00   1.910060e-02
  1.269907e+00    1.362804e+00   1.900944e-02
  1.272118e+00    1.343554e+00   1.885220e-02
  1.274328e+00    1.310588e+00   1.859707e-02
  1.276539e+00    1.346126e+00   1.882475e-02
  1.278749e+00    1.335191e+00   1.872600e-02
  1.280959e+00    1.344211e+00   1.876664e-02
  1.283170e+00    1.377194e+00   1.897283e-02
  1.285380e+00    1.379256e+00   1.896434e-02
  1.287591e+00    1.373314e+00   1.890123e-02
  1.289801e+00    1.354717e+00   1.875156e-02
  1.292012e+00    1.355214e+00   1.873787e-02
  1.294222e+00    1.333542e+00   1.857129e-02
  1.296433e+00    1.374818e+00   1.884077e-02
  1.298643e+00    1.378014e+00   1.884602e-02
  1.300854e+00    1.377538e+00   1.882619e-02
  1.303064e+00    1.343930e+00   1.857594e-02
  1.305274e+00    1.366876e+00   1.871226e-02
  1.307485e+00    1.382636e+00   1.879804e-02
  1.309695e+00    1.363039e+00   1.864199e-02
  1.311906e+00    1.354862e+00   1.856425e-02
  1.314116e+00    1.329554e+00   1.836942e-02
  1.316327e+00    1.358285e+00   1.854505e-02
  1.318537e+00    1.364824e+00   1.856765e-02
  1.320748e+00    1.378927e+00   1.864155e-02
  1.322958e+00    1.365865e+00   1.853242e-02
  1.325169e+00    1.357623e+00   1.845533e-02
  1.327379e+00    1.381891e+00   1.859747e-02
  1.329589e+00    1.376995e+00   1.854323e-02
  1.331800e+00    1.354392e+00   1.836970e-02
  1.334010e+00    1.359236e+00   1.838176e-02
  1.336221e+00    1.359644e+00   1.836272e-02
  1.338431e+00    1.345516e+00   1.824622e-02
  1.340642e+00    1.355298e+00   1.837672e-02
  1.342852e+00    1.370431e+00   1.858047e-02
  1.345063e+00    1.339381e+00   1.841806e-02
  1.347273e+00    1.356883e+00   1.857333e-02
  1.349484e+00    1.352593e+00   1.857166e-02
  1.351694e+00    1.357033e+00   1.862487e-02
  1.353905e+00    1.344937e+00   1.855966e-02
  1.356115e+00    1.321056e+00   1.840902e-02
  1.358325e+00    1.305132e+00   1.831084e-02
  1.360536e+00    1.308872e+00   1.834848e-02
  1.362746e+00    1.327067e+00   1.848506e-02
  1.364957e+00    1.343105e+00   1.860408e-02
  1.367167e+00    1.348306e+00   1.864721e-02
  1.369378e+00    1.369894e+00   1.880197e-02
  1.371588e+00    1.365370e+00   1.877609e-02
  1.373799e+00    1.296959e+00   1.830330e-02
  1.376009e+00    1.301159e+00   1.833620e-02
  1.378220e+00    1.308474e+00   1.839021e-02
  1.380430e+00    1.340880e+00   1.861922e-02
  1.382640e+00    1.336389e+00   1.858898e-02
  1.384851e+00    1.287062e+00   1.824353e-02
  1.387061e+00    1.299242e+00   1.832993e-02
  1.389272e+00    1.300664e+00   1.834018e-02
  1.391482e+00    1.319615e+00   1.847262e-02
  1.393693e+00    1.284631e+00   1.822525e-02
  1.395903e+00    1.279314e+00   1.818599e-02
  1.398114e+00    1.290964e+00   1.826723e-02
  1.400324e+00    1.281591e+00   1.819867e-02
  1.402535e+00    1.256412e+00   1.801671e-02
  1.404745e+00    1.265615e+00   1.808021e-02
  1.406955e+00    1.269234e+00   1.810337e-02
  1.409166e+00    1.270845e+00   1.811154e-02
  1.411376e+00    1.249776e+00   1.795769e-02
  1.413587e+00    1.249119e+00   1.794919e-02
  1.415797e+00    1.261993e+00   1.803792e-02
  1.418008e+00    1.256286e+00   1.795544e-02
  1.420218e+00    1.275944e+00   1.794529e-02
  1.422429e+00    1.288832e+00   1.794975e-02
  1.424639e+00    1.282683e+00   1.784188e-02
  1.426850e+00    1.269405e+00   1.769461e-02
  1.429060e+00    1.262140e+00   1.759505e-02
  1.431270e+00    1.280032e+00   1.767484e-02
  1.433481e+00    1.274251e+00   1.759388e-02
  1.435691e+00    1.276815e+00   1.757302e-02
  1.437902e+00    1.283706e+00   1.758373e-02
  1.440112e+00    1.269072e+00   1.744788e-02
  1.442323e+00    1.274042e+00   1.744892e-02
  1.444533e+00    1.250611e+00   1.725541e-02
  1.446744e+00    1.259525e+00   1.728582e-02
  1.448954e+00    1.244955e+00   1.715564e-02
  1.451165e+00    1.258817e+00   1.722125e-02
  1.453375e+00    1.284114e+00   1.736524e-02
  1.455586e+00    1.294461e+00   1.740661e-02
  1.457796e+00    1.280477e+00   1.728474e-02
  1.460006e+00    1.257556e+00   1.710220e-02
  1.462217e+00    1.280164e+00   1.722892e-02
  1.464427e+00    1.284393e+00   1.723160e-02
  1.466638e+00    1.279424e+00   1.717282e-02
  1.468848e+00    1.283253e+00   1.717301e-02
  1.471059e+00    1.294327e+00   1.722162e-02
  1.473269e+00    1.306803e+00   1.727969e-02
  1.475480e+00    1.270406e+00   1.701357e-02
  1.477690e+00    1.268335e+00   1.697586e-02
  1.479901e+00    1.253293e+00   1.685119e-02
  1.482111e+00    1.266596e+00   1.691707e-02
  1.484321e+00    1.261448e+00   1.685960e-02
  1.486532e+00    1.257545e+00   1.681122e-02
  1.488742e+00    1.274811e+00   1.690351e-02
  1.490953e+00    1.295063e+00   1.701437e-02
  1.493163e+00    1.285374e+00   1.692814e-02
  1.495374e+00    1.284362e+00   1.689980e-02
  1.497584e+00    1.266311e+00   1.675893e-02
  1.499795e+00    1.270567e+00   1.676532e-02
  1.502005e+00    1.284122e+00   1.683264e-02
  1.504216e+00    1.269656e+00   1.671643e-02
  1.506426e+00    1.263413e+00   1.665442e-02
  1.508636e+00    1.246700e+00   1.652354e-02
  1.510847e+00    1.263217e+00   1.661076e-02
  1.513057e+00    1.265000e+00   1.659730e-02
  1.515268e+00    1.242222e+00   1.642160e-02
  1.517478e+00    1.260507e+00   1.651681e-02
  1.519689e+00    1.257423e+00   1.647158e-02
  1.521899e+00    1.286153e+00   1.663531e-02
  1.524110e+00    1.265501e+00   1.648077e-02
  1.526320e+00    1.273721e+00   1.651445e-02
  1.528531e+00    1.257035e+00   1.638611e-02
  1.530741e+00    1.254881e+00   1.635290e-02
  1.532951e+00    1.216747e+00   1.608317e-02
  1.535162e+00    1.232821e+00   1.627507e-02
  1.537372e+00    1.249082e+00   1.644895e-02
  1.539583e+00    1.252978e+00   1.650890e-02
  1.541793e+00    1.239611e+00   1.642752e-02
  1.544004e+00    1.230151e+00   1.636497e-02
  1.546214e+00    1.227223e+00   1.634399e-02
  1.548425e+00    1.256361e+00   1.653714e-02
  1.550635e+00    1.240018e+00   1.643890e-02
  1.552846e+00    1.248516e+00   1.650480e-02
  1.555056e+00    1.248590e+00   1.646375e-02
  1.557266e+00    1.219021e+00   1.615831e-02
  1.559477e+00    1.246988e+00   1.628342e-02
  1.561687e+00    1.256930e+00   1.631740e-02
  1.563898e+00    1.254558e+00   1.628476e-02
  1.566108e+00    1.244724e+00   1.620487e-02
  1.568319e+00    1.239208e+00   1.615331e-02
  1.570529e+00    1.267490e+00   1.631124e-02
  1.572740e+00    1.262260e+00   1.624976e-02
  1.574950e+00    1.233770e+00   1.603911e-02
  1.577161e+00    1.232761e+00   1.600721e-02
  1.579371e+00    1.232426e+00   1.598145e-02
  1.581582e+00    1.241635e+00   1.602134e-02
  1.583792e+00    1.255932e+00   1.609519e-02
  1.586002e+00    1.261363e+00   1.611223e-02
  1.588213e+00    1.244788e+00   1.598877e-02
  1.590423e+00    1.226194e+00   1.584898e-02
  1.592634e+00    1.226875e+00   1.583189e-02
  1.594844e+00    1.255839e+00   1.599618e-02
  1.597055e+00    1.243054e+00   1.589406e-02
  1.599265e+00    1.219560e+00   1.572260e-02
  1.601476e+00    1.232421e+00   1.578504e-02
  1.603686e+00    1.264307e+00   1.596797e-02
  1.605897e+00    1.234986e+00   1.576164e-02
  1.608107e+00    1.200518e+00   1.552084e-02
  1.610317e+00    1.228389e+00   1.568073e-02
  1.612528e+00    1.235066e+00   1.570412e-02
  1.614738e+00    1.224448e+00   1.561758e-02
  1.616949e+00    1.214940e+00   1.553793e-02
  1.619159e+00    1.221643e+00   1.556203e-02
  1.621370e+00    1.204853e+00   1.543635e-02
  1.623580e+00    1.204181e+00   1.541381e-02
  1.625791e+00    1.204000e+00   1.539440e-02
  1.628001e+00    1.186149e+00   1.526175e-02
  1.630212e+00    1.171072e+00   1.514684e-02
  1.632422e+00    1.146923e+00   1.497226e-02
  1.634632e+00    1.187975e+00   1.522047e-02
  1.636843e+00    1.221584e+00   1.541645e-02
  1.639053e+00    1.164199e+00   1.503276e-02
  1.641264e+00    1.150370e+00   1.492626e-02
  1.643474e+00    1.144358e+00   1.486994e-02
  1.645685e+00    1.149606e+00   1.488740e-02
  1.647895e+00    1.135638e+00   1.478023e-02
  1.650106e+00    1.144747e+00   1.482243e-02
  1.652316e+00    1.153085e+00   1.485978e-02
  1.654527e+00    1.141776e+00   1.477009e-02
  1.656737e+00    1.135098e+00   1.471028e-02
  1.658947e+00    1.112258e+00   1.454539e-02
  1.661158e+00    1.113421e+00   1.453682e-02
  1.663368e+00    1.103425e+00   1.445554e-02
  1.665579e+00    1.102354e+00   1.443249e-02
  1.667789e+00    1.108611e+00   1.445722e-02
  1.670000e+00    1.088088e+00   1.430746e-02
  1.672210e+00    1.100944e+00   1.437590e-02
  1.674421e+00    1.101271e+00   1.436275e-02
  1.676631e+00    1.099026e+00   1.433224e-02
  1.678842e+00    1.095543e+00   1.429377e-02
  1.681052e+00    1.063885e+00   1.407055e-02
  1.683263e+00    1.067640e+00   1.408037e-02
  1.685473e+00    1.070367e+00   1.408331e-02
  1.687683e+00    1.064056e+00   1.402644e-02
  1.689894e+00    1.081227e+00   1.412338e-02
  1.692104e+00    1.050942e+00   1.390946e-02
  1.694315e+00    1.045022e+00   1.385590e-02
  1.696525e+00    1.044089e+00   1.383474e-02
  1.698736e+00    1.032901e+00   1.374581e-02
  1.700946e+00    1.038105e+00   1.376542e-02
  1.703157e+00    1.040184e+00   1.376468e-02
  1.705367e+00    1.041306e+00   1.375769e-02
  1.707578e+00    1.016029e+00   1.357534e-02
  1.709788e+00    1.047204e+00   1.376789e-02
  1.711998e+00    1.030015e+00   1.363953e-02
  1.714209e+00    1.027830e+00   1.361069e-02
  1.716419e+00    1.017120e+00   1.352544e-02
  1.718630e+00    1.011189e+00   1.347182e-02
  1.720840e+00    1.024110e+00   1.354346e-02
  1.723051e+00    1.071792e+00   1.384095e-02
  1.725261e+00    1.114241e+00   1.409711e-02
  1.727472e+00    1.042220e+00   1.361956e-02
  1.729682e+00    1.021912e+00   1.347270e-02
  1.731893e+00    1.020474e+00   1.344925e-02
  1.734103e+00    9.851100e-01   1.320054e-02
  1.736313e+00    9.739164e-01   1.311152e-02
  1.738524e+00    9.836132e-01   1.316293e-02
  1.740734e+00    9.957126e-01   1.322998e-02
  1.742945e+00    9.792508e-01   1.310681e-02
  1.745155e+00    9.793021e-01   1.309380e-02
  1.747366e+00    9.720941e-01   1.303184e-02
  1.749576e+00    9.745088e-01   1.303441e-02
  1.751787e+00    9.837448e-01   1.308269e-02
  1.753997e+00    9.646119e-01   1.294157e-02
  1.756208e+00    9.441893e-01   1.279084e-02
  1.758418e+00    9.624082e-01   1.290059e-02
  1.760628e+00    9.632227e-01   1.289276e-02
  1.762839e+00    9.591910e-01   1.285257e-02
  1.765049e+00    9.469525e-01   1.275730e-02
  1.767260e+00    9.543166e-01   1.279402e-02
  1.769470e+00    9.486591e-01   1.274310e-02
  1.771681e+00    9.620085e-01   1.281925e-02
  1.773891e+00    9.442402e-01   1.268730e-02
  1.776102e+00    9.601952e-01   1.278107e-02
  1.778312e+00    9.369848e-01   1.261300e-02
  1.780523e+00    9.285655e-01   1.254354e-02
  1.782733e+00    9.221172e-01   1.248734e-02
  1.784944e+00    9.360322e-01   1.256832e-02
  1.787154e+00    9.386200e-01   1.257310e-02
  1.789364e+00    9.380029e-01   1.255645e-02
  1.791575e+00    9.292861e-01   1.248541e-02
  1.793785e+00    9.426555e-01   1.256236e-02
  1.795996e+00    9.369308e-01   1.251153e-02
  1.798206e+00    9.654392e-01   1.268761e-02
  1.800417e+00    9.965035e-01   1.287690e-02
  1.802627e+00    9.696443e-01   1.268990e-02
  1.804838e+00    9.820512e-01   1.275826e-02
  1.807048e+00    9.621714e-01   1.261525e-02
  1.809259e+00    9.325792e-01   1.240598e-02
  1.811469e+00    9.013703e-01   1.218166e-02
  1.813679e+00    9.256124e-01   1.232920e-02
  1.815890e+00    9.114693e-01   1.221982e-02
  1.818100e+00    8.966430e-01   1.210489e-02
  1.820311e+00    9.242843e-01   1.227505e-02
  1.822521e+00    9.081690e-01   1.215258e-02
  1.824732e+00    8.982067e-01   1.207085e-02
  1.826942e+00    8.769487e-01   1.191491e-02
  1.829153e+00    8.664849e-01   1.183203e-02
  1.831363e+00    8.756915e-01   1.188274e-02
  1.833574e+00    8.860882e-01   1.194137e-02
  1.835784e+00    8.796834e-01   1.188670e-02
  1.837994e+00    8.841078e-01   1.190480e-02
  1.840205e+00    8.858979e-01   1.190560e-02
  1.842415e+00    8.952624e-01   1.195644e-02
  1.844626e+00    8.677809e-01   1.175997e-02
  1.846836e+00    8.727566e-01   1.178216e-02
  1.849047e+00    8.783802e-01   1.180837e-02
  1.851257e+00    8.631987e-01   1.169632e-02
  1.853468e+00    8.560442e-01   1.163897e-02
  1.855678e+00    8.726116e-01   1.174211e-02
  1.857889e+00    8.806841e-01   1.178769e-02
  1.860099e+00    8.677462e-01   1.169212e-02
  1.862309e+00    8.469712e-01   1.154284e-02
  1.864520e+00    8.733039e-01   1.171222e-02
  1.866730e+00    8.940942e-01   1.184123e-02
  1.868941e+00    8.685531e-01   1.165985e-02
  1.871151e+00    8.597788e-01   1.158933e-02
  1.873362e+00    8.667321e-01   1.162466e-02
  1.875572e+00    8.677915e-01   1.162070e-02
  1.877783e+00    8.583161e-01   1.154560e-02
  1.879993e+00    8.453520e-01   1.144691e-02
  1.882204e+00    8.550050e-01   1.150112e-02
  1.884414e+00    8.479467e-01   1.144245e-02
  1.886624e+00    8.351303e-01   1.134464e-02
  1.888835e+00    8.482934e-01   1.142267e-02
  1.891045e+00    8.454829e-01   1.139282e-02
  1.893256e+00    8.421915e-01   1.135952e-02
  1.895466e+00    8.311248e-01   1.127350e-02
  1.897677e+00    8.284298e-01   1.124433e-02
  1.899887e+00    8.268265e-01   1.122251e-02
  1.902098e+00    8.345357e-01   1.126384e-02
  1.904308e+00    8.429813e-01   1.131004e-02
  1.906519e+00    8.329485e-01   1.123168e-02
  1.908729e+00    8.103262e-01   1.106762e-02
  1.910940e+00    8.148689e-01   1.108754e-02
  1.913150e+00    8.215739e-01   1.112253e-02
  1.915360e+00    8.271028e-01   1.114923e-02
  1.917571e+00    8.241207e-01   1.111825e-02
  1.919781e+00    8.210737e-01   1.108698e-02
  1.921992e+00    8.239855e-01   1.109599e-02
  1.924202e+00    8.078268e-01   1.097595e-02
  1.926413e+00    8.079453e-01   1.096650e-02
  1.928623e+00    7.891199e-01   1.082762e-02
  1.930834e+00    7.928551e-01   1.084290e-02
  1.933044e+00    7.974987e-01   1.086405e-02
  1.935255e+00    8.016008e-01   1.088165e-02
  1.937465e+00    8.050087e-01   1.089440e-02
  1.939675e+00    7.985916e-01   1.084010e-02
  1.941886e+00    7.832292e-01   1.072518e-02
  1.944096e+00    8.033547e-01   1.085191e-02
  1.946307e+00    8.102148e-01   1.088777e-02
  1.948517e+00    7.928403e-01   1.076000e-02
  1.950728e+00    8.128628e-01   1.088467e-02
  1.952938e+00    8.077388e-01   1.084018e-02
  1.955149e+00    7.823195e-01   1.065810e-02
  1.957359e+00    7.904443e-01   1.070328e-02
  1.959570e+00    7.898995e-01   1.068875e-02
  1.961780e+00    7.909375e-01   1.068589e-02
  1.963990e+00    8.015466e-01   1.074710e-02
  1.966201e+00    8.109181e-01   1.079959e-02
  1.968411e+00    7.904578e-01   1.065232e-02
  1.970622e+00    7.926793e-01   1.065713e-02
  1.972832e+00    8.070446e-01   1.074319e-02
  1.975043e+00    8.001363e-01   1.068697e-02
  1.977253e+00    8.045125e-01   1.070609e-02
  1.979464e+00    7.992383e-01   1.066080e-02
  1.981674e+00    7.847279e-01   1.055331e-02
  1.983885e+00    7.900655e-01   1.057906e-02
  1.986095e+00    7.959836e-01   1.060881e-02
  1.988305e+00    7.796751e-01   1.048969e-02
  1.990516e+00    7.678024e-01   1.039965e-02
  1.992726e+00    7.816458e-01   1.048329e-02
  1.994937e+00    7.832733e-01   1.048402e-02
  1.997147e+00    7.876846e-01   1.050372e-02
  1.999358e+00    7.799903e-01   1.044240e-02
  2.001568e+00    7.610561e-01   1.030415e-02
  2.003779e+00    7.620679e-01   1.029915e-02
  2.005989e+00    7.894083e-01   1.047012e-02
  2.008200e+00    7.716184e-01   1.033995e-02
  2.010410e+00    7.657996e-01   1.028915e-02
  2.012621e+00    7.773097e-01   1.035441e-02
  2.014831e+00    7.773913e-01   1.034343e-02
  2.017041e+00    7.684072e-01   1.027307e-02
  2.019252e+00    7.710816e-01   1.028096e-02
  2.021462e+00    7.780567e-01   1.031774e-02
  2.023673e+00    7.799870e-01   1.032108e-02
  2.025883e+00    7.556363e-01   1.014921e-02
  2.028094e+00    7.567058e-01   1.014677e-02
  2.030304e+00    7.624112e-01   1.017543e-02
  2.032515e+00    7.468408e-01   1.006176e-02
  2.034725e+00    7.695707e-01   1.020422e-02
  2.036936e+00    7.703275e-01   1.019984e-02
  2.039146e+00    7.529311e-01   1.007446e-02
  2.041356e+00    7.555919e-01   1.008260e-02
  2.043567e+00    7.570240e-01   1.008285e-02
  2.045777e+00    7.730066e-01   1.017936e-02
  2.047988e+00    7.804715e-01   1.021887e-02
  2.050198e+00    7.703024e-01   1.014356e-02
  2.052409e+00    7.821123e-01   1.021320e-02
  2.054619e+00    7.874607e-01   1.024054e-02
  2.056830e+00    7.565182e-01   1.003012e-02
  2.059040e+00    7.621745e-01   1.005998e-02
  2.061251e+00    7.467619e-01   9.950510e-03
  2.063461e+00    7.394654e-01   9.894221e-03
  2.065671e+00    7.535617e-01   9.979343e-03
  2.067882e+00    7.465007e-01   9.923490e-03
  2.070092e+00    7.429911e-01   9.890963e-03
  2.072303e+00    7.326145e-01   9.812602e-03
  2.074513e+00    7.594225e-01   9.981097e-03
  2.076724e+00    7.481956e-01   9.897582e-03
  2.078934e+00    7.508872e-01   9.906301e-03
  2.081145e+00    7.432814e-01   9.846942e-03
  2.083355e+00    7.373688e-01   9.798533e-03
  2.085566e+00    7.248495e-01   9.706195e-03
  2.087776e+00    7.410615e-01   9.804602e-03
  2.089986e+00    7.417460e-01   9.800347e-03
  2.092197e+00    7.333162e-01   9.735567e-03
  2.094407e+00    7.238103e-01   9.663101e-03
  2.096618e+00    7.219296e-01   9.641713e-03
  2.098828e+00    7.365691e-01   9.729668e-03
  2.101039e+00    7.409948e-01   9.749828e-03
  2.103249e+00    7.422469e-01   9.749321e-03
  2.105460e+00    7.468964e-01   9.770700e-03
  2.107670e+00    7.323075e-01   9.666038e-03
  2.109881e+00    7.330822e-01   9.661962e-03
  2.112091e+00    7.116004e-01   9.510456e-03
  2.114301e+00    7.089744e-01   9.484177e-03
  2.116512e+00    7.253225e-01   9.584104e-03
  2.118722e+00    7.094046e-01   9.469613e-03
  2.120933e+00    7.128558e-01   9.483801e-03
  2.123143e+00    7.101849e-01   9.457177e-03
  2.125354e+00    6.953506e-01   9.349467e-03
  2.127564e+00    6.951701e-01   9.339666e-03
  2.129775e+00    7.067248e-01   9.408280e-03
  2.131985e+00    7.101434e-01   9.421985e-03
  2.134196e+00    7.055365e-01   9.382836e-03
  2.136406e+00    7.138031e-01   9.428887e-03
  2.138617e+00    7.182334e-01   9.449594e-03
  2.140827e+00    7.165158e-01   9.454456e-03
  2.143037e+00    6.965400e-01   9.366847e-03
  2.145248e+00    7.157142e-01   9.517062e-03
  2.147458e+00    6.988386e-01   9.419273e-03
  2.149669e+00    7.030705e-01   9.459597e-03
  2.151879e+00    7.017056e-01   9.459631e-03
  2.154090e+00    7.046673e-01   9.486905e-03
  2.156300e+00    6.948069e-01   9.426885e-03
  2.158511e+00    6.944414e-01   9.429670e-03
  2.160721e+00    7.237370e-01   9.631427e-03
  2.162932e+00    7.057804e-01   9.514960e-03
  2.165142e+00    6.997048e-01   9.476940e-03
  2.167352e+00    7.079101e-01   9.535282e-03
  2.169563e+00    7.065847e-01   9.528327e-03
  2.171773e+00    6.935461e-01   9.442449e-03
  2.173984e+00    6.891473e-01   9.413866e-03
  2.176194e+00    6.879898e-01   9.407147e-03
  2.178405e+00    6.784900e-01   9.342673e-03
  2.180615e+00    6.907018e-01   9.427035e-03
  2.182826e+00    7.072698e-01   9.540136e-03
  2.185036e+00    6.888035e-01   9.414819e-03
  2.187247e+00    6.960316e-01   9.464031e-03
  2.189457e+00    6.912691e-01   9.431191e-03
  2.191667e+00    6.886865e-01   9.413387e-03
  2.193878e+00    6.782752e-01   9.341399e-03
  2.196088e+00    6.794976e-01   9.349129e-03
  2.198299e+00    6.899574e-01   9.419702e-03
  2.200509e+00    7.018358e-01   9.499388e-03
  2.202720e+00    6.818760e-01   9.362181e-03
  2.204930e+00    7.016400e-01   9.495626e-03
  2.207141e+00    6.917086e-01   9.427077e-03
  2.209351e+00    6.825721e-01   9.362709e-03
  2.211562e+00    6.791331e-01   9.337479e-03
  2.213772e+00    6.885190e-01   9.345822e-03
  2.215982e+00    6.698416e-01   9.174181e-03
  2.218193e+00    6.809552e-01   9.220215e-03
  2.220403e+00    6.790836e-01   9.182883e-03
  2.222614e+00    6.826910e-01   9.186155e-03
  2.224824e+00    6.726723e-01   9.099122e-03
  2.227035e+00    6.734556e-01   9.086978e-03
  2.229245e+00    6.697332e-01   9.044863e-03
  2.231456e+00    6.865856e-01   9.142185e-03
  2.233666e+00    6.907080e-01   9.154267e-03
  2.235877e+00    6.840346e-01   9.095520e-03
  2.238087e+00    6.837358e-01   9.079936e-03
  2.240298e+00    6.575140e-01   8.890467e-03
  2.242508e+00    6.566264e-01   8.869467e-03
  2.244718e+00    6.643543e-01   8.905751e-03
  2.246929e+00    6.668409e-01   8.908010e-03
  2.249139e+00    6.552795e-01   8.818166e-03
  2.251350e+00    6.580227e-01   8.824988e-03
  2.253560e+00    6.568957e-01   8.805932e-03
  2.255771e+00    6.704571e-01   8.884931e-03
  2.257981e+00    6.656465e-01   8.841791e-03
  2.260192e+00    6.780388e-01   8.912519e-03
  2.262402e+00    6.622488e-01   8.797290e-03
  2.264613e+00    6.733997e-01   8.860122e-03
  2.266823e+00    6.666750e-01   8.805361e-03
  2.269033e+00    6.661356e-01   8.791378e-03
  2.271244e+00    6.676077e-01   8.790665e-03
  2.273454e+00    6.494760e-01   8.660314e-03
  2.275665e+00    6.640037e-01   8.746289e-03
  2.277875e+00    6.696238e-01   8.773258e-03
  2.280086e+00    6.520065e-01   8.647107e-03
  2.282296e+00    6.466387e-01   8.602096e-03
  2.284507e+00    6.604422e-01   8.683308e-03
  2.286717e+00    6.434100e-01   8.561227e-03
  2.288928e+00    6.586055e-01   8.651860e-03
  2.291138e+00    6.535389e-01   8.609124e-03
  2.293348e+00    6.415402e-01   8.520295e-03
  2.295559e+00    6.296903e-01   8.432095e-03
  2.297769e+00    6.609435e-01   8.629519e-03
  2.299980e+00    6.572136e-01   8.595784e-03
  2.302190e+00    6.671456e-01   8.651269e-03
  2.304401e+00    6.696302e-01   8.657917e-03
  2.306611e+00    6.549762e-01   8.553458e-03
  2.308822e+00    6.403775e-01   8.449269e-03
  2.311032e+00    6.249136e-01   8.340305e-03
  2.313243e+00    6.501149e-01   8.500524e-03
  2.315453e+00    6.552603e-01   8.526509e-03
  2.317663e+00    6.472198e-01   8.464912e-03
  2.319874e+00    6.443881e-01   8.437659e-03
  2.322084e+00    6.535879e-01   8.488642e-03
  2.324295e+00    6.519433e-01   8.469709e-03
  2.326505e+00    6.477017e-01   8.433026e-03
  2.328716e+00    6.499268e-01   8.438900e-03
  2.330926e+00    6.531709e-01   8.451081e-03
  2.333137e+00    6.470330e-01   8.402870e-03
  2.335347e+00    6.484107e-01   8.402891e-03
  2.337558e+00    6.530544e-01   8.424612e-03
  2.339768e+00    6.532707e-01   8.417357e-03
  2.341979e+00    6.429999e-01   8.342516e-03
  2.344189e+00    6.436965e-01   8.338615e-03
  2.346399e+00    6.267787e-01   8.219871e-03
  2.348610e+00    6.213114e-01   8.175574e-03
  2.350820e+00    6.270332e-01   8.205011e-03
  2.353031e+00    6.343732e-01   8.244593e-03
  2.355241e+00    6.390014e-01   8.266532e-03
  2.357452e+00    6.307864e-01   8.204812e-03
  2.359662e+00    6.362625e-01   8.232093e-03
  2.361873e+00    6.348124e-01   8.214459e-03
  2.364083e+00    6.259390e-01   8.148874e-03
  2.366294e+00    6.179149e-01   8.088428e-03
  2.368504e+00    6.166885e-01   8.072373e-03
  2.370714e+00    6.245350e-01   8.115529e-03
  2.372925e+00    6.312445e-01   8.150911e-03
  2.375135e+00    6.310638e-01   8.141640e-03
  2.377346e+00    6.326316e-01   8.143757e-03
  2.379556e+00    6.257377e-01   8.091334e-03
  2.381767e+00    6.196582e-01   8.044099e-03
  2.383977e+00    6.176151e-01   8.022897e-03
  2.386188e+00    6.369005e-01   8.139167e-03
  2.388398e+00    6.255528e-01   8.058343e-03
  2.390609e+00    6.257266e-01   8.051676e-03
  2.392819e+00    6.261682e-01   8.046681e-03
  2.395029e+00    6.263892e-01   8.040380e-03
  2.397240e+00    6.116964e-01   7.937664e-03
  2.399450e+00    6.175234e-01   7.967560e-03
  2.401661e+00    6.040218e-01   7.872334e-03
  2.403871e+00    5.981746e-01   7.826466e-03
  2.406082e+00    6.184727e-01   7.950652e-03
  2.408292e+00    6.128397e-01   7.906557e-03
  2.410503e+00    6.082857e-01   7.869643e-03
  2.412713e+00    5.986758e-01   7.799491e-03
  2.414924e+00    5.937515e-01   7.759926e-03
  2.417134e+00    6.023695e-01   7.808425e-03
  2.419344e+00    6.106873e-01   7.854696e-03
  2.421555e+00    6.108111e-01   7.847927e-03
  2.423765e+00    6.003692e-01   7.773166e-03
  2.425976e+00    5.990215e-01   7.756616e-03
  2.428186e+00    6.061001e-01   7.795066e-03
  2.430397e+00    5.995477e-01   7.745311e-03
  2.432607e+00    5.755323e-01   7.581462e-03
  2.434818e+00    5.948440e-01   7.700046e-03
  2.437028e+00    5.973250e-01   7.708945e-03
  2.439239e+00    5.941713e-01   7.680883e-03
  2.441449e+00    5.985484e-01   7.701909e-03
  2.443659e+00    5.971400e-01   7.685445e-03
  2.445870e+00    5.914973e-01   7.661316e-03
  2.448080e+00    5.826558e-01   7.638652e-03
  2.450291e+00    5.747677e-01   7.603323e-03
  2.452501e+00    5.706673e-01   7.587255e-03
  2.454712e+00    5.776019e-01   7.641687e-03
  2.456922e+00    5.747346e-01   7.629341e-03
  2.459133e+00    5.646823e-01   7.567753e-03
  2.461343e+00    5.786177e-01   7.664926e-03
  2.463554e+00    5.795553e-01   7.674692e-03
  2.465764e+00    5.761205e-01   7.655069e-03
  2.467975e+00    5.612512e-01   7.557930e-03
  2.470185e+00    5.686659e-01   7.609949e-03
  2.472395e+00    5.719061e-01   7.632860e-03
  2.474606e+00    5.522813e-01   7.502313e-03
  2.476816e+00    5.404388e-01   7.422169e-03
  2.479027e+00    5.424938e-01   7.437095e-03
  2.481237e+00    5.500305e-01   7.488864e-03
  2.483448e+00    5.446123e-01   7.452196e-03
  2.485658e+00    5.420134e-01   7.434237e-03
  2.487869e+00    5.522013e-01   7.503828e-03
  2.490079e+00    5.406350e-01   7.424307e-03
  2.492290e+00    5.367479e-01   7.397136e-03
  2.494500e+00    5.338253e-01   7.376239e-03
  2.496710e+00    5.330702e-01   7.370324e-03
  2.498921e+00    5.459706e-01   7.457971e-03
  2.501131e+00    5.390847e-01   7.409845e-03
  2.503342e+00    5.509875e-01   7.489905e-03
  2.505552e+00    5.473036e-01   7.463685e-03
  2.507763e+00    5.417032e-01   7.423980e-03
  2.509973e+00    5.187425e-01   7.263544e-03
  2.512184e+00    5.275702e-01   7.323483e-03
  2.514394e+00    5.106773e-01   7.196048e-03
  2.516605e+00    5.292077e-01   7.278258e-03
  2.518815e+00    5.280729e-01   7.242085e-03
  2.521025e+00    5.309659e-01   7.240811e-03
  2.523236e+00    5.281383e-01   7.203485e-03
  2.525446e+00    5.277953e-01   7.185509e-03
  2.527657e+00    5.337877e-01   7.211455e-03
  2.529867e+00    5.261465e-01   7.145467e-03
  2.532078e+00    5.246426e-01   7.120207e-03
  2.534288e+00    5.235996e-01   7.099268e-03
  2.536499e+00    5.282412e-01   7.118666e-03
  2.538709e+00    5.268312e-01   7.098158e-03
  2.540920e+00    5.221989e-01   7.056239e-03
  2.543130e+00    5.213922e-01   7.040470e-03
  2.545340e+00    5.145690e-01   6.984260e-03
  2.547551e+00    5.260729e-01   7.051930e-03
  2.549761e+00    5.212379e-01   7.009881e-03
  2.551972e+00    5.130579e-01   6.945388e-03
  2.554182e+00    5.142133e-01   6.944078e-03
  2.556393e+00    5.245665e-01   7.004511e-03
  2.558603e+00    5.240136e-01   6.991720e-03
  2.560814e+00    5.221564e-01   6.970596e-03
  2.563024e+00    5.232823e-01   6.969493e-03
  2.565235e+00    5.294143e-01   7.000606e-03
  2.567445e+00    5.310305e-01   7.001625e-03
  2.569656e+00    5.213155e-01   6.927516e-03
  2.571866e+00    5.146382e-01   6.873668e-03
  2.574076e+00    5.198069e-01   6.898803e-03
  2.576287e+00    5.241427e-01   6.919130e-03
  2.578497e+00    5.223711e-01   6.899533e-03
  2.580708e+00    5.012538e-01   6.750676e-03
  2.582918e+00    4.985993e-01   6.725118e-03
  2.585129e+00    5.032875e-01   6.748990e-03
  2.587339e+00    5.140324e-01   6.812993e-03
  2.589550e+00    4.981208e-01   6.699260e-03
  2.591760e+00    5.190386e-01   6.830687e-03
  2.593971e+00    5.218055e-01   6.841286e-03
  2.596181e+00    5.073806e-01   6.739850e-03
  2.598391e+00    5.162692e-01   6.793430e-03
  2.600602e+00    4.913475e-01   6.621615e-03
  2.602812e+00    5.007806e-01   6.677399e-03
  2.605023e+00    5.110981e-01   6.738654e-03
  2.607233e+00    4.997236e-01   6.656169e-03
  2.609444e+00    5.097388e-01   6.715290e-03
  2.611654e+00    5.046478e-01   6.674371e-03
  2.613865e+00    4.936769e-01   6.594463e-03
  2.616075e+00    5.055657e-01   6.666270e-03
  2.618286e+00    4.929493e-01   6.575657e-03
  2.620496e+00    5.052005e-01   6.650164e-03
  2.622706e+00    5.037848e-01   6.635111e-03
  2.624917e+00    5.005595e-01   6.608005e-03
  2.627127e+00    5.049860e-01   6.631408e-03
  2.629338e+00    5.022061e-01   6.607179e-03
  2.631548e+00    4.964676e-01   6.563179e-03
  2.633759e+00    5.152259e-01   6.678781e-03
  2.635969e+00    4.965589e-01   6.550048e-03
  2.638180e+00    5.069572e-01   6.611218e-03
  2.640390e+00    4.909392e-01   6.499429e-03
  2.642601e+00    4.971609e-01   6.533814e-03
  2.644811e+00    5.105798e-01   6.614271e-03
  2.647021e+00    4.925990e-01   6.490254e-03
  2.649232e+00    4.984278e-01   6.521816e-03
  2.651442e+00    5.023247e-01   6.540739e-03
  2.653653e+00    5.038308e-01   6.543724e-03
  2.655863e+00    4.993095e-01   6.507590e-03
  2.658074e+00    5.151380e-01   6.603211e-03
  2.660284e+00    5.082866e-01   6.552739e-03
  2.662495e+00    5.034704e-01   6.514832e-03
  2.664705e+00    4.904380e-01   6.423415e-03
  2.666916e+00    5.047556e-01   6.509992e-03
  2.669126e+00    5.091121e-01   6.531483e-03
  2.671337e+00    5.023938e-01   6.481617e-03
  2.673547e+00    5.044975e-01   6.488748e-03
  2.675757e+00    4.909241e-01   6.394420e-03
  2.677968e+00    5.002519e-01   6.448324e-03
  2.680178e+00    5.019538e-01   6.452838e-03
  2.682389e+00    4.972718e-01   6.416240e-03
  2.684599e+00    5.055274e-01   6.463024e-03
  2.686810e+00    4.875630e-01   6.340576e-03
  2.689020e+00    5.010985e-01   6.421629e-03
  2.691231e+00    4.942508e-01   6.371293e-03
  2.693441e+00    4.965065e-01   6.379629e-03
  2.695652e+00    4.907880e-01   6.336285e-03
  2.697862e+00    4.818535e-01   6.272031e-03
  2.700072e+00    4.955124e-01   6.354191e-03
  2.702283e+00    4.860689e-01   6.287170e-03
  2.704493e+00    4.927923e-01   6.324181e-03
  2.706704e+00    4.850914e-01   6.268185e-03
  2.708914e+00    4.863133e-01   6.270133e-03
  2.711125e+00    4.856445e-01   6.259569e-03
  2.713335e+00    4.902962e-01   6.283381e-03
  2.715546e+00    4.909045e-01   6.280781e-03
  2.717756e+00    4.896924e-01   6.267130e-03
  2.719967e+00    4.862448e-01   6.238806e-03
  2.722177e+00    4.908694e-01   6.262250e-03
  2.724387e+00    4.867453e-01   6.229773e-03
  2.726598e+00    4.963330e-01   6.284699e-03
  2.728808e+00    4.936749e-01   6.261662e-03
  2.731019e+00    4.705335e-01   6.107094e-03
  2.733229e+00    4.803813e-01   6.164887e-03
  2.735440e+00    4.748005e-01   6.122769e-03
  2.737650e+00    4.891596e-01   6.208590e-03
  2.739861e+00    4.933725e-01   6.229173e-03
  2.742071e+00    4.870309e-01   6.183215e-03
  2.744282e+00    4.992076e-01   6.253692e-03
  2.746492e+00    4.898325e-01   6.188608e-03
  2.748702e+00    4.845271e-01   6.149093e-03
  2.750913e+00    4.709525e-01   6.056607e-03
  2.753123e+00    4.759305e-01   6.082451e-03
  2.755334e+00    4.755148e-01   6.073758e-03
  2.757544e+00    4.711744e-01   6.040278e-03
  2.759755e+00    4.833713e-01   6.112068e-03
  2.761965e+00    4.777232e-01   6.070283e-03
  2.764176e+00    4.800022e-01   6.078760e-03
  2.766386e+00    4.808678e-01   6.078444e-03
  2.768597e+00    4.733556e-01   6.024947e-03
  2.770807e+00    4.748887e-01   6.028854e-03
  2.773017e+00    4.791659e-01   6.049966e-03
  2.775228e+00    4.846483e-01   6.078648e-03
  2.777438e+00    4.831591e-01   6.063492e-03
  2.779649e+00    4.804430e-01   6.040503e-03
  2.781859e+00    4.831743e-01   6.051851e-03
  2.784070e+00    4.677394e-01   5.948617e-03
  2.786280e+00    4.595151e-01   5.890411e-03
  2.788491e+00    4.826872e-01   6.031228e-03
  2.790701e+00    4.728267e-01   5.963698e-03
  2.792912e+00    4.729466e-01   5.958498e-03
  2.795122e+00    4.680232e-01   5.921730e-03
  2.797333e+00    4.751698e-01   5.961202e-03
  2.799543e+00    4.543495e-01   5.823430e-03
  2.801753e+00    4.637143e-01   5.877330e-03
  2.803964e+00    4.568768e-01   5.828294e-03
  2.806174e+00    4.692363e-01   5.900495e-03
  2.808385e+00    4.684865e-01   5.889019e-03
  2.810595e+00    4.808319e-01   5.959206e-03
  2.812806e+00    4.680532e-01   5.872934e-03
  2.815016e+00    4.708595e-01   5.885773e-03
  2.817227e+00    4.728438e-01   5.924047e-03
  2.819437e+00    4.818995e-01   5.991693e-03
  2.821648e+00    4.772563e-01   5.965066e-03
  2.823858e+00    4.766949e-01   5.966897e-03
  2.826068e+00    4.728921e-01   5.948040e-03
  2.828279e+00    4.692455e-01   5.929083e-03
  2.830489e+00    4.782706e-01   5.989186e-03
  2.832700e+00    4.775123e-01   5.987012e-03
  2.834910e+00    4.662074e-01   5.917766e-03
  2.837121e+00    4.737880e-01   5.967395e-03
  2.839331e+00    4.818936e-01   6.019470e-03
  2.841542e+00    4.844824e-01   6.036648e-03
  2.843752e+00    4.849104e-01   6.040117e-03
  2.845963e+00    4.520296e-01   5.832141e-03
  2.848173e+00    4.589083e-01   5.876403e-03
  2.850383e+00    4.660783e-01   5.922443e-03
  2.852594e+00    4.685071e-01   5.937770e-03
  2.854804e+00    4.811746e-01   6.016985e-03
  2.857015e+00    4.877668e-01   6.057641e-03
  2.859225e+00    4.732822e-01   5.966755e-03
  2.861436e+00    4.708076e-01   5.950483e-03
  2.863646e+00    4.786859e-01   6.000097e-03
  2.865857e+00    4.637112e-01   5.905853e-03
  2.868067e+00    4.624319e-01   5.897903e-03
  2.870278e+00    4.640917e-01   5.908138e-03
  2.872488e+00    4.663415e-01   5.921262e-03
  2.874698e+00    4.594623e-01   5.876421e-03
  2.876909e+00    4.663941e-01   5.919207e-03
  2.879119e+00    4.670532e-01   5.921790e-03
  2.881330e+00    4.569341e-01   5.855823e-03
  2.883540e+00    4.498353e-01   5.808785e-03
  2.885751e+00    4.465513e-01   5.785923e-03
  2.887961e+00    4.634040e-01   5.892187e-03
  2.890172e+00    4.693839e-01   5.928479e-03
  2.892382e+00    4.635094e-01   5.889471e-03
  2.894593e+00    4.469801e-01   5.781701e-03
  2.896803e+00    4.593003e-01   5.858864e-03
  2.899014e+00    4.729988e-01   5.943642e-03
  2.901224e+00    4.656214e-01   5.895126e-03
  2.903434e+00    4.559562e-01   5.831680e-03
  2.905645e+00    4.498719e-01   5.790436e-03
  2.907855e+00    4.600384e-01   5.853392e-03
  2.910066e+00    4.540321e-01   5.813008e-03
  2.912276e+00    4.421746e-01   5.734502e-03
  2.914487e+00    4.548052e-01   5.813377e-03
  2.916697e+00    4.591292e-01   5.838724e-03
  2.918908e+00    4.661026e-01   5.880878e-03
  2.921118e+00    4.585157e-01   5.830131e-03
  2.923329e+00    4.553837e-01   5.807876e-03
  2.925539e+00    4.602073e-01   5.836248e-03
  2.927749e+00    4.705575e-01   5.899185e-03
  2.929960e+00    4.485187e-01   5.756632e-03
  2.932170e+00    4.514338e-01   5.772991e-03
  2.934381e+00    4.479261e-01   5.748094e-03
  2.936591e+00    4.691657e-01   5.880176e-03
  2.938802e+00    4.559249e-01   5.793929e-03
  2.941012e+00    4.548661e-01   5.784841e-03
  2.943223e+00    4.621973e-01   5.828569e-03
  2.945433e+00    4.548935e-01   5.778597e-03
  2.947644e+00    4.465762e-01   5.721436e-03
  2.949854e+00    4.532008e-01   5.759433e-03
  2.952064e+00    4.725140e-01   5.876587e-03
  2.954275e+00    4.522792e-01   5.744990e-03
  2.956485e+00    4.584183e-01   5.779629e-03
  2.958696e+00    4.535545e-01   5.744544e-03
  2.960906e+00    4.506411e-01   5.721889e-03
  2.963117e+00    4.532612e-01   5.734007e-03
  2.965327e+00    4.531443e-01   5.729397e-03
  2.967538e+00    4.464026e-01   5.683706e-03
  2.969748e+00    4.610505e-01   5.773382e-03
  2.971959e+00    4.489940e-01   5.694282e-03
  2.974169e+00    4.499424e-01   5.697710e-03
  2.976379e+00    4.550074e-01   5.726764e-03
  2.978590e+00    4.559786e-01   5.729750e-03
  2.980800e+00    4.519044e-01   5.701289e-03
  2.983011e+00    4.653858e-01   5.782873e-03
  2.985221e+00    4.515340e-01   5.693041e-03
  2.987432e+00    4.366279e-01   5.595216e-03
  2.989642e+00    4.322009e-01   5.564214e-03
  2.991853e+00    4.431112e-01   5.630752e-03
  2.994063e+00    4.671422e-01   5.778486e-03
  2.996274e+00    4.536803e-01   5.691441e-03
  2.998484e+00    4.517502e-01   5.676625e-03
  3.000694e+00    4.489093e-01   5.655299e-03
  3.002905e+00    4.572123e-01   5.704431e-03
  3.005115e+00    4.619784e-01   5.731056e-03
  3.007326e+00    4.581231e-01   5.703932e-03
  3.009536e+00    4.589801e-01   5.705989e-03
  3.011747e+00    4.529483e-01   5.665468e-03
  3.013957e+00    4.519385e-01   5.655957e-03
  3.016168e+00    4.548399e-01   5.670829e-03
  3.018378e+00    4.664422e-01   5.739605e-03
  3.020589e+00    4.754044e-01   5.791192e-03
  3.022799e+00    4.550492e-01   5.662699e-03
  3.025010e+00    4.633870e-01   5.711046e-03
  3.027220e+00    4.572394e-01   5.669914e-03
  3.029430e+00    4.643338e-01   5.710464e-03
  3.031641e+00    4.659183e-01   5.716976e-03
  3.033851e+00    4.665954e-01   5.717587e-03
  3.036062e+00    4.522567e-01   5.626262e-03
  3.038272e+00    4.466646e-01   5.587804e-03
  3.040483e+00    4.498428e-01   5.604426e-03
  3.042693e+00    4.537433e-01   5.625414e-03
  3.044904e+00    4.491694e-01   5.592964e-03
  3.047114e+00    4.441908e-01   5.557116e-03
  3.049325e+00    4.514624e-01   5.598011e-03
  3.051535e+00    4.499317e-01   5.584138e-03
  3.053745e+00    4.420541e-01   5.530320e-03
  3.055956e+00    4.363330e-01   5.489935e-03
  3.058166e+00    4.423845e-01   5.523619e-03
  3.060377e+00    4.372286e-01   5.486669e-03
  3.062587e+00    4.399073e-01   5.498850e-03
  3.064798e+00    4.509421e-01   5.563140e-03
  3.067008e+00    4.485882e-01   5.543874e-03
  3.069219e+00    4.591619e-01   5.604269e-03
  3.071429e+00    4.534355e-01   5.565707e-03
  3.073640e+00    4.421679e-01   5.492809e-03
  3.075850e+00    4.326316e-01   5.429724e-03
  3.078060e+00    4.492718e-01   5.530052e-03
  3.080271e+00    4.556234e-01   5.565515e-03
  3.082481e+00    4.465712e-01   5.506509e-03
  3.084692e+00    4.461620e-01   5.500610e-03
  3.086902e+00    4.633418e-01   5.602209e-03
  3.089113e+00    4.543036e-01   5.543733e-03
  3.091323e+00    4.527579e-01   5.530881e-03
  3.093534e+00    4.465733e-01   5.489619e-03
  3.095744e+00    4.471143e-01   5.489558e-03
  3.097955e+00    4.428248e-01   5.459639e-03
  3.100165e+00    4.512987e-01   5.508270e-03
  3.102375e+00    4.543162e-01   5.523230e-03
  3.104586e+00    4.470462e-01   5.475349e-03
  3.106796e+00    4.456449e-01   5.463256e-03
  3.109007e+00    4.558813e-01   5.522375e-03
  3.111217e+00    4.501654e-01   5.483958e-03
  3.113428e+00    4.414605e-01   5.427263e-03
  3.115638e+00    4.433413e-01   5.435592e-03
  3.117849e+00    4.484540e-01   5.463101e-03
  3.120059e+00    4.448037e-01   5.437371e-03
  3.122270e+00    4.430450e-01   5.423346e-03
  3.124480e+00    4.425811e-01   5.416836e-03
  3.126691e+00    4.409297e-01   5.403178e-03
  3.128901e+00    4.403529e-01   5.396532e-03
  3.131111e+00    4.390811e-01   5.384915e-03
  3.133322e+00    4.400044e-01   5.387144e-03
  3.135532e+00    4.449251e-01   5.413779e-03
  3.137743e+00    4.405612e-01   5.383709e-03
  3.139953e+00    4.212773e-01   5.260970e-03
  3.142164e+00    4.284543e-01   5.317396e-03
  3.144374e+00    4.448389e-01   5.446598e-03
  3.146585e+00    4.510963e-01   5.499500e-03
  3.148795e+00    4.454597e-01   5.475837e-03
  3.151006e+00    4.419753e-01   5.462914e-03
  3.153216e+00    4.417674e-01   5.468797e-03
  3.155426e+00    4.247129e-01   5.368362e-03
  3.157637e+00    4.324593e-01   5.422566e-03
  3.159847e+00    4.426016e-01   5.490679e-03
  3.162058e+00    4.519076e-01   5.552583e-03
  3.164268e+00    4.474217e-01   5.529074e-03
  3.166479e+00    4.368631e-01   5.467062e-03
  3.168689e+00    4.427945e-01   5.507451e-03
  3.170900e+00    4.262394e-01   5.406632e-03
  3.173110e+00    4.266453e-01   5.412025e-03
  3.175321e+00    4.349148e-01   5.466718e-03
  3.177531e+00    4.361867e-01   5.477437e-03
  3.179741e+00    4.359253e-01   5.477858e-03
  3.181952e+00    4.402912e-01   5.507357e-03
  3.184162e+00    4.380721e-01   5.495636e-03
  3.186373e+00    4.328377e-01   5.464307e-03
  3.188583e+00    4.262571e-01   5.424368e-03
  3.190794e+00    4.313607e-01   5.458487e-03
  3.193004e+00    4.403200e-01   5.516131e-03
  3.195215e+00    4.431988e-01   5.535650e-03
  3.197425e+00    4.407327e-01   5.521445e-03
  3.199636e+00    4.320675e-01   5.466151e-03
  3.201846e+00    4.332564e-01   5.473031e-03
  3.204056e+00    4.479503e-01   5.565974e-03
  3.206267e+00    4.475149e-01   5.564142e-03
  3.208477e+00    4.389257e-01   5.511421e-03
  3.210688e+00    4.301742e-01   5.457025e-03
  3.212898e+00    4.319079e-01   5.468589e-03
  3.215109e+00    4.280014e-01   5.444569e-03
  3.217319e+00    4.341191e-01   5.483952e-03
  3.219530e+00    4.250358e-01   5.426684e-03
  3.221740e+00    4.439392e-01   5.546604e-03
  3.223951e+00    4.384960e-01   5.512982e-03
  3.226161e+00    4.374582e-01   5.506634e-03
  3.228372e+00    4.316930e-01   5.470784e-03
  3.230582e+00    4.242845e-01   5.423755e-03
  3.232792e+00    4.234717e-01   5.418777e-03
  3.235003e+00    4.151448e-01   5.365495e-03
  3.237213e+00    4.276608e-01   5.445851e-03
  3.239424e+00    4.205557e-01   5.400448e-03
  3.241634e+00    4.282510e-01   5.449745e-03
  3.243845e+00    4.234606e-01   5.419240e-03
  3.246055e+00    4.353963e-01   5.494815e-03
  3.248266e+00    4.270917e-01   5.442371e-03
  3.250476e+00    4.357153e-01   5.496722e-03
  3.252687e+00    4.167929e-01   5.375980e-03
  3.254897e+00    4.175503e-01   5.380718e-03
  3.257107e+00    4.163152e-01   5.372461e-03
  3.259318e+00    4.250662e-01   5.428392e-03
  3.261528e+00    4.205919e-01   5.399610e-03
  3.263739e+00    4.322426e-01   5.473321e-03
  3.265949e+00    4.297692e-01   5.457524e-03
  3.268160e+00    4.307785e-01   5.463501e-03
  3.270370e+00    4.245619e-01   5.423438e-03
  3.272581e+00    4.153934e-01   5.364274e-03
  3.274791e+00    4.263420e-01   5.433972e-03
  3.277002e+00    4.228097e-01   5.410873e-03
  3.279212e+00    4.149876e-01   5.360213e-03
  3.281422e+00    4.257565e-01   5.428711e-03
  3.283633e+00    4.247144e-01   5.421401e-03
  3.285843e+00    4.357484e-01   5.491028e-03
  3.288054e+00    4.268492e-01   5.433727e-03
  3.290264e+00    4.218731e-01   5.401661e-03
  3.292475e+00    4.292952e-01   5.448114e-03
  3.294685e+00    4.291211e-01   5.446367e-03
  3.296896e+00    4.198202e-01   5.386286e-03
  3.299106e+00    4.207403e-01   5.391621e-03
  3.301317e+00    4.256864e-01   5.422188e-03
  3.303527e+00    4.255143e-01   5.420626e-03
  3.305737e+00    4.240772e-01   5.410424e-03
  3.307948e+00    4.159597e-01   5.357728e-03
  3.310158e+00    4.267057e-01   5.425626e-03
  3.312369e+00    4.212850e-01   5.390186e-03
  3.314579e+00    4.299016e-01   5.444100e-03
  3.316790e+00    4.342267e-01   5.470702e-03
  3.319000e+00    4.299273e-01   5.442371e-03
  3.321211e+00    4.216616e-01   5.389193e-03
  3.323421e+00    4.199284e-01   5.376890e-03
  3.325632e+00    4.244630e-01   5.404953e-03
  3.327842e+00    4.174000e-01   5.358899e-03
  3.330052e+00    4.263229e-01   5.414790e-03
  3.332263e+00    4.166511e-01   5.352011e-03
  3.334473e+00    4.296877e-01   5.434167e-03
  3.336684e+00    4.288820e-01   5.427798e-03
  3.338894e+00    4.295037e-01   5.430884e-03
  3.341105e+00    4.204957e-01   5.372431e-03
  3.343315e+00    4.277878e-01   5.417642e-03
  3.345526e+00    4.305953e-01   5.434501e-03
  3.347736e+00    4.282180e-01   5.418044e-03
  3.349947e+00    4.193855e-01   5.360966e-03
  3.352157e+00    4.145078e-01   5.328513e-03
  3.354368e+00    4.146085e-01   5.327876e-03
  3.356578e+00    4.250386e-01   5.393445e-03
  3.358788e+00    4.160027e-01   5.334499e-03
  3.360999e+00    4.214809e-01   5.368233e-03
  3.363209e+00    4.119180e-01   5.306002e-03
  3.365420e+00    3.978821e-01   5.213321e-03
  3.367630e+00    4.240590e-01   5.381051e-03
  3.369841e+00    4.198406e-01   5.352795e-03
  3.372051e+00    4.240291e-01   5.377458e-03
  3.374262e+00    4.125385e-01   5.301655e-03
  3.376472e+00    4.256465e-01   5.382744e-03
  3.378683e+00    4.078962e-01   5.266848e-03
  3.380893e+00    4.170091e-01   5.322997e-03
  3.383103e+00    4.175524e-01   5.323764e-03
  3.385314e+00    4.192120e-01   5.332096e-03
  3.387524e+00    4.177075e-01   5.319773e-03
  3.389735e+00    4.151576e-01   5.300895e-03
  3.391945e+00    4.209195e-01   5.333814e-03
  3.394156e+00    4.072280e-01   5.242167e-03
  3.396366e+00    4.107231e-01   5.261234e-03
  3.398577e+00    3.937164e-01   5.148154e-03
  3.400787e+00    4.080352e-01   5.252815e-03
  3.402998e+00    3.927385e-01   5.190656e-03
  3.405208e+00    4.026409e-01   5.276283e-03
  3.407418e+00    3.999780e-01   5.274566e-03
  3.409629e+00    3.975695e-01   5.272568e-03
  3.411839e+00    3.847941e-01   5.198715e-03
  3.414050e+00    3.828539e-01   5.196394e-03
  3.416260e+00    3.825002e-01   5.203487e-03
  3.418471e+00    3.847468e-01   5.228028e-03
  3.420681e+00    3.912137e-01   5.280304e-03
  3.422892e+00    3.940120e-01   5.307168e-03
  3.425102e+00    3.994495e-01   5.351576e-03
  3.427313e+00    3.921906e-01   5.309959e-03
  3.429523e+00    3.761930e-01   5.207503e-03
  3.431733e+00    3.815264e-01   5.250895e-03
  3.433944e+00    3.764527e-01   5.222298e-03
  3.436154e+00    3.763484e-01   5.227739e-03
  3.438365e+00    3.841278e-01   5.287451e-03
  3.440575e+00    3.857579e-01   5.304628e-03
  3.442786e+00    3.969634e-01   5.386872e-03
  3.444996e+00    3.744163e-01   5.237127e-03
  3.447207e+00    3.733506e-01   5.234940e-03
  3.449417e+00    3.628122e-01   5.200868e-03
  3.451628e+00    3.606471e-01   5.214444e-03
  3.453838e+00    3.627184e-01   5.250386e-03
  3.456049e+00    3.629411e-01   5.275793e-03
  3.458259e+00    3.682693e-01   5.336366e-03
  3.460469e+00    3.565572e-01   5.270340e-03
  3.462680e+00    3.761947e-01   5.432821e-03
  3.464890e+00    3.737158e-01   5.432911e-03
  3.467101e+00    3.725689e-01   5.442128e-03
  3.469311e+00    3.609489e-01   5.372932e-03
  3.471522e+00    3.819650e-01   5.543648e-03
  3.473732e+00    4.069923e-01   5.738966e-03
  3.475943e+00    3.970323e-01   5.684285e-03
  3.478153e+00    4.236201e-01   5.887670e-03
  3.480364e+00    4.205590e-01   5.882031e-03
  3.482574e+00    4.199579e-01   5.893466e-03
  3.484784e+00    4.331937e-01   6.000876e-03
  3.486995e+00    4.400256e-01   6.063558e-03
  3.489205e+00    4.368199e-01   6.056339e-03
  3.491416e+00    4.508728e-01   6.168274e-03
  3.493626e+00    4.590281e-01   6.238842e-03
  3.495837e+00    4.641146e-01   6.288431e-03
  3.498047e+00    4.735659e-01   6.367120e-03
  3.500258e+00    4.666878e-01   6.335509e-03
  3.502468e+00    4.673427e-01   6.354599e-03
  3.504679e+00    4.514957e-01   6.260258e-03
  3.506889e+00    4.752823e-01   6.437645e-03
  3.509099e+00    4.781598e-01   6.471552e-03
  3.511310e+00    4.809146e-01   6.504703e-03
  3.513520e+00    4.696325e-01   6.442205e-03
  3.515731e+00    4.974514e-01   6.644778e-03
  3.517941e+00    4.851974e-01   6.576735e-03
  3.520152e+00    4.972748e-01   6.672432e-03
  3.522362e+00    4.947808e-01   6.670083e-03
  3.524573e+00    5.122647e-01   6.801249e-03
  3.526783e+00    5.268800e-01   6.911183e-03
  3.528994e+00    5.426078e-01   7.026091e-03
  3.531204e+00    5.280289e-01   6.943628e-03
  3.533414e+00    5.274990e-01   6.952236e-03
  3.535625e+00    5.380234e-01   7.033703e-03
  3.537835e+00    5.341493e-01   7.020517e-03
  3.540046e+00    5.297393e-01   7.000327e-03
  3.542256e+00    5.249326e-01   6.975971e-03
  3.544467e+00    5.348023e-01   7.048841e-03
  3.546677e+00    5.288726e-01   7.017187e-03
  3.548888e+00    5.329664e-01   7.051767e-03
  3.551098e+00    5.456962e-01   7.142836e-03
  3.553309e+00    5.437120e-01   7.138075e-03
  3.555519e+00    5.349517e-01   7.091617e-03
  3.557729e+00    5.189169e-01   6.996061e-03
  3.559940e+00    5.358583e-01   7.120881e-03
  3.562150e+00    5.496618e-01   7.223879e-03
  3.564361e+00    5.491652e-01   7.234088e-03
  3.566571e+00    5.608898e-01   7.325069e-03
  3.568782e+00    5.420837e-01   7.215430e-03
  3.570992e+00    5.312360e-01   7.156529e-03
  3.573203e+00    5.413222e-01   7.238383e-03
  3.575413e+00    5.358286e-01   7.215342e-03
  3.577624e+00    5.326225e-01   7.207782e-03
  3.579834e+00    5.234788e-01   7.159377e-03
  3.582045e+00    5.169446e-01   7.128327e-03
  3.584255e+00    5.313303e-01   7.240812e-03
  3.586465e+00    5.402060e-01   7.315035e-03
  3.588676e+00    5.362927e-01   7.302706e-03
  3.590886e+00    5.251293e-01   7.239858e-03
  3.593097e+00    5.331358e-01   7.309305e-03
  3.595307e+00    5.532295e-01   7.459912e-03
  3.597518e+00    5.209255e-01   7.252891e-03
  3.599728e+00    5.393108e-01   7.393885e-03
  3.601939e+00    5.387554e-01   7.404176e-03
  3.604149e+00    5.388260e-01   7.419148e-03
  3.606360e+00    5.475029e-01   7.492910e-03
  3.608570e+00    5.591751e-01   7.586873e-03
  3.610780e+00    5.428992e-01   7.486762e-03
  3.612991e+00    5.535400e-01   7.569958e-03
  3.615201e+00    5.440988e-01   7.515023e-03
  3.617412e+00    5.443933e-01   7.524399e-03
  3.619622e+00    5.395421e-01   7.496761e-03
  3.621833e+00    5.362398e-01   7.480502e-03
  3.624043e+00    5.580297e-01   7.640691e-03
  3.626254e+00    5.260498e-01   7.428180e-03
  3.628464e+00    5.246332e-01   7.429025e-03
  3.630675e+00    5.230715e-01   7.431936e-03
  3.632885e+00    5.249986e-01   7.459928e-03
  3.635095e+00    5.390058e-01   7.573271e-03
  3.637306e+00    5.596556e-01   7.731666e-03
  3.639516e+00    5.413259e-01   7.618676e-03
  3.641727e+00    5.332223e-01   7.576000e-03
  3.643937e+00    5.235327e-01   7.521264e-03
  3.646148e+00    5.338091e-01   7.609311e-03
  3.648358e+00    5.503317e-01   7.741307e-03
  3.650569e+00    5.290747e-01   7.605001e-03
  3.652779e+00    5.364263e-01   7.672469e-03
  3.654990e+00    5.302366e-01   7.642939e-03
  3.657200e+00    5.254192e-01   7.622937e-03
  3.659410e+00    5.534480e-01   7.838873e-03
  3.661621e+00    5.262313e-01   7.658760e-03
  3.663831e+00    5.047389e-01   7.515420e-03
  3.666042e+00    5.420005e-01   7.803209e-03
  3.668252e+00    5.446189e-01   7.837442e-03
  3.670463e+00    5.486435e-01   7.881870e-03
  3.672673e+00    5.304923e-01   7.765816e-03
  3.674884e+00    5.193322e-01   7.698897e-03
  3.677094e+00    5.315303e-01   7.804343e-03
  3.679305e+00    5.066178e-01   7.634460e-03
  3.681515e+00    5.292956e-01   7.819001e-03
  3.683726e+00    5.343843e-01   7.872438e-03
  3.685936e+00    5.215706e-01   7.793069e-03
  3.688146e+00    5.281740e-01   7.857995e-03
  3.690357e+00    5.492648e-01   8.029635e-03
  3.692567e+00    5.459407e-01   8.021706e-03
  3.694778e+00    5.290232e-01   7.912555e-03
  3.696988e+00    5.171960e-01   7.839434e-03
  3.699199e+00    5.226102e-01   7.896539e-03
  3.701409e+00    5.167400e-01   7.868327e-03
  3.703620e+00    5.406235e-01   8.064650e-03
  3.705830e+00    5.223032e-01   7.943224e-03
  3.708041e+00    5.154012e-01   7.906991e-03
  3.710251e+00    5.361148e-01   8.081232e-03
  3.712461e+00    5.357842e-01   8.095694e-03
  3.714672e+00    4.992785e-01   7.831438e-03
  3.716882e+00    5.143229e-01   7.965074e-03
  3.719093e+00    5.282061e-01   8.089163e-03
  3.721303e+00    5.400581e-01   8.196714e-03
  3.723514e+00    5.121198e-01   7.999040e-03
  3.725724e+00    5.129536e-01   8.022564e-03
  3.727935e+00    5.245042e-01   8.130011e-03
  3.730145e+00    5.082108e-01   8.019871e-03
  3.732356e+00    5.312073e-01   8.217149e-03
  3.734566e+00    5.143045e-01   8.102856e-03
  3.736776e+00    5.175406e-01   8.146125e-03
  3.738987e+00    5.341867e-01   8.294147e-03
  3.741197e+00    5.110515e-01   8.130552e-03
  3.743408e+00    5.084913e-01   8.128125e-03
  3.745618e+00    5.230544e-01   8.262143e-03
  3.747829e+00    5.259113e-01   8.303072e-03
  3.750039e+00    5.053836e-01   8.157691e-03
  3.752250e+00    4.945134e-01   8.087629e-03
  3.754460e+00    5.138600e-01   8.262887e-03
  3.756671e+00    5.064657e-01   8.222049e-03
  3.758881e+00    4.897307e-01   8.103305e-03
  3.761091e+00    5.061746e-01   8.257299e-03
  3.763302e+00    5.131761e-01   8.333431e-03
  3.765512e+00    5.061753e-01   8.295584e-03
  3.767723e+00    5.351190e-01   8.549368e-03
  3.769933e+00    5.149279e-01   8.406025e-03
  3.772144e+00    5.139718e-01   8.417917e-03
  3.774354e+00    5.274169e-01   8.547578e-03
  3.776565e+00    5.287921e-01   8.579058e-03
  3.778775e+00    5.173839e-01   8.506209e-03
  3.780986e+00    5.139654e-01   8.498576e-03
  3.783196e+00    5.148337e-01   8.526190e-03
  3.785407e+00    5.081908e-01   8.491596e-03
  3.787617e+00    4.997973e-01   8.441779e-03
  3.789827e+00    5.222828e-01   8.650547e-03
  3.792038e+00    5.289163e-01   8.726751e-03
  3.794248e+00    5.161325e-01   8.642088e-03
  3.796459e+00    4.803099e-01   8.357695e-03
  3.798669e+00    5.114245e-01   8.645755e-03
  3.800880e+00    4.880303e-01   8.466913e-03
  3.803090e+00    5.046126e-01   8.631396e-03
  3.805301e+00    4.945829e-01   8.567206e-03
  3.807511e+00    4.798426e-01   8.460073e-03
  3.809722e+00    4.793373e-01   8.477462e-03
  3.811932e+00    4.981589e-01   8.664415e-03
  3.814142e+00    5.080311e-01   8.772953e-03
  3.816353e+00    5.044507e-01   8.764995e-03
  3.818563e+00    4.900626e-01   8.661954e-03
  3.820774e+00    5.069378e-01   8.833167e-03
  3.822984e+00    4.848605e-01   8.661844e-03
  3.825195e+00    4.726475e-01   8.575036e-03
  3.827405e+00    4.993052e-01   8.837557e-03
  3.829616e+00    5.014019e-01   8.880216e-03
  3.831826e+00    4.857809e-01   8.764684e-03
  3.834037e+00    5.006677e-01   8.922561e-03
  3.836247e+00    5.107414e-01   9.036932e-03
  3.838457e+00    4.667254e-01   8.663018e-03
  3.840668e+00    4.893214e-01   8.895217e-03
  3.842878e+00    5.063041e-01   9.074080e-03
  3.845089e+00    5.240003e-01   9.257583e-03
  3.847299e+00    4.782243e-01   8.869336e-03
  3.849510e+00    4.866765e-01   8.972937e-03
  3.851720e+00    4.968465e-01   9.087741e-03
  3.853931e+00    4.970070e-01   9.108178e-03
  3.856141e+00    4.969140e-01   9.126437e-03
  3.858352e+00    4.873697e-01   9.057416e-03
  3.860562e+00    4.901633e-01   9.102631e-03
  3.862772e+00    4.945693e-01   9.162973e-03
  3.864983e+00    5.052750e-01   9.281604e-03
  3.867193e+00    4.716981e-01   8.987221e-03
  3.869404e+00    4.588760e-01   8.883339e-03
  3.871614e+00    4.829646e-01   9.133214e-03
  3.873825e+00    4.881493e-01   9.202374e-03
  3.876035e+00    4.822004e-01   9.166481e-03
  3.878246e+00    4.830865e-01   9.200425e-03
  3.880456e+00    4.758163e-01   9.159405e-03
  3.882667e+00    5.015429e-01   9.433392e-03
  3.884877e+00    4.911338e-01   9.364716e-03
  3.887087e+00    5.040811e-01   9.517629e-03
  3.889298e+00    5.138872e-01   9.640850e-03
  3.891508e+00    4.851596e-01   9.397891e-03
  3.893719e+00    5.161489e-01   9.725090e-03
  3.895929e+00    4.884015e-01   9.491545e-03
  3.898140e+00    4.585378e-01   9.227378e-03
  3.900350e+00    4.944719e-01   9.614265e-03
  3.902561e+00    4.957355e-01   9.659294e-03
  3.904771e+00    4.927302e-01   9.662698e-03
  3.906982e+00    5.108271e-01   9.872511e-03
  3.909192e+00    5.253107e-01   1.004616e-02
  3.911403e+00    4.894035e-01   9.730850e-03
  3.913613e+00    4.966707e-01   9.837267e-03
  3.915823e+00    4.755860e-01   9.660608e-03
  3.918034e+00    4.851184e-01   9.791981e-03
  3.920244e+00    5.071362e-01   1.004818e-02
  3.922455e+00    5.099025e-01   1.011250e-02
  3.924665e+00    4.831560e-01   9.879895e-03
  3.926876e+00    5.216912e-01   1.030471e-02
  3.929086e+00    4.836802e-01   9.959409e-03
  3.931297e+00    5.209981e-01   1.037247e-02
  3.933507e+00    4.990115e-01   1.018054e-02
  3.935718e+00    4.863674e-01   1.007941e-02
  3.937928e+00    4.924627e-01   1.017200e-02
  3.940138e+00    4.961760e-01   1.023990e-02
  3.942349e+00    4.795457e-01   1.009646e-02
  3.944559e+00    4.692288e-01   1.001671e-02
  3.946770e+00    4.693779e-01   1.004788e-02
  3.948980e+00    4.789839e-01   1.018069e-02
  3.951191e+00    4.765072e-01   1.018486e-02
  3.953401e+00    4.938862e-01   1.040055e-02
  3.955612e+00    4.693647e-01   1.017012e-02
  3.957822e+00    4.728465e-01   1.023903e-02
  3.960033e+00    4.914603e-01   1.047147e-02
  3.962243e+00    4.723755e-01   1.029849e-02
  3.964453e+00    4.500373e-01   1.008387e-02
  3.966664e+00    4.994471e-01   1.065685e-02
  3.968874e+00    5.076552e-01   1.077317e-02
  3.971085e+00    5.123236e-01   1.084510e-02
  3.973295e+00    5.091802e-01   1.083380e-02
  3.975506e+00    4.913715e-01   1.066441e-02
  3.977716e+00    4.774671e-01   1.053423e-02
  3.979927e+00    4.930523e-01   1.072705e-02
  3.982137e+00    4.812751e-01   1.062036e-02
  3.984348e+00    4.784548e-01   1.061160e-02
  3.986558e+00    5.034994e-01   1.090849e-02
  3.988768e+00    5.264289e-01   1.117813e-02
  3.990979e+00    4.763066e-01   1.065521e-02
  3.993189e+00    5.204272e-01   1.116175e-02
  3.995400e+00    4.711564e-01   1.064337e-02
  3.997610e+00    4.468388e-01   1.039372e-02
  3.999821e+00    5.040176e-01   1.107689e-02
  4.002031e+00    5.064740e-01   1.114320e-02
  4.004242e+00    4.932673e-01   1.103572e-02
  4.006452e+00    5.068656e-01   1.122708e-02
  4.008663e+00    5.134400e-01   1.134083e-02
  4.010873e+00    4.759552e-01   1.095863e-02
  4.013084e+00    4.888133e-01   1.114676e-02
  4.015294e+00    4.866742e-01   1.116339e-02
  4.017504e+00    5.084267e-01   1.145305e-02
  4.019715e+00    4.829449e-01   1.120492e-02
  4.021925e+00    4.693748e-01   1.108849e-02
  4.024136e+00    4.947961e-01   1.142920e-02
  4.026346e+00    4.668268e-01   1.114472e-02
  4.028557e+00    4.897599e-01   1.145978e-02
  4.030767e+00    4.742875e-01   1.132247e-02
  4.032978e+00    4.612171e-01   1.121064e-02
  4.035188e+00    5.081767e-01   1.181469e-02
  4.037399e+00    5.319038e-01   1.213745e-02
  4.039609e+00    4.954056e-01   1.176192e-02
  4.041819e+00    4.823988e-01   1.165518e-02
  4.044030e+00    4.566986e-01   1.138906e-02
  4.046240e+00    4.588551e-01   1.146441e-02
  4.048451e+00    4.527547e-01   1.143718e-02
  4.050661e+00    4.950088e-01   1.201118e-02
  4.052872e+00    4.895584e-01   1.199786e-02
  4.055082e+00    4.984056e-01   1.216037e-02
  4.057293e+00    4.932687e-01   1.215172e-02
  4.059503e+00    4.919551e-01   1.219074e-02
  4.061714e+00    5.266943e-01   1.267299e-02
  4.063924e+00    4.921980e-01   1.230820e-02
  4.066134e+00    4.798814e-01   1.221043e-02
  4.068345e+00    4.703996e-01   1.214747e-02
  4.070555e+00    4.829948e-01   1.236844e-02
  4.072766e+00    4.715849e-01   1.228164e-02
  4.074976e+00    4.687181e-01   1.230513e-02
  4.077187e+00    5.000753e-01   1.277357e-02
  4.079397e+00    4.632382e-01   1.235671e-02
  4.081608e+00    4.599983e-01   1.237753e-02
  4.083818e+00    4.683070e-01   1.255372e-02
  4.086029e+00    4.550753e-01   1.244036e-02
  4.088239e+00    4.429428e-01   1.233955e-02
  4.090449e+00    4.735124e-01   1.282726e-02
  4.092660e+00    5.067959e-01   1.334360e-02
  4.094870e+00    4.668444e-01   1.287800e-02
  4.097081e+00    5.354990e-01   1.386807e-02
  4.099291e+00    5.135671e-01   1.363720e-02
  4.101502e+00    5.134661e-01   1.368685e-02
  4.103712e+00    4.893347e-01   1.341129e-02
  4.105923e+00    4.686294e-01   1.317505e-02
  4.108133e+00    4.870259e-01   1.348303e-02
  4.110344e+00    5.100255e-01   1.385042e-02
  4.112554e+00    4.725387e-01   1.338445e-02
  4.114764e+00    5.031197e-01   1.386628e-02
  4.116975e+00    5.262717e-01   1.423767e-02
  4.119185e+00    5.037944e-01   1.398673e-02
  4.121396e+00    4.808150e-01   1.372062e-02
  4.123606e+00    4.707195e-01   1.363132e-02
  4.125817e+00    4.617393e-01   1.355746e-02
  4.128027e+00    4.550724e-01   1.351578e-02
  4.130238e+00    4.424350e-01   1.338400e-02
  4.132448e+00    4.464281e-01   1.350254e-02
  4.134659e+00    4.902391e-01   1.421042e-02
  4.136869e+00    4.835020e-01   1.417540e-02
  4.139080e+00    5.062531e-01   1.457040e-02
  4.141290e+00    5.620415e-01   1.542035e-02
  4.143500e+00    4.817366e-01   1.434216e-02
  4.145711e+00    5.107316e-01   1.483634e-02
  4.147921e+00    4.578056e-01   1.411135e-02
  4.150132e+00    4.935970e-01   1.472204e-02
  4.152342e+00    5.180093e-01   1.515498e-02
  4.154553e+00    4.656179e-01   1.443665e-02
  4.156763e+00    4.935830e-01   1.493709e-02
  4.158974e+00    5.239143e-01   1.546676e-02
  4.161184e+00    4.727643e-01   1.476530e-02
  4.163395e+00    5.083202e-01   1.538846e-02
  4.165605e+00    4.569830e-01   1.466666e-02
  4.167815e+00    4.931045e-01   1.531483e-02
  4.170026e+00    4.735960e-01   1.508785e-02
  4.172236e+00    5.030220e-01   1.563355e-02
  4.174447e+00    4.834881e-01   1.541041e-02
  4.176657e+00    4.919866e-01   1.563029e-02
  4.178868e+00    4.835810e-01   1.558393e-02
  4.181078e+00    4.820468e-01   1.564676e-02
  4.183289e+00    4.872189e-01   1.582054e-02
  4.185499e+00    4.800511e-01   1.579642e-02
  4.187710e+00    4.567067e-01   1.549783e-02
  4.189920e+00    4.386189e-01   1.527922e-02
  4.192130e+00    4.722490e-01   1.595102e-02
  4.194341e+00    4.505609e-01   1.567610e-02
  4.196551e+00    5.186429e-01   1.692514e-02
  4.198762e+00    4.857520e-01   1.648378e-02
  4.200972e+00    4.987287e-01   1.681061e-02
  4.203183e+00    4.563874e-01   1.618736e-02
  4.205393e+00    4.572876e-01   1.631082e-02
  4.207604e+00    5.550843e-01   1.809326e-02
  4.209814e+00    5.311953e-01   1.782096e-02
  4.212025e+00    4.951532e-01   1.732777e-02
  4.214235e+00    4.930631e-01   1.741399e-02
  4.216445e+00    4.551204e-01   1.685101e-02
  4.218656e+00    4.446316e-01   1.678102e-02
  4.220866e+00    4.617800e-01   1.722795e-02
  4.223077e+00    4.320516e-01   1.679261e-02
  4.225287e+00    4.307190e-01   1.689810e-02
  4.227498e+00    4.863450e-01   1.809726e-02
  4.229708e+00    4.783291e-01   1.809338e-02
  4.231919e+00    4.530166e-01   1.775385e-02
  4.234129e+00    4.732695e-01   1.829863e-02
  4.236340e+00    4.995603e-01   1.896063e-02
  4.238550e+00    4.611372e-01   1.837811e-02
  4.240761e+00    4.301375e-01   1.790614e-02
  4.242971e+00    4.414644e-01   1.830643e-02
  4.245181e+00    4.468863e-01   1.859192e-02
  4.247392e+00    4.371154e-01   1.855901e-02
  4.249602e+00    5.276788e-01   2.059376e-02
  4.251813e+00    4.705607e-01   1.963899e-02
  4.254023e+00    4.606275e-01   1.962642e-02
  4.256234e+00    5.015231e-01   2.069804e-02
  4.258444e+00    5.070837e-01   2.103019e-02
  4.260655e+00    5.153062e-01   2.143326e-02
  4.262865e+00    4.391258e-01   2.000993e-02
  4.265076e+00    4.148402e-01   1.966983e-02
  4.267286e+00    4.658320e-01   2.109087e-02
  4.269496e+00    4.621641e-01   2.126445e-02
  4.271707e+00    4.462380e-01   2.115227e-02
  4.273917e+00    4.861827e-01   2.236446e-02
  4.276128e+00    4.950945e-01   2.286848e-02
  4.278338e+00    4.780900e-01   2.277263e-02
  4.280549e+00    4.276443e-01   2.184612e-02
  4.282759e+00    4.794714e-01   2.346475e-02
  4.284970e+00    4.630667e-01   2.340089e-02
  4.287180e+00    5.238183e-01   2.518764e-02
  4.289391e+00    5.002204e-01   2.479776e-02
  4.291601e+00    5.003011e-01   2.499825e-02
  4.293811e+00    5.441303e-01   2.627376e-02
  4.296022e+00    5.987061e-01   2.778175e-02
  4.298232e+00    4.663215e-01   2.472370e-02
  4.300443e+00    5.041793e-01   2.591992e-02
  4.302653e+00    3.497248e-01   2.177501e-02
  4.304864e+00    4.693786e-01   2.544383e-02
  4.307074e+00    4.465061e-01   2.504017e-02
  4.309285e+00    4.188053e-01   2.447032e-02
  4.311495e+00    4.867320e-01   2.662744e-02
  4.313706e+00    4.992878e-01   2.722251e-02
  4.315916e+00    3.916562e-01   2.434713e-02
  4.318126e+00    4.180219e-01   2.540265e-02
  4.320337e+00    3.940468e-01   2.491306e-02
  4.322547e+00    4.314099e-01   2.634263e-02
  4.324758e+00    5.523608e-01   3.011821e-02
  4.326968e+00    5.356662e-01   2.999461e-02
  4.329179e+00    5.413381e-01   3.048364e-02
  4.331389e+00    4.973714e-01   2.955722e-02
  4.333600e+00    4.933047e-01   2.978778e-02
  4.335810e+00    3.995355e-01   2.712648e-02
  4.338021e+00    4.826468e-01   3.019541e-02
  4.340231e+00    5.360816e-01   3.222353e-02
  4.342442e+00    5.113589e-01   3.189283e-02
  4.344652e+00    5.933560e-01   3.482319e-02
  4.346862e+00    5.409082e-01   3.371228e-02
  4.349073e+00    5.974793e-01   3.594829e-02
  4.351283e+00    5.295967e-01   3.435045e-02
  4.353494e+00    4.752630e-01   3.304244e-02
  4.355704e+00    4.788966e-01   3.370329e-02
  4.357915e+00    3.509844e-01   2.933392e-02
  4.360125e+00    3.209555e-01   2.852782e-02
  4.362336e+00    5.245515e-01   3.713687e-02
  4.364546e+00    4.996880e-01   3.690628e-02
  4.366757e+00    4.647883e-01   3.630252e-02
  4.368967e+00    5.033300e-01   3.853005e-02
  4.371177e+00    5.927795e-01   4.270291e-02
  4.373388e+00    4.112923e-01   3.636746e-02
  4.375598e+00    4.180492e-01   3.749780e-02
  4.377809e+00    4.573461e-01   4.021656e-02
  4.380019e+00    3.161151e-01   3.427526e-02
  4.382230e+00    4.470268e-01   4.189578e-02
  4.384440e+00    3.364184e-01   3.739151e-02
  4.386651e+00    4.910449e-01   4.656770e-02
  4.388861e+00    4.055393e-01   4.373933e-02
  4.391072e+00    3.501516e-01   4.207159e-02
  4.393282e+00    2.355424e-01   3.584056e-02
  4.395492e+00    2.844242e-01   4.101742e-02
  4.397703e+00    2.907746e-01   4.337114e-02
  4.399913e+00    2.343228e-01   4.090400e-02
  4.402124e+00    2.227189e-01   4.213452e-02
  4.404334e+00    5.173564e-01   6.827184e-02
  4.406545e+00    1.975961e-01   4.533608e-02
  4.408755e+00    3.386477e-01   6.436240e-02
  4.410966e+00    1.018895e-01   3.907314e-02
  4.413176e+00    1.655668e-01   5.638237e-02
  4.415387e+00   -7.147911e-01            nan
  4.417597e+00   -1.862366e+00            nan
  4.419807e+00    4.633816e-01   2.445061e-01
