# == pyFAI calibration ==
# Distance Sample to Detector: 0.216 m
# PONI: 1.166e-01, 1.308e-01 m
# Rotations: 0.000000 0.000000 0.000000 rad
# 
# == Fit2d calibration ==
# Distance Sample-beamCenter: 216.000 mm
# Center: x=1744.293, y=1555.000 pix
# Tilt: 0.000 deg  TiltPlanRot: 0.000 deg
# 
# Detector Eiger 9M	 PixelSize= 7.500e-05, 7.500e-05 m
#    Detector has a mask: True 
#    Detector has a dark current: False 
#    detector has a flat field: False 
# 
# Wavelength: 9.8e-11 m
# Mask applied: from detector
# Dark current applied: False
# Flat field applied: False
# Polarization factor: None
# Normalization factor: 1.0
# 
# Headers of the input frame:
# {
# "_array_data.header_convention": "SLS_1.0",
# "_array_data.header_contents": "# Detector: Dectris Eiger 9M, S/N E-18-0102\r\n# Pixel_size 75e-6 m x 75e-6 m\r\n# Silicon sensor, thickness 0.000450 m\r\n# Exposure_time 0.024997 s\r\n# Exposure_period 0.025000 s\r\n# Count_cutoff 62318 counts\r\n# Wavelength 0.980106 A\r\n# Detector_distance 0.215992 m\r\n# Beam_xy (1555, 1744) pixels\r\n# Start_angle 0.000000 deg.\r\n# Angle_increment 0.000000 deg.",
# "Content-Type": "application/octet-stream;",
# "conversions": "x-CBF_BYTE_OFFSET",
# "Content-Transfer-Encoding": "BINARY",
# "X-Binary-Size": "10166590",
# "X-Binary-ID": "1",
# "X-Binary-Element-Type": "signed 32-bit integer",
# "X-Binary-Element-Byte-Order": "LITTLE_ENDIAN",
# "Content-MD5": "etSeZFrdzi8ex9gpbI2p9Q==",
# "X-Binary-Number-of-Elements": "10166590",
# "X-Binary-Size-Fastest-Dimension": "3110",
# "X-Binary-Size-Second-Dimension": "3269",
# "X-Binary-Size-Padding": "4095"
# }
# --> H:/Proxima2a_2019-04-05/RAW_DATA/C5_gel17_position5/C5_mesh_1_data.cbf/C5_mesh_1_data.cbf000151.dat
#        q_A^-1              I           sigma 
  1.105228e-03    4.632374e-01   3.682890e-01
  3.315685e-03    1.183133e+00   3.578179e-01
  5.526141e-03    1.065842e+00   2.626144e-01
  7.736597e-03    1.409683e+00   2.551414e-01
  9.947054e-03    1.337551e+00   2.190946e-01
  1.215751e-02    1.353935e+00   1.993277e-01
  1.436797e-02    1.238688e+00   1.753706e-01
  1.657842e-02    1.379727e+00   1.722824e-01
  1.878888e-02    1.582517e+00   1.733156e-01
  2.099934e-02    1.414726e+00   1.550380e-01
  2.320979e-02    1.510446e+00   1.523651e-01
  2.542025e-02    1.399189e+00   1.401353e-01
  2.763070e-02    1.301976e+00   1.296558e-01
  2.984116e-02    1.305914e+00   1.249493e-01
  3.205162e-02    1.494951e+00   1.290030e-01
  3.426207e-02    1.486709e+00   1.244193e-01
  3.647253e-02    1.373333e+00   1.158984e-01
  3.868299e-02    1.468415e+00   1.163778e-01
  4.089344e-02    1.445919e+00   1.123188e-01
  4.310390e-02    1.544592e+00   1.130657e-01
  4.531436e-02    1.479955e+00   1.079419e-01
  4.752481e-02    1.435688e+00   1.038123e-01
  4.973527e-02    1.413055e+00   1.006773e-01
  5.194572e-02    1.512928e+00   1.019324e-01
  5.415618e-02    1.548406e+00   1.009907e-01
  5.636664e-02    1.607210e+00   1.008559e-01
  5.857709e-02    1.420552e+00   9.301291e-02
  6.078755e-02    1.569443e+00   9.596881e-02
  6.299801e-02    1.484178e+00   9.167261e-02
  6.520846e-02    1.492503e+00   9.035835e-02
  6.741892e-02    1.474997e+00   8.833757e-02
  6.962938e-02    1.467836e+00   8.671715e-02
  7.183983e-02    1.601492e+00   8.917321e-02
  7.405029e-02    1.570652e+00   8.698037e-02
  7.626074e-02    1.477082e+00   8.311753e-02
  7.847120e-02    1.541900e+00   8.371477e-02
  8.068166e-02    1.465440e+00   8.048637e-02
  8.289211e-02    1.458234e+00   7.921006e-02
  8.510257e-02    1.412155e+00   7.692910e-02
  8.731303e-02    1.427231e+00   7.635047e-02
  8.952348e-02    1.450219e+00   7.600889e-02
  9.173394e-02    1.509612e+00   7.660665e-02
  9.394439e-02    1.577185e+00   7.737321e-02
  9.615485e-02    1.573544e+00   7.638871e-02
  9.836531e-02    1.544226e+00   7.481658e-02
  1.005758e-01    1.591162e+00   7.510634e-02
  1.027862e-01    1.562292e+00   7.361547e-02
  1.049967e-01    1.555372e+00   7.267366e-02
  1.072071e-01    1.562651e+00   7.208779e-02
  1.094176e-01    1.481499e+00   6.947733e-02
  1.116280e-01    1.484201e+00   6.884714e-02
  1.138385e-01    1.607641e+00   7.095251e-02
  1.160490e-01    1.556037e+00   6.913564e-02
  1.182594e-01    1.595106e+00   6.933939e-02
  1.204699e-01    1.578621e+00   6.834387e-02
  1.226803e-01    1.554861e+00   6.721096e-02
  1.248908e-01    1.707272e+00   6.980117e-02
  1.271012e-01    1.685093e+00   6.873932e-02
  1.293117e-01    1.621631e+00   6.685285e-02
  1.315222e-01    1.647821e+00   6.682026e-02
  1.337326e-01    1.640094e+00   6.610892e-02
  1.359431e-01    1.562747e+00   6.456901e-02
  1.381535e-01    1.560355e+00   6.538560e-02
  1.403640e-01    1.624278e+00   6.699955e-02
  1.425744e-01    1.606536e+00   6.673906e-02
  1.447849e-01    1.647495e+00   6.760004e-02
  1.469953e-01    1.664476e+00   6.790500e-02
  1.492058e-01    1.610550e+00   6.671828e-02
  1.514163e-01    1.650478e+00   6.742811e-02
  1.536267e-01    1.642436e+00   6.713230e-02
  1.558372e-01    1.608721e+00   6.629302e-02
  1.580476e-01    1.612658e+00   6.621305e-02
  1.602581e-01    1.598393e+00   6.575210e-02
  1.624685e-01    1.651041e+00   6.664325e-02
  1.646790e-01    1.628665e+00   6.600007e-02
  1.668895e-01    1.650398e+00   6.624707e-02
  1.690999e-01    1.749903e+00   6.801006e-02
  1.713104e-01    1.782491e+00   6.842740e-02
  1.735208e-01    1.898798e+00   7.040492e-02
  1.757313e-01    1.901364e+00   7.023172e-02
  1.779417e-01    1.802351e+00   6.815562e-02
  1.801522e-01    1.847825e+00   6.879024e-02
  1.823626e-01    1.917515e+00   6.984215e-02
  1.845731e-01    1.952567e+00   7.024932e-02
  1.867836e-01    1.971429e+00   7.034960e-02
  1.889940e-01    1.991951e+00   7.048371e-02
  1.912045e-01    2.049565e+00   7.125704e-02
  1.934149e-01    1.997381e+00   7.010862e-02
  1.956254e-01    2.084229e+00   7.138036e-02
  1.978358e-01    2.073993e+00   7.096091e-02
  2.000463e-01    2.081736e+00   7.085761e-02
  2.022568e-01    1.960654e+00   6.854037e-02
  2.044672e-01    2.052396e+00   6.988533e-02
  2.066777e-01    2.162885e+00   7.150368e-02
  2.088881e-01    2.035589e+00   6.914070e-02
  2.110986e-01    1.968765e+00   6.776315e-02
  2.133090e-01    1.978301e+00   6.770623e-02
  2.155195e-01    2.037961e+00   6.849162e-02
  2.177300e-01    2.013821e+00   6.754991e-02
  2.199404e-01    1.948953e+00   6.470201e-02
  2.221509e-01    1.967173e+00   6.393638e-02
  2.243613e-01    1.994658e+00   6.356526e-02
  2.265718e-01    2.071187e+00   6.405930e-02
  2.287822e-01    2.077715e+00   6.352509e-02
  2.309927e-01    2.210082e+00   6.492055e-02
  2.332031e-01    2.191787e+00   6.409794e-02
  2.354136e-01    2.207305e+00   6.380310e-02
  2.376241e-01    2.148926e+00   6.246509e-02
  2.398345e-01    2.127186e+00   6.168835e-02
  2.420450e-01    2.210654e+00   6.243757e-02
  2.442554e-01    2.133044e+00   6.090923e-02
  2.464659e-01    2.185592e+00   6.124098e-02
  2.486763e-01    2.186234e+00   6.084737e-02
  2.508868e-01    2.248392e+00   6.131703e-02
  2.530973e-01    2.223778e+00   6.060243e-02
  2.553077e-01    2.094955e+00   5.846410e-02
  2.575182e-01    2.118185e+00   5.843953e-02
  2.597286e-01    2.095974e+00   5.779439e-02
  2.619391e-01    2.144483e+00   5.812280e-02
  2.641495e-01    2.126955e+00   5.756441e-02
  2.663600e-01    2.081759e+00   5.663635e-02
  2.685704e-01    2.117757e+00   5.681428e-02
  2.707809e-01    2.104826e+00   5.633993e-02
  2.729914e-01    2.029906e+00   5.503981e-02
  2.752018e-01    2.009965e+00   5.448373e-02
  2.774123e-01    2.005945e+00   5.415118e-02
  2.796227e-01    2.042926e+00   5.437774e-02
  2.818332e-01    2.084486e+00   5.465406e-02
  2.840436e-01    2.038428e+00   5.378490e-02
  2.862541e-01    2.005322e+00   5.308990e-02
  2.884646e-01    2.030365e+00   5.316686e-02
  2.906750e-01    2.043201e+00   5.308178e-02
  2.928855e-01    2.049558e+00   5.291795e-02
  2.950959e-01    1.967324e+00   5.160731e-02
  2.973064e-01    1.993918e+00   5.172145e-02
  2.995168e-01    1.972191e+00   5.120591e-02
  3.017273e-01    1.983976e+00   5.113223e-02
  3.039377e-01    1.966600e+00   5.068493e-02
  3.061482e-01    1.990677e+00   5.077365e-02
  3.083587e-01    1.972548e+00   5.032316e-02
  3.105691e-01    1.990022e+00   5.032966e-02
  3.127796e-01    1.902442e+00   4.900283e-02
  3.149900e-01    1.932826e+00   4.918677e-02
  3.172005e-01    1.946835e+00   4.916288e-02
  3.194109e-01    1.877557e+00   4.808091e-02
  3.216214e-01    1.905321e+00   4.823746e-02
  3.238319e-01    1.956767e+00   4.869068e-02
  3.260423e-01    1.948063e+00   4.838877e-02
  3.282528e-01    1.935835e+00   4.804463e-02
  3.304632e-01    1.900552e+00   4.742035e-02
  3.326737e-01    1.882491e+00   4.701036e-02
  3.348841e-01    1.935362e+00   4.748109e-02
  3.370946e-01    1.923171e+00   4.715326e-02
  3.393050e-01    1.861712e+00   4.621793e-02
  3.415155e-01    1.928021e+00   4.685697e-02
  3.437260e-01    1.957578e+00   4.703978e-02
  3.459364e-01    1.964338e+00   4.694661e-02
  3.481469e-01    1.837762e+00   4.524315e-02
  3.503573e-01    1.867189e+00   4.543779e-02
  3.525678e-01    1.861645e+00   4.520861e-02
  3.547782e-01    1.821689e+00   4.455918e-02
  3.569887e-01    1.833623e+00   4.454651e-02
  3.591992e-01    1.817546e+00   4.419384e-02
  3.614096e-01    1.843571e+00   4.435480e-02
  3.636201e-01    1.847579e+00   4.424695e-02
  3.658305e-01    1.819536e+00   4.376009e-02
  3.680410e-01    1.873261e+00   4.424872e-02
  3.702514e-01    1.868968e+00   4.404937e-02
  3.724619e-01    1.834034e+00   4.348714e-02
  3.746724e-01    1.797466e+00   4.290780e-02
  3.768828e-01    1.789583e+00   4.266953e-02
  3.790933e-01    1.854622e+00   4.329643e-02
  3.813037e-01    1.815917e+00   4.270210e-02
  3.835142e-01    1.798929e+00   4.236230e-02
  3.857246e-01    1.806565e+00   4.231471e-02
  3.879351e-01    1.824140e+00   4.238242e-02
  3.901455e-01    1.872204e+00   4.280045e-02
  3.923560e-01    1.776765e+00   4.156277e-02
  3.945665e-01    1.802286e+00   4.172744e-02
  3.967769e-01    1.793791e+00   4.149861e-02
  3.989874e-01    1.824192e+00   4.171814e-02
  4.011978e-01    1.739823e+00   4.061668e-02
  4.034083e-01    1.816811e+00   4.137819e-02
  4.056187e-01    1.874169e+00   4.189681e-02
  4.078292e-01    1.827790e+00   4.124998e-02
  4.100397e-01    1.805625e+00   4.087390e-02
  4.122501e-01    1.816262e+00   4.087148e-02
  4.144606e-01    1.831654e+00   4.092257e-02
  4.166710e-01    1.847516e+00   4.097720e-02
  4.188815e-01    1.824311e+00   4.059875e-02
  4.210919e-01    1.831309e+00   4.055734e-02
  4.233024e-01    1.866527e+00   4.082502e-02
  4.255128e-01    1.827491e+00   4.027912e-02
  4.277233e-01    1.788858e+00   3.973658e-02
  4.299338e-01    1.779625e+00   3.951985e-02
  4.321442e-01    1.825224e+00   3.990844e-02
  4.343547e-01    1.805743e+00   3.958264e-02
  4.365651e-01    1.807920e+00   3.949397e-02
  4.387756e-01    1.788309e+00   3.916918e-02
  4.409860e-01    1.786544e+00   3.904142e-02
  4.431965e-01    1.706365e+00   3.804977e-02
  4.454070e-01    1.722164e+00   3.811915e-02
  4.476174e-01    1.751665e+00   3.833871e-02
  4.498279e-01    1.773117e+00   3.846781e-02
  4.520383e-01    1.747078e+00   3.807952e-02
  4.542488e-01    1.717049e+00   3.764905e-02
  4.564592e-01    1.743367e+00   3.783470e-02
  4.586697e-01    1.746222e+00   3.776517e-02
  4.608801e-01    1.752371e+00   3.773028e-02
  4.630906e-01    1.725086e+00   3.733625e-02
  4.653011e-01    1.768091e+00   3.769937e-02
  4.675115e-01    1.771253e+00   3.763369e-02
  4.697220e-01    1.712051e+00   3.690257e-02
  4.719324e-01    1.726820e+00   3.696549e-02
  4.741429e-01    1.811030e+00   3.775857e-02
  4.763533e-01    1.740205e+00   3.691800e-02
  4.785638e-01    1.769083e+00   3.712690e-02
  4.807743e-01    1.770383e+00   3.704607e-02
  4.829847e-01    1.777567e+00   3.702740e-02
  4.851952e-01    1.696784e+00   3.608472e-02
  4.874056e-01    1.687379e+00   3.589381e-02
  4.896161e-01    1.726658e+00   3.621915e-02
  4.918265e-01    1.730722e+00   3.617169e-02
  4.940370e-01    1.682495e+00   3.557613e-02
  4.962475e-01    1.705626e+00   3.573137e-02
  4.984579e-01    1.701947e+00   3.560485e-02
  5.006684e-01    1.687811e+00   3.537022e-02
  5.028788e-01    1.731319e+00   3.573641e-02
  5.050893e-01    1.729449e+00   3.563023e-02
  5.072997e-01    1.725099e+00   3.549946e-02
  5.095102e-01    1.717660e+00   3.533798e-02
  5.117206e-01    1.719669e+00   3.527457e-02
  5.139311e-01    1.716675e+00   3.516044e-02
  5.161416e-01    1.687179e+00   3.477471e-02
  5.183520e-01    1.661529e+00   3.442733e-02
  5.205625e-01    1.714497e+00   3.488985e-02
  5.227729e-01    1.728728e+00   3.495266e-02
  5.249834e-01    1.717875e+00   3.476185e-02
  5.271938e-01    1.724832e+00   3.475094e-02
  5.294043e-01    1.733771e+00   3.476042e-02
  5.316148e-01    1.740309e+00   3.474616e-02
  5.338252e-01    1.853628e+00   3.577758e-02
  5.360357e-01    1.860017e+00   3.575763e-02
  5.382461e-01    1.724874e+00   3.435628e-02
  5.404566e-01    1.765845e+00   3.468278e-02
  5.426670e-01    1.755211e+00   3.450030e-02
  5.448775e-01    1.782013e+00   3.468504e-02
  5.470879e-01    1.795299e+00   3.473646e-02
  5.492984e-01    1.806098e+00   3.476331e-02
  5.515089e-01    1.791575e+00   3.454648e-02
  5.537193e-01    1.792490e+00   3.447916e-02
  5.559298e-01    1.829860e+00   3.476030e-02
  5.581402e-01    1.787678e+00   3.428227e-02
  5.603507e-01    1.787732e+00   3.420816e-02
  5.625611e-01    1.783880e+00   3.409713e-02
  5.647716e-01    1.799763e+00   3.417422e-02
  5.669821e-01    1.830233e+00   3.438798e-02
  5.691925e-01    1.829808e+00   3.431023e-02
  5.714030e-01    1.767846e+00   3.365238e-02
  5.736134e-01    1.765577e+00   3.355925e-02
  5.758239e-01    1.790327e+00   3.372152e-02
  5.780343e-01    1.757531e+00   3.334057e-02
  5.802448e-01    1.710032e+00   3.281810e-02
  5.824552e-01    1.685928e+00   3.251760e-02
  5.846657e-01    1.680647e+00   3.239897e-02
  5.868762e-01    1.636907e+00   3.190802e-02
  5.890866e-01    1.624803e+00   3.172385e-02
  5.912971e-01    1.676162e+00   3.215462e-02
  5.935075e-01    1.685014e+00   3.217281e-02
  5.957180e-01    1.667917e+00   3.194349e-02
  5.979284e-01    1.683481e+00   3.202666e-02
  6.001389e-01    1.685676e+00   3.198228e-02
  6.023494e-01    1.681104e+00   3.187403e-02
  6.045598e-01    1.680143e+00   3.180004e-02
  6.067703e-01    1.695388e+00   3.187976e-02
  6.089807e-01    1.683881e+00   3.170750e-02
  6.111912e-01    1.718241e+00   3.196541e-02
  6.134016e-01    1.731792e+00   3.202722e-02
  6.156121e-01    1.681886e+00   3.149962e-02
  6.178226e-01    1.698347e+00   3.159072e-02
  6.200330e-01    1.701015e+00   3.155318e-02
  6.222435e-01    1.685427e+00   3.134603e-02
  6.244539e-01    1.751530e+00   3.189225e-02
  6.266644e-01    1.747182e+00   3.179053e-02
  6.288748e-01    1.713370e+00   3.142012e-02
  6.310853e-01    1.749241e+00   3.168569e-02
  6.332957e-01    1.781433e+00   3.191419e-02
  6.355062e-01    1.734608e+00   3.143079e-02
  6.377167e-01    1.713411e+00   3.117822e-02
  6.399271e-01    1.704207e+00   3.103479e-02
  6.421376e-01    1.720884e+00   3.112673e-02
  6.443480e-01    1.729214e+00   3.114263e-02
  6.465585e-01    1.734513e+00   3.113120e-02
  6.487689e-01    1.735282e+00   3.107932e-02
  6.509794e-01    1.682155e+00   3.054216e-02
  6.531899e-01    1.644295e+00   3.013970e-02
  6.554003e-01    1.654924e+00   3.018012e-02
  6.576108e-01    1.618085e+00   2.978675e-02
  6.598212e-01    1.648533e+00   3.000983e-02
  6.620317e-01    1.653409e+00   2.999848e-02
  6.642421e-01    1.651869e+00   2.992902e-02
  6.664526e-01    1.694377e+00   3.025582e-02
  6.686630e-01    1.665922e+00   2.994524e-02
  6.708735e-01    1.613152e+00   2.941309e-02
  6.730840e-01    1.567413e+00   2.894023e-02
  6.752944e-01    1.624202e+00   2.940626e-02
  6.775049e-01    1.648371e+00   2.957044e-02
  6.797153e-01    1.675966e+00   2.976296e-02
  6.819258e-01    1.670755e+00   2.966306e-02
  6.841362e-01    1.639939e+00   2.933537e-02
  6.863467e-01    1.612593e+00   2.903766e-02
  6.885572e-01    1.608339e+00   2.894738e-02
  6.907676e-01    1.611915e+00   2.892760e-02
  6.929781e-01    1.630620e+00   2.904325e-02
  6.951885e-01    1.606434e+00   2.877600e-02
  6.973990e-01    1.620042e+00   2.884652e-02
  6.996094e-01    1.605617e+00   2.866730e-02
  7.018199e-01    1.584428e+00   2.842753e-02
  7.040303e-01    1.574738e+00   2.829067e-02
  7.062408e-01    1.585019e+00   2.833316e-02
  7.084513e-01    1.627148e+00   2.865730e-02
  7.106617e-01    1.618913e+00   2.853502e-02
  7.128722e-01    1.625409e+00   2.854274e-02
  7.150826e-01    1.619740e+00   2.844381e-02
  7.172931e-01    1.610644e+00   2.831494e-02
  7.195035e-01    1.602394e+00   2.819377e-02
  7.217140e-01    1.619008e+00   2.838971e-02
  7.239245e-01    1.590654e+00   2.836789e-02
  7.261349e-01    1.629095e+00   2.881909e-02
  7.283454e-01    1.631284e+00   2.891216e-02
  7.305558e-01    1.595356e+00   2.864635e-02
  7.327663e-01    1.583260e+00   2.858013e-02
  7.349767e-01    1.582991e+00   2.859415e-02
  7.371872e-01    1.585291e+00   2.860368e-02
  7.393976e-01    1.603454e+00   2.875269e-02
  7.416081e-01    1.599144e+00   2.869772e-02
  7.438186e-01    1.635312e+00   2.887335e-02
  7.460290e-01    1.615736e+00   2.840198e-02
  7.482395e-01    1.562993e+00   2.776402e-02
  7.504499e-01    1.598632e+00   2.794146e-02
  7.526604e-01    1.579787e+00   2.765953e-02
  7.548708e-01    1.631606e+00   2.801849e-02
  7.570813e-01    1.612685e+00   2.780399e-02
  7.592918e-01    1.590883e+00   2.758004e-02
  7.615022e-01    1.629620e+00   2.787940e-02
  7.637127e-01    1.655458e+00   2.806593e-02
  7.659231e-01    1.647805e+00   2.796828e-02
  7.681336e-01    1.627312e+00   2.776167e-02
  7.703440e-01    1.629424e+00   2.774793e-02
  7.725545e-01    1.624482e+00   2.767446e-02
  7.747650e-01    1.624718e+00   2.763766e-02
  7.769754e-01    1.628929e+00   2.761987e-02
  7.791859e-01    1.578229e+00   2.713311e-02
  7.813963e-01    1.590847e+00   2.718856e-02
  7.836068e-01    1.581569e+00   2.705721e-02
  7.858172e-01    1.641888e+00   2.751679e-02
  7.880277e-01    1.636986e+00   2.742344e-02
  7.902381e-01    1.611892e+00   2.716300e-02
  7.924486e-01    1.610256e+00   2.709890e-02
  7.946591e-01    1.666725e+00   2.752066e-02
  7.968695e-01    1.682038e+00   2.759737e-02
  7.990800e-01    1.636789e+00   2.717497e-02
  8.012904e-01    1.599777e+00   2.681949e-02
  8.035009e-01    1.638118e+00   2.709067e-02
  8.057113e-01    1.646785e+00   2.711529e-02
  8.079218e-01    1.637355e+00   2.699088e-02
  8.101323e-01    1.672442e+00   2.723222e-02
  8.123427e-01    1.686892e+00   2.730299e-02
  8.145532e-01    1.637981e+00   2.685822e-02
  8.167636e-01    1.684794e+00   2.719350e-02
  8.189741e-01    1.713575e+00   2.737910e-02
  8.211845e-01    1.672616e+00   2.700455e-02
  8.233950e-01    1.629549e+00   2.661129e-02
  8.256054e-01    1.661512e+00   2.682645e-02
  8.278159e-01    1.676620e+00   2.690367e-02
  8.300264e-01    1.666720e+00   2.678066e-02
  8.322368e-01    1.679072e+00   2.683607e-02
  8.344473e-01    1.645067e+00   2.651946e-02
  8.366577e-01    1.674246e+00   2.671059e-02
  8.388682e-01    1.685071e+00   2.675396e-02
  8.410786e-01    1.647020e+00   2.640803e-02
  8.432891e-01    1.632330e+00   2.624821e-02
  8.454996e-01    1.674862e+00   2.654591e-02
  8.477100e-01    1.658658e+00   2.637525e-02
  8.499205e-01    1.657543e+00   2.632498e-02
  8.521309e-01    1.652765e+00   2.624602e-02
  8.543414e-01    1.677301e+00   2.639887e-02
  8.565518e-01    1.656212e+00   2.619155e-02
  8.587623e-01    1.650613e+00   2.610653e-02
  8.609727e-01    1.625831e+00   2.586963e-02
  8.631832e-01    1.637078e+00   2.591894e-02
  8.653937e-01    1.624209e+00   2.577718e-02
  8.676041e-01    1.597989e+00   2.552969e-02
  8.698146e-01    1.643158e+00   2.584841e-02
  8.720250e-01    1.621963e+00   2.564204e-02
  8.742355e-01    1.637916e+00   2.572860e-02
  8.764459e-01    1.608745e+00   2.545957e-02
  8.786564e-01    1.594938e+00   2.531228e-02
  8.808669e-01    1.610988e+00   2.540076e-02
  8.830773e-01    1.601465e+00   2.528744e-02
  8.852878e-01    1.610194e+00   2.531825e-02
  8.874982e-01    1.598423e+00   2.518892e-02
  8.897087e-01    1.626480e+00   2.537106e-02
  8.919191e-01    1.594422e+00   2.508210e-02
  8.941296e-01    1.598070e+00   2.507351e-02
  8.963401e-01    1.614593e+00   2.516621e-02
  8.985505e-01    1.618059e+00   2.515604e-02
  9.007610e-01    1.622970e+00   2.515719e-02
  9.029714e-01    1.607144e+00   2.499830e-02
  9.051819e-01    1.617632e+00   2.504234e-02
  9.073923e-01    1.585938e+00   2.475936e-02
  9.096028e-01    1.606131e+00   2.488152e-02
  9.118132e-01    1.590171e+00   2.472146e-02
  9.140237e-01    1.615038e+00   2.487722e-02
  9.162342e-01    1.602255e+00   2.474398e-02
  9.184446e-01    1.654071e+00   2.510454e-02
  9.206551e-01    1.651028e+00   2.504530e-02
  9.228655e-01    1.621692e+00   2.478633e-02
  9.250760e-01    1.592099e+00   2.452387e-02
  9.272864e-01    1.625146e+00   2.474258e-02
  9.294969e-01    1.635609e+00   2.478593e-02
  9.317074e-01    1.661820e+00   2.494843e-02
  9.339178e-01    1.649860e+00   2.482455e-02
  9.361283e-01    1.646582e+00   2.476332e-02
  9.383387e-01    1.639971e+00   2.467994e-02
  9.405492e-01    1.659132e+00   2.478902e-02
  9.427596e-01    1.683892e+00   2.493737e-02
  9.449701e-01    1.653048e+00   2.467434e-02
  9.471805e-01    1.684305e+00   2.487125e-02
  9.493910e-01    1.700275e+00   2.495459e-02
  9.516015e-01    1.705490e+00   2.495794e-02
  9.538119e-01    1.718315e+00   2.501727e-02
  9.560224e-01    1.742072e+00   2.515416e-02
  9.582328e-01    1.760016e+00   2.524946e-02
  9.604433e-01    1.773013e+00   2.530664e-02
  9.626537e-01    1.794976e+00   2.542865e-02
  9.648642e-01    1.796279e+00   2.540306e-02
  9.670747e-01    1.809011e+00   2.545773e-02
  9.692851e-01    1.872619e+00   2.586704e-02
  9.714956e-01    1.934095e+00   2.625111e-02
  9.737060e-01    1.961178e+00   2.639957e-02
  9.759165e-01    1.914619e+00   2.604754e-02
  9.781269e-01    1.873727e+00   2.573419e-02
  9.803374e-01    1.863240e+00   2.562655e-02
  9.825478e-01    1.896212e+00   2.581821e-02
  9.847583e-01    1.835975e+00   2.537032e-02
  9.869688e-01    1.828553e+00   2.528508e-02
  9.891792e-01    1.827856e+00   2.524667e-02
  9.913897e-01    1.808612e+00   2.507953e-02
  9.936001e-01    1.774511e+00   2.480945e-02
  9.958106e-01    1.758914e+00   2.466661e-02
  9.980210e-01    1.707889e+00   2.427465e-02
  1.000231e+00    1.676163e+00   2.417988e-02
  1.002442e+00    1.640743e+00   2.405012e-02
  1.004652e+00    1.652680e+00   2.420481e-02
  1.006863e+00    1.630934e+00   2.409491e-02
  1.009073e+00    1.617020e+00   2.402864e-02
  1.011284e+00    1.601973e+00   2.394855e-02
  1.013494e+00    1.591105e+00   2.389086e-02
  1.015705e+00    1.568433e+00   2.374244e-02
  1.017915e+00    1.534546e+00   2.350075e-02
  1.020126e+00    1.563527e+00   2.373764e-02
  1.022336e+00    1.525887e+00   2.346176e-02
  1.024547e+00    1.516094e+00   2.339740e-02
  1.026757e+00    1.524932e+00   2.347383e-02
  1.028967e+00    1.506467e+00   2.333885e-02
  1.031178e+00    1.513168e+00   2.339683e-02
  1.033388e+00    1.499004e+00   2.329208e-02
  1.035599e+00    1.498674e+00   2.329289e-02
  1.037809e+00    1.516205e+00   2.343198e-02
  1.040020e+00    1.523218e+00   2.348739e-02
  1.042230e+00    1.477491e+00   2.313407e-02
  1.044441e+00    1.484344e+00   2.318743e-02
  1.046651e+00    1.518963e+00   2.345644e-02
  1.048862e+00    1.519366e+00   2.345877e-02
  1.051072e+00    1.493478e+00   2.325571e-02
  1.053282e+00    1.470855e+00   2.307795e-02
  1.055493e+00    1.496067e+00   2.327058e-02
  1.057703e+00    1.536555e+00   2.358184e-02
  1.059914e+00    1.529081e+00   2.352010e-02
  1.062124e+00    1.514924e+00   2.340689e-02
  1.064335e+00    1.521834e+00   2.345671e-02
  1.066545e+00    1.547180e+00   2.364511e-02
  1.068756e+00    1.537702e+00   2.356879e-02
  1.070966e+00    1.517660e+00   2.340805e-02
  1.073177e+00    1.523651e+00   2.344805e-02
  1.075387e+00    1.495013e+00   2.322139e-02
  1.077597e+00    1.495623e+00   2.321878e-02
  1.079808e+00    1.503867e+00   2.314816e-02
  1.082018e+00    1.496639e+00   2.290124e-02
  1.084229e+00    1.547026e+00   2.317025e-02
  1.086439e+00    1.628927e+00   2.368319e-02
  1.088650e+00    1.592641e+00   2.333877e-02
  1.090860e+00    1.534977e+00   2.284287e-02
  1.093071e+00    1.497556e+00   2.249954e-02
  1.095281e+00    1.481368e+00   2.231963e-02
  1.097492e+00    1.500067e+00   2.240413e-02
  1.099702e+00    1.482103e+00   2.221744e-02
  1.101912e+00    1.469221e+00   2.207133e-02
  1.104123e+00    1.440656e+00   2.180742e-02
  1.106333e+00    1.424959e+00   2.164397e-02
  1.108544e+00    1.444402e+00   2.174666e-02
  1.110754e+00    1.420389e+00   2.152222e-02
  1.112965e+00    1.411288e+00   2.141276e-02
  1.115175e+00    1.422689e+00   2.145787e-02
  1.117386e+00    1.380378e+00   2.109761e-02
  1.119596e+00    1.409949e+00   2.128452e-02
  1.121807e+00    1.420746e+00   2.132691e-02
  1.124017e+00    1.424330e+00   2.131691e-02
  1.126228e+00    1.419636e+00   2.124582e-02
  1.128438e+00    1.440837e+00   2.136658e-02
  1.130648e+00    1.429358e+00   2.124663e-02
  1.132859e+00    1.418365e+00   2.113013e-02
  1.135069e+00    1.391383e+00   2.089349e-02
  1.137280e+00    1.385431e+00   2.081579e-02
  1.139490e+00    1.396882e+00   2.086846e-02
  1.141701e+00    1.389473e+00   2.077988e-02
  1.143911e+00    1.374260e+00   2.063404e-02
  1.146122e+00    1.385852e+00   2.068882e-02
  1.148332e+00    1.395667e+00   2.072988e-02
  1.150543e+00    1.374554e+00   2.054169e-02
  1.152753e+00    1.363196e+00   2.042596e-02
  1.154963e+00    1.346728e+00   2.027145e-02
  1.157174e+00    1.369999e+00   2.041572e-02
  1.159384e+00    1.376145e+00   2.043158e-02
  1.161595e+00    1.354451e+00   2.024022e-02
  1.163805e+00    1.353823e+00   2.020643e-02
  1.166016e+00    1.350981e+00   2.015596e-02
  1.168226e+00    1.361538e+00   2.020565e-02
  1.170437e+00    1.374136e+00   2.027019e-02
  1.172647e+00    1.392391e+00   2.037524e-02
  1.174858e+00    1.376110e+00   2.022753e-02
  1.177068e+00    1.414060e+00   2.047577e-02
  1.179278e+00    1.432225e+00   2.057755e-02
  1.181489e+00    1.408587e+00   2.037957e-02
  1.183699e+00    1.377166e+00   2.012321e-02
  1.185910e+00    1.350903e+00   1.990272e-02
  1.188120e+00    1.342427e+00   1.981361e-02
  1.190331e+00    1.368463e+00   1.997794e-02
  1.192541e+00    1.365624e+00   1.992972e-02
  1.194752e+00    1.394843e+00   2.011434e-02
  1.196962e+00    1.381936e+00   1.999504e-02
  1.199173e+00    1.394491e+00   2.005872e-02
  1.201383e+00    1.358075e+00   1.976785e-02
  1.203593e+00    1.368574e+00   1.981910e-02
  1.205804e+00    1.366212e+00   1.977594e-02
  1.208014e+00    1.369789e+00   1.977474e-02
  1.210225e+00    1.411957e+00   2.005091e-02
  1.212435e+00    1.464697e+00   2.039613e-02
  1.214646e+00    1.492687e+00   2.056267e-02
  1.216856e+00    1.423048e+00   2.005113e-02
  1.219067e+00    1.368975e+00   1.964185e-02
  1.221277e+00    1.365806e+00   1.959391e-02
  1.223488e+00    1.362076e+00   1.954128e-02
  1.225698e+00    1.363092e+00   1.952152e-02
  1.227909e+00    1.377438e+00   1.959352e-02
  1.230119e+00    1.378322e+00   1.956762e-02
  1.232329e+00    1.359900e+00   1.940560e-02
  1.234540e+00    1.343449e+00   1.925763e-02
  1.236750e+00    1.370781e+00   1.942203e-02
  1.238961e+00    1.369754e+00   1.938762e-02
  1.241171e+00    1.377328e+00   1.941669e-02
  1.243382e+00    1.378172e+00   1.939890e-02
  1.245592e+00    1.363193e+00   1.926898e-02
  1.247803e+00    1.334516e+00   1.904170e-02
  1.250013e+00    1.333408e+00   1.901038e-02
  1.252224e+00    1.391138e+00   1.939394e-02
  1.254434e+00    1.378612e+00   1.928248e-02
  1.256644e+00    1.384559e+00   1.930048e-02
  1.258855e+00    1.384581e+00   1.927710e-02
  1.261065e+00    1.373154e+00   1.917381e-02
  1.263276e+00    1.356156e+00   1.903176e-02
  1.265486e+00    1.355009e+00   1.900080e-02
  1.267697e+00    1.366815e+00   1.906023e-02
  1.269907e+00    1.364314e+00   1.901998e-02
  1.272118e+00    1.328847e+00   1.874873e-02
  1.274328e+00    1.366531e+00   1.898982e-02
  1.276539e+00    1.375239e+00   1.902725e-02
  1.278749e+00    1.358801e+00   1.889083e-02
  1.280959e+00    1.390354e+00   1.908601e-02
  1.283170e+00    1.433112e+00   1.935418e-02
  1.285380e+00    1.446314e+00   1.941988e-02
  1.287591e+00    1.433125e+00   1.930843e-02
  1.289801e+00    1.388570e+00   1.898443e-02
  1.292012e+00    1.391843e+00   1.898939e-02
  1.294222e+00    1.376124e+00   1.886547e-02
  1.296433e+00    1.373579e+00   1.883229e-02
  1.298643e+00    1.398011e+00   1.898226e-02
  1.300854e+00    1.393096e+00   1.893222e-02
  1.303064e+00    1.368519e+00   1.874509e-02
  1.305274e+00    1.373789e+00   1.875955e-02
  1.307485e+00    1.338890e+00   1.849826e-02
  1.309695e+00    1.357969e+00   1.860728e-02
  1.311906e+00    1.387863e+00   1.878898e-02
  1.314116e+00    1.373380e+00   1.866971e-02
  1.316327e+00    1.369120e+00   1.861889e-02
  1.318537e+00    1.366973e+00   1.858227e-02
  1.320748e+00    1.368433e+00   1.857047e-02
  1.322958e+00    1.380396e+00   1.863073e-02
  1.325169e+00    1.392399e+00   1.869020e-02
  1.327379e+00    1.409814e+00   1.878443e-02
  1.329589e+00    1.412363e+00   1.877987e-02
  1.331800e+00    1.396249e+00   1.865137e-02
  1.334010e+00    1.370800e+00   1.845982e-02
  1.336221e+00    1.355474e+00   1.833452e-02
  1.338431e+00    1.371117e+00   1.841899e-02
  1.340642e+00    1.359751e+00   1.840689e-02
  1.342852e+00    1.332258e+00   1.831986e-02
  1.345063e+00    1.347530e+00   1.847399e-02
  1.347273e+00    1.339338e+00   1.845287e-02
  1.349484e+00    1.342927e+00   1.850518e-02
  1.351694e+00    1.328039e+00   1.842483e-02
  1.353905e+00    1.357614e+00   1.864691e-02
  1.356115e+00    1.370807e+00   1.875246e-02
  1.358325e+00    1.322245e+00   1.843049e-02
  1.360536e+00    1.342766e+00   1.858452e-02
  1.362746e+00    1.347018e+00   1.862350e-02
  1.364957e+00    1.348428e+00   1.864092e-02
  1.367167e+00    1.328505e+00   1.850977e-02
  1.369378e+00    1.349897e+00   1.866425e-02
  1.371588e+00    1.337489e+00   1.858339e-02
  1.373799e+00    1.314592e+00   1.842728e-02
  1.376009e+00    1.329229e+00   1.853294e-02
  1.378220e+00    1.326570e+00   1.851693e-02
  1.380430e+00    1.288778e+00   1.825394e-02
  1.382640e+00    1.314934e+00   1.843911e-02
  1.384851e+00    1.323983e+00   1.850336e-02
  1.387061e+00    1.327933e+00   1.853122e-02
  1.389272e+00    1.292816e+00   1.828477e-02
  1.391482e+00    1.311305e+00   1.841436e-02
  1.393693e+00    1.320802e+00   1.848003e-02
  1.395903e+00    1.311990e+00   1.841679e-02
  1.398114e+00    1.291974e+00   1.827438e-02
  1.400324e+00    1.310737e+00   1.840442e-02
  1.402535e+00    1.304033e+00   1.835498e-02
  1.404745e+00    1.282673e+00   1.820166e-02
  1.406955e+00    1.292163e+00   1.826615e-02
  1.409166e+00    1.294854e+00   1.828181e-02
  1.411376e+00    1.287886e+00   1.822943e-02
  1.413587e+00    1.289242e+00   1.823518e-02
  1.415797e+00    1.296320e+00   1.828159e-02
  1.418008e+00    1.281099e+00   1.813191e-02
  1.420218e+00    1.260123e+00   1.783370e-02
  1.422429e+00    1.250675e+00   1.768206e-02
  1.424639e+00    1.259671e+00   1.768111e-02
  1.426850e+00    1.282952e+00   1.778877e-02
  1.429060e+00    1.289493e+00   1.778469e-02
  1.431270e+00    1.290795e+00   1.774900e-02
  1.433481e+00    1.312105e+00   1.785328e-02
  1.435691e+00    1.292644e+00   1.768163e-02
  1.437902e+00    1.279406e+00   1.755425e-02
  1.440112e+00    1.294939e+00   1.762480e-02
  1.442323e+00    1.290652e+00   1.756229e-02
  1.444533e+00    1.284080e+00   1.748479e-02
  1.446744e+00    1.281349e+00   1.743492e-02
  1.448954e+00    1.277086e+00   1.737562e-02
  1.451165e+00    1.253285e+00   1.718338e-02
  1.453375e+00    1.285251e+00   1.737292e-02
  1.455586e+00    1.265963e+00   1.721396e-02
  1.457796e+00    1.277432e+00   1.726416e-02
  1.460006e+00    1.282411e+00   1.727038e-02
  1.462217e+00    1.288900e+00   1.728761e-02
  1.464427e+00    1.275285e+00   1.717039e-02
  1.466638e+00    1.296127e+00   1.728455e-02
  1.468848e+00    1.303902e+00   1.731062e-02
  1.471059e+00    1.302167e+00   1.727370e-02
  1.473269e+00    1.291056e+00   1.717526e-02
  1.475480e+00    1.270629e+00   1.701508e-02
  1.477690e+00    1.257103e+00   1.690051e-02
  1.479901e+00    1.298991e+00   1.715565e-02
  1.482111e+00    1.290068e+00   1.707312e-02
  1.484321e+00    1.258811e+00   1.684196e-02
  1.486532e+00    1.284112e+00   1.698788e-02
  1.488742e+00    1.296501e+00   1.704670e-02
  1.490953e+00    1.277541e+00   1.689889e-02
  1.493163e+00    1.274467e+00   1.685616e-02
  1.495374e+00    1.271674e+00   1.681612e-02
  1.497584e+00    1.261893e+00   1.672966e-02
  1.499795e+00    1.269277e+00   1.675681e-02
  1.502005e+00    1.277433e+00   1.678874e-02
  1.504216e+00    1.271381e+00   1.672777e-02
  1.506426e+00    1.264974e+00   1.666471e-02
  1.508636e+00    1.262546e+00   1.662823e-02
  1.510847e+00    1.265922e+00   1.662852e-02
  1.513057e+00    1.279966e+00   1.669519e-02
  1.515268e+00    1.253267e+00   1.649446e-02
  1.517478e+00    1.261446e+00   1.652294e-02
  1.519689e+00    1.259692e+00   1.648646e-02
  1.521899e+00    1.272816e+00   1.654881e-02
  1.524110e+00    1.278995e+00   1.656840e-02
  1.526320e+00    1.275495e+00   1.652595e-02
  1.528531e+00    1.275623e+00   1.650682e-02
  1.530741e+00    1.278996e+00   1.650926e-02
  1.532951e+00    1.257773e+00   1.635209e-02
  1.535162e+00    1.223568e+00   1.621388e-02
  1.537372e+00    1.234998e+00   1.635596e-02
  1.539583e+00    1.251126e+00   1.649668e-02
  1.541793e+00    1.261781e+00   1.657376e-02
  1.544004e+00    1.274456e+00   1.665707e-02
  1.546214e+00    1.237885e+00   1.641485e-02
  1.548425e+00    1.260348e+00   1.656335e-02
  1.550635e+00    1.234963e+00   1.640536e-02
  1.552846e+00    1.244437e+00   1.647780e-02
  1.555056e+00    1.268808e+00   1.659651e-02
  1.557266e+00    1.247420e+00   1.634545e-02
  1.559477e+00    1.216533e+00   1.608338e-02
  1.561687e+00    1.206032e+00   1.598360e-02
  1.563898e+00    1.232352e+00   1.613999e-02
  1.566108e+00    1.262876e+00   1.632257e-02
  1.568319e+00    1.254565e+00   1.625311e-02
  1.570529e+00    1.242524e+00   1.614981e-02
  1.572740e+00    1.244532e+00   1.613523e-02
  1.574950e+00    1.246767e+00   1.612338e-02
  1.577161e+00    1.224287e+00   1.595209e-02
  1.579371e+00    1.273377e+00   1.624480e-02
  1.581582e+00    1.268677e+00   1.619488e-02
  1.583792e+00    1.227512e+00   1.591204e-02
  1.586002e+00    1.259104e+00   1.609779e-02
  1.588213e+00    1.268425e+00   1.613984e-02
  1.590423e+00    1.293205e+00   1.627628e-02
  1.592634e+00    1.266954e+00   1.608843e-02
  1.594844e+00    1.275416e+00   1.612037e-02
  1.597055e+00    1.268711e+00   1.605724e-02
  1.599265e+00    1.244007e+00   1.587941e-02
  1.601476e+00    1.239139e+00   1.582800e-02
  1.603686e+00    1.220456e+00   1.568864e-02
  1.605897e+00    1.233271e+00   1.575065e-02
  1.608107e+00    1.246463e+00   1.581505e-02
  1.610317e+00    1.261601e+00   1.589130e-02
  1.612528e+00    1.229445e+00   1.566837e-02
  1.614738e+00    1.195644e+00   1.543278e-02
  1.616949e+00    1.230303e+00   1.563585e-02
  1.619159e+00    1.244895e+00   1.570942e-02
  1.621370e+00    1.221069e+00   1.553991e-02
  1.623580e+00    1.185079e+00   1.529106e-02
  1.625791e+00    1.181008e+00   1.524672e-02
  1.628001e+00    1.177380e+00   1.520523e-02
  1.630212e+00    1.152144e+00   1.502391e-02
  1.632422e+00    1.186326e+00   1.522727e-02
  1.634632e+00    1.173130e+00   1.512510e-02
  1.636843e+00    1.164298e+00   1.505063e-02
  1.639053e+00    1.140553e+00   1.487931e-02
  1.641264e+00    1.128781e+00   1.478554e-02
  1.643474e+00    1.146229e+00   1.488208e-02
  1.645685e+00    1.153276e+00   1.491115e-02
  1.647895e+00    1.142423e+00   1.482432e-02
  1.650106e+00    1.138787e+00   1.478380e-02
  1.652316e+00    1.143408e+00   1.479731e-02
  1.654527e+00    1.128711e+00   1.468535e-02
  1.656737e+00    1.112911e+00   1.456580e-02
  1.658947e+00    1.121893e+00   1.460825e-02
  1.661158e+00    1.121453e+00   1.458916e-02
  1.663368e+00    1.135758e+00   1.466579e-02
  1.665579e+00    1.143034e+00   1.469637e-02
  1.667789e+00    1.137638e+00   1.464526e-02
  1.670000e+00    1.147402e+00   1.469225e-02
  1.672210e+00    1.142117e+00   1.464226e-02
  1.674421e+00    1.145299e+00   1.464702e-02
  1.676631e+00    1.128695e+00   1.452443e-02
  1.678842e+00    1.088892e+00   1.425032e-02
  1.681052e+00    1.091347e+00   1.425098e-02
  1.683263e+00    1.100132e+00   1.429304e-02
  1.685473e+00    1.088318e+00   1.420090e-02
  1.687683e+00    1.106385e+00   1.430271e-02
  1.689894e+00    1.116037e+00   1.434892e-02
  1.692104e+00    1.134502e+00   1.445184e-02
  1.694315e+00    1.121822e+00   1.435602e-02
  1.696525e+00    1.106508e+00   1.424228e-02
  1.698736e+00    1.103124e+00   1.420540e-02
  1.700946e+00    1.085940e+00   1.407901e-02
  1.703157e+00    1.071395e+00   1.396967e-02
  1.705367e+00    1.084602e+00   1.404076e-02
  1.707578e+00    1.088543e+00   1.405144e-02
  1.709788e+00    1.082126e+00   1.399559e-02
  1.711998e+00    1.084347e+00   1.399464e-02
  1.714209e+00    1.050262e+00   1.375843e-02
  1.716419e+00    1.035449e+00   1.364676e-02
  1.718630e+00    1.029575e+00   1.359375e-02
  1.720840e+00    1.034465e+00   1.361177e-02
  1.723051e+00    1.023016e+00   1.352238e-02
  1.725261e+00    1.020148e+00   1.348874e-02
  1.727472e+00    1.010984e+00   1.341389e-02
  1.729682e+00    1.016624e+00   1.343779e-02
  1.731893e+00    1.028243e+00   1.350034e-02
  1.734103e+00    1.012083e+00   1.338003e-02
  1.736313e+00    1.022709e+00   1.343596e-02
  1.738524e+00    1.003638e+00   1.329625e-02
  1.740734e+00    1.003536e+00   1.328186e-02
  1.742945e+00    9.902839e-01   1.318045e-02
  1.745155e+00    9.736723e-01   1.305612e-02
  1.747366e+00    9.826366e-01   1.310230e-02
  1.749576e+00    9.845296e-01   1.310125e-02
  1.751787e+00    9.912534e-01   1.313253e-02
  1.753997e+00    9.760670e-01   1.301818e-02
  1.756208e+00    9.770979e-01   1.301183e-02
  1.758418e+00    9.926499e-01   1.310171e-02
  1.760628e+00    9.957178e-01   1.310843e-02
  1.762839e+00    9.847299e-01   1.302254e-02
  1.765049e+00    9.822143e-01   1.299265e-02
  1.767260e+00    9.831623e-01   1.298595e-02
  1.769470e+00    9.723166e-01   1.290102e-02
  1.771681e+00    9.575173e-01   1.278930e-02
  1.773891e+00    9.355959e-01   1.262909e-02
  1.776102e+00    9.445149e-01   1.267628e-02
  1.778312e+00    9.456735e-01   1.267133e-02
  1.780523e+00    9.557095e-01   1.272554e-02
  1.782733e+00    9.860520e-01   1.291298e-02
  1.784944e+00    9.790828e-01   1.285410e-02
  1.787154e+00    9.774140e-01   1.283031e-02
  1.789364e+00    9.624254e-01   1.271886e-02
  1.791575e+00    9.502346e-01   1.262536e-02
  1.793785e+00    9.472275e-01   1.259279e-02
  1.795996e+00    9.374819e-01   1.251522e-02
  1.798206e+00    9.260452e-01   1.242607e-02
  1.800417e+00    9.184238e-01   1.236215e-02
  1.802627e+00    9.198476e-01   1.235974e-02
  1.804838e+00    9.197549e-01   1.234697e-02
  1.807048e+00    9.065434e-01   1.224515e-02
  1.809259e+00    8.793401e-01   1.204664e-02
  1.811469e+00    8.925426e-01   1.212185e-02
  1.813679e+00    9.114605e-01   1.223460e-02
  1.815890e+00    9.100734e-01   1.221044e-02
  1.818100e+00    8.885121e-01   1.204990e-02
  1.820311e+00    8.686506e-01   1.189990e-02
  1.822521e+00    8.798825e-01   1.196181e-02
  1.824732e+00    8.775452e-01   1.193121e-02
  1.826942e+00    8.837363e-01   1.196091e-02
  1.829153e+00    8.869039e-01   1.197064e-02
  1.831363e+00    8.659167e-01   1.181623e-02
  1.833574e+00    8.910261e-01   1.197459e-02
  1.835784e+00    8.896918e-01   1.195413e-02
  1.837994e+00    9.138438e-01   1.210333e-02
  1.840205e+00    9.243677e-01   1.216136e-02
  1.842415e+00    9.053641e-01   1.202371e-02
  1.844626e+00    8.718190e-01   1.178731e-02
  1.846836e+00    8.480876e-01   1.161446e-02
  1.849047e+00    8.648506e-01   1.171708e-02
  1.851257e+00    8.639395e-01   1.170134e-02
  1.853468e+00    8.501291e-01   1.159870e-02
  1.855678e+00    8.372758e-01   1.150192e-02
  1.857889e+00    8.372175e-01   1.149311e-02
  1.860099e+00    8.568295e-01   1.161833e-02
  1.862309e+00    8.559373e-01   1.160376e-02
  1.864520e+00    8.603698e-01   1.162519e-02
  1.866730e+00    8.523991e-01   1.156183e-02
  1.868941e+00    8.550862e-01   1.156908e-02
  1.871151e+00    8.613762e-01   1.160009e-02
  1.873362e+00    8.367824e-01   1.142207e-02
  1.875572e+00    8.255986e-01   1.133466e-02
  1.877783e+00    8.393079e-01   1.141704e-02
  1.879993e+00    8.400093e-01   1.141068e-02
  1.882204e+00    8.500463e-01   1.146771e-02
  1.884414e+00    8.346446e-01   1.135237e-02
  1.886624e+00    8.146251e-01   1.120449e-02
  1.888835e+00    8.132007e-01   1.118391e-02
  1.891045e+00    8.231313e-01   1.124121e-02
  1.893256e+00    8.266215e-01   1.125401e-02
  1.895466e+00    8.267645e-01   1.124390e-02
  1.897677e+00    8.229855e-01   1.120731e-02
  1.899887e+00    8.285703e-01   1.123434e-02
  1.902098e+00    8.207789e-01   1.117062e-02
  1.904308e+00    8.240247e-01   1.118214e-02
  1.906519e+00    8.219182e-01   1.115707e-02
  1.908729e+00    8.126607e-01   1.108354e-02
  1.910940e+00    8.188919e-01   1.111489e-02
  1.913150e+00    8.242158e-01   1.114038e-02
  1.915360e+00    8.167498e-01   1.107925e-02
  1.917571e+00    8.165121e-01   1.106680e-02
  1.919781e+00    8.166208e-01   1.105687e-02
  1.921992e+00    8.538054e-01   1.129497e-02
  1.924202e+00    8.347033e-01   1.115704e-02
  1.926413e+00    8.750889e-01   1.141308e-02
  1.928623e+00    8.450624e-01   1.120486e-02
  1.930834e+00    8.176392e-01   1.101107e-02
  1.933044e+00    8.242201e-01   1.104455e-02
  1.935255e+00    8.183186e-01   1.099455e-02
  1.937465e+00    8.038860e-01   1.088681e-02
  1.939675e+00    8.096647e-01   1.091499e-02
  1.941886e+00    8.032712e-01   1.086154e-02
  1.944096e+00    8.111531e-01   1.090447e-02
  1.946307e+00    8.099600e-01   1.088606e-02
  1.948517e+00    7.941926e-01   1.076917e-02
  1.950728e+00    7.981336e-01   1.078561e-02
  1.952938e+00    8.073658e-01   1.083765e-02
  1.955149e+00    8.319215e-01   1.099077e-02
  1.957359e+00    8.176616e-01   1.088601e-02
  1.959570e+00    7.993130e-01   1.075226e-02
  1.961780e+00    8.099552e-01   1.081359e-02
  1.963990e+00    8.001596e-01   1.073783e-02
  1.966201e+00    7.933139e-01   1.068171e-02
  1.968411e+00    8.049051e-01   1.074922e-02
  1.970622e+00    7.990476e-01   1.069988e-02
  1.972832e+00    7.806573e-01   1.056609e-02
  1.975043e+00    7.903434e-01   1.062136e-02
  1.977253e+00    7.982405e-01   1.066428e-02
  1.979464e+00    7.953819e-01   1.063504e-02
  1.981674e+00    8.223586e-01   1.080337e-02
  1.983885e+00    8.000661e-01   1.064582e-02
  1.986095e+00    7.974007e-01   1.061825e-02
  1.988305e+00    7.882516e-01   1.054723e-02
  1.990516e+00    7.803518e-01   1.048429e-02
  1.992726e+00    7.730311e-01   1.042537e-02
  1.994937e+00    7.648934e-01   1.036028e-02
  1.997147e+00    7.907406e-01   1.052406e-02
  1.999358e+00    7.968351e-01   1.055455e-02
  2.001568e+00    8.001000e-01   1.056515e-02
  2.003779e+00    8.052928e-01   1.058723e-02
  2.005989e+00    7.803861e-01   1.041013e-02
  2.008200e+00    7.841503e-01   1.042356e-02
  2.010410e+00    7.799632e-01   1.038387e-02
  2.012621e+00    7.742303e-01   1.033389e-02
  2.014831e+00    7.857951e-01   1.039917e-02
  2.017041e+00    7.758709e-01   1.032286e-02
  2.019252e+00    7.767311e-01   1.031854e-02
  2.021462e+00    7.668868e-01   1.024343e-02
  2.023673e+00    7.734543e-01   1.027775e-02
  2.025883e+00    7.788352e-01   1.030382e-02
  2.028094e+00    7.748896e-01   1.026797e-02
  2.030304e+00    7.751642e-01   1.026017e-02
  2.032515e+00    7.667188e-01   1.019479e-02
  2.034725e+00    7.686053e-01   1.019782e-02
  2.036936e+00    7.660713e-01   1.017162e-02
  2.039146e+00    7.708945e-01   1.019392e-02
  2.041356e+00    7.601216e-01   1.011279e-02
  2.043567e+00    7.646012e-01   1.013316e-02
  2.045777e+00    7.784562e-01   1.021519e-02
  2.047988e+00    7.706292e-01   1.015424e-02
  2.050198e+00    7.695801e-01   1.013881e-02
  2.052409e+00    7.549872e-01   1.003454e-02
  2.054619e+00    7.820099e-01   1.020502e-02
  2.056830e+00    7.750000e-01   1.015191e-02
  2.059040e+00    7.483569e-01   9.968373e-03
  2.061251e+00    7.563095e-01   1.001391e-02
  2.063461e+00    7.535951e-01   9.988300e-03
  2.065671e+00    7.744916e-01   1.011699e-02
  2.067882e+00    7.580550e-01   9.999986e-03
  2.070092e+00    7.628699e-01   1.002241e-02
  2.072303e+00    7.590583e-01   9.988125e-03
  2.074513e+00    7.578287e-01   9.970626e-03
  2.076724e+00    7.679920e-01   1.002766e-02
  2.078934e+00    7.631932e-01   9.987151e-03
  2.081145e+00    7.524642e-01   9.907574e-03
  2.083355e+00    7.529402e-01   9.901455e-03
  2.085566e+00    7.523143e-01   9.888363e-03
  2.087776e+00    7.513808e-01   9.872640e-03
  2.089986e+00    7.572789e-01   9.902425e-03
  2.092197e+00    7.810839e-01   1.004763e-02
  2.094407e+00    7.700050e-01   9.966707e-03
  2.096618e+00    7.526042e-01   9.844429e-03
  2.098828e+00    7.590804e-01   9.877226e-03
  2.101039e+00    7.621942e-01   9.888317e-03
  2.103249e+00    7.497897e-01   9.798742e-03
  2.105460e+00    7.347809e-01   9.691128e-03
  2.107670e+00    7.548606e-01   9.813757e-03
  2.109881e+00    7.337291e-01   9.666231e-03
  2.112091e+00    7.276581e-01   9.617131e-03
  2.114301e+00    7.382145e-01   9.677808e-03
  2.116512e+00    7.220944e-01   9.562744e-03
  2.118722e+00    7.298780e-01   9.605288e-03
  2.120933e+00    7.272699e-01   9.579204e-03
  2.123143e+00    7.217726e-01   9.534012e-03
  2.125354e+00    7.259314e-01   9.552852e-03
  2.127564e+00    7.075916e-01   9.422743e-03
  2.129775e+00    7.139326e-01   9.456131e-03
  2.131985e+00    7.359198e-01   9.591461e-03
  2.134196e+00    7.227325e-01   9.496490e-03
  2.136406e+00    7.233480e-01   9.491719e-03
  2.138617e+00    7.393452e-01   9.587461e-03
  2.140827e+00    7.397994e-01   9.606842e-03
  2.143037e+00    7.165263e-01   9.500296e-03
  2.145248e+00    6.902077e-01   9.345950e-03
  2.147458e+00    7.013083e-01   9.435887e-03
  2.149669e+00    7.015661e-01   9.449476e-03
  2.151879e+00    7.189636e-01   9.575238e-03
  2.154090e+00    7.121556e-01   9.537193e-03
  2.156300e+00    6.932688e-01   9.416441e-03
  2.158511e+00    7.073676e-01   9.517030e-03
  2.160721e+00    6.923543e-01   9.420297e-03
  2.162932e+00    7.205828e-01   9.614213e-03
  2.165142e+00    7.021661e-01   9.493596e-03
  2.167352e+00    7.057561e-01   9.520765e-03
  2.169563e+00    6.873977e-01   9.398081e-03
  2.171773e+00    6.845173e-01   9.380768e-03
  2.173984e+00    6.822085e-01   9.366357e-03
  2.176194e+00    6.754752e-01   9.321199e-03
  2.178405e+00    6.763896e-01   9.328194e-03
  2.180615e+00    6.938119e-01   9.448225e-03
  2.182826e+00    7.041224e-01   9.518900e-03
  2.185036e+00    6.726833e-01   9.304003e-03
  2.187247e+00    6.743940e-01   9.315753e-03
  2.189457e+00    7.004298e-01   9.493466e-03
  2.191667e+00    7.058164e-01   9.529742e-03
  2.193878e+00    6.973841e-01   9.472069e-03
  2.196088e+00    6.939862e-01   9.448284e-03
  2.198299e+00    6.711565e-01   9.290483e-03
  2.200509e+00    6.885617e-01   9.409131e-03
  2.202720e+00    6.828668e-01   9.368966e-03
  2.204930e+00    6.969436e-01   9.463799e-03
  2.207141e+00    6.960186e-01   9.456401e-03
  2.209351e+00    6.875727e-01   9.396942e-03
  2.211562e+00    6.826352e-01   9.361520e-03
  2.213772e+00    6.800292e-01   9.288037e-03
  2.215982e+00    6.699927e-01   9.175207e-03
  2.218193e+00    6.767614e-01   9.191789e-03
  2.220403e+00    6.712434e-01   9.129724e-03
  2.222614e+00    6.736335e-01   9.124996e-03
  2.224824e+00    6.731390e-01   9.102291e-03
  2.227035e+00    6.591666e-01   8.990054e-03
  2.229245e+00    6.701366e-01   9.047590e-03
  2.231456e+00    6.731962e-01   9.052593e-03
  2.233666e+00    6.691464e-01   9.010266e-03
  2.235877e+00    6.543994e-01   8.896316e-03
  2.238087e+00    6.558841e-01   8.893061e-03
  2.240298e+00    6.650320e-01   8.941152e-03
  2.242508e+00    6.605727e-01   8.896068e-03
  2.244718e+00    6.757604e-01   8.981883e-03
  2.246929e+00    6.832442e-01   9.016896e-03
  2.249139e+00    6.756384e-01   8.954107e-03
  2.251350e+00    6.625240e-01   8.855128e-03
  2.253560e+00    6.682929e-01   8.881999e-03
  2.255771e+00    6.600633e-01   8.815795e-03
  2.257981e+00    6.576579e-01   8.788584e-03
  2.260192e+00    6.691094e-01   8.853624e-03
  2.262402e+00    6.690222e-01   8.842171e-03
  2.264613e+00    6.475503e-01   8.688423e-03
  2.266823e+00    6.424769e-01   8.644063e-03
  2.269033e+00    6.623291e-01   8.766218e-03
  2.271244e+00    6.794065e-01   8.868006e-03
  2.273454e+00    6.694335e-01   8.792357e-03
  2.275665e+00    6.598697e-01   8.719042e-03
  2.277875e+00    6.526188e-01   8.661144e-03
  2.280086e+00    6.512907e-01   8.642338e-03
  2.282296e+00    6.654355e-01   8.726234e-03
  2.284507e+00    6.596797e-01   8.678291e-03
  2.286717e+00    6.550903e-01   8.638585e-03
  2.288928e+00    6.609165e-01   8.667030e-03
  2.291138e+00    6.575870e-01   8.635746e-03
  2.293348e+00    6.566728e-01   8.620186e-03
  2.295559e+00    6.423740e-01   8.516610e-03
  2.297769e+00    6.592228e-01   8.618281e-03
  2.299980e+00    6.626143e-01   8.631037e-03
  2.302190e+00    6.470282e-01   8.519828e-03
  2.304401e+00    6.575736e-01   8.579631e-03
  2.306611e+00    6.492787e-01   8.516155e-03
  2.308822e+00    6.484100e-01   8.502095e-03
  2.311032e+00    6.448819e-01   8.472513e-03
  2.313243e+00    6.456662e-01   8.471399e-03
  2.315453e+00    6.491160e-01   8.486429e-03
  2.317663e+00    6.664036e-01   8.589444e-03
  2.319874e+00    6.498445e-01   8.473307e-03
  2.322084e+00    6.466089e-01   8.443207e-03
  2.324295e+00    6.491246e-01   8.451371e-03
  2.326505e+00    6.708161e-01   8.582168e-03
  2.328716e+00    6.604587e-01   8.507023e-03
  2.330926e+00    6.439658e-01   8.391318e-03
  2.333137e+00    6.533207e-01   8.443587e-03
  2.335347e+00    6.563618e-01   8.454270e-03
  2.337558e+00    6.329486e-01   8.293912e-03
  2.339768e+00    6.321040e-01   8.279864e-03
  2.341979e+00    6.390941e-01   8.317144e-03
  2.344189e+00    6.378363e-01   8.300574e-03
  2.346399e+00    6.369363e-01   8.286192e-03
  2.348610e+00    6.473042e-01   8.344836e-03
  2.350820e+00    6.397979e-01   8.288113e-03
  2.353031e+00    6.240421e-01   8.177194e-03
  2.355241e+00    6.228808e-01   8.161594e-03
  2.357452e+00    6.211485e-01   8.141894e-03
  2.359662e+00    6.143923e-01   8.089377e-03
  2.361873e+00    6.341979e-01   8.210470e-03
  2.364083e+00    6.227801e-01   8.128285e-03
  2.366294e+00    6.258218e-01   8.140013e-03
  2.368504e+00    6.184928e-01   8.084184e-03
  2.370714e+00    6.250778e-01   8.119043e-03
  2.372925e+00    6.173898e-01   8.060984e-03
  2.375135e+00    6.144641e-01   8.033833e-03
  2.377346e+00    6.298451e-01   8.125805e-03
  2.379556e+00    6.273260e-01   8.101593e-03
  2.381767e+00    6.343555e-01   8.138936e-03
  2.383977e+00    6.132590e-01   7.994558e-03
  2.386188e+00    6.289517e-01   8.088216e-03
  2.388398e+00    6.300238e-01   8.087074e-03
  2.390609e+00    6.383423e-01   8.132448e-03
  2.392819e+00    6.239406e-01   8.032354e-03
  2.395029e+00    6.143874e-01   7.962984e-03
  2.397240e+00    6.118182e-01   7.938447e-03
  2.399450e+00    6.172556e-01   7.965830e-03
  2.401661e+00    5.977304e-01   7.831233e-03
  2.403871e+00    5.998187e-01   7.837215e-03
  2.406082e+00    6.106250e-01   7.900050e-03
  2.408292e+00    6.176732e-01   7.937673e-03
  2.410503e+00    6.077265e-01   7.866025e-03
  2.412713e+00    6.017904e-01   7.819748e-03
  2.414924e+00    6.084136e-01   7.855152e-03
  2.417134e+00    6.027977e-01   7.811216e-03
  2.419344e+00    6.010855e-01   7.792690e-03
  2.421555e+00    6.093845e-01   7.838762e-03
  2.423765e+00    5.985698e-01   7.761503e-03
  2.425976e+00    6.067419e-01   7.806447e-03
  2.428186e+00    6.142605e-01   7.847356e-03
  2.430397e+00    6.090739e-01   7.806613e-03
  2.432607e+00    5.929890e-01   7.695573e-03
  2.434818e+00    5.984515e-01   7.723380e-03
  2.437028e+00    5.782385e-01   7.584768e-03
  2.439239e+00    6.010647e-01   7.725319e-03
  2.441449e+00    5.955159e-01   7.682370e-03
  2.443659e+00    5.855919e-01   7.610764e-03
  2.445870e+00    5.954436e-01   7.686833e-03
  2.448080e+00    5.776789e-01   7.605956e-03
  2.450291e+00    5.701075e-01   7.572431e-03
  2.452501e+00    5.762509e-01   7.624284e-03
  2.454712e+00    5.878415e-01   7.709133e-03
  2.456922e+00    5.616044e-01   7.541694e-03
  2.459133e+00    5.669622e-01   7.582997e-03
  2.461343e+00    5.585941e-01   7.531163e-03
  2.463554e+00    5.652158e-01   7.579125e-03
  2.465764e+00    5.736462e-01   7.638609e-03
  2.467975e+00    5.722004e-01   7.631299e-03
  2.470185e+00    5.680313e-01   7.605711e-03
  2.472395e+00    5.737741e-01   7.645300e-03
  2.474606e+00    5.560542e-01   7.527908e-03
  2.476816e+00    5.610974e-01   7.562676e-03
  2.479027e+00    5.571842e-01   7.537130e-03
  2.481237e+00    5.542410e-01   7.517484e-03
  2.483448e+00    5.307721e-01   7.356897e-03
  2.485658e+00    5.405717e-01   7.424344e-03
  2.487869e+00    5.485261e-01   7.478811e-03
  2.490079e+00    5.552905e-01   7.524262e-03
  2.492290e+00    5.431727e-01   7.441283e-03
  2.494500e+00    5.356780e-01   7.389028e-03
  2.496710e+00    5.383970e-01   7.407057e-03
  2.498921e+00    5.423546e-01   7.433240e-03
  2.501131e+00    5.316369e-01   7.358475e-03
  2.503342e+00    5.310030e-01   7.352832e-03
  2.505552e+00    5.196051e-01   7.272361e-03
  2.507763e+00    5.389603e-01   7.405140e-03
  2.509973e+00    5.252592e-01   7.309030e-03
  2.512184e+00    5.229446e-01   7.291303e-03
  2.514394e+00    5.289728e-01   7.323815e-03
  2.516605e+00    5.417655e-01   7.364108e-03
  2.518815e+00    5.461136e-01   7.364747e-03
  2.521025e+00    5.294818e-01   7.230690e-03
  2.523236e+00    5.351590e-01   7.251205e-03
  2.525446e+00    5.356143e-01   7.238536e-03
  2.527657e+00    5.254430e-01   7.154873e-03
  2.529867e+00    5.306317e-01   7.175846e-03
  2.532078e+00    5.291084e-01   7.150466e-03
  2.534288e+00    5.113599e-01   7.015786e-03
  2.536499e+00    5.171370e-01   7.043469e-03
  2.538709e+00    5.167938e-01   7.030187e-03
  2.540920e+00    5.390269e-01   7.169040e-03
  2.543130e+00    5.248428e-01   7.063734e-03
  2.545340e+00    5.115677e-01   6.963856e-03
  2.547551e+00    5.256219e-01   7.048911e-03
  2.549761e+00    5.198905e-01   7.000801e-03
  2.551972e+00    5.243640e-01   7.021502e-03
  2.554182e+00    5.177107e-01   6.967647e-03
  2.556393e+00    5.288660e-01   7.033166e-03
  2.558603e+00    5.324205e-01   7.047578e-03
  2.560814e+00    5.216895e-01   6.967484e-03
  2.563024e+00    5.166696e-01   6.925325e-03
  2.565235e+00    5.172520e-01   6.919720e-03
  2.567445e+00    5.181727e-01   6.916341e-03
  2.569656e+00    5.251819e-01   6.953144e-03
  2.571866e+00    5.186389e-01   6.900344e-03
  2.574076e+00    5.131588e-01   6.854540e-03
  2.576287e+00    5.155180e-01   6.861967e-03
  2.578497e+00    5.200937e-01   6.884466e-03
  2.580708e+00    5.273105e-01   6.923904e-03
  2.582918e+00    5.017025e-01   6.746028e-03
  2.585129e+00    5.087777e-01   6.785696e-03
  2.587339e+00    5.118588e-01   6.798575e-03
  2.589550e+00    5.179539e-01   6.831326e-03
  2.591760e+00    5.210782e-01   6.844110e-03
  2.593971e+00    5.078200e-01   6.748968e-03
  2.596181e+00    5.051175e-01   6.724811e-03
  2.598391e+00    5.226767e-01   6.835430e-03
  2.600602e+00    5.197362e-01   6.810230e-03
  2.602812e+00    5.117189e-01   6.749933e-03
  2.605023e+00    5.064406e-01   6.707883e-03
  2.607233e+00    5.137927e-01   6.749213e-03
  2.609444e+00    5.081347e-01   6.704720e-03
  2.611654e+00    4.982715e-01   6.632071e-03
  2.613865e+00    5.116278e-01   6.713273e-03
  2.616075e+00    5.174850e-01   6.744398e-03
  2.618286e+00    5.111598e-01   6.696009e-03
  2.620496e+00    5.204390e-01   6.749719e-03
  2.622706e+00    5.189015e-01   6.733915e-03
  2.624917e+00    5.101025e-01   6.670701e-03
  2.627127e+00    4.994799e-01   6.595172e-03
  2.629338e+00    4.992335e-01   6.587579e-03
  2.631548e+00    5.092421e-01   6.647087e-03
  2.633759e+00    4.984292e-01   6.569022e-03
  2.635969e+00    5.027081e-01   6.590453e-03
  2.638180e+00    5.160735e-01   6.670418e-03
  2.640390e+00    4.909093e-01   6.499217e-03
  2.642601e+00    4.967931e-01   6.531409e-03
  2.644811e+00    4.986849e-01   6.536768e-03
  2.647021e+00    5.105382e-01   6.607357e-03
  2.649232e+00    5.119507e-01   6.609714e-03
  2.651442e+00    5.040631e-01   6.552046e-03
  2.653653e+00    4.965296e-01   6.496132e-03
  2.655863e+00    4.947105e-01   6.477563e-03
  2.658074e+00    4.959429e-01   6.479010e-03
  2.660284e+00    5.194668e-01   6.624413e-03
  2.662495e+00    4.978065e-01   6.478077e-03
  2.664705e+00    5.010622e-01   6.492623e-03
  2.666916e+00    5.036207e-01   6.502669e-03
  2.669126e+00    4.995542e-01   6.469887e-03
  2.671337e+00    5.011274e-01   6.473441e-03
  2.673547e+00    4.923644e-01   6.410245e-03
  2.675757e+00    4.888068e-01   6.380616e-03
  2.677968e+00    4.877118e-01   6.366993e-03
  2.680178e+00    5.005152e-01   6.443572e-03
  2.682389e+00    5.015683e-01   6.443905e-03
  2.684599e+00    5.010141e-01   6.434104e-03
  2.686810e+00    5.063101e-01   6.461326e-03
  2.689020e+00    5.008948e-01   6.420327e-03
  2.691231e+00    5.044333e-01   6.436591e-03
  2.693441e+00    4.901198e-01   6.338475e-03
  2.695652e+00    4.938616e-01   6.356078e-03
  2.697862e+00    4.911515e-01   6.332259e-03
  2.700072e+00    4.912230e-01   6.326640e-03
  2.702283e+00    4.913018e-01   6.320918e-03
  2.704493e+00    4.956753e-01   6.342640e-03
  2.706704e+00    5.040331e-01   6.389404e-03
  2.708914e+00    4.975185e-01   6.341948e-03
  2.711125e+00    4.852699e-01   6.257175e-03
  2.713335e+00    4.827674e-01   6.234928e-03
  2.715546e+00    5.064698e-01   6.379588e-03
  2.717756e+00    4.886969e-01   6.260760e-03
  2.719967e+00    4.829930e-01   6.217907e-03
  2.722177e+00    4.861913e-01   6.232346e-03
  2.724387e+00    4.870739e-01   6.231865e-03
  2.726598e+00    4.915507e-01   6.254358e-03
  2.728808e+00    4.844995e-01   6.203186e-03
  2.731019e+00    4.866594e-01   6.210861e-03
  2.733229e+00    4.963980e-01   6.266819e-03
  2.735440e+00    4.945148e-01   6.248585e-03
  2.737650e+00    4.840168e-01   6.175901e-03
  2.739861e+00    4.803153e-01   6.146162e-03
  2.742071e+00    4.822994e-01   6.153130e-03
  2.744282e+00    4.705747e-01   6.071702e-03
  2.746492e+00    4.733018e-01   6.083278e-03
  2.748702e+00    4.743399e-01   6.084103e-03
  2.750913e+00    4.896750e-01   6.175805e-03
  2.753123e+00    4.925104e-01   6.187495e-03
  2.755334e+00    4.857308e-01   6.138657e-03
  2.757544e+00    4.861879e-01   6.135764e-03
  2.759755e+00    4.765897e-01   6.069040e-03
  2.761965e+00    4.776236e-01   6.069660e-03
  2.764176e+00    4.680236e-01   6.002421e-03
  2.766386e+00    4.810995e-01   6.079910e-03
  2.768597e+00    4.824654e-01   6.082643e-03
  2.770807e+00    4.863755e-01   6.101329e-03
  2.773017e+00    4.819033e-01   6.067222e-03
  2.775228e+00    4.896702e-01   6.110066e-03
  2.777438e+00    4.802725e-01   6.045355e-03
  2.779649e+00    4.666004e-01   5.952847e-03
  2.781859e+00    4.729237e-01   5.987306e-03
  2.784070e+00    4.766549e-01   6.005025e-03
  2.786280e+00    4.878886e-01   6.069554e-03
  2.788491e+00    4.761197e-01   5.990067e-03
  2.790701e+00    4.919227e-01   6.082919e-03
  2.792912e+00    4.881570e-01   6.053560e-03
  2.795122e+00    4.805575e-01   6.000499e-03
  2.797333e+00    4.867399e-01   6.033346e-03
  2.799543e+00    4.817189e-01   5.996250e-03
  2.801753e+00    4.805832e-01   5.983275e-03
  2.803964e+00    4.830838e-01   5.993143e-03
  2.806174e+00    4.637954e-01   5.866183e-03
  2.808385e+00    4.718762e-01   5.910295e-03
  2.810595e+00    4.746555e-01   5.920805e-03
  2.812806e+00    4.715984e-01   5.895124e-03
  2.815016e+00    4.766183e-01   5.921650e-03
  2.817227e+00    4.839024e-01   5.992933e-03
  2.819437e+00    4.780897e-01   5.967973e-03
  2.821648e+00    4.592080e-01   5.851172e-03
  2.823858e+00    4.830230e-01   6.006365e-03
  2.826068e+00    4.795350e-01   5.989684e-03
  2.828279e+00    4.654657e-01   5.905147e-03
  2.830489e+00    4.826947e-01   6.016820e-03
  2.832700e+00    4.740626e-01   5.965346e-03
  2.834910e+00    4.670803e-01   5.923314e-03
  2.837121e+00    4.697275e-01   5.941770e-03
  2.839331e+00    4.759353e-01   5.982142e-03
  2.841542e+00    4.836750e-01   6.031609e-03
  2.843752e+00    4.773204e-01   5.992663e-03
  2.845963e+00    4.808406e-01   6.015113e-03
  2.848173e+00    4.714319e-01   5.956057e-03
  2.850383e+00    4.767471e-01   5.989846e-03
  2.852594e+00    4.772592e-01   5.992971e-03
  2.854804e+00    4.626821e-01   5.900249e-03
  2.857015e+00    4.627801e-01   5.900439e-03
  2.859225e+00    4.635355e-01   5.904983e-03
  2.861436e+00    4.742928e-01   5.972471e-03
  2.863646e+00    4.580041e-01   5.869053e-03
  2.865857e+00    4.715421e-01   5.955496e-03
  2.868067e+00    4.695280e-01   5.942987e-03
  2.870278e+00    4.667226e-01   5.924870e-03
  2.872488e+00    4.695206e-01   5.941406e-03
  2.874698e+00    4.743419e-01   5.970805e-03
  2.876909e+00    4.611167e-01   5.885643e-03
  2.879119e+00    4.617542e-01   5.888089e-03
  2.881330e+00    4.719657e-01   5.951355e-03
  2.883540e+00    4.705787e-01   5.941213e-03
  2.885751e+00    4.589600e-01   5.865758e-03
  2.887961e+00    4.563788e-01   5.847375e-03
  2.890172e+00    4.615714e-01   5.878932e-03
  2.892382e+00    4.682107e-01   5.919241e-03
  2.894593e+00    4.781466e-01   5.979876e-03
  2.896803e+00    4.760706e-01   5.964868e-03
  2.899014e+00    4.663489e-01   5.901732e-03
  2.901224e+00    4.668558e-01   5.902923e-03
  2.903434e+00    4.503539e-01   5.795750e-03
  2.905645e+00    4.653710e-01   5.889327e-03
  2.907855e+00    4.665031e-01   5.894372e-03
  2.910066e+00    4.791932e-01   5.971896e-03
  2.912276e+00    4.689418e-01   5.905531e-03
  2.914487e+00    4.570426e-01   5.827674e-03
  2.916697e+00    4.495294e-01   5.777348e-03
  2.918908e+00    4.686267e-01   5.896785e-03
  2.921118e+00    4.724250e-01   5.917897e-03
  2.923329e+00    4.546706e-01   5.803312e-03
  2.925539e+00    4.744523e-01   5.925910e-03
  2.927749e+00    4.641157e-01   5.858654e-03
  2.929960e+00    4.470070e-01   5.746929e-03
  2.932170e+00    4.568680e-01   5.807624e-03
  2.934381e+00    4.543564e-01   5.789217e-03
  2.936591e+00    4.593685e-01   5.818459e-03
  2.938802e+00    4.640332e-01   5.845213e-03
  2.941012e+00    4.676097e-01   5.865306e-03
  2.943223e+00    4.813338e-01   5.948004e-03
  2.945433e+00    4.705158e-01   5.877000e-03
  2.947644e+00    4.514949e-01   5.752841e-03
  2.949854e+00    4.652970e-01   5.835803e-03
  2.952064e+00    4.701294e-01   5.861738e-03
  2.954275e+00    4.580297e-01   5.781393e-03
  2.956485e+00    4.696832e-01   5.850219e-03
  2.958696e+00    4.585201e-01   5.775893e-03
  2.960906e+00    4.665430e-01   5.821967e-03
  2.963117e+00    4.483003e-01   5.702561e-03
  2.965327e+00    4.601389e-01   5.773431e-03
  2.967538e+00    4.584236e-01   5.759736e-03
  2.969748e+00    4.576253e-01   5.751886e-03
  2.971959e+00    4.709574e-01   5.831887e-03
  2.974169e+00    4.641237e-01   5.786816e-03
  2.976379e+00    4.435375e-01   5.654137e-03
  2.978590e+00    4.456900e-01   5.664729e-03
  2.980800e+00    4.533055e-01   5.710120e-03
  2.983011e+00    4.485161e-01   5.677097e-03
  2.985221e+00    4.522057e-01   5.697255e-03
  2.987432e+00    4.445672e-01   5.645862e-03
  2.989642e+00    4.504036e-01   5.680179e-03
  2.991853e+00    4.541707e-01   5.700599e-03
  2.994063e+00    4.553547e-01   5.705112e-03
  2.996274e+00    4.530802e-01   5.687671e-03
  2.998484e+00    4.580132e-01   5.715834e-03
  3.000694e+00    4.570516e-01   5.706365e-03
  3.002905e+00    4.541792e-01   5.685474e-03
  3.005115e+00    4.555410e-01   5.690996e-03
  3.007326e+00    4.526296e-01   5.669632e-03
  3.009536e+00    4.396433e-01   5.584510e-03
  3.011747e+00    4.540072e-01   5.672066e-03
  3.013957e+00    4.528644e-01   5.661762e-03
  3.016168e+00    4.459032e-01   5.614836e-03
  3.018378e+00    4.563558e-01   5.677206e-03
  3.020589e+00    4.577144e-01   5.682435e-03
  3.022799e+00    4.489901e-01   5.624866e-03
  3.025010e+00    4.447093e-01   5.594772e-03
  3.027220e+00    4.556881e-01   5.660288e-03
  3.029430e+00    4.627566e-01   5.700744e-03
  3.031641e+00    4.486320e-01   5.609941e-03
  3.033851e+00    4.496245e-01   5.612627e-03
  3.036062e+00    4.526577e-01   5.628759e-03
  3.038272e+00    4.439602e-01   5.570856e-03
  3.040483e+00    4.433403e-01   5.563780e-03
  3.042693e+00    4.466891e-01   5.581509e-03
  3.044904e+00    4.517127e-01   5.608772e-03
  3.047114e+00    4.553525e-01   5.626499e-03
  3.049325e+00    4.552397e-01   5.621396e-03
  3.051535e+00    4.466178e-01   5.563525e-03
  3.053745e+00    4.495482e-01   5.577001e-03
  3.055956e+00    4.547587e-01   5.604639e-03
  3.058166e+00    4.607753e-01   5.637269e-03
  3.060377e+00    4.572655e-01   5.610981e-03
  3.062587e+00    4.511493e-01   5.568683e-03
  3.064798e+00    4.410847e-01   5.501993e-03
  3.067008e+00    4.605472e-01   5.617290e-03
  3.069219e+00    4.596888e-01   5.607483e-03
  3.071429e+00    4.641653e-01   5.631167e-03
  3.073640e+00    4.503335e-01   5.543298e-03
  3.075850e+00    4.409260e-01   5.481526e-03
  3.078060e+00    4.498101e-01   5.533370e-03
  3.080271e+00    4.528912e-01   5.548794e-03
  3.082481e+00    4.636628e-01   5.610903e-03
  3.084692e+00    4.505100e-01   5.527357e-03
  3.086902e+00    4.314212e-01   5.405810e-03
  3.089113e+00    4.448535e-01   5.485747e-03
  3.091323e+00    4.596000e-01   5.572516e-03
  3.093534e+00    4.558411e-01   5.546284e-03
  3.095744e+00    4.516006e-01   5.517037e-03
  3.097955e+00    4.635722e-01   5.586072e-03
  3.100165e+00    4.425135e-01   5.454402e-03
  3.102375e+00    4.562380e-01   5.534881e-03
  3.104586e+00    4.644382e-01   5.580843e-03
  3.106796e+00    4.507712e-01   5.494590e-03
  3.109007e+00    4.455855e-01   5.459672e-03
  3.111217e+00    4.414970e-01   5.430888e-03
  3.113428e+00    4.509986e-01   5.485573e-03
  3.115638e+00    4.455680e-01   5.449235e-03
  3.117849e+00    4.515977e-01   5.482211e-03
  3.120059e+00    4.531621e-01   5.488222e-03
  3.122270e+00    4.510922e-01   5.472381e-03
  3.124480e+00    4.540006e-01   5.486266e-03
  3.126691e+00    4.561358e-01   5.495566e-03
  3.128901e+00    4.428499e-01   5.411807e-03
  3.131111e+00    4.425815e-01   5.406332e-03
  3.133322e+00    4.573894e-01   5.492539e-03
  3.135532e+00    4.624902e-01   5.519602e-03
  3.137743e+00    4.617042e-01   5.511376e-03
  3.139953e+00    4.470963e-01   5.419792e-03
  3.142164e+00    4.577304e-01   5.496062e-03
  3.144374e+00    4.480167e-01   5.466041e-03
  3.146585e+00    4.510036e-01   5.498904e-03
  3.148795e+00    4.604573e-01   5.567258e-03
  3.151006e+00    4.562874e-01   5.550680e-03
  3.153216e+00    4.489745e-01   5.513194e-03
  3.155426e+00    4.548556e-01   5.555601e-03
  3.157637e+00    4.490824e-01   5.525831e-03
  3.159847e+00    4.292164e-01   5.407020e-03
  3.162058e+00    4.464240e-01   5.518787e-03
  3.164268e+00    4.475728e-01   5.530005e-03
  3.166479e+00    4.479177e-01   5.535807e-03
  3.168689e+00    4.413033e-01   5.498160e-03
  3.170900e+00    4.431399e-01   5.512767e-03
  3.173110e+00    4.404559e-01   5.498942e-03
  3.175321e+00    4.455430e-01   5.533104e-03
  3.177531e+00    4.429194e-01   5.519538e-03
  3.179741e+00    4.589199e-01   5.620491e-03
  3.181952e+00    4.465428e-01   5.546309e-03
  3.184162e+00    4.524579e-01   5.585153e-03
  3.186373e+00    4.212259e-01   5.390520e-03
  3.188583e+00    4.384638e-01   5.501482e-03
  3.190794e+00    4.360629e-01   5.488156e-03
  3.193004e+00    4.419810e-01   5.526524e-03
  3.195215e+00    4.521805e-01   5.591460e-03
  3.197425e+00    4.332363e-01   5.474295e-03
  3.199636e+00    4.368649e-01   5.496394e-03
  3.201846e+00    4.360885e-01   5.490907e-03
  3.204056e+00    4.337260e-01   5.476899e-03
  3.206267e+00    4.407364e-01   5.521820e-03
  3.208477e+00    4.398360e-01   5.517128e-03
  3.210688e+00    4.347925e-01   5.486260e-03
  3.212898e+00    4.327526e-01   5.473935e-03
  3.215109e+00    4.321865e-01   5.471112e-03
  3.217319e+00    4.255271e-01   5.429420e-03
  3.219530e+00    4.196546e-01   5.392220e-03
  3.221740e+00    4.147811e-01   5.361382e-03
  3.223951e+00    4.142078e-01   5.358108e-03
  3.226161e+00    4.368955e-01   5.503094e-03
  3.228372e+00    4.265420e-01   5.438027e-03
  3.230582e+00    4.298630e-01   5.459300e-03
  3.232792e+00    4.312569e-01   5.468362e-03
  3.235003e+00    4.374134e-01   5.507514e-03
  3.237213e+00    4.330947e-01   5.480351e-03
  3.239424e+00    4.277807e-01   5.446618e-03
  3.241634e+00    4.445187e-01   5.552286e-03
  3.243845e+00    4.483359e-01   5.576154e-03
  3.246055e+00    4.303421e-01   5.462836e-03
  3.248266e+00    4.414922e-01   5.533348e-03
  3.250476e+00    4.415892e-01   5.533654e-03
  3.252687e+00    4.452446e-01   5.556427e-03
  3.254897e+00    4.489690e-01   5.579489e-03
  3.257107e+00    4.411863e-01   5.530614e-03
  3.259318e+00    4.310186e-01   5.466267e-03
  3.261528e+00    4.506096e-01   5.588982e-03
  3.263739e+00    4.439136e-01   5.546733e-03
  3.265949e+00    4.336518e-01   5.482125e-03
  3.268160e+00    4.403572e-01   5.523890e-03
  3.270370e+00    4.328221e-01   5.475958e-03
  3.272581e+00    4.224517e-01   5.409653e-03
  3.274791e+00    4.243370e-01   5.421198e-03
  3.277002e+00    4.195452e-01   5.389933e-03
  3.279212e+00    4.283694e-01   5.445934e-03
  3.281422e+00    4.204565e-01   5.394829e-03
  3.283633e+00    4.179604e-01   5.378128e-03
  3.285843e+00    4.234455e-01   5.412942e-03
  3.288054e+00    4.354482e-01   5.488188e-03
  3.290264e+00    4.350749e-01   5.485520e-03
  3.292475e+00    4.300630e-01   5.452994e-03
  3.294685e+00    4.162675e-01   5.364184e-03
  3.296896e+00    4.341743e-01   5.477581e-03
  3.299106e+00    4.169381e-01   5.367222e-03
  3.301317e+00    4.122415e-01   5.335876e-03
  3.303527e+00    4.148849e-01   5.352498e-03
  3.305737e+00    4.181305e-01   5.372338e-03
  3.307948e+00    4.266119e-01   5.425901e-03
  3.310158e+00    4.267738e-01   5.426059e-03
  3.312369e+00    4.166201e-01   5.360254e-03
  3.314579e+00    4.315759e-01   5.454690e-03
  3.316790e+00    4.349278e-01   5.475134e-03
  3.319000e+00    4.257431e-01   5.415809e-03
  3.321211e+00    4.331675e-01   5.462208e-03
  3.323421e+00    4.266422e-01   5.419721e-03
  3.325632e+00    4.155802e-01   5.348096e-03
  3.327842e+00    4.272747e-01   5.421917e-03
  3.330052e+00    4.287080e-01   5.429904e-03
  3.332263e+00    4.357890e-01   5.473550e-03
  3.334473e+00    4.400245e-01   5.499149e-03
  3.336684e+00    4.287540e-01   5.426997e-03
  3.338894e+00    4.202517e-01   5.372071e-03
  3.341105e+00    4.234559e-01   5.391282e-03
  3.343315e+00    4.302064e-01   5.432955e-03
  3.345526e+00    4.214224e-01   5.376309e-03
  3.347736e+00    4.110965e-01   5.308629e-03
  3.349947e+00    4.140529e-01   5.326752e-03
  3.352157e+00    4.300849e-01   5.427708e-03
  3.354368e+00    4.190791e-01   5.356532e-03
  3.356578e+00    4.189172e-01   5.354459e-03
  3.358788e+00    4.319079e-01   5.435518e-03
  3.360999e+00    4.255190e-01   5.393893e-03
  3.363209e+00    4.209338e-01   5.363745e-03
  3.365420e+00    4.338255e-01   5.443716e-03
  3.367630e+00    4.062600e-01   5.266926e-03
  3.369841e+00    4.231369e-01   5.373767e-03
  3.372051e+00    4.299496e-01   5.414850e-03
  3.374262e+00    4.284169e-01   5.402721e-03
  3.376472e+00    4.280206e-01   5.397751e-03
  3.378683e+00    4.217249e-01   5.355376e-03
  3.380893e+00    4.206348e-01   5.346100e-03
  3.383103e+00    4.254315e-01   5.373748e-03
  3.385314e+00    4.222666e-01   5.351486e-03
  3.387524e+00    4.171357e-01   5.316148e-03
  3.389735e+00    4.200725e-01   5.332157e-03
  3.391945e+00    4.249605e-01   5.359363e-03
  3.394156e+00    4.153055e-01   5.293916e-03
  3.396366e+00    4.246642e-01   5.349759e-03
  3.398577e+00    4.149173e-01   5.284944e-03
  3.400787e+00    4.099379e-01   5.265059e-03
  3.402998e+00    4.011490e-01   5.245931e-03
  3.405208e+00    4.021856e-01   5.273316e-03
  3.407418e+00    3.891358e-01   5.202578e-03
  3.409629e+00    4.074959e-01   5.337994e-03
  3.411839e+00    3.872306e-01   5.215146e-03
  3.414050e+00    3.976386e-01   5.295760e-03
  3.416260e+00    3.980210e-01   5.308003e-03
  3.418471e+00    3.953327e-01   5.299501e-03
  3.420681e+00    3.958644e-01   5.311580e-03
  3.422892e+00    3.870969e-01   5.260396e-03
  3.425102e+00    3.964876e-01   5.331695e-03
  3.427313e+00    3.938167e-01   5.320954e-03
  3.429523e+00    3.827544e-01   5.252714e-03
  3.431733e+00    3.947481e-01   5.341117e-03
  3.433944e+00    3.979668e-01   5.369437e-03
  3.436154e+00    3.824177e-01   5.269744e-03
  3.438365e+00    3.844451e-01   5.289630e-03
  3.440575e+00    3.890957e-01   5.327527e-03
  3.442786e+00    3.869911e-01   5.318769e-03
  3.444996e+00    3.716976e-01   5.218078e-03
  3.447207e+00    3.695461e-01   5.208192e-03
  3.449417e+00    3.652366e-01   5.218229e-03
  3.451628e+00    3.550099e-01   5.173514e-03
  3.453838e+00    3.592864e-01   5.225499e-03
  3.456049e+00    3.682143e-01   5.313985e-03
  3.458259e+00    3.736709e-01   5.375347e-03
  3.460469e+00    3.701426e-01   5.369799e-03
  3.462680e+00    3.749827e-01   5.424093e-03
  3.464890e+00    3.512742e-01   5.267244e-03
  3.467101e+00    3.566086e-01   5.324281e-03
  3.469311e+00    3.783411e-01   5.500835e-03
  3.471522e+00    3.866984e-01   5.577932e-03
  3.473732e+00    3.994159e-01   5.685276e-03
  3.475943e+00    4.049855e-01   5.740949e-03
  3.478153e+00    4.163115e-01   5.836647e-03
  3.480364e+00    4.260155e-01   5.920084e-03
  3.482574e+00    4.198533e-01   5.892705e-03
  3.484784e+00    4.271557e-01   5.958920e-03
  3.486995e+00    4.361852e-01   6.037037e-03
  3.489205e+00    4.402414e-01   6.080009e-03
  3.491416e+00    4.415032e-01   6.103861e-03
  3.493626e+00    4.566534e-01   6.222671e-03
  3.495837e+00    4.572638e-01   6.241857e-03
  3.498047e+00    4.462856e-01   6.181006e-03
  3.500258e+00    4.629833e-01   6.310306e-03
  3.502468e+00    4.640605e-01   6.332227e-03
  3.504679e+00    4.694110e-01   6.383257e-03
  3.506889e+00    4.959645e-01   6.576203e-03
  3.509099e+00    5.003989e-01   6.620343e-03
  3.511310e+00    5.007409e-01   6.637447e-03
  3.513520e+00    4.914319e-01   6.590010e-03
  3.515731e+00    4.913819e-01   6.604153e-03
  3.517941e+00    4.801542e-01   6.542457e-03
  3.520152e+00    5.011706e-01   6.698506e-03
  3.522362e+00    5.238363e-01   6.863118e-03
  3.524573e+00    5.223757e-01   6.868080e-03
  3.526783e+00    5.160723e-01   6.839920e-03
  3.528994e+00    5.263565e-01   6.920099e-03
  3.531204e+00    5.171720e-01   6.871850e-03
  3.533414e+00    5.361105e-01   7.008740e-03
  3.535625e+00    5.367497e-01   7.025405e-03
  3.537835e+00    5.352107e-01   7.027480e-03
  3.540046e+00    5.327268e-01   7.020026e-03
  3.542256e+00    5.417210e-01   7.086636e-03
  3.544467e+00    5.411251e-01   7.090389e-03
  3.546677e+00    5.400804e-01   7.091167e-03
  3.548888e+00    5.357113e-01   7.069898e-03
  3.551098e+00    5.384027e-01   7.094965e-03
  3.553309e+00    5.249057e-01   7.013518e-03
  3.555519e+00    5.459482e-01   7.164131e-03
  3.557729e+00    5.386709e-01   7.127969e-03
  3.559940e+00    5.444018e-01   7.177444e-03
  3.562150e+00    5.351507e-01   7.127876e-03
  3.564361e+00    5.394274e-01   7.169686e-03
  3.566571e+00    5.488288e-01   7.245863e-03
  3.568782e+00    5.453993e-01   7.237460e-03
  3.570992e+00    5.356395e-01   7.186136e-03
  3.573203e+00    5.487953e-01   7.288169e-03
  3.575413e+00    5.417123e-01   7.254838e-03
  3.577624e+00    5.639299e-01   7.416575e-03
  3.579834e+00    5.412191e-01   7.279702e-03
  3.582045e+00    5.349576e-01   7.251453e-03
  3.584255e+00    5.481042e-01   7.354226e-03
  3.586465e+00    5.529706e-01   7.400970e-03
  3.588676e+00    5.363881e-01   7.303350e-03
  3.590886e+00    5.521204e-01   7.423563e-03
  3.593097e+00    5.447692e-01   7.388646e-03
  3.595307e+00    5.261750e-01   7.275234e-03
  3.597518e+00    5.323064e-01   7.331673e-03
  3.599728e+00    5.427803e-01   7.417648e-03
  3.601939e+00    5.495855e-01   7.478206e-03
  3.604149e+00    5.624404e-01   7.579993e-03
  3.606360e+00    5.380858e-01   7.428225e-03
  3.608570e+00    5.293409e-01   7.381673e-03
  3.610780e+00    5.484771e-01   7.525129e-03
  3.612991e+00    5.506257e-01   7.550009e-03
  3.615201e+00    5.561008e-01   7.597441e-03
  3.617412e+00    5.431967e-01   7.516126e-03
  3.619622e+00    5.469047e-01   7.547744e-03
  3.621833e+00    5.361965e-01   7.480211e-03
  3.624043e+00    5.495582e-01   7.582471e-03
  3.626254e+00    5.386983e-01   7.516948e-03
  3.628464e+00    5.404966e-01   7.540493e-03
  3.630675e+00    5.430247e-01   7.572339e-03
  3.632885e+00    5.401385e-01   7.566751e-03
  3.635095e+00    5.453498e-01   7.617709e-03
  3.637306e+00    5.469390e-01   7.643320e-03
  3.639516e+00    5.586787e-01   7.739847e-03
  3.641727e+00    5.415073e-01   7.634594e-03
  3.643937e+00    5.402740e-01   7.640591e-03
  3.646148e+00    5.455990e-01   7.692878e-03
  3.648358e+00    5.487932e-01   7.730486e-03
  3.650569e+00    5.339170e-01   7.639731e-03
  3.652779e+00    5.219758e-01   7.568405e-03
  3.654990e+00    5.419528e-01   7.726927e-03
  3.657200e+00    5.401413e-01   7.728974e-03
  3.659410e+00    5.538047e-01   7.841422e-03
  3.661621e+00    5.427536e-01   7.778045e-03
  3.663831e+00    5.324232e-01   7.718779e-03
  3.666042e+00    5.407140e-01   7.793946e-03
  3.668252e+00    5.333981e-01   7.756314e-03
  3.670463e+00    5.220785e-01   7.688682e-03
  3.672673e+00    5.343967e-01   7.794298e-03
  3.674884e+00    5.295398e-01   7.774220e-03
  3.677094e+00    5.291598e-01   7.786894e-03
  3.679305e+00    5.397524e-01   7.880151e-03
  3.681515e+00    5.360478e-01   7.868780e-03
  3.683726e+00    5.335577e-01   7.866329e-03
  3.685936e+00    5.279657e-01   7.840681e-03
  3.688146e+00    5.361478e-01   7.917117e-03
  3.690357e+00    5.299414e-01   7.887109e-03
  3.692567e+00    5.333705e-01   7.928821e-03
  3.694778e+00    5.354711e-01   7.960603e-03
  3.696988e+00    5.372230e-01   7.989786e-03
  3.699199e+00    5.229075e-01   7.898800e-03
  3.701409e+00    5.148618e-01   7.853998e-03
  3.703620e+00    5.379652e-01   8.044826e-03
  3.705830e+00    5.295257e-01   7.997912e-03
  3.708041e+00    5.325935e-01   8.037812e-03
  3.710251e+00    5.212286e-01   7.968239e-03
  3.712461e+00    5.287325e-01   8.042267e-03
  3.714672e+00    5.213869e-01   8.002889e-03
  3.716882e+00    5.259085e-01   8.054333e-03
  3.719093e+00    5.056350e-01   7.914467e-03
  3.721303e+00    5.154533e-01   8.007779e-03
  3.723514e+00    5.166033e-01   8.033982e-03
  3.725724e+00    5.145170e-01   8.034829e-03
  3.727935e+00    5.102102e-01   8.018401e-03
  3.730145e+00    5.381575e-01   8.252813e-03
  3.732356e+00    5.186454e-01   8.119419e-03
  3.734566e+00    5.223088e-01   8.165645e-03
  3.736776e+00    5.298304e-01   8.242277e-03
  3.738987e+00    5.341665e-01   8.294000e-03
  3.741197e+00    5.206125e-01   8.206251e-03
  3.743408e+00    5.212811e-01   8.229700e-03
  3.745618e+00    5.048587e-01   8.117218e-03
  3.747829e+00    5.127177e-01   8.198236e-03
  3.750039e+00    5.151995e-01   8.236499e-03
  3.752250e+00    5.213311e-01   8.304008e-03
  3.754460e+00    5.167251e-01   8.285974e-03
  3.756671e+00    4.913879e-01   8.098665e-03
  3.758881e+00    5.226262e-01   8.371032e-03
  3.761091e+00    5.072519e-01   8.266118e-03
  3.763302e+00    5.097762e-01   8.305764e-03
  3.765512e+00    5.010719e-01   8.253699e-03
  3.767723e+00    5.200325e-01   8.427938e-03
  3.769933e+00    5.205870e-01   8.452090e-03
  3.772144e+00    5.119549e-01   8.401407e-03
  3.774354e+00    5.231043e-01   8.512598e-03
  3.776565e+00    5.036557e-01   8.372637e-03
  3.778775e+00    5.019807e-01   8.378627e-03
  3.780986e+00    5.144577e-01   8.502636e-03
  3.783196e+00    5.145694e-01   8.523995e-03
  3.785407e+00    5.166278e-01   8.561761e-03
  3.787617e+00    5.173815e-01   8.589037e-03
  3.789827e+00    5.062751e-01   8.516985e-03
  3.792038e+00    5.068728e-01   8.542934e-03
  3.794248e+00    4.997494e-01   8.503819e-03
  3.796459e+00    4.978342e-01   8.508778e-03
  3.798669e+00    5.107396e-01   8.639947e-03
  3.800880e+00    5.088102e-01   8.645276e-03
  3.803090e+00    5.084997e-01   8.664589e-03
  3.805301e+00    4.831345e-01   8.467487e-03
  3.807511e+00    5.026439e-01   8.658779e-03
  3.809722e+00    5.010102e-01   8.666947e-03
  3.811932e+00    4.949622e-01   8.636608e-03
  3.814142e+00    5.028153e-01   8.727806e-03
  3.816353e+00    4.989244e-01   8.716824e-03
  3.818563e+00    5.244409e-01   8.960608e-03
  3.820774e+00    5.170916e-01   8.921256e-03
  3.822984e+00    4.873349e-01   8.683843e-03
  3.825195e+00    4.867725e-01   8.702314e-03
  3.827405e+00    4.993654e-01   8.838046e-03
  3.829616e+00    4.986099e-01   8.855451e-03
  3.831826e+00    4.925845e-01   8.825880e-03
  3.834037e+00    4.939030e-01   8.862058e-03
  3.836247e+00    5.127008e-01   9.054217e-03
  3.838457e+00    5.140014e-01   9.091170e-03
  3.840668e+00    5.253642e-01   9.217042e-03
  3.842878e+00    5.111228e-01   9.117104e-03
  3.845089e+00    5.170474e-01   9.196002e-03
  3.847299e+00    4.876379e-01   8.956185e-03
  3.849510e+00    4.910260e-01   9.012952e-03
  3.851720e+00    5.090882e-01   9.199048e-03
  3.853931e+00    4.899437e-01   9.043200e-03
  3.856141e+00    5.196550e-01   9.332877e-03
  3.858352e+00    5.073647e-01   9.241411e-03
  3.860562e+00    5.183876e-01   9.360988e-03
  3.862772e+00    5.234140e-01   9.426422e-03
  3.864983e+00    4.801841e-01   9.048234e-03
  3.867193e+00    4.840503e-01   9.104080e-03
  3.869404e+00    5.048414e-01   9.317593e-03
  3.871614e+00    4.875266e-01   9.176306e-03
  3.873825e+00    5.103840e-01   9.409593e-03
  3.876035e+00    5.166698e-01   9.488475e-03
  3.878246e+00    4.890450e-01   9.256982e-03
  3.880456e+00    4.876377e-01   9.272518e-03
  3.882667e+00    5.029549e-01   9.446640e-03
  3.884877e+00    5.179818e-01   9.617306e-03
  3.887087e+00    4.839081e-01   9.325277e-03
  3.889298e+00    4.956121e-01   9.467834e-03
  3.891508e+00    5.016128e-01   9.555867e-03
  3.893719e+00    5.044414e-01   9.614291e-03
  3.895929e+00    4.908369e-01   9.515099e-03
  3.898140e+00    4.714307e-01   9.356191e-03
  3.900350e+00    4.925397e-01   9.595502e-03
  3.902561e+00    5.159631e-01   9.854304e-03
  3.904771e+00    4.920672e-01   9.656314e-03
  3.906982e+00    4.790196e-01   9.560161e-03
  3.909192e+00    5.033709e-01   9.834141e-03
  3.911403e+00    5.179974e-01   1.001105e-02
  3.913613e+00    4.788857e-01   9.659573e-03
  3.915823e+00    4.820482e-01   9.725998e-03
  3.918034e+00    5.079594e-01   1.001987e-02
  3.920244e+00    5.216010e-01   1.019055e-02
  3.922455e+00    4.884228e-01   9.897181e-03
  3.924665e+00    4.868655e-01   9.917759e-03
  3.926876e+00    4.671913e-01   9.751596e-03
  3.929086e+00    5.075954e-01   1.020270e-02
  3.931297e+00    4.675111e-01   9.825620e-03
  3.933507e+00    4.895256e-01   1.008328e-02
  3.935718e+00    5.193569e-01   1.041568e-02
  3.937928e+00    5.063547e-01   1.031444e-02
  3.940138e+00    4.885674e-01   1.016106e-02
  3.942349e+00    5.154879e-01   1.046796e-02
  3.944559e+00    5.198269e-01   1.054295e-02
  3.946770e+00    4.854975e-01   1.021903e-02
  3.948980e+00    5.002478e-01   1.040417e-02
  3.951191e+00    4.990371e-01   1.042288e-02
  3.953401e+00    5.016627e-01   1.048202e-02
  3.955612e+00    5.217700e-01   1.072286e-02
  3.957822e+00    5.286121e-01   1.082603e-02
  3.960033e+00    4.973074e-01   1.053358e-02
  3.962243e+00    5.077710e-01   1.067730e-02
  3.964453e+00    4.880976e-01   1.050171e-02
  3.966664e+00    5.093498e-01   1.076194e-02
  3.968874e+00    4.924431e-01   1.061066e-02
  3.971085e+00    4.733230e-01   1.042408e-02
  3.973295e+00    4.823785e-01   1.054483e-02
  3.975506e+00    5.137148e-01   1.090410e-02
  3.977716e+00    5.252558e-01   1.104882e-02
  3.979927e+00    4.972306e-01   1.077246e-02
  3.982137e+00    4.887842e-01   1.070287e-02
  3.984348e+00    4.780520e-01   1.060718e-02
  3.986558e+00    4.986822e-01   1.085624e-02
  3.988768e+00    4.644107e-01   1.049903e-02
  3.990979e+00    4.953478e-01   1.086610e-02
  3.993189e+00    4.941260e-01   1.087603e-02
  3.995400e+00    4.760158e-01   1.069817e-02
  3.997610e+00    4.886620e-01   1.086915e-02
  3.999821e+00    4.958812e-01   1.098721e-02
  4.002031e+00    5.092572e-01   1.117375e-02
  4.004242e+00    4.883067e-01   1.098006e-02
  4.006452e+00    5.391466e-01   1.157911e-02
  4.008663e+00    4.983132e-01   1.117258e-02
  4.010873e+00    4.562439e-01   1.072925e-02
  4.013084e+00    5.037357e-01   1.131561e-02
  4.015294e+00    4.738145e-01   1.101499e-02
  4.017504e+00    5.191212e-01   1.157285e-02
  4.019715e+00    4.800391e-01   1.117118e-02
  4.021925e+00    4.933573e-01   1.136830e-02
  4.024136e+00    4.896345e-01   1.136929e-02
  4.026346e+00    4.883640e-01   1.139888e-02
  4.028557e+00    4.902417e-01   1.146544e-02
  4.030767e+00    4.886287e-01   1.149238e-02
  4.032978e+00    5.036528e-01   1.171497e-02
  4.035188e+00    4.432814e-01   1.103477e-02
  4.037399e+00    4.841629e-01   1.157985e-02
  4.039609e+00    4.831193e-01   1.161520e-02
  4.041819e+00    4.846953e-01   1.168275e-02
  4.044030e+00    5.057254e-01   1.198471e-02
  4.046240e+00    4.728829e-01   1.163843e-02
  4.048451e+00    4.901939e-01   1.190070e-02
  4.050661e+00    5.283949e-01   1.240958e-02
  4.052872e+00    4.946123e-01   1.205979e-02
  4.055082e+00    4.797992e-01   1.193112e-02
  4.057293e+00    4.927188e-01   1.214498e-02
  4.059503e+00    4.674516e-01   1.188329e-02
  4.061714e+00    4.818974e-01   1.212195e-02
  4.063924e+00    5.035303e-01   1.244906e-02
  4.066134e+00    5.251541e-01   1.277343e-02
  4.068345e+00    4.766119e-01   1.222750e-02
  4.070555e+00    4.547437e-01   1.200130e-02
  4.072766e+00    4.584814e-01   1.210966e-02
  4.074976e+00    4.849530e-01   1.251661e-02
  4.077187e+00    4.849203e-01   1.257836e-02
  4.079397e+00    4.754192e-01   1.251824e-02
  4.081608e+00    4.639888e-01   1.243106e-02
  4.083818e+00    4.464520e-01   1.225726e-02
  4.086029e+00    4.975857e-01   1.300845e-02
  4.088239e+00    4.604374e-01   1.258087e-02
  4.090449e+00    4.512303e-01   1.252188e-02
  4.092660e+00    4.687773e-01   1.283329e-02
  4.094870e+00    4.565276e-01   1.273488e-02
  4.097081e+00    4.605065e-01   1.286050e-02
  4.099291e+00    4.544749e-01   1.282863e-02
  4.101502e+00    4.773323e-01   1.319656e-02
  4.103712e+00    5.245925e-01   1.388568e-02
  4.105923e+00    5.013344e-01   1.362729e-02
  4.108133e+00    4.854737e-01   1.346147e-02
  4.110344e+00    4.799190e-01   1.343553e-02
  4.112554e+00    4.762029e-01   1.343624e-02
  4.114764e+00    5.305712e-01   1.423938e-02
  4.116975e+00    5.518557e-01   1.457968e-02
  4.119185e+00    5.082428e-01   1.404846e-02
  4.121396e+00    4.639683e-01   1.347798e-02
  4.123606e+00    5.082247e-01   1.416404e-02
  4.125817e+00    4.784645e-01   1.380078e-02
  4.128027e+00    4.742585e-01   1.379765e-02
  4.130238e+00    5.220773e-01   1.453869e-02
  4.132448e+00    4.673886e-01   1.381613e-02
  4.134659e+00    4.738730e-01   1.397120e-02
  4.136869e+00    4.617972e-01   1.385353e-02
  4.139080e+00    5.119032e-01   1.465155e-02
  4.141290e+00    5.208206e-01   1.484417e-02
  4.143500e+00    5.286956e-01   1.502494e-02
  4.145711e+00    4.474373e-01   1.388674e-02
  4.147921e+00    4.686302e-01   1.427679e-02
  4.150132e+00    5.283545e-01   1.523173e-02
  4.152342e+00    5.184042e-01   1.516089e-02
  4.154553e+00    5.288683e-01   1.538569e-02
  4.156763e+00    4.663104e-01   1.451882e-02
  4.158974e+00    4.295276e-01   1.400454e-02
  4.161184e+00    4.230421e-01   1.396710e-02
  4.163395e+00    4.787340e-01   1.493395e-02
  4.165605e+00    4.876019e-01   1.514999e-02
  4.167815e+00    4.794638e-01   1.510146e-02
  4.170026e+00    5.053760e-01   1.558578e-02
  4.172236e+00    4.886843e-01   1.540932e-02
  4.174447e+00    4.727190e-01   1.523783e-02
  4.176657e+00    4.557235e-01   1.504316e-02
  4.178868e+00    4.928639e-01   1.573272e-02
  4.181078e+00    4.899724e-01   1.577501e-02
  4.183289e+00    4.175710e-01   1.464608e-02
  4.185499e+00    4.547541e-01   1.537449e-02
  4.187710e+00    5.128260e-01   1.642231e-02
  4.189920e+00    5.069286e-01   1.642604e-02
  4.192130e+00    5.676631e-01   1.748822e-02
  4.194341e+00    5.854754e-01   1.786969e-02
  4.196551e+00    5.104879e-01   1.679166e-02
  4.198762e+00    5.073605e-01   1.684633e-02
  4.200972e+00    5.312917e-01   1.735097e-02
  4.203183e+00    4.609091e-01   1.626715e-02
  4.205393e+00    4.316641e-01   1.584740e-02
  4.207604e+00    4.504844e-01   1.629969e-02
  4.209814e+00    4.895216e-01   1.710755e-02
  4.212025e+00    4.485458e-01   1.649229e-02
  4.214235e+00    5.072866e-01   1.766302e-02
  4.216445e+00    4.891621e-01   1.747016e-02
  4.218656e+00    4.866153e-01   1.755529e-02
  4.220866e+00    4.876126e-01   1.770346e-02
  4.223077e+00    4.615318e-01   1.735570e-02
  4.225287e+00    4.631777e-01   1.752347e-02
  4.227498e+00    4.572232e-01   1.754726e-02
  4.229708e+00    4.495172e-01   1.753992e-02
  4.231919e+00    5.203661e-01   1.902779e-02
  4.234129e+00    4.643052e-01   1.812445e-02
  4.236340e+00    4.738466e-01   1.846633e-02
  4.238550e+00    5.000728e-01   1.913769e-02
  4.240761e+00    5.085307e-01   1.946979e-02
  4.242971e+00    4.346690e-01   1.816505e-02
  4.245181e+00    5.133771e-01   1.992654e-02
  4.247392e+00    5.219865e-01   2.028139e-02
  4.249602e+00    4.625249e-01   1.928055e-02
  4.251813e+00    4.328196e-01   1.883524e-02
  4.254023e+00    5.001846e-01   2.045167e-02
  4.256234e+00    4.993800e-01   2.065359e-02
  4.258444e+00    4.807271e-01   2.047623e-02
  4.260655e+00    5.256350e-01   2.164686e-02
  4.262865e+00    4.311952e-01   1.982863e-02
  4.265076e+00    4.546054e-01   2.059089e-02
  4.267286e+00    4.735448e-01   2.126497e-02
  4.269496e+00    4.852276e-01   2.178848e-02
  4.271707e+00    5.084971e-01   2.258007e-02
  4.273917e+00    4.907405e-01   2.246877e-02
  4.276128e+00    4.417822e-01   2.160250e-02
  4.278338e+00    4.286925e-01   2.156369e-02
  4.280549e+00    4.274558e-01   2.184143e-02
  4.282759e+00    4.725302e-01   2.329398e-02
  4.284970e+00    4.976285e-01   2.425910e-02
  4.287180e+00    4.658911e-01   2.375357e-02
  4.289391e+00    5.109985e-01   2.506377e-02
  4.291601e+00    4.678539e-01   2.417364e-02
  4.293811e+00    5.212268e-01   2.571525e-02
  4.296022e+00    4.819880e-01   2.492703e-02
  4.298232e+00    5.892963e-01   2.779257e-02
  4.300443e+00    5.348905e-01   2.669854e-02
  4.302653e+00    3.723094e-01   2.246659e-02
  4.304864e+00    4.448231e-01   2.476967e-02
  4.307074e+00    5.170336e-01   2.694445e-02
  4.309285e+00    5.632961e-01   2.838021e-02
  4.311495e+00    5.342634e-01   2.789681e-02
  4.313706e+00    4.767803e-01   2.660205e-02
  4.315916e+00    4.485872e-01   2.605708e-02
  4.318126e+00    5.099676e-01   2.805740e-02
  4.320337e+00    4.398049e-01   2.631925e-02
  4.322547e+00    4.946915e-01   2.820929e-02
  4.324758e+00    3.946566e-01   2.545921e-02
  4.326968e+00    4.651555e-01   2.794932e-02
  4.329179e+00    5.129467e-01   2.967492e-02
  4.331389e+00    3.408389e-01   2.446821e-02
  4.333600e+00    4.861329e-01   2.956940e-02
  4.335810e+00    4.660092e-01   2.929584e-02
  4.338021e+00    4.647458e-01   2.963097e-02
  4.340231e+00    4.935769e-01   3.091950e-02
  4.342442e+00    4.836890e-01   3.101838e-02
  4.344652e+00    4.383515e-01   2.993103e-02
  4.346862e+00    3.910866e-01   2.866597e-02
  4.349073e+00    6.304693e-01   3.692659e-02
  4.351283e+00    3.940047e-01   2.962949e-02
  4.353494e+00    3.282266e-01   2.745961e-02
  4.355704e+00    4.810383e-01   3.377875e-02
  4.357915e+00    4.826154e-01   3.439619e-02
  4.360125e+00    4.914988e-01   3.530465e-02
  4.362336e+00    3.435046e-01   3.005181e-02
  4.364546e+00    4.764799e-01   3.603794e-02
  4.366757e+00    4.545625e-01   3.590173e-02
  4.368967e+00    3.724632e-01   3.314540e-02
  4.371177e+00    4.037710e-01   3.524389e-02
  4.373388e+00    4.231287e-01   3.688485e-02
  4.375598e+00    3.641351e-01   3.499775e-02
  4.377809e+00    5.434773e-01   4.383830e-02
  4.380019e+00    5.566901e-01   4.548333e-02
  4.382230e+00    4.539531e-01   4.221981e-02
  4.384440e+00    3.404577e-01   3.761649e-02
  4.386651e+00    4.007804e-01   4.207062e-02
  4.388861e+00    3.717685e-01   4.187717e-02
  4.391072e+00    5.516085e-01   5.280456e-02
  4.393282e+00    3.267558e-01   4.221159e-02
  4.395492e+00    4.152534e-01   4.956284e-02
  4.397703e+00    3.589778e-01   4.819038e-02
  4.399913e+00    4.887047e-01   5.907200e-02
  4.402124e+00    2.544380e-01   4.503552e-02
  4.404334e+00    6.222343e-01   7.487354e-02
  4.406545e+00    2.178124e-01   4.759866e-02
  4.408755e+00    3.879338e-01   6.888513e-02
  4.410966e+00    2.423656e-01   6.026828e-02
  4.413176e+00    2.933147e-01   7.503895e-02
  4.415387e+00   -7.744843e-01            nan
  4.417597e+00   -1.785423e+00            nan
  4.419807e+00   -3.766224e-01            nan
