# == pyFAI calibration ==
# Distance Sample to Detector: 0.216 m
# PONI: 1.166e-01, 1.308e-01 m
# Rotations: 0.000000 0.000000 0.000000 rad
# 
# == Fit2d calibration ==
# Distance Sample-beamCenter: 216.000 mm
# Center: x=1744.293, y=1555.000 pix
# Tilt: 0.000 deg  TiltPlanRot: 0.000 deg
# 
# Detector Eiger 9M	 PixelSize= 7.500e-05, 7.500e-05 m
#    Detector has a mask: True 
#    Detector has a dark current: False 
#    detector has a flat field: False 
# 
# Wavelength: 9.8e-11 m
# Mask applied: from detector
# Dark current applied: False
# Flat field applied: False
# Polarization factor: None
# Normalization factor: 1.0
# 
# Headers of the input frame:
# {
# "_array_data.header_convention": "SLS_1.0",
# "_array_data.header_contents": "# Detector: Dectris Eiger 9M, S/N E-18-0102\r\n# Pixel_size 75e-6 m x 75e-6 m\r\n# Silicon sensor, thickness 0.000450 m\r\n# Exposure_time 0.024997 s\r\n# Exposure_period 0.025000 s\r\n# Count_cutoff 62318 counts\r\n# Wavelength 0.980106 A\r\n# Detector_distance 0.215992 m\r\n# Beam_xy (1555, 1744) pixels\r\n# Start_angle 0.000000 deg.\r\n# Angle_increment 0.000000 deg.",
# "Content-Type": "application/octet-stream;",
# "conversions": "x-CBF_BYTE_OFFSET",
# "Content-Transfer-Encoding": "BINARY",
# "X-Binary-Size": "10166612",
# "X-Binary-ID": "1",
# "X-Binary-Element-Type": "signed 32-bit integer",
# "X-Binary-Element-Byte-Order": "LITTLE_ENDIAN",
# "Content-MD5": "OmBVA+MzA9VNVGzVS+FH7A==",
# "X-Binary-Number-of-Elements": "10166590",
# "X-Binary-Size-Fastest-Dimension": "3110",
# "X-Binary-Size-Second-Dimension": "3269",
# "X-Binary-Size-Padding": "4095"
# }
# --> H:/Proxima2a_2019-04-05/RAW_DATA/C5_gel17_position5/C5_mesh_1_data.cbf/C5_mesh_1_data.cbf000002.dat
#        q_A^-1              I           sigma 
  1.105228e-03    1.930205e+00   7.517763e-01
  3.315685e-03    2.333132e+00   5.024757e-01
  5.526141e-03    1.379676e+00   2.987863e-01
  7.736597e-03    1.385665e+00   2.529585e-01
  9.947054e-03    1.617612e+00   2.409427e-01
  1.215751e-02    1.240796e+00   1.908178e-01
  1.436797e-02    1.241576e+00   1.755749e-01
  1.657842e-02    1.241267e+00   1.634094e-01
  1.878888e-02    1.341150e+00   1.595520e-01
  2.099934e-02    1.228403e+00   1.444683e-01
  2.320979e-02    1.345469e+00   1.438036e-01
  2.542025e-02    1.197004e+00   1.296156e-01
  2.763070e-02    1.353798e+00   1.322109e-01
  2.984116e-02    1.346226e+00   1.268632e-01
  3.205162e-02    1.418331e+00   1.256536e-01
  3.426207e-02    1.574983e+00   1.280598e-01
  3.647253e-02    1.470492e+00   1.199281e-01
  3.868299e-02    1.349764e+00   1.115770e-01
  4.089344e-02    1.319708e+00   1.073049e-01
  4.310390e-02    1.325278e+00   1.047315e-01
  4.531436e-02    1.310855e+00   1.015882e-01
  4.752481e-02    1.304399e+00   9.895193e-02
  4.973527e-02    1.320835e+00   9.733658e-02
  5.194572e-02    1.421549e+00   9.880611e-02
  5.415618e-02    1.438663e+00   9.734604e-02
  5.636664e-02    1.346597e+00   9.231750e-02
  5.857709e-02    1.318653e+00   8.961481e-02
  6.078755e-02    1.317906e+00   8.794265e-02
  6.299801e-02    1.425195e+00   8.983250e-02
  6.520846e-02    1.393387e+00   8.730651e-02
  6.741892e-02    1.406358e+00   8.625767e-02
  6.962938e-02    1.399055e+00   8.466104e-02
  7.183983e-02    1.411361e+00   8.371267e-02
  7.405029e-02    1.509167e+00   8.526088e-02
  7.626074e-02    1.459337e+00   8.261676e-02
  7.847120e-02    1.321850e+00   7.751133e-02
  8.068166e-02    1.377958e+00   7.804698e-02
  8.289211e-02    1.440397e+00   7.872413e-02
  8.510257e-02    1.321909e+00   7.443036e-02
  8.731303e-02    1.364604e+00   7.465655e-02
  8.952348e-02    1.437162e+00   7.566594e-02
  9.173394e-02    1.473788e+00   7.569224e-02
  9.394439e-02    1.534065e+00   7.630820e-02
  9.615485e-02    1.429546e+00   7.280963e-02
  9.836531e-02    1.396993e+00   7.116058e-02
  1.005758e-01    1.447435e+00   7.163396e-02
  1.027862e-01    1.502082e+00   7.218295e-02
  1.049967e-01    1.530792e+00   7.209716e-02
  1.072071e-01    1.480925e+00   7.017740e-02
  1.094176e-01    1.532495e+00   7.066298e-02
  1.116280e-01    1.504776e+00   6.932274e-02
  1.138385e-01    1.570469e+00   7.012743e-02
  1.160490e-01    1.541407e+00   6.880986e-02
  1.182594e-01    1.624685e+00   6.997935e-02
  1.204699e-01    1.605811e+00   6.892995e-02
  1.226803e-01    1.511704e+00   6.627166e-02
  1.248908e-01    1.510970e+00   6.566584e-02
  1.271012e-01    1.511430e+00   6.510093e-02
  1.293117e-01    1.486434e+00   6.400542e-02
  1.315222e-01    1.504114e+00   6.384009e-02
  1.337326e-01    1.579786e+00   6.488205e-02
  1.359431e-01    1.622243e+00   6.578666e-02
  1.381535e-01    1.551393e+00   6.519758e-02
  1.403640e-01    1.507848e+00   6.455360e-02
  1.425744e-01    1.558836e+00   6.574080e-02
  1.447849e-01    1.554265e+00   6.565950e-02
  1.469953e-01    1.595026e+00   6.647322e-02
  1.492058e-01    1.550228e+00   6.545694e-02
  1.514163e-01    1.528207e+00   6.488243e-02
  1.536267e-01    1.623889e+00   6.675218e-02
  1.558372e-01    1.635609e+00   6.684475e-02
  1.580476e-01    1.611824e+00   6.619590e-02
  1.602581e-01    1.724242e+00   6.829156e-02
  1.624685e-01    1.701436e+00   6.765270e-02
  1.646790e-01    1.660135e+00   6.663465e-02
  1.668895e-01    1.623029e+00   6.569551e-02
  1.690999e-01    1.585893e+00   6.474454e-02
  1.713104e-01    1.609407e+00   6.502035e-02
  1.735208e-01    1.705405e+00   6.672329e-02
  1.757313e-01    1.738709e+00   6.716051e-02
  1.779417e-01    1.819644e+00   6.848177e-02
  1.801522e-01    1.837868e+00   6.860465e-02
  1.823626e-01    1.928146e+00   7.003551e-02
  1.845731e-01    1.767359e+00   6.683465e-02
  1.867836e-01    1.762849e+00   6.652402e-02
  1.889940e-01    1.824391e+00   6.745414e-02
  1.912045e-01    1.917597e+00   6.892477e-02
  1.934149e-01    2.056543e+00   7.113934e-02
  1.956254e-01    1.949389e+00   6.903280e-02
  1.978358e-01    1.981002e+00   6.935179e-02
  2.000463e-01    2.069933e+00   7.065646e-02
  2.022568e-01    1.972043e+00   6.873918e-02
  2.044672e-01    1.871806e+00   6.673995e-02
  2.066777e-01    1.955840e+00   6.799522e-02
  2.088881e-01    1.979492e+00   6.818132e-02
  2.110986e-01    1.977413e+00   6.791182e-02
  2.133090e-01    1.947371e+00   6.717488e-02
  2.155195e-01    1.859127e+00   6.541754e-02
  2.177300e-01    1.876653e+00   6.520877e-02
  2.199404e-01    1.975150e+00   6.513543e-02
  2.221509e-01    1.918077e+00   6.313349e-02
  2.243613e-01    1.888829e+00   6.185602e-02
  2.265718e-01    1.969241e+00   6.246285e-02
  2.287822e-01    2.031065e+00   6.280790e-02
  2.309927e-01    2.046526e+00   6.247218e-02
  2.332031e-01    2.088335e+00   6.256695e-02
  2.354136e-01    2.069574e+00   6.178046e-02
  2.376241e-01    2.058227e+00   6.113264e-02
  2.398345e-01    2.044230e+00   6.047352e-02
  2.420450e-01    2.079011e+00   6.054998e-02
  2.442554e-01    2.098095e+00   6.040818e-02
  2.464659e-01    2.194520e+00   6.136594e-02
  2.486763e-01    2.127692e+00   6.002718e-02
  2.508868e-01    2.118282e+00   5.951644e-02
  2.530973e-01    2.163045e+00   5.976913e-02
  2.553077e-01    2.051731e+00   5.785784e-02
  2.575182e-01    2.035527e+00   5.728793e-02
  2.597286e-01    2.068998e+00   5.742126e-02
  2.619391e-01    2.024205e+00   5.646932e-02
  2.641495e-01    2.014587e+00   5.602319e-02
  2.663600e-01    2.060330e+00   5.634411e-02
  2.685704e-01    2.009382e+00   5.534146e-02
  2.707809e-01    2.075976e+00   5.595247e-02
  2.729914e-01    1.992207e+00   5.452631e-02
  2.752018e-01    2.057558e+00   5.512502e-02
  2.774123e-01    2.012632e+00   5.424136e-02
  2.796227e-01    2.012583e+00   5.397242e-02
  2.818332e-01    1.990556e+00   5.340846e-02
  2.840436e-01    2.053953e+00   5.398932e-02
  2.862541e-01    1.991056e+00   5.290075e-02
  2.884646e-01    1.921337e+00   5.171968e-02
  2.906750e-01    1.884634e+00   5.098043e-02
  2.928855e-01    1.925130e+00   5.128647e-02
  2.950959e-01    1.964206e+00   5.156641e-02
  2.973064e-01    1.957671e+00   5.124917e-02
  2.995168e-01    1.939026e+00   5.077355e-02
  3.017273e-01    1.885023e+00   4.984079e-02
  3.039377e-01    1.864315e+00   4.934924e-02
  3.061482e-01    1.873258e+00   4.925346e-02
  3.083587e-01    1.920882e+00   4.965973e-02
  3.105691e-01    1.909858e+00   4.930552e-02
  3.127796e-01    1.934628e+00   4.941561e-02
  3.149900e-01    1.892792e+00   4.867473e-02
  3.172005e-01    1.919544e+00   4.881707e-02
  3.194109e-01    1.839494e+00   4.759106e-02
  3.216214e-01    1.806976e+00   4.697605e-02
  3.238319e-01    1.840530e+00   4.722238e-02
  3.260423e-01    1.724415e+00   4.552647e-02
  3.282528e-01    1.796592e+00   4.628446e-02
  3.304632e-01    1.782931e+00   4.592954e-02
  3.326737e-01    1.824001e+00   4.627427e-02
  3.348841e-01    1.792275e+00   4.569221e-02
  3.370946e-01    1.762392e+00   4.513920e-02
  3.393050e-01    1.818323e+00   4.567618e-02
  3.415155e-01    1.797182e+00   4.523916e-02
  3.437260e-01    1.811734e+00   4.525357e-02
  3.459364e-01    1.820799e+00   4.519883e-02
  3.481469e-01    1.803897e+00   4.482435e-02
  3.503573e-01    1.839763e+00   4.510285e-02
  3.525678e-01    1.824702e+00   4.475780e-02
  3.547782e-01    1.754040e+00   4.372399e-02
  3.569887e-01    1.758188e+00   4.362056e-02
  3.591992e-01    1.778591e+00   4.371768e-02
  3.614096e-01    1.769091e+00   4.344962e-02
  3.636201e-01    1.728554e+00   4.279799e-02
  3.658305e-01    1.766287e+00   4.311502e-02
  3.680410e-01    1.800253e+00   4.337788e-02
  3.702514e-01    1.728012e+00   4.235573e-02
  3.724619e-01    1.692758e+00   4.177867e-02
  3.746724e-01    1.715011e+00   4.191208e-02
  3.768828e-01    1.754685e+00   4.225143e-02
  3.790933e-01    1.767133e+00   4.226289e-02
  3.813037e-01    1.720993e+00   4.157103e-02
  3.835142e-01    1.714165e+00   4.135222e-02
  3.857246e-01    1.717993e+00   4.126436e-02
  3.879351e-01    1.740202e+00   4.139582e-02
  3.901455e-01    1.766995e+00   4.158048e-02
  3.923560e-01    1.810940e+00   4.196057e-02
  3.945665e-01    1.786706e+00   4.154670e-02
  3.967769e-01    1.731316e+00   4.076955e-02
  3.989874e-01    1.749935e+00   4.086020e-02
  4.011978e-01    1.743842e+00   4.066358e-02
  4.034083e-01    1.694313e+00   3.995889e-02
  4.056187e-01    1.714724e+00   4.007502e-02
  4.078292e-01    1.736080e+00   4.020177e-02
  4.100397e-01    1.778808e+00   4.056924e-02
  4.122501e-01    1.735937e+00   3.995750e-02
  4.144606e-01    1.702288e+00   3.945098e-02
  4.166710e-01    1.793882e+00   4.037801e-02
  4.188815e-01    1.768776e+00   3.997605e-02
  4.210919e-01    1.748814e+00   3.963332e-02
  4.233024e-01    1.765598e+00   3.970593e-02
  4.255128e-01    1.750097e+00   3.941696e-02
  4.277233e-01    1.751317e+00   3.931742e-02
  4.299338e-01    1.760508e+00   3.930702e-02
  4.321442e-01    1.772818e+00   3.933132e-02
  4.343547e-01    1.767737e+00   3.916389e-02
  4.365651e-01    1.722877e+00   3.855390e-02
  4.387756e-01    1.723935e+00   3.845777e-02
  4.409860e-01    1.669870e+00   3.774503e-02
  4.431965e-01    1.672454e+00   3.766979e-02
  4.454070e-01    1.692419e+00   3.778852e-02
  4.476174e-01    1.670665e+00   3.744181e-02
  4.498279e-01    1.724031e+00   3.793159e-02
  4.520383e-01    1.728972e+00   3.788169e-02
  4.542488e-01    1.696389e+00   3.742186e-02
  4.564592e-01    1.686299e+00   3.721030e-02
  4.586697e-01    1.744665e+00   3.774833e-02
  4.608801e-01    1.692621e+00   3.708148e-02
  4.630906e-01    1.668513e+00   3.671893e-02
  4.653011e-01    1.687092e+00   3.682571e-02
  4.675115e-01    1.700743e+00   3.687703e-02
  4.697220e-01    1.685419e+00   3.661440e-02
  4.719324e-01    1.695629e+00   3.663015e-02
  4.741429e-01    1.645648e+00   3.599324e-02
  4.763533e-01    1.690300e+00   3.638479e-02
  4.785638e-01    1.654703e+00   3.590662e-02
  4.807743e-01    1.674252e+00   3.602625e-02
  4.829847e-01    1.661275e+00   3.579571e-02
  4.851952e-01    1.678903e+00   3.589407e-02
  4.874056e-01    1.651499e+00   3.551015e-02
  4.896161e-01    1.675194e+00   3.567528e-02
  4.918265e-01    1.688687e+00   3.572974e-02
  4.940370e-01    1.656371e+00   3.529885e-02
  4.962475e-01    1.607467e+00   3.468797e-02
  4.984579e-01    1.647339e+00   3.502898e-02
  5.006684e-01    1.663600e+00   3.511563e-02
  5.028788e-01    1.625266e+00   3.462459e-02
  5.050893e-01    1.638963e+00   3.468560e-02
  5.072997e-01    1.661286e+00   3.483669e-02
  5.095102e-01    1.649202e+00   3.462662e-02
  5.117206e-01    1.644588e+00   3.449594e-02
  5.139311e-01    1.657175e+00   3.454572e-02
  5.161416e-01    1.686619e+00   3.476893e-02
  5.183520e-01    1.641358e+00   3.421772e-02
  5.205625e-01    1.661666e+00   3.434811e-02
  5.227729e-01    1.598874e+00   3.361429e-02
  5.249834e-01    1.635815e+00   3.392145e-02
  5.271938e-01    1.689624e+00   3.439440e-02
  5.294043e-01    1.700843e+00   3.442878e-02
  5.316148e-01    1.732000e+00   3.466311e-02
  5.338252e-01    1.750684e+00   3.476993e-02
  5.360357e-01    1.726690e+00   3.445222e-02
  5.382461e-01    1.745639e+00   3.456245e-02
  5.404566e-01    1.743019e+00   3.445790e-02
  5.426670e-01    1.721021e+00   3.416264e-02
  5.448775e-01    1.688437e+00   3.376209e-02
  5.470879e-01    1.725087e+00   3.405042e-02
  5.492984e-01    1.789171e+00   3.460002e-02
  5.515089e-01    1.736673e+00   3.401301e-02
  5.537193e-01    1.746179e+00   3.403084e-02
  5.559298e-01    1.767513e+00   3.416299e-02
  5.581402e-01    1.756682e+00   3.398376e-02
  5.603507e-01    1.710010e+00   3.345628e-02
  5.625611e-01    1.780265e+00   3.406255e-02
  5.647716e-01    1.754220e+00   3.373908e-02
  5.669821e-01    1.710357e+00   3.324277e-02
  5.691925e-01    1.745363e+00   3.350915e-02
  5.714030e-01    1.752352e+00   3.350458e-02
  5.736134e-01    1.747053e+00   3.338274e-02
  5.758239e-01    1.714973e+00   3.300424e-02
  5.780343e-01    1.705184e+00   3.284027e-02
  5.802448e-01    1.665313e+00   3.238615e-02
  5.824552e-01    1.622040e+00   3.189553e-02
  5.846657e-01    1.638937e+00   3.199439e-02
  5.868762e-01    1.624475e+00   3.178662e-02
  5.890866e-01    1.615698e+00   3.163484e-02
  5.912971e-01    1.650042e+00   3.190311e-02
  5.935075e-01    1.662448e+00   3.195664e-02
  5.957180e-01    1.637763e+00   3.165344e-02
  5.979284e-01    1.620114e+00   3.141813e-02
  6.001389e-01    1.616422e+00   3.131842e-02
  6.023494e-01    1.607892e+00   3.117225e-02
  6.045598e-01    1.565213e+00   3.069315e-02
  6.067703e-01    1.566386e+00   3.064289e-02
  6.089807e-01    1.623172e+00   3.113067e-02
  6.111912e-01    1.628218e+00   3.111679e-02
  6.134016e-01    1.649542e+00   3.125738e-02
  6.156121e-01    1.697834e+00   3.164861e-02
  6.178226e-01    1.695140e+00   3.156089e-02
  6.200330e-01    1.645295e+00   3.103208e-02
  6.222435e-01    1.664011e+00   3.114624e-02
  6.244539e-01    1.696268e+00   3.138511e-02
  6.266644e-01    1.691265e+00   3.127767e-02
  6.288748e-01    1.684437e+00   3.115371e-02
  6.310853e-01    1.689609e+00   3.114092e-02
  6.332957e-01    1.714084e+00   3.130510e-02
  6.355062e-01    1.692182e+00   3.104403e-02
  6.377167e-01    1.661528e+00   3.070255e-02
  6.399271e-01    1.633499e+00   3.038414e-02
  6.421376e-01    1.619633e+00   3.019715e-02
  6.443480e-01    1.657040e+00   3.048577e-02
  6.465585e-01    1.676378e+00   3.060505e-02
  6.487689e-01    1.699865e+00   3.076052e-02
  6.509794e-01    1.670175e+00   3.043321e-02
  6.531899e-01    1.610260e+00   2.982615e-02
  6.554003e-01    1.598061e+00   2.965709e-02
  6.576108e-01    1.585366e+00   2.948405e-02
  6.598212e-01    1.584101e+00   2.941753e-02
  6.620317e-01    1.574122e+00   2.927038e-02
  6.642421e-01    1.586069e+00   2.932687e-02
  6.664526e-01    1.591772e+00   2.932544e-02
  6.686630e-01    1.578515e+00   2.914905e-02
  6.708735e-01    1.627349e+00   2.954222e-02
  6.730840e-01    1.591257e+00   2.915954e-02
  6.752944e-01    1.558459e+00   2.880498e-02
  6.775049e-01    1.560836e+00   2.877458e-02
  6.797153e-01    1.599820e+00   2.907896e-02
  6.819258e-01    1.631605e+00   2.931345e-02
  6.841362e-01    1.622324e+00   2.917742e-02
  6.863467e-01    1.556120e+00   2.852468e-02
  6.885572e-01    1.576702e+00   2.866124e-02
  6.907676e-01    1.583813e+00   2.867434e-02
  6.929781e-01    1.574371e+00   2.853794e-02
  6.951885e-01    1.519931e+00   2.799051e-02
  6.973990e-01    1.535982e+00   2.808816e-02
  6.996094e-01    1.586206e+00   2.849346e-02
  7.018199e-01    1.628806e+00   2.882289e-02
  7.040303e-01    1.587992e+00   2.840949e-02
  7.062408e-01    1.583164e+00   2.831658e-02
  7.084513e-01    1.592243e+00   2.834825e-02
  7.106617e-01    1.596679e+00   2.833840e-02
  7.128722e-01    1.575253e+00   2.809892e-02
  7.150826e-01    1.573003e+00   2.803044e-02
  7.172931e-01    1.567310e+00   2.793145e-02
  7.195035e-01    1.540961e+00   2.764803e-02
  7.217140e-01    1.547675e+00   2.775724e-02
  7.239245e-01    1.527554e+00   2.779953e-02
  7.261349e-01    1.542962e+00   2.804690e-02
  7.283454e-01    1.502330e+00   2.774587e-02
  7.305558e-01    1.508007e+00   2.785108e-02
  7.327663e-01    1.536769e+00   2.815740e-02
  7.349767e-01    1.583620e+00   2.859981e-02
  7.371872e-01    1.554509e+00   2.832461e-02
  7.393976e-01    1.565497e+00   2.841033e-02
  7.416081e-01    1.567792e+00   2.841501e-02
  7.438186e-01    1.584279e+00   2.841926e-02
  7.460290e-01    1.554747e+00   2.786078e-02
  7.482395e-01    1.511043e+00   2.729871e-02
  7.504499e-01    1.543868e+00   2.745870e-02
  7.526604e-01    1.535248e+00   2.726684e-02
  7.548708e-01    1.550015e+00   2.730896e-02
  7.570813e-01    1.523208e+00   2.702166e-02
  7.592918e-01    1.509160e+00   2.686230e-02
  7.615022e-01    1.561224e+00   2.728808e-02
  7.637127e-01    1.575270e+00   2.737778e-02
  7.659231e-01    1.541934e+00   2.705488e-02
  7.681336e-01    1.515896e+00   2.679446e-02
  7.703440e-01    1.533352e+00   2.691748e-02
  7.725545e-01    1.546891e+00   2.700544e-02
  7.747650e-01    1.560184e+00   2.708323e-02
  7.769754e-01    1.521922e+00   2.669726e-02
  7.791859e-01    1.575092e+00   2.710610e-02
  7.813963e-01    1.632842e+00   2.754508e-02
  7.836068e-01    1.627692e+00   2.744892e-02
  7.858172e-01    1.592351e+00   2.709854e-02
  7.880277e-01    1.566811e+00   2.682919e-02
  7.902381e-01    1.569779e+00   2.680580e-02
  7.924486e-01    1.589509e+00   2.692376e-02
  7.946591e-01    1.590310e+00   2.688241e-02
  7.968695e-01    1.582265e+00   2.676635e-02
  7.990800e-01    1.596354e+00   2.683720e-02
  8.012904e-01    1.634829e+00   2.711171e-02
  8.035009e-01    1.615704e+00   2.690472e-02
  8.057113e-01    1.613347e+00   2.683858e-02
  8.079218e-01    1.625420e+00   2.689233e-02
  8.101323e-01    1.598519e+00   2.662359e-02
  8.123427e-01    1.592265e+00   2.652614e-02
  8.145532e-01    1.589471e+00   2.645753e-02
  8.167636e-01    1.617095e+00   2.664155e-02
  8.189741e-01    1.617174e+00   2.659779e-02
  8.211845e-01    1.641725e+00   2.675402e-02
  8.233950e-01    1.627504e+00   2.659457e-02
  8.256054e-01    1.611501e+00   2.641966e-02
  8.278159e-01    1.594691e+00   2.623810e-02
  8.300264e-01    1.602667e+00   2.626101e-02
  8.322368e-01    1.624186e+00   2.639381e-02
  8.344473e-01    1.598544e+00   2.614179e-02
  8.366577e-01    1.612547e+00   2.621380e-02
  8.388682e-01    1.624746e+00   2.627071e-02
  8.410786e-01    1.608156e+00   2.609458e-02
  8.432891e-01    1.626086e+00   2.619798e-02
  8.454996e-01    1.621860e+00   2.612250e-02
  8.477100e-01    1.607442e+00   2.596486e-02
  8.499205e-01    1.611475e+00   2.595657e-02
  8.521309e-01    1.621491e+00   2.599653e-02
  8.543414e-01    1.595177e+00   2.574449e-02
  8.565518e-01    1.589374e+00   2.565761e-02
  8.587623e-01    1.581854e+00   2.555699e-02
  8.609727e-01    1.587963e+00   2.556659e-02
  8.631832e-01    1.595417e+00   2.558700e-02
  8.653937e-01    1.563205e+00   2.528847e-02
  8.676041e-01    1.560968e+00   2.523223e-02
  8.698146e-01    1.610454e+00   2.558990e-02
  8.720250e-01    1.605856e+00   2.551439e-02
  8.742355e-01    1.614591e+00   2.554475e-02
  8.764459e-01    1.674741e+00   2.597652e-02
  8.786564e-01    1.665574e+00   2.586674e-02
  8.808669e-01    1.579552e+00   2.515173e-02
  8.830773e-01    1.534165e+00   2.475040e-02
  8.852878e-01    1.531741e+00   2.469377e-02
  8.874982e-01    1.572537e+00   2.498411e-02
  8.897087e-01    1.601594e+00   2.517623e-02
  8.919191e-01    1.582572e+00   2.498871e-02
  8.941296e-01    1.593261e+00   2.503576e-02
  8.963401e-01    1.583512e+00   2.492281e-02
  8.985505e-01    1.578928e+00   2.484999e-02
  9.007610e-01    1.580840e+00   2.482851e-02
  9.029714e-01    1.582278e+00   2.480416e-02
  9.051819e-01    1.600487e+00   2.490925e-02
  9.073923e-01    1.596079e+00   2.483841e-02
  9.096028e-01    1.556090e+00   2.449083e-02
  9.118132e-01    1.585368e+00   2.468410e-02
  9.140237e-01    1.573496e+00   2.455519e-02
  9.162342e-01    1.559696e+00   2.441315e-02
  9.184446e-01    1.586193e+00   2.458405e-02
  9.206551e-01    1.566600e+00   2.439653e-02
  9.228655e-01    1.558324e+00   2.429722e-02
  9.250760e-01    1.580312e+00   2.443291e-02
  9.272864e-01    1.620125e+00   2.470432e-02
  9.294969e-01    1.610211e+00   2.459275e-02
  9.317074e-01    1.590386e+00   2.440633e-02
  9.339178e-01    1.599449e+00   2.444234e-02
  9.361283e-01    1.622068e+00   2.457828e-02
  9.383387e-01    1.616719e+00   2.450435e-02
  9.405492e-01    1.616716e+00   2.447011e-02
  9.427596e-01    1.643412e+00   2.463580e-02
  9.449701e-01    1.641342e+00   2.458682e-02
  9.471805e-01    1.651564e+00   2.462833e-02
  9.493910e-01    1.692349e+00   2.489634e-02
  9.516015e-01    1.703307e+00   2.494198e-02
  9.538119e-01    1.659986e+00   2.458899e-02
  9.560224e-01    1.691633e+00   2.478735e-02
  9.582328e-01    1.675917e+00   2.463883e-02
  9.604433e-01    1.750563e+00   2.514589e-02
  9.626537e-01    1.793434e+00   2.541774e-02
  9.648642e-01    1.774457e+00   2.524828e-02
  9.670747e-01    1.786768e+00   2.530076e-02
  9.692851e-01    1.793991e+00   2.531815e-02
  9.714956e-01    1.797913e+00   2.531008e-02
  9.737060e-01    1.802769e+00   2.531094e-02
  9.759165e-01    1.821943e+00   2.540930e-02
  9.781269e-01    1.850270e+00   2.557256e-02
  9.803374e-01    1.918420e+00   2.600325e-02
  9.825478e-01    1.905210e+00   2.587938e-02
  9.847583e-01    1.916510e+00   2.592077e-02
  9.869688e-01    1.866681e+00   2.554736e-02
  9.891792e-01    1.849701e+00   2.539708e-02
  9.913897e-01    1.971345e+00   2.618347e-02
  9.936001e-01    2.171976e+00   2.744761e-02
  9.958106e-01    2.093770e+00   2.691243e-02
  9.980210e-01    1.810463e+00   2.499297e-02
  1.000231e+00    1.914811e+00   2.584388e-02
  1.002442e+00    1.990788e+00   2.649174e-02
  1.004652e+00    1.675976e+00   2.437485e-02
  1.006863e+00    1.562620e+00   2.358489e-02
  1.009073e+00    1.584224e+00   2.378371e-02
  1.011284e+00    1.588295e+00   2.384610e-02
  1.013494e+00    1.554953e+00   2.361788e-02
  1.015705e+00    1.527461e+00   2.343028e-02
  1.017915e+00    1.530382e+00   2.346883e-02
  1.020126e+00    1.525607e+00   2.344803e-02
  1.022336e+00    1.516492e+00   2.338940e-02
  1.024547e+00    1.519588e+00   2.342435e-02
  1.026757e+00    1.512021e+00   2.337425e-02
  1.028967e+00    1.499586e+00   2.328548e-02
  1.031178e+00    1.501757e+00   2.330846e-02
  1.033388e+00    1.432508e+00   2.276959e-02
  1.035599e+00    1.467299e+00   2.304778e-02
  1.037809e+00    1.476579e+00   2.312376e-02
  1.040020e+00    1.459611e+00   2.299176e-02
  1.042230e+00    1.478621e+00   2.314290e-02
  1.044441e+00    1.470124e+00   2.307611e-02
  1.046651e+00    1.461524e+00   2.300868e-02
  1.048862e+00    1.459054e+00   2.298844e-02
  1.051072e+00    1.456714e+00   2.296769e-02
  1.053282e+00    1.440794e+00   2.284090e-02
  1.055493e+00    1.456985e+00   2.296464e-02
  1.057703e+00    1.432541e+00   2.276970e-02
  1.059914e+00    1.416166e+00   2.263502e-02
  1.062124e+00    1.424519e+00   2.269772e-02
  1.064335e+00    1.433777e+00   2.276797e-02
  1.066545e+00    1.429417e+00   2.272744e-02
  1.068756e+00    1.429035e+00   2.272073e-02
  1.070966e+00    1.419532e+00   2.263866e-02
  1.073177e+00    1.423042e+00   2.266067e-02
  1.075387e+00    1.420499e+00   2.263528e-02
  1.077597e+00    1.417632e+00   2.260530e-02
  1.079808e+00    1.410346e+00   2.241685e-02
  1.082018e+00    1.437165e+00   2.244158e-02
  1.084229e+00    1.389411e+00   2.195829e-02
  1.086439e+00    1.401720e+00   2.196948e-02
  1.088650e+00    1.435842e+00   2.216011e-02
  1.090860e+00    1.413837e+00   2.192297e-02
  1.093071e+00    1.424787e+00   2.194606e-02
  1.095281e+00    1.408726e+00   2.176552e-02
  1.097492e+00    1.396617e+00   2.161779e-02
  1.099702e+00    1.375829e+00   2.140608e-02
  1.101912e+00    1.401704e+00   2.155821e-02
  1.104123e+00    1.409272e+00   2.156858e-02
  1.106333e+00    1.405181e+00   2.149324e-02
  1.108544e+00    1.425674e+00   2.160522e-02
  1.110754e+00    1.452045e+00   2.176071e-02
  1.112965e+00    1.467053e+00   2.183171e-02
  1.115175e+00    1.440453e+00   2.159143e-02
  1.117386e+00    1.371881e+00   2.103258e-02
  1.119596e+00    1.356979e+00   2.088088e-02
  1.121807e+00    1.362929e+00   2.088845e-02
  1.124017e+00    1.393794e+00   2.108717e-02
  1.126228e+00    1.380838e+00   2.095349e-02
  1.128438e+00    1.362470e+00   2.077741e-02
  1.130648e+00    1.346489e+00   2.062153e-02
  1.132859e+00    1.338316e+00   2.052520e-02
  1.135069e+00    1.376077e+00   2.077823e-02
  1.137280e+00    1.346183e+00   2.051884e-02
  1.139490e+00    1.333423e+00   2.038893e-02
  1.141701e+00    1.352545e+00   2.050189e-02
  1.143911e+00    1.342285e+00   2.039258e-02
  1.146122e+00    1.334061e+00   2.029856e-02
  1.148332e+00    1.346830e+00   2.036395e-02
  1.150543e+00    1.328555e+00   2.019506e-02
  1.152753e+00    1.333694e+00   2.020372e-02
  1.154963e+00    1.330691e+00   2.015040e-02
  1.157174e+00    1.342200e+00   2.020754e-02
  1.159384e+00    1.341595e+00   2.017346e-02
  1.161595e+00    1.356606e+00   2.025630e-02
  1.163805e+00    1.346775e+00   2.015376e-02
  1.166016e+00    1.346562e+00   2.012296e-02
  1.168226e+00    1.382088e+00   2.035755e-02
  1.170437e+00    1.348125e+00   2.007745e-02
  1.172647e+00    1.373563e+00   2.023698e-02
  1.174858e+00    1.381672e+00   2.026837e-02
  1.177068e+00    1.370283e+00   2.015634e-02
  1.179278e+00    1.387396e+00   2.025294e-02
  1.181489e+00    1.392805e+00   2.026508e-02
  1.183699e+00    1.351438e+00   1.993437e-02
  1.185910e+00    1.325842e+00   1.971723e-02
  1.188120e+00    1.315503e+00   1.961394e-02
  1.190331e+00    1.313922e+00   1.957577e-02
  1.192541e+00    1.329632e+00   1.966534e-02
  1.194752e+00    1.340276e+00   1.971697e-02
  1.196962e+00    1.343981e+00   1.971854e-02
  1.199173e+00    1.344804e+00   1.969813e-02
  1.201383e+00    1.330915e+00   1.956918e-02
  1.203593e+00    1.329478e+00   1.953398e-02
  1.205804e+00    1.320704e+00   1.944377e-02
  1.208014e+00    1.313286e+00   1.936263e-02
  1.210225e+00    1.322496e+00   1.940531e-02
  1.212435e+00    1.315971e+00   1.933292e-02
  1.214646e+00    1.334425e+00   1.944203e-02
  1.216856e+00    1.340212e+00   1.945877e-02
  1.219067e+00    1.351483e+00   1.951594e-02
  1.221277e+00    1.307051e+00   1.916783e-02
  1.223488e+00    1.334331e+00   1.934122e-02
  1.225698e+00    1.319566e+00   1.920732e-02
  1.227909e+00    1.327017e+00   1.923156e-02
  1.230119e+00    1.320037e+00   1.914943e-02
  1.232329e+00    1.315060e+00   1.908296e-02
  1.234540e+00    1.334334e+00   1.919220e-02
  1.236750e+00    1.313351e+00   1.901083e-02
  1.238961e+00    1.349101e+00   1.924088e-02
  1.241171e+00    1.347224e+00   1.920334e-02
  1.243382e+00    1.313946e+00   1.894149e-02
  1.245592e+00    1.314051e+00   1.891846e-02
  1.247803e+00    1.333718e+00   1.903600e-02
  1.250013e+00    1.367979e+00   1.925523e-02
  1.252224e+00    1.347369e+00   1.908646e-02
  1.254434e+00    1.333866e+00   1.896693e-02
  1.256644e+00    1.357394e+00   1.911022e-02
  1.258855e+00    1.346271e+00   1.900853e-02
  1.261065e+00    1.328974e+00   1.886284e-02
  1.263276e+00    1.334541e+00   1.887949e-02
  1.265486e+00    1.325567e+00   1.879323e-02
  1.267697e+00    1.337457e+00   1.885442e-02
  1.269907e+00    1.357659e+00   1.897352e-02
  1.272118e+00    1.363361e+00   1.899063e-02
  1.274328e+00    1.354037e+00   1.890284e-02
  1.276539e+00    1.309766e+00   1.856880e-02
  1.278749e+00    1.335517e+00   1.872825e-02
  1.280959e+00    1.325771e+00   1.863750e-02
  1.283170e+00    1.331111e+00   1.865270e-02
  1.285380e+00    1.329216e+00   1.861715e-02
  1.287591e+00    1.332782e+00   1.862021e-02
  1.289801e+00    1.335464e+00   1.861783e-02
  1.292012e+00    1.351002e+00   1.870871e-02
  1.294222e+00    1.408781e+00   1.908798e-02
  1.296433e+00    1.438766e+00   1.927399e-02
  1.298643e+00    1.436363e+00   1.924088e-02
  1.300854e+00    1.402714e+00   1.899746e-02
  1.303064e+00    1.368265e+00   1.874336e-02
  1.305274e+00    1.341790e+00   1.853978e-02
  1.307485e+00    1.320672e+00   1.837198e-02
  1.309695e+00    1.364271e+00   1.865041e-02
  1.311906e+00    1.336156e+00   1.843565e-02
  1.314116e+00    1.348620e+00   1.850064e-02
  1.316327e+00    1.362570e+00   1.857430e-02
  1.318537e+00    1.368299e+00   1.859126e-02
  1.320748e+00    1.458707e+00   1.917319e-02
  1.322958e+00    1.549581e+00   1.973946e-02
  1.325169e+00    1.476607e+00   1.924710e-02
  1.327379e+00    1.397282e+00   1.870077e-02
  1.329589e+00    1.403885e+00   1.872340e-02
  1.331800e+00    1.420049e+00   1.880967e-02
  1.334010e+00    1.400008e+00   1.865543e-02
  1.336221e+00    1.400107e+00   1.863394e-02
  1.338431e+00    1.393548e+00   1.856905e-02
  1.340642e+00    1.370457e+00   1.847919e-02
  1.342852e+00    1.376170e+00   1.861933e-02
  1.345063e+00    1.370429e+00   1.863031e-02
  1.347273e+00    1.314121e+00   1.827833e-02
  1.349484e+00    1.311919e+00   1.829028e-02
  1.351694e+00    1.299947e+00   1.822893e-02
  1.353905e+00    1.313344e+00   1.834036e-02
  1.356115e+00    1.304085e+00   1.829039e-02
  1.358325e+00    1.279611e+00   1.813091e-02
  1.360536e+00    1.315397e+00   1.839416e-02
  1.362746e+00    1.316813e+00   1.841351e-02
  1.364957e+00    1.319066e+00   1.843684e-02
  1.367167e+00    1.330051e+00   1.852055e-02
  1.369378e+00    1.332787e+00   1.854557e-02
  1.371588e+00    1.324054e+00   1.848984e-02
  1.373799e+00    1.286097e+00   1.822646e-02
  1.376009e+00    1.296031e+00   1.830005e-02
  1.378220e+00    1.283142e+00   1.821132e-02
  1.380430e+00    1.260799e+00   1.805470e-02
  1.382640e+00    1.282595e+00   1.821095e-02
  1.384851e+00    1.317875e+00   1.846063e-02
  1.387061e+00    1.253823e+00   1.800672e-02
  1.389272e+00    1.239241e+00   1.790187e-02
  1.391482e+00    1.255981e+00   1.802174e-02
  1.393693e+00    1.285782e+00   1.823338e-02
  1.395903e+00    1.279953e+00   1.819055e-02
  1.398114e+00    1.244696e+00   1.793690e-02
  1.400324e+00    1.251674e+00   1.798499e-02
  1.402535e+00    1.261464e+00   1.805290e-02
  1.404745e+00    1.282662e+00   1.820156e-02
  1.406955e+00    1.299272e+00   1.831633e-02
  1.409166e+00    1.262646e+00   1.805303e-02
  1.411376e+00    1.250625e+00   1.796378e-02
  1.413587e+00    1.261675e+00   1.803917e-02
  1.415797e+00    1.244839e+00   1.791490e-02
  1.418008e+00    1.252860e+00   1.793095e-02
  1.420218e+00    1.268817e+00   1.789510e-02
  1.422429e+00    1.263579e+00   1.777305e-02
  1.424639e+00    1.271336e+00   1.776277e-02
  1.426850e+00    1.307541e+00   1.795841e-02
  1.429060e+00    1.292316e+00   1.780418e-02
  1.431270e+00    1.256067e+00   1.750861e-02
  1.433481e+00    1.245117e+00   1.739158e-02
  1.435691e+00    1.265056e+00   1.749190e-02
  1.437902e+00    1.330468e+00   1.790112e-02
  1.440112e+00    1.338534e+00   1.791903e-02
  1.442323e+00    1.291446e+00   1.756772e-02
  1.444533e+00    1.230195e+00   1.711400e-02
  1.446744e+00    1.237915e+00   1.713686e-02
  1.448954e+00    1.255691e+00   1.722945e-02
  1.451165e+00    1.259508e+00   1.722600e-02
  1.453375e+00    1.246917e+00   1.711188e-02
  1.455586e+00    1.248847e+00   1.709719e-02
  1.457796e+00    1.264537e+00   1.717679e-02
  1.460006e+00    1.297964e+00   1.737480e-02
  1.462217e+00    1.268583e+00   1.715082e-02
  1.464427e+00    1.260412e+00   1.706998e-02
  1.466638e+00    1.253893e+00   1.700060e-02
  1.468848e+00    1.262994e+00   1.703691e-02
  1.471059e+00    1.272876e+00   1.707831e-02
  1.473269e+00    1.259874e+00   1.696658e-02
  1.475480e+00    1.274540e+00   1.704122e-02
  1.477690e+00    1.234053e+00   1.674487e-02
  1.479901e+00    1.235098e+00   1.672841e-02
  1.482111e+00    1.250834e+00   1.681148e-02
  1.484321e+00    1.253413e+00   1.680580e-02
  1.486532e+00    1.248602e+00   1.675137e-02
  1.488742e+00    1.208318e+00   1.645677e-02
  1.490953e+00    1.235458e+00   1.661821e-02
  1.493163e+00    1.216262e+00   1.646676e-02
  1.495374e+00    1.212003e+00   1.641683e-02
  1.497584e+00    1.234144e+00   1.654470e-02
  1.499795e+00    1.213947e+00   1.638752e-02
  1.502005e+00    1.220304e+00   1.640902e-02
  1.504216e+00    1.249093e+00   1.658050e-02
  1.506426e+00    1.251783e+00   1.657759e-02
  1.508636e+00    1.239168e+00   1.647356e-02
  1.510847e+00    1.252131e+00   1.653771e-02
  1.513057e+00    1.230489e+00   1.636934e-02
  1.515268e+00    1.218321e+00   1.626286e-02
  1.517478e+00    1.205751e+00   1.615408e-02
  1.519689e+00    1.229095e+00   1.628499e-02
  1.521899e+00    1.224378e+00   1.623089e-02
  1.524110e+00    1.232513e+00   1.626454e-02
  1.526320e+00    1.239393e+00   1.629040e-02
  1.528531e+00    1.239543e+00   1.627169e-02
  1.530741e+00    1.230012e+00   1.619005e-02
  1.532951e+00    1.214634e+00   1.606919e-02
  1.535162e+00    1.232595e+00   1.627359e-02
  1.537372e+00    1.197889e+00   1.610835e-02
  1.539583e+00    1.217081e+00   1.627070e-02
  1.541793e+00    1.204293e+00   1.619180e-02
  1.544004e+00    1.227013e+00   1.634409e-02
  1.546214e+00    1.216797e+00   1.627442e-02
  1.548425e+00    1.221225e+00   1.630425e-02
  1.550635e+00    1.223511e+00   1.632911e-02
  1.552846e+00    1.233038e+00   1.640217e-02
  1.555056e+00    1.226910e+00   1.632020e-02
  1.557266e+00    1.207138e+00   1.607935e-02
  1.559477e+00    1.214339e+00   1.606886e-02
  1.561687e+00    1.210897e+00   1.601580e-02
  1.563898e+00    1.232653e+00   1.614197e-02
  1.566108e+00    1.211324e+00   1.598597e-02
  1.568319e+00    1.208872e+00   1.595438e-02
  1.570529e+00    1.214469e+00   1.596643e-02
  1.572740e+00    1.252982e+00   1.618990e-02
  1.574950e+00    1.250810e+00   1.614952e-02
  1.577161e+00    1.216011e+00   1.589808e-02
  1.579371e+00    1.234945e+00   1.599779e-02
  1.581582e+00    1.230688e+00   1.595055e-02
  1.583792e+00    1.224155e+00   1.589028e-02
  1.586002e+00    1.215931e+00   1.581939e-02
  1.588213e+00    1.244555e+00   1.598727e-02
  1.590423e+00    1.243446e+00   1.596008e-02
  1.592634e+00    1.245520e+00   1.595176e-02
  1.594844e+00    1.236976e+00   1.587558e-02
  1.597055e+00    1.317858e+00   1.636529e-02
  1.599265e+00    1.320010e+00   1.635729e-02
  1.601476e+00    1.234300e+00   1.579710e-02
  1.603686e+00    1.209509e+00   1.561811e-02
  1.605897e+00    1.220302e+00   1.566762e-02
  1.608107e+00    1.226892e+00   1.569040e-02
  1.610317e+00    1.233040e+00   1.571038e-02
  1.612528e+00    1.252987e+00   1.581764e-02
  1.614738e+00    1.285562e+00   1.600257e-02
  1.616949e+00    1.271403e+00   1.589490e-02
  1.619159e+00    1.249560e+00   1.573883e-02
  1.621370e+00    1.219644e+00   1.553083e-02
  1.623580e+00    1.248491e+00   1.569481e-02
  1.625791e+00    1.270033e+00   1.581092e-02
  1.628001e+00    1.265103e+00   1.576150e-02
  1.630212e+00    1.229209e+00   1.551827e-02
  1.632422e+00    1.188232e+00   1.523950e-02
  1.634632e+00    1.204976e+00   1.532899e-02
  1.636843e+00    1.219208e+00   1.540146e-02
  1.639053e+00    1.168875e+00   1.506292e-02
  1.641264e+00    1.144312e+00   1.488691e-02
  1.643474e+00    1.135479e+00   1.481214e-02
  1.645685e+00    1.148612e+00   1.488096e-02
  1.647895e+00    1.130130e+00   1.474436e-02
  1.650106e+00    1.103581e+00   1.455346e-02
  1.652316e+00    1.148851e+00   1.483248e-02
  1.654527e+00    1.121778e+00   1.464020e-02
  1.656737e+00    1.102727e+00   1.449897e-02
  1.658947e+00    1.120703e+00   1.460051e-02
  1.661158e+00    1.114258e+00   1.454229e-02
  1.663368e+00    1.093391e+00   1.438966e-02
  1.665579e+00    1.080915e+00   1.429146e-02
  1.667789e+00    1.086666e+00   1.431341e-02
  1.670000e+00    1.077631e+00   1.423854e-02
  1.672210e+00    1.076616e+00   1.421619e-02
  1.674421e+00    1.049130e+00   1.401861e-02
  1.676631e+00    1.070043e+00   1.414200e-02
  1.678842e+00    1.056535e+00   1.403700e-02
  1.681052e+00    1.038676e+00   1.390285e-02
  1.683263e+00    1.054022e+00   1.399028e-02
  1.685473e+00    1.051308e+00   1.395737e-02
  1.687683e+00    1.042587e+00   1.388421e-02
  1.689894e+00    1.028738e+00   1.377632e-02
  1.692104e+00    1.031593e+00   1.378079e-02
  1.694315e+00    1.070621e+00   1.402458e-02
  1.696525e+00    1.044606e+00   1.383817e-02
  1.698736e+00    1.026066e+00   1.370027e-02
  1.700946e+00    1.008304e+00   1.356641e-02
  1.703157e+00    1.012469e+00   1.358006e-02
  1.705367e+00    1.010709e+00   1.355405e-02
  1.707578e+00    1.028441e+00   1.365800e-02
  1.709788e+00    1.008365e+00   1.351019e-02
  1.711998e+00    1.002987e+00   1.345938e-02
  1.714209e+00    1.001310e+00   1.343395e-02
  1.716419e+00    1.006294e+00   1.345326e-02
  1.718630e+00    1.007161e+00   1.344497e-02
  1.720840e+00    9.802045e-01   1.324997e-02
  1.723051e+00    9.844643e-01   1.326515e-02
  1.725261e+00    9.685382e-01   1.314311e-02
  1.727472e+00    9.909033e-01   1.328000e-02
  1.729682e+00    9.965824e-01   1.330469e-02
  1.731893e+00    9.772964e-01   1.316164e-02
  1.734103e+00    9.603001e-01   1.303325e-02
  1.736313e+00    9.416330e-01   1.289239e-02
  1.738524e+00    9.678298e-01   1.305688e-02
  1.740734e+00    1.007847e+00   1.331034e-02
  1.742945e+00    9.797589e-01   1.311024e-02
  1.745155e+00    9.592796e-01   1.295924e-02
  1.747366e+00    9.651312e-01   1.298508e-02
  1.749576e+00    9.505607e-01   1.287325e-02
  1.751787e+00    9.768701e-01   1.303689e-02
  1.753997e+00    9.716731e-01   1.298884e-02
  1.756208e+00    9.284772e-01   1.268400e-02
  1.758418e+00    9.217876e-01   1.262541e-02
  1.760628e+00    9.094183e-01   1.252749e-02
  1.762839e+00    9.156643e-01   1.255757e-02
  1.765049e+00    9.224596e-01   1.259122e-02
  1.767260e+00    9.230514e-01   1.258272e-02
  1.769470e+00    9.056598e-01   1.245096e-02
  1.771681e+00    9.132484e-01   1.249014e-02
  1.773891e+00    9.230047e-01   1.254382e-02
  1.776102e+00    9.188458e-01   1.250286e-02
  1.778312e+00    9.056618e-01   1.240037e-02
  1.780523e+00    9.074013e-01   1.239977e-02
  1.782733e+00    9.055084e-01   1.237437e-02
  1.784944e+00    9.012322e-01   1.233247e-02
  1.787154e+00    8.987761e-01   1.230336e-02
  1.789364e+00    8.901170e-01   1.223174e-02
  1.791575e+00    8.799456e-01   1.214943e-02
  1.793785e+00    8.890161e-01   1.219971e-02
  1.795996e+00    8.782464e-01   1.211337e-02
  1.798206e+00    8.996397e-01   1.224762e-02
  1.800417e+00    8.827306e-01   1.211956e-02
  1.802627e+00    8.909119e-01   1.216378e-02
  1.804838e+00    9.111304e-01   1.228894e-02
  1.807048e+00    8.952218e-01   1.216845e-02
  1.809259e+00    8.771489e-01   1.203161e-02
  1.811469e+00    8.620821e-01   1.191323e-02
  1.813679e+00    8.631343e-01   1.190583e-02
  1.815890e+00    8.679655e-01   1.192461e-02
  1.818100e+00    8.637574e-01   1.188086e-02
  1.820311e+00    8.558404e-01   1.181181e-02
  1.822521e+00    8.678992e-01   1.188008e-02
  1.824732e+00    8.660033e-01   1.185249e-02
  1.826942e+00    8.535362e-01   1.175478e-02
  1.829153e+00    8.626387e-01   1.180572e-02
  1.831363e+00    8.769097e-01   1.189100e-02
  1.833574e+00    8.903469e-01   1.197002e-02
  1.835784e+00    8.670514e-01   1.180107e-02
  1.837994e+00    8.669223e-01   1.178852e-02
  1.840205e+00    8.649645e-01   1.176410e-02
  1.842415e+00    8.809470e-01   1.186045e-02
  1.844626e+00    8.911863e-01   1.191749e-02
  1.846836e+00    9.360751e-01   1.220207e-02
  1.849047e+00    9.297541e-01   1.214880e-02
  1.851257e+00    8.986500e-01   1.193409e-02
  1.853468e+00    8.812293e-01   1.180894e-02
  1.855678e+00    8.841093e-01   1.181923e-02
  1.857889e+00    8.700771e-01   1.171650e-02
  1.860099e+00    8.716666e-01   1.171848e-02
  1.862309e+00    8.680658e-01   1.168570e-02
  1.864520e+00    8.729959e-01   1.171017e-02
  1.866730e+00    8.529723e-01   1.156573e-02
  1.868941e+00    8.449789e-01   1.150050e-02
  1.871151e+00    8.614967e-01   1.160092e-02
  1.873362e+00    8.419100e-01   1.145699e-02
  1.875572e+00    8.666587e-01   1.161310e-02
  1.877783e+00    8.694955e-01   1.162055e-02
  1.879993e+00    8.338665e-01   1.136889e-02
  1.882204e+00    8.321091e-01   1.134609e-02
  1.884414e+00    8.337009e-01   1.134592e-02
  1.886624e+00    8.204542e-01   1.124452e-02
  1.888835e+00    8.297176e-01   1.129691e-02
  1.891045e+00    8.514331e-01   1.143283e-02
  1.893256e+00    8.391824e-01   1.133920e-02
  1.895466e+00    8.495573e-01   1.139782e-02
  1.897677e+00    8.423672e-01   1.133853e-02
  1.899887e+00    8.508969e-01   1.138467e-02
  1.902098e+00    8.486232e-01   1.135854e-02
  1.904308e+00    8.125011e-01   1.110368e-02
  1.906519e+00    8.407618e-01   1.128422e-02
  1.908729e+00    8.251457e-01   1.116837e-02
  1.910940e+00    8.250016e-01   1.115627e-02
  1.913150e+00    8.347068e-01   1.121106e-02
  1.915360e+00    8.333035e-01   1.119096e-02
  1.917571e+00    8.154760e-01   1.105979e-02
  1.919781e+00    8.201975e-01   1.108106e-02
  1.921992e+00    8.071961e-01   1.098237e-02
  1.924202e+00    8.081700e-01   1.097827e-02
  1.926413e+00    8.161597e-01   1.102211e-02
  1.928623e+00    8.221028e-01   1.105158e-02
  1.930834e+00    8.011910e-01   1.089977e-02
  1.933044e+00    7.819549e-01   1.075764e-02
  1.935255e+00    8.056276e-01   1.090895e-02
  1.937465e+00    8.139588e-01   1.095480e-02
  1.939675e+00    7.969106e-01   1.082869e-02
  1.941886e+00    7.929918e-01   1.079182e-02
  1.944096e+00    7.942718e-01   1.079041e-02
  1.946307e+00    7.868394e-01   1.072955e-02
  1.948517e+00    7.840974e-01   1.070051e-02
  1.950728e+00    7.904778e-01   1.073377e-02
  1.952938e+00    7.743255e-01   1.061358e-02
  1.955149e+00    7.993326e-01   1.077335e-02
  1.957359e+00    7.975762e-01   1.075148e-02
  1.959570e+00    7.769492e-01   1.060078e-02
  1.961780e+00    7.749824e-01   1.057754e-02
  1.963990e+00    7.762243e-01   1.057601e-02
  1.966201e+00    7.874145e-01   1.064191e-02
  1.968411e+00    7.924397e-01   1.066567e-02
  1.970622e+00    7.727175e-01   1.052210e-02
  1.972832e+00    7.772475e-01   1.054299e-02
  1.975043e+00    7.695475e-01   1.048071e-02
  1.977253e+00    7.667859e-01   1.045204e-02
  1.979464e+00    7.619455e-01   1.040912e-02
  1.981674e+00    7.576944e-01   1.036993e-02
  1.983885e+00    7.641065e-01   1.040382e-02
  1.986095e+00    7.656138e-01   1.040446e-02
  1.988305e+00    7.609006e-01   1.036261e-02
  1.990516e+00    7.480789e-01   1.026521e-02
  1.992726e+00    7.765766e-01   1.044922e-02
  1.994937e+00    7.684775e-01   1.038456e-02
  1.997147e+00    7.532786e-01   1.027173e-02
  1.999358e+00    7.699034e-01   1.037467e-02
  2.001568e+00    7.695857e-01   1.036171e-02
  2.003779e+00    7.771873e-01   1.040083e-02
  2.005989e+00    7.684940e-01   1.033050e-02
  2.008200e+00    7.647858e-01   1.029405e-02
  2.010410e+00    7.705026e-01   1.032070e-02
  2.012621e+00    7.501091e-01   1.017166e-02
  2.014831e+00    7.350803e-01   1.005799e-02
  2.017041e+00    7.579733e-01   1.020310e-02
  2.019252e+00    7.570423e-01   1.018693e-02
  2.021462e+00    7.504627e-01   1.013315e-02
  2.023673e+00    7.550371e-01   1.015464e-02
  2.025883e+00    7.760304e-01   1.028525e-02
  2.028094e+00    7.620116e-01   1.018231e-02
  2.030304e+00    7.461979e-01   1.006664e-02
  2.032515e+00    7.588142e-01   1.014210e-02
  2.034725e+00    7.565843e-01   1.011776e-02
  2.036936e+00    7.613402e-01   1.014015e-02
  2.039146e+00    7.513977e-01   1.006420e-02
  2.041356e+00    7.507318e-01   1.005013e-02
  2.043567e+00    7.452476e-01   1.000410e-02
  2.045777e+00    7.598249e-01   1.009221e-02
  2.047988e+00    7.503273e-01   1.001958e-02
  2.050198e+00    7.649979e-01   1.010858e-02
  2.052409e+00    7.506090e-01   1.000541e-02
  2.054619e+00    7.433605e-01   9.949656e-03
  2.056830e+00    7.226166e-01   9.802811e-03
  2.059040e+00    7.439098e-01   9.938687e-03
  2.061251e+00    7.363312e-01   9.880782e-03
  2.063461e+00    7.196755e-01   9.760927e-03
  2.065671e+00    7.327783e-01   9.840760e-03
  2.067882e+00    7.331334e-01   9.834238e-03
  2.070092e+00    7.294937e-01   9.800706e-03
  2.072303e+00    7.419961e-01   9.875231e-03
  2.074513e+00    7.145710e-01   9.681893e-03
  2.076724e+00    7.320403e-01   9.790119e-03
  2.078934e+00    7.378135e-01   9.819706e-03
  2.081145e+00    7.259130e-01   9.731192e-03
  2.083355e+00    7.318193e-01   9.761586e-03
  2.085566e+00    7.364649e-01   9.783658e-03
  2.087776e+00    7.212527e-01   9.672682e-03
  2.089986e+00    7.505344e-01   9.858225e-03
  2.092197e+00    7.334632e-01   9.736544e-03
  2.094407e+00    7.201070e-01   9.638356e-03
  2.096618e+00    7.273666e-01   9.677954e-03
  2.098828e+00    7.288843e-01   9.678787e-03
  2.101039e+00    7.150439e-01   9.577581e-03
  2.103249e+00    7.056968e-01   9.506258e-03
  2.105460e+00    6.979946e-01   9.445427e-03
  2.107670e+00    6.912906e-01   9.391444e-03
  2.109881e+00    7.127876e-01   9.527259e-03
  2.112091e+00    7.343827e-01   9.661485e-03
  2.114301e+00    7.133329e-01   9.513305e-03
  2.116512e+00    6.966108e-01   9.392504e-03
  2.118722e+00    6.952088e-01   9.374379e-03
  2.120933e+00    6.977761e-01   9.382957e-03
  2.123143e+00    7.012075e-01   9.397198e-03
  2.125354e+00    7.000373e-01   9.380928e-03
  2.127564e+00    7.026735e-01   9.389929e-03
  2.129775e+00    7.083743e-01   9.419256e-03
  2.131985e+00    7.152030e-01   9.455497e-03
  2.134196e+00    6.969011e-01   9.325242e-03
  2.136406e+00    6.834990e-01   9.226573e-03
  2.138617e+00    6.950778e-01   9.296024e-03
  2.140827e+00    6.929854e-01   9.297903e-03
  2.143037e+00    7.004645e-01   9.393209e-03
  2.145248e+00    6.968778e-01   9.390983e-03
  2.147458e+00    6.810970e-01   9.298960e-03
  2.149669e+00    6.756284e-01   9.273128e-03
  2.151879e+00    6.911456e-01   9.388180e-03
  2.154090e+00    6.877093e-01   9.372065e-03
  2.156300e+00    6.786004e-01   9.316294e-03
  2.158511e+00    6.719722e-01   9.275869e-03
  2.160721e+00    6.741958e-01   9.295934e-03
  2.162932e+00    6.769665e-01   9.318717e-03
  2.165142e+00    6.506136e-01   9.138440e-03
  2.167352e+00    6.685057e-01   9.266103e-03
  2.169563e+00    6.659558e-01   9.250324e-03
  2.171773e+00    6.768326e-01   9.327971e-03
  2.173984e+00    6.918548e-01   9.432325e-03
  2.176194e+00    7.012789e-01   9.497587e-03
  2.178405e+00    6.597705e-01   9.212882e-03
  2.180615e+00    6.738555e-01   9.311375e-03
  2.182826e+00    6.830625e-01   9.375438e-03
  2.185036e+00    7.005361e-01   9.494652e-03
  2.187247e+00    6.865233e-01   9.399181e-03
  2.189457e+00    6.747878e-01   9.318089e-03
  2.191667e+00    6.735433e-01   9.309313e-03
  2.193878e+00    6.697907e-01   9.282780e-03
  2.196088e+00    6.808322e-01   9.358305e-03
  2.198299e+00    6.726953e-01   9.301143e-03
  2.200509e+00    6.625369e-01   9.229600e-03
  2.202720e+00    6.662621e-01   9.254362e-03
  2.204930e+00    6.721299e-01   9.293800e-03
  2.207141e+00    6.798297e-01   9.345771e-03
  2.209351e+00    6.649230e-01   9.240882e-03
  2.211562e+00    6.538194e-01   9.161805e-03
  2.213772e+00    6.764310e-01   9.263400e-03
  2.215982e+00    6.579808e-01   9.092614e-03
  2.218193e+00    6.512682e-01   9.016994e-03
  2.220403e+00    6.528870e-01   9.004016e-03
  2.222614e+00    6.422337e-01   8.909804e-03
  2.224824e+00    6.642313e-01   9.041835e-03
  2.227035e+00    6.837277e-01   9.156021e-03
  2.229245e+00    6.655654e-01   9.016686e-03
  2.231456e+00    6.800364e-01   9.098464e-03
  2.233666e+00    6.679699e-01   9.002325e-03
  2.235877e+00    6.901697e-01   9.136221e-03
  2.238087e+00    6.734213e-01   9.011189e-03
  2.240298e+00    6.704375e-01   8.977399e-03
  2.242508e+00    6.770471e-01   9.006340e-03
  2.244718e+00    6.686947e-01   8.934796e-03
  2.246929e+00    6.713894e-01   8.938330e-03
  2.249139e+00    6.659772e-01   8.889874e-03
  2.251350e+00    6.457939e-01   8.742590e-03
  2.253560e+00    6.561386e-01   8.800873e-03
  2.255771e+00    6.576166e-01   8.799426e-03
  2.257981e+00    6.459981e-01   8.710348e-03
  2.260192e+00    6.463295e-01   8.701607e-03
  2.262402e+00    6.524251e-01   8.731795e-03
  2.264613e+00    6.594958e-01   8.768180e-03
  2.266823e+00    6.570173e-01   8.741346e-03
  2.269033e+00    6.452062e-01   8.652177e-03
  2.271244e+00    6.467351e-01   8.652140e-03
  2.273454e+00    6.732422e-01   8.817330e-03
  2.275665e+00    6.495898e-01   8.650872e-03
  2.277875e+00    6.578170e-01   8.695550e-03
  2.280086e+00    6.567566e-01   8.678540e-03
  2.282296e+00    6.635706e-01   8.714000e-03
  2.284507e+00    6.629388e-01   8.699704e-03
  2.286717e+00    6.421485e-01   8.552830e-03
  2.288928e+00    6.572672e-01   8.643070e-03
  2.291138e+00    6.534600e-01   8.608596e-03
  2.293348e+00    6.511687e-01   8.583990e-03
  2.295559e+00    6.586396e-01   8.623748e-03
  2.297769e+00    6.495466e-01   8.554816e-03
  2.299980e+00    6.533448e-01   8.570440e-03
  2.302190e+00    6.464705e-01   8.516164e-03
  2.304401e+00    6.403845e-01   8.466749e-03
  2.306611e+00    6.335497e-01   8.412381e-03
  2.308822e+00    6.383076e-01   8.435583e-03
  2.311032e+00    6.467985e-01   8.485095e-03
  2.313243e+00    6.424102e-01   8.450020e-03
  2.315453e+00    6.494490e-01   8.488607e-03
  2.317663e+00    6.339849e-01   8.377919e-03
  2.319874e+00    6.320350e-01   8.356381e-03
  2.322084e+00    6.444229e-01   8.428927e-03
  2.324295e+00    6.285079e-01   8.316082e-03
  2.326505e+00    6.301585e-01   8.318040e-03
  2.328716e+00    6.270944e-01   8.289346e-03
  2.330926e+00    6.289560e-01   8.292960e-03
  2.333137e+00    6.179178e-01   8.211615e-03
  2.335347e+00    6.400225e-01   8.348372e-03
  2.337558e+00    6.202772e-01   8.210479e-03
  2.339768e+00    6.328251e-01   8.284568e-03
  2.341979e+00    6.318842e-01   8.270110e-03
  2.344189e+00    6.349781e-01   8.281937e-03
  2.346399e+00    6.346951e-01   8.271624e-03
  2.348610e+00    6.278479e-01   8.218465e-03
  2.350820e+00    6.347608e-01   8.255406e-03
  2.353031e+00    6.261458e-01   8.190967e-03
  2.355241e+00    6.245328e-01   8.172413e-03
  2.357452e+00    6.203313e-01   8.136529e-03
  2.359662e+00    6.314582e-01   8.200952e-03
  2.361873e+00    6.288992e-01   8.176112e-03
  2.364083e+00    6.229978e-01   8.129708e-03
  2.366294e+00    6.161417e-01   8.076802e-03
  2.368504e+00    6.388600e-01   8.216207e-03
  2.370714e+00    6.294793e-01   8.147602e-03
  2.372925e+00    6.095420e-01   8.009564e-03
  2.375135e+00    6.333161e-01   8.156156e-03
  2.377346e+00    6.277457e-01   8.112253e-03
  2.379556e+00    6.089127e-01   7.981825e-03
  2.381767e+00    6.004754e-01   7.918589e-03
  2.383977e+00    6.142914e-01   8.001287e-03
  2.386188e+00    6.102344e-01   7.966960e-03
  2.388398e+00    6.145984e-01   7.987468e-03
  2.390609e+00    6.199084e-01   8.014155e-03
  2.392819e+00    6.038867e-01   7.902222e-03
  2.395029e+00    6.067565e-01   7.913367e-03
  2.397240e+00    6.136549e-01   7.950358e-03
  2.399450e+00    6.011075e-01   7.860944e-03
  2.401661e+00    6.030579e-01   7.866058e-03
  2.403871e+00    5.836622e-01   7.730943e-03
  2.406082e+00    5.975723e-01   7.815153e-03
  2.408292e+00    6.033506e-01   7.845112e-03
  2.410503e+00    5.988714e-01   7.808499e-03
  2.412713e+00    5.912755e-01   7.751137e-03
  2.414924e+00    5.771464e-01   7.650653e-03
  2.417134e+00    5.876653e-01   7.712527e-03
  2.419344e+00    5.910913e-01   7.727655e-03
  2.421555e+00    5.845321e-01   7.677254e-03
  2.423765e+00    5.756897e-01   7.611705e-03
  2.425976e+00    5.949572e-01   7.730274e-03
  2.428186e+00    5.734525e-01   7.582222e-03
  2.430397e+00    5.688220e-01   7.544233e-03
  2.432607e+00    5.767156e-01   7.589238e-03
  2.434818e+00    5.685955e-01   7.528254e-03
  2.437028e+00    5.791179e-01   7.590536e-03
  2.439239e+00    5.826086e-01   7.605791e-03
  2.441449e+00    5.818545e-01   7.593735e-03
  2.443659e+00    5.836046e-01   7.597837e-03
  2.445870e+00    5.966606e-01   7.694674e-03
  2.448080e+00    5.938526e-01   7.711690e-03
  2.450291e+00    5.803544e-01   7.640198e-03
  2.452501e+00    5.624308e-01   7.532312e-03
  2.454712e+00    5.629230e-01   7.543962e-03
  2.456922e+00    5.595314e-01   7.527756e-03
  2.459133e+00    5.486816e-01   7.459755e-03
  2.461343e+00    5.399557e-01   7.404452e-03
  2.463554e+00    5.541377e-01   7.504477e-03
  2.465764e+00    5.508109e-01   7.485058e-03
  2.467975e+00    5.441301e-01   7.441733e-03
  2.470185e+00    5.629318e-01   7.571501e-03
  2.472395e+00    5.399464e-01   7.416521e-03
  2.474606e+00    5.359424e-01   7.390495e-03
  2.476816e+00    5.327353e-01   7.369081e-03
  2.479027e+00    5.309545e-01   7.357582e-03
  2.481237e+00    5.218723e-01   7.294660e-03
  2.483448e+00    5.303853e-01   7.354195e-03
  2.485658e+00    5.415900e-01   7.431343e-03
  2.487869e+00    5.394614e-01   7.416762e-03
  2.490079e+00    5.290633e-01   7.344432e-03
  2.492290e+00    5.108018e-01   7.216141e-03
  2.494500e+00    5.223769e-01   7.296707e-03
  2.496710e+00    5.208042e-01   7.285038e-03
  2.498921e+00    5.261147e-01   7.321101e-03
  2.501131e+00    5.299634e-01   7.346884e-03
  2.503342e+00    5.210128e-01   7.283336e-03
  2.505552e+00    5.178469e-01   7.260052e-03
  2.507763e+00    5.119502e-01   7.217216e-03
  2.509973e+00    5.106014e-01   7.206311e-03
  2.512184e+00    5.095237e-01   7.197131e-03
  2.514394e+00    5.073337e-01   7.172459e-03
  2.516605e+00    5.112398e-01   7.153641e-03
  2.518815e+00    5.004147e-01   7.049870e-03
  2.521025e+00    5.190983e-01   7.159437e-03
  2.523236e+00    5.077029e-01   7.062753e-03
  2.525446e+00    5.057637e-01   7.033928e-03
  2.527657e+00    5.060024e-01   7.021264e-03
  2.529867e+00    5.127925e-01   7.054194e-03
  2.532078e+00    5.282960e-01   7.144951e-03
  2.534288e+00    5.137725e-01   7.032336e-03
  2.536499e+00    5.180271e-01   7.049513e-03
  2.538709e+00    5.159666e-01   7.024574e-03
  2.540920e+00    5.030597e-01   6.925738e-03
  2.543130e+00    5.127342e-01   6.981752e-03
  2.545340e+00    5.183927e-01   7.010167e-03
  2.547551e+00    5.116587e-01   6.954651e-03
  2.549761e+00    4.979789e-01   6.851701e-03
  2.551972e+00    5.069444e-01   6.903868e-03
  2.554182e+00    5.004473e-01   6.850513e-03
  2.556393e+00    4.903472e-01   6.772202e-03
  2.558603e+00    5.011141e-01   6.837235e-03
  2.560814e+00    5.020112e-01   6.834811e-03
  2.563024e+00    5.025491e-01   6.830021e-03
  2.565235e+00    5.119558e-01   6.884208e-03
  2.567445e+00    5.112262e-01   6.869826e-03
  2.569656e+00    4.940347e-01   6.743823e-03
  2.571866e+00    4.934374e-01   6.730585e-03
  2.574076e+00    5.035467e-01   6.790044e-03
  2.576287e+00    5.064714e-01   6.801488e-03
  2.578497e+00    5.088767e-01   6.809827e-03
  2.580708e+00    5.022507e-01   6.757380e-03
  2.582918e+00    4.932824e-01   6.689160e-03
  2.585129e+00    5.046398e-01   6.758071e-03
  2.587339e+00    5.013521e-01   6.728429e-03
  2.589550e+00    4.962577e-01   6.686717e-03
  2.591760e+00    5.054819e-01   6.740905e-03
  2.593971e+00    4.994995e-01   6.693449e-03
  2.596181e+00    5.113550e-01   6.766202e-03
  2.598391e+00    5.026782e-01   6.703403e-03
  2.600602e+00    4.994443e-01   6.675951e-03
  2.602812e+00    4.984137e-01   6.661610e-03
  2.605023e+00    4.914945e-01   6.608149e-03
  2.607233e+00    5.003042e-01   6.660035e-03
  2.609444e+00    4.877095e-01   6.568590e-03
  2.611654e+00    4.907294e-01   6.581675e-03
  2.613865e+00    4.799567e-01   6.502196e-03
  2.616075e+00    4.888799e-01   6.555323e-03
  2.618286e+00    4.983819e-01   6.611792e-03
  2.620496e+00    5.013182e-01   6.624566e-03
  2.622706e+00    4.823006e-01   6.492101e-03
  2.624917e+00    4.797900e-01   6.469447e-03
  2.627127e+00    5.019588e-01   6.611510e-03
  2.629338e+00    4.964676e-01   6.569317e-03
  2.631548e+00    4.878113e-01   6.505714e-03
  2.633759e+00    4.919749e-01   6.526342e-03
  2.635969e+00    4.892384e-01   6.501576e-03
  2.638180e+00    4.931602e-01   6.520645e-03
  2.640390e+00    4.921846e-01   6.507651e-03
  2.642601e+00    4.943833e-01   6.515548e-03
  2.644811e+00    4.930934e-01   6.500024e-03
  2.647021e+00    4.956262e-01   6.510157e-03
  2.649232e+00    4.928162e-01   6.485008e-03
  2.651442e+00    4.874197e-01   6.442970e-03
  2.653653e+00    4.919140e-01   6.465864e-03
  2.655863e+00    4.917051e-01   6.457855e-03
  2.658074e+00    4.870020e-01   6.420362e-03
  2.660284e+00    4.883275e-01   6.422785e-03
  2.662495e+00    4.781174e-01   6.348674e-03
  2.664705e+00    4.791811e-01   6.349283e-03
  2.666916e+00    4.764970e-01   6.325128e-03
  2.669126e+00    4.846107e-01   6.372388e-03
  2.671337e+00    4.844896e-01   6.365067e-03
  2.673547e+00    4.888076e-01   6.387039e-03
  2.675757e+00    4.844884e-01   6.352379e-03
  2.677968e+00    4.786878e-01   6.307823e-03
  2.680178e+00    4.689586e-01   6.237134e-03
  2.682389e+00    4.824741e-01   6.320058e-03
  2.684599e+00    4.896263e-01   6.360566e-03
  2.686810e+00    4.853412e-01   6.326110e-03
  2.689020e+00    4.745425e-01   6.249159e-03
  2.691231e+00    4.830323e-01   6.298568e-03
  2.693441e+00    4.952849e-01   6.371771e-03
  2.695652e+00    4.840246e-01   6.292475e-03
  2.697862e+00    4.730870e-01   6.214720e-03
  2.700072e+00    4.780487e-01   6.241216e-03
  2.702283e+00    4.782438e-01   6.236351e-03
  2.704493e+00    4.738616e-01   6.201518e-03
  2.706704e+00    4.694273e-01   6.166163e-03
  2.708914e+00    4.728549e-01   6.182744e-03
  2.711125e+00    4.730290e-01   6.177749e-03
  2.713335e+00    4.812849e-01   6.225356e-03
  2.715546e+00    4.695125e-01   6.142432e-03
  2.717756e+00    4.699374e-01   6.139393e-03
  2.719967e+00    4.767212e-01   6.177413e-03
  2.722177e+00    4.699092e-01   6.127093e-03
  2.724387e+00    4.764847e-01   6.163754e-03
  2.726598e+00    4.764594e-01   6.157598e-03
  2.728808e+00    4.846048e-01   6.203863e-03
  2.731019e+00    4.937516e-01   6.255938e-03
  2.733229e+00    4.979682e-01   6.276736e-03
  2.735440e+00    4.773731e-01   6.139344e-03
  2.737650e+00    4.762151e-01   6.125900e-03
  2.739861e+00    4.801610e-01   6.145191e-03
  2.742071e+00    4.810447e-01   6.145109e-03
  2.744282e+00    4.774361e-01   6.115803e-03
  2.746492e+00    4.738564e-01   6.086845e-03
  2.748702e+00    4.812314e-01   6.128136e-03
  2.750913e+00    4.801350e-01   6.115371e-03
  2.753123e+00    4.697682e-01   6.042939e-03
  2.755334e+00    4.671674e-01   6.020219e-03
  2.757544e+00    4.618829e-01   5.980427e-03
  2.759755e+00    4.728933e-01   6.045453e-03
  2.761965e+00    4.707032e-01   6.025523e-03
  2.764176e+00    4.749412e-01   6.046627e-03
  2.766386e+00    4.692535e-01   6.004587e-03
  2.768597e+00    4.660394e-01   5.978219e-03
  2.770807e+00    4.594024e-01   5.929727e-03
  2.773017e+00    4.639360e-01   5.953044e-03
  2.775228e+00    4.741337e-01   6.012347e-03
  2.777438e+00    4.678201e-01   5.966470e-03
  2.779649e+00    4.684928e-01   5.964894e-03
  2.781859e+00    4.854255e-01   6.065941e-03
  2.784070e+00    4.722513e-01   5.977231e-03
  2.786280e+00    4.628629e-01   5.911835e-03
  2.788491e+00    4.737914e-01   5.975406e-03
  2.790701e+00    4.659966e-01   5.920459e-03
  2.792912e+00    4.727435e-01   5.957221e-03
  2.795122e+00    4.682802e-01   5.923350e-03
  2.797333e+00    4.717040e-01   5.939421e-03
  2.799543e+00    4.651448e-01   5.892197e-03
  2.801753e+00    4.483289e-01   5.779026e-03
  2.803964e+00    4.560870e-01   5.823255e-03
  2.806174e+00    4.504229e-01   5.780993e-03
  2.808385e+00    4.752856e-01   5.931599e-03
  2.810595e+00    4.777418e-01   5.940022e-03
  2.812806e+00    4.579084e-01   5.808944e-03
  2.815016e+00    4.497930e-01   5.752603e-03
  2.817227e+00    4.611992e-01   5.850649e-03
  2.819437e+00    4.513484e-01   5.798664e-03
  2.821648e+00    4.433072e-01   5.748976e-03
  2.823858e+00    4.648438e-01   5.892261e-03
  2.826068e+00    4.650336e-01   5.898407e-03
  2.828279e+00    4.576828e-01   5.855576e-03
  2.830489e+00    4.717588e-01   5.948274e-03
  2.832700e+00    4.698263e-01   5.938632e-03
  2.834910e+00    4.585412e-01   5.868915e-03
  2.837121e+00    4.449836e-01   5.783156e-03
  2.839331e+00    4.495741e-01   5.814120e-03
  2.841542e+00    4.534638e-01   5.840202e-03
  2.843752e+00    4.579277e-01   5.869654e-03
  2.845963e+00    4.676208e-01   5.931849e-03
  2.848173e+00    4.508250e-01   5.824439e-03
  2.850383e+00    4.590677e-01   5.877725e-03
  2.852594e+00    4.607208e-01   5.888215e-03
  2.854804e+00    4.628559e-01   5.901352e-03
  2.857015e+00    4.571097e-01   5.864183e-03
  2.859225e+00    4.675084e-01   5.930240e-03
  2.861436e+00    4.644853e-01   5.910404e-03
  2.863646e+00    4.401725e-01   5.753664e-03
  2.865857e+00    4.548993e-01   5.849455e-03
  2.868067e+00    4.559262e-01   5.856274e-03
  2.870278e+00    4.584300e-01   5.871991e-03
  2.872488e+00    4.564072e-01   5.857868e-03
  2.874698e+00    4.496209e-01   5.813126e-03
  2.876909e+00    4.545517e-01   5.843590e-03
  2.879119e+00    4.565660e-01   5.854918e-03
  2.881330e+00    4.587105e-01   5.867198e-03
  2.883540e+00    4.404548e-01   5.747895e-03
  2.885751e+00    4.512556e-01   5.816308e-03
  2.887961e+00    4.503257e-01   5.808473e-03
  2.890172e+00    4.520875e-01   5.818223e-03
  2.892382e+00    4.706888e-01   5.934869e-03
  2.894593e+00    5.360698e-01   6.331718e-03
  2.896803e+00    4.969773e-01   6.094460e-03
  2.899014e+00    4.581221e-01   5.849448e-03
  2.901224e+00    4.587570e-01   5.851497e-03
  2.903434e+00    4.596628e-01   5.855330e-03
  2.905645e+00    4.689898e-01   5.912193e-03
  2.907855e+00    4.691226e-01   5.910911e-03
  2.910066e+00    4.490587e-01   5.781079e-03
  2.912276e+00    4.448287e-01   5.751682e-03
  2.914487e+00    4.513700e-01   5.791395e-03
  2.916697e+00    4.500294e-01   5.780573e-03
  2.918908e+00    4.382959e-01   5.702765e-03
  2.921118e+00    4.512883e-01   5.783990e-03
  2.923329e+00    4.501846e-01   5.774629e-03
  2.925539e+00    4.408380e-01   5.712113e-03
  2.927749e+00    4.527533e-01   5.786506e-03
  2.929960e+00    4.486901e-01   5.757722e-03
  2.932170e+00    4.484102e-01   5.753627e-03
  2.934381e+00    4.440854e-01   5.723408e-03
  2.936591e+00    4.448637e-01   5.725863e-03
  2.938802e+00    4.493433e-01   5.751946e-03
  2.941012e+00    4.514392e-01   5.763004e-03
  2.943223e+00    4.593540e-01   5.810609e-03
  2.945433e+00    4.445353e-01   5.712438e-03
  2.947644e+00    4.393972e-01   5.675257e-03
  2.949854e+00    4.392147e-01   5.669869e-03
  2.952064e+00    4.501470e-01   5.735820e-03
  2.954275e+00    4.566126e-01   5.772438e-03
  2.956485e+00    4.448480e-01   5.693452e-03
  2.958696e+00    4.541642e-01   5.748380e-03
  2.960906e+00    4.565101e-01   5.759030e-03
  2.963117e+00    4.483408e-01   5.702819e-03
  2.965327e+00    4.538459e-01   5.733812e-03
  2.967538e+00    4.511076e-01   5.713598e-03
  2.969748e+00    4.498120e-01   5.702580e-03
  2.971959e+00    4.463283e-01   5.677341e-03
  2.974169e+00    4.506277e-01   5.702054e-03
  2.976379e+00    4.543175e-01   5.722433e-03
  2.978590e+00    4.385898e-01   5.619432e-03
  2.980800e+00    4.501813e-01   5.690404e-03
  2.983011e+00    4.523255e-01   5.701162e-03
  2.985221e+00    4.470334e-01   5.664577e-03
  2.987432e+00    4.357213e-01   5.589408e-03
  2.989642e+00    4.365572e-01   5.592187e-03
  2.991853e+00    4.316403e-01   5.557407e-03
  2.994063e+00    4.385538e-01   5.598875e-03
  2.996274e+00    4.386066e-01   5.596094e-03
  2.998484e+00    4.331756e-01   5.558693e-03
  3.000694e+00    4.433269e-01   5.620030e-03
  3.002905e+00    4.542673e-01   5.686008e-03
  3.005115e+00    4.435492e-01   5.615610e-03
  3.007326e+00    4.421083e-01   5.603339e-03
  3.009536e+00    4.382574e-01   5.575690e-03
  3.011747e+00    4.594592e-01   5.706032e-03
  3.013957e+00    4.498641e-01   5.642971e-03
  3.016168e+00    4.381886e-01   5.566067e-03
  3.018378e+00    4.392534e-01   5.569812e-03
  3.020589e+00    4.380878e-01   5.559261e-03
  3.022799e+00    4.458365e-01   5.605073e-03
  3.025010e+00    4.523770e-01   5.642795e-03
  3.027220e+00    4.405017e-01   5.565183e-03
  3.029430e+00    4.499385e-01   5.621226e-03
  3.031641e+00    4.599571e-01   5.680298e-03
  3.033851e+00    4.349378e-01   5.520219e-03
  3.036062e+00    4.524199e-01   5.627248e-03
  3.038272e+00    4.557941e-01   5.644643e-03
  3.040483e+00    4.395997e-01   5.540262e-03
  3.042693e+00    4.278409e-01   5.462473e-03
  3.044904e+00    4.363891e-01   5.512830e-03
  3.047114e+00    4.332711e-01   5.488374e-03
  3.049325e+00    4.419783e-01   5.538899e-03
  3.051535e+00    4.388116e-01   5.514701e-03
  3.053745e+00    4.350463e-01   5.486310e-03
  3.055956e+00    4.440044e-01   5.537974e-03
  3.058166e+00    4.434669e-01   5.530391e-03
  3.060377e+00    4.356210e-01   5.476560e-03
  3.062587e+00    4.402869e-01   5.501227e-03
  3.064798e+00    4.449360e-01   5.525964e-03
  3.067008e+00    4.501793e-01   5.553703e-03
  3.069219e+00    4.352419e-01   5.456363e-03
  3.071429e+00    4.304700e-01   5.422906e-03
  3.073640e+00    4.287615e-01   5.408885e-03
  3.075850e+00    4.447484e-01   5.505244e-03
  3.078060e+00    4.441200e-01   5.498266e-03
  3.080271e+00    4.381941e-01   5.458015e-03
  3.082481e+00    4.531623e-01   5.546990e-03
  3.084692e+00    4.570230e-01   5.567178e-03
  3.086902e+00    4.404137e-01   5.461853e-03
  3.089113e+00    4.467883e-01   5.497674e-03
  3.091323e+00    4.304629e-01   5.392990e-03
  3.093534e+00    4.389585e-01   5.442611e-03
  3.095744e+00    4.387423e-01   5.437913e-03
  3.097955e+00    4.451203e-01   5.473780e-03
  3.100165e+00    4.332533e-01   5.397035e-03
  3.102375e+00    4.365418e-01   5.414091e-03
  3.104586e+00    4.404352e-01   5.434716e-03
  3.106796e+00    4.329361e-01   5.384787e-03
  3.109007e+00    4.466835e-01   5.466381e-03
  3.111217e+00    4.520819e-01   5.495609e-03
  3.113428e+00    4.425974e-01   5.434258e-03
  3.115638e+00    4.367915e-01   5.395292e-03
  3.117849e+00    4.365786e-01   5.390287e-03
  3.120059e+00    4.320016e-01   5.358544e-03
  3.122270e+00    4.392395e-01   5.400012e-03
  3.124480e+00    4.362008e-01   5.377643e-03
  3.126691e+00    4.415926e-01   5.407229e-03
  3.128901e+00    4.459769e-01   5.430888e-03
  3.131111e+00    4.322959e-01   5.343150e-03
  3.133322e+00    4.379834e-01   5.374751e-03
  3.135532e+00    4.454546e-01   5.417003e-03
  3.137743e+00    4.438588e-01   5.403808e-03
  3.139953e+00    4.285835e-01   5.306395e-03
  3.142164e+00    4.397287e-01   5.386906e-03
  3.144374e+00    4.457868e-01   5.452405e-03
  3.146585e+00    4.368172e-01   5.411761e-03
  3.148795e+00    4.345443e-01   5.408323e-03
  3.151006e+00    4.380099e-01   5.438364e-03
  3.153216e+00    4.330824e-01   5.414756e-03
  3.155426e+00    4.411315e-01   5.471137e-03
  3.157637e+00    4.378517e-01   5.456291e-03
  3.159847e+00    4.356655e-01   5.447481e-03
  3.162058e+00    4.459870e-01   5.516090e-03
  3.164268e+00    4.271150e-01   5.402150e-03
  3.166479e+00    4.276594e-01   5.409164e-03
  3.168689e+00    4.364782e-01   5.468025e-03
  3.170900e+00    4.311303e-01   5.437559e-03
  3.173110e+00    4.388233e-01   5.488729e-03
  3.175321e+00    4.289219e-01   5.428932e-03
  3.177531e+00    4.288785e-01   5.431355e-03
  3.179741e+00    4.163525e-01   5.353474e-03
  3.181952e+00    4.200197e-01   5.379075e-03
  3.184162e+00    4.213343e-01   5.389611e-03
  3.186373e+00    4.378445e-01   5.495825e-03
  3.188583e+00    4.306287e-01   5.452115e-03
  3.190794e+00    4.261317e-01   5.425304e-03
  3.193004e+00    4.116322e-01   5.333418e-03
  3.195215e+00    4.223544e-01   5.403899e-03
  3.197425e+00    4.317993e-01   5.465201e-03
  3.199636e+00    4.156965e-01   5.361595e-03
  3.201846e+00    4.101257e-01   5.324927e-03
  3.204056e+00    4.276085e-01   5.438140e-03
  3.206267e+00    4.252421e-01   5.423910e-03
  3.208477e+00    4.190931e-01   5.385461e-03
  3.210688e+00    4.326966e-01   5.472987e-03
  3.212898e+00    4.340792e-01   5.482332e-03
  3.215109e+00    4.257158e-01   5.430002e-03
  3.217319e+00    4.245297e-01   5.423045e-03
  3.219530e+00    4.265206e-01   5.436162e-03
  3.221740e+00    4.199692e-01   5.394796e-03
  3.223951e+00    4.152733e-01   5.365009e-03
  3.226161e+00    4.216776e-01   5.406391e-03
  3.228372e+00    4.190199e-01   5.389874e-03
  3.230582e+00    4.255791e-01   5.432019e-03
  3.232792e+00    4.274287e-01   5.444045e-03
  3.235003e+00    4.204901e-01   5.399910e-03
  3.237213e+00    4.209429e-01   5.402919e-03
  3.239424e+00    4.328850e-01   5.479028e-03
  3.241634e+00    4.267531e-01   5.440206e-03
  3.243845e+00    4.207973e-01   5.402194e-03
  3.246055e+00    4.156606e-01   5.368829e-03
  3.248266e+00    4.184116e-01   5.386776e-03
  3.250476e+00    4.218182e-01   5.408350e-03
  3.252687e+00    4.283942e-01   5.450278e-03
  3.254897e+00    4.061407e-01   5.306719e-03
  3.257107e+00    4.232421e-01   5.416960e-03
  3.259318e+00    4.182571e-01   5.384747e-03
  3.261528e+00    4.091973e-01   5.325959e-03
  3.263739e+00    4.262955e-01   5.435537e-03
  3.265949e+00    4.173565e-01   5.378141e-03
  3.268160e+00    4.108214e-01   5.335449e-03
  3.270370e+00    4.224543e-01   5.409933e-03
  3.272581e+00    4.149617e-01   5.361507e-03
  3.274791e+00    4.131844e-01   5.349463e-03
  3.277002e+00    4.173580e-01   5.375874e-03
  3.279212e+00    4.121666e-01   5.341946e-03
  3.281422e+00    4.142137e-01   5.354628e-03
  3.283633e+00    4.202191e-01   5.392622e-03
  3.285843e+00    4.321081e-01   5.468052e-03
  3.288054e+00    4.111619e-01   5.332951e-03
  3.290264e+00    4.189269e-01   5.382759e-03
  3.292475e+00    3.940851e-01   5.219921e-03
  3.294685e+00    4.181159e-01   5.376068e-03
  3.296896e+00    4.122106e-01   5.337252e-03
  3.299106e+00    4.147730e-01   5.353248e-03
  3.301317e+00    4.107914e-01   5.326480e-03
  3.303527e+00    4.221278e-01   5.399011e-03
  3.305737e+00    4.176333e-01   5.369158e-03
  3.307948e+00    4.123011e-01   5.334115e-03
  3.310158e+00    4.166587e-01   5.361380e-03
  3.312369e+00    4.267467e-01   5.425008e-03
  3.314579e+00    4.077445e-01   5.301957e-03
  3.316790e+00    4.072762e-01   5.298221e-03
  3.319000e+00    4.278372e-01   5.429107e-03
  3.321211e+00    4.024511e-01   5.265004e-03
  3.323421e+00    4.212205e-01   5.385144e-03
  3.325632e+00    4.163594e-01   5.353113e-03
  3.327842e+00    4.178973e-01   5.362083e-03
  3.330052e+00    4.137058e-01   5.334080e-03
  3.332263e+00    4.175076e-01   5.357489e-03
  3.334473e+00    4.127516e-01   5.326015e-03
  3.336684e+00    4.134513e-01   5.329266e-03
  3.338894e+00    4.181425e-01   5.358560e-03
  3.341105e+00    4.140939e-01   5.331373e-03
  3.343315e+00    4.116054e-01   5.314205e-03
  3.345526e+00    3.963481e-01   5.213909e-03
  3.347736e+00    4.171156e-01   5.347330e-03
  3.349947e+00    4.201295e-01   5.365712e-03
  3.352157e+00    4.078932e-01   5.285830e-03
  3.354368e+00    4.118255e-01   5.309970e-03
  3.356578e+00    4.120052e-01   5.310104e-03
  3.358788e+00    4.138584e-01   5.320715e-03
  3.360999e+00    4.093471e-01   5.290419e-03
  3.363209e+00    4.064901e-01   5.270919e-03
  3.365420e+00    4.016283e-01   5.237813e-03
  3.367630e+00    4.058684e-01   5.264380e-03
  3.369841e+00    4.142071e-01   5.316752e-03
  3.372051e+00    4.032904e-01   5.244316e-03
  3.374262e+00    4.163641e-01   5.326157e-03
  3.376472e+00    4.161972e-01   5.322684e-03
  3.378683e+00    4.076833e-01   5.265458e-03
  3.380893e+00    4.128884e-01   5.296635e-03
  3.383103e+00    4.090855e-01   5.269516e-03
  3.385314e+00    4.090647e-01   5.267178e-03
  3.387524e+00    3.940057e-01   5.166643e-03
  3.389735e+00    4.042424e-01   5.230724e-03
  3.391945e+00    4.043784e-01   5.227977e-03
  3.394156e+00    4.020383e-01   5.208661e-03
  3.396366e+00    4.099770e-01   5.256426e-03
  3.398577e+00    3.987135e-01   5.180733e-03
  3.400787e+00    4.110477e-01   5.272162e-03
  3.402998e+00    4.079404e-01   5.290170e-03
  3.405208e+00    3.893670e-01   5.188591e-03
  3.407418e+00    3.837541e-01   5.166469e-03
  3.409629e+00    4.023058e-01   5.303876e-03
  3.411839e+00    3.916943e-01   5.245143e-03
  3.414050e+00    3.864899e-01   5.221003e-03
  3.416260e+00    3.864691e-01   5.230401e-03
  3.418471e+00    3.951502e-01   5.298268e-03
  3.420681e+00    3.848230e-01   5.236992e-03
  3.422892e+00    3.849693e-01   5.245912e-03
  3.425102e+00    3.775870e-01   5.203059e-03
  3.427313e+00    3.830059e-01   5.247427e-03
  3.429523e+00    3.828546e-01   5.253386e-03
  3.431733e+00    3.659662e-01   5.142715e-03
  3.433944e+00    3.709134e-01   5.183734e-03
  3.436154e+00    3.738579e-01   5.210419e-03
  3.438365e+00    3.671436e-01   5.169245e-03
  3.440575e+00    3.821114e-01   5.279487e-03
  3.442786e+00    3.666745e-01   5.177276e-03
  3.444996e+00    3.760175e-01   5.248304e-03
  3.447207e+00    3.809955e-01   5.288274e-03
  3.449417e+00    3.655657e-01   5.220555e-03
  3.451628e+00    3.749934e-01   5.317141e-03
  3.453838e+00    3.609597e-01   5.237665e-03
  3.456049e+00    3.593348e-01   5.249517e-03
  3.458259e+00    3.713337e-01   5.358510e-03
  3.460469e+00    3.583566e-01   5.283629e-03
  3.462680e+00    3.612145e-01   5.323564e-03
  3.464890e+00    3.667035e-01   5.381678e-03
  3.467101e+00    3.824861e-01   5.514076e-03
  3.469311e+00    3.820624e-01   5.527843e-03
  3.471522e+00    3.733298e-01   5.480674e-03
  3.473732e+00    3.679801e-01   5.456962e-03
  3.475943e+00    3.966454e-01   5.681507e-03
  3.478153e+00    4.093724e-01   5.787818e-03
  3.480364e+00    4.124592e-01   5.825097e-03
  3.482574e+00    4.077103e-01   5.806909e-03
  3.484784e+00    4.233294e-01   5.932141e-03
  3.486995e+00    4.283741e-01   5.982760e-03
  3.489205e+00    4.216020e-01   5.949888e-03
  3.491416e+00    4.300923e-01   6.024460e-03
  3.493626e+00    4.531043e-01   6.198448e-03
  3.495837e+00    4.383833e-01   6.111650e-03
  3.498047e+00    4.438626e-01   6.164185e-03
  3.500258e+00    4.557507e-01   6.260843e-03
  3.502468e+00    4.492473e-01   6.230339e-03
  3.504679e+00    4.599364e-01   6.318511e-03
  3.506889e+00    4.697841e-01   6.400296e-03
  3.509099e+00    4.738217e-01   6.442137e-03
  3.511310e+00    4.565265e-01   6.337632e-03
  3.513520e+00    4.794661e-01   6.509274e-03
  3.515731e+00    4.951757e-01   6.629568e-03
  3.517941e+00    4.946714e-01   6.640647e-03
  3.520152e+00    4.885146e-01   6.613392e-03
  3.522362e+00    4.878094e-01   6.622917e-03
  3.524573e+00    4.964641e-01   6.695556e-03
  3.526783e+00    5.029496e-01   6.752393e-03
  3.528994e+00    5.159005e-01   6.851014e-03
  3.531204e+00    5.017282e-01   6.768481e-03
  3.533414e+00    5.242118e-01   6.930536e-03
  3.535625e+00    5.178437e-01   6.900552e-03
  3.537835e+00    5.353618e-01   7.028450e-03
  3.540046e+00    5.128271e-01   6.887709e-03
  3.542256e+00    5.188908e-01   6.935680e-03
  3.544467e+00    5.304605e-01   7.020159e-03
  3.546677e+00    5.506498e-01   7.160216e-03
  3.548888e+00    5.421405e-01   7.112197e-03
  3.551098e+00    5.369200e-01   7.085203e-03
  3.553309e+00    5.205069e-01   6.984063e-03
  3.555519e+00    5.289765e-01   7.051908e-03
  3.557729e+00    5.384042e-01   7.126208e-03
  3.559940e+00    5.159577e-01   6.987411e-03
  3.562150e+00    5.343429e-01   7.122506e-03
  3.564361e+00    5.372782e-01   7.155363e-03
  3.566571e+00    5.575223e-01   7.303047e-03
  3.568782e+00    5.642306e-01   7.361312e-03
  3.570992e+00    5.348574e-01   7.180925e-03
  3.573203e+00    5.242531e-01   7.123344e-03
  3.575413e+00    5.280764e-01   7.162939e-03
  3.577624e+00    5.386389e-01   7.248372e-03
  3.579834e+00    5.468205e-01   7.317241e-03
  3.582045e+00    5.308134e-01   7.223345e-03
  3.584255e+00    5.281660e-01   7.219221e-03
  3.586465e+00    5.242460e-01   7.206180e-03
  3.588676e+00    5.346987e-01   7.291814e-03
  3.590886e+00    5.287157e-01   7.264551e-03
  3.593097e+00    5.346312e-01   7.319526e-03
  3.595307e+00    5.347373e-01   7.334216e-03
  3.597518e+00    5.182543e-01   7.234250e-03
  3.599728e+00    5.298808e-01   7.328957e-03
  3.601939e+00    5.266202e-01   7.320352e-03
  3.604149e+00    5.186217e-01   7.278699e-03
  3.606360e+00    5.325735e-01   7.390055e-03
  3.608570e+00    5.396544e-01   7.453248e-03
  3.610780e+00    5.272070e-01   7.377795e-03
  3.612991e+00    5.298713e-01   7.406335e-03
  3.615201e+00    5.346007e-01   7.449136e-03
  3.617412e+00    5.298981e-01   7.423541e-03
  3.619622e+00    5.127730e-01   7.308451e-03
  3.621833e+00    5.181531e-01   7.353250e-03
  3.624043e+00    5.405262e-01   7.519890e-03
  3.626254e+00    5.458186e-01   7.566462e-03
  3.628464e+00    5.287756e-01   7.458309e-03
  3.630675e+00    5.293180e-01   7.476178e-03
  3.632885e+00    5.176236e-01   7.407335e-03
  3.635095e+00    5.358474e-01   7.551052e-03
  3.637306e+00    5.491119e-01   7.658496e-03
  3.639516e+00    5.301012e-01   7.539294e-03
  3.641727e+00    5.175030e-01   7.463465e-03
  3.643937e+00    5.377288e-01   7.622540e-03
  3.646148e+00    5.354042e-01   7.620702e-03
  3.648358e+00    5.342053e-01   7.627036e-03
  3.650569e+00    5.255494e-01   7.579618e-03
  3.652779e+00    5.284315e-01   7.615071e-03
  3.654990e+00    5.177104e-01   7.552132e-03
  3.657200e+00    5.076024e-01   7.492598e-03
  3.659410e+00    5.028711e-01   7.472091e-03
  3.661621e+00    5.260556e-01   7.657461e-03
  3.663831e+00    5.254729e-01   7.668251e-03
  3.666042e+00    5.332328e-01   7.739817e-03
  3.668252e+00    5.318351e-01   7.744968e-03
  3.670463e+00    5.230150e-01   7.695547e-03
  3.672673e+00    5.316188e-01   7.774049e-03
  3.674884e+00    5.257232e-01   7.746115e-03
  3.677094e+00    5.433384e-01   7.890532e-03
  3.679305e+00    5.206336e-01   7.739356e-03
  3.681515e+00    5.128615e-01   7.696714e-03
  3.683726e+00    5.108283e-01   7.696936e-03
  3.685936e+00    5.249846e-01   7.818523e-03
  3.688146e+00    5.135031e-01   7.748125e-03
  3.690357e+00    4.975407e-01   7.642212e-03
  3.692567e+00    5.262799e-01   7.875935e-03
  3.694778e+00    5.037505e-01   7.721229e-03
  3.696988e+00    5.165593e-01   7.834590e-03
  3.699199e+00    5.338215e-01   7.980800e-03
  3.701409e+00    5.011178e-01   7.748488e-03
  3.703620e+00    5.130060e-01   7.855960e-03
  3.705830e+00    5.078991e-01   7.832920e-03
  3.708041e+00    5.038527e-01   7.817906e-03
  3.710251e+00    5.258123e-01   8.003205e-03
  3.712461e+00    5.279542e-01   8.036327e-03
  3.714672e+00    5.073628e-01   7.894577e-03
  3.716882e+00    4.919960e-01   7.790297e-03
  3.719093e+00    4.993631e-01   7.865177e-03
  3.721303e+00    5.229133e-01   8.065563e-03
  3.723514e+00    5.104554e-01   7.986025e-03
  3.725724e+00    4.970612e-01   7.897336e-03
  3.727935e+00    5.032179e-01   7.963326e-03
  3.730145e+00    5.160566e-01   8.081552e-03
  3.732356e+00    5.109902e-01   8.059238e-03
  3.734566e+00    5.196626e-01   8.144944e-03
  3.736776e+00    5.131416e-01   8.111455e-03
  3.738987e+00    4.927002e-01   7.965552e-03
  3.741197e+00    4.969983e-01   8.017987e-03
  3.743408e+00    4.871368e-01   7.955617e-03
  3.745618e+00    4.962574e-01   8.047748e-03
  3.747829e+00    5.013927e-01   8.107201e-03
  3.750039e+00    4.806708e-01   7.955744e-03
  3.752250e+00    5.003337e-01   8.135025e-03
  3.754460e+00    5.075953e-01   8.212406e-03
  3.756671e+00    5.116014e-01   8.263605e-03
  3.758881e+00    5.060056e-01   8.236834e-03
  3.761091e+00    5.148006e-01   8.327388e-03
  3.763302e+00    5.038643e-01   8.257474e-03
  3.765512e+00    4.997890e-01   8.243135e-03
  3.767723e+00    4.950920e-01   8.223375e-03
  3.769933e+00    4.911129e-01   8.209330e-03
  3.772144e+00    4.836802e-01   8.166101e-03
  3.774354e+00    4.971485e-01   8.298688e-03
  3.776565e+00    5.180204e-01   8.491221e-03
  3.778775e+00    4.902262e-01   8.279952e-03
  3.780986e+00    4.950467e-01   8.340680e-03
  3.783196e+00    4.883466e-01   8.303992e-03
  3.785407e+00    4.747695e-01   8.207598e-03
  3.787617e+00    4.948747e-01   8.400098e-03
  3.789827e+00    4.954654e-01   8.425569e-03
  3.792038e+00    4.871612e-01   8.375200e-03
  3.794248e+00    4.881503e-01   8.404563e-03
  3.796459e+00    4.986546e-01   8.515772e-03
  3.798669e+00    5.230650e-01   8.743579e-03
  3.800880e+00    4.955710e-01   8.532071e-03
  3.803090e+00    4.819289e-01   8.435188e-03
  3.805301e+00    4.995186e-01   8.609788e-03
  3.807511e+00    4.967947e-01   8.608301e-03
  3.809722e+00    4.906726e-01   8.577062e-03
  3.811932e+00    5.157593e-01   8.816198e-03
  3.814142e+00    5.066541e-01   8.761079e-03
  3.816353e+00    4.999258e-01   8.725557e-03
  3.818563e+00    5.009590e-01   8.757741e-03
  3.820774e+00    4.900801e-01   8.685069e-03
  3.822984e+00    4.889560e-01   8.698303e-03
  3.825195e+00    4.771329e-01   8.615688e-03
  3.827405e+00    4.878757e-01   8.735808e-03
  3.829616e+00    4.683986e-01   8.582986e-03
  3.831826e+00    5.018869e-01   8.908756e-03
  3.834037e+00    5.105640e-01   9.010348e-03
  3.836247e+00    4.936190e-01   8.884125e-03
  3.838457e+00    4.887608e-01   8.865169e-03
  3.840668e+00    5.121121e-01   9.100005e-03
  3.842878e+00    5.016754e-01   9.032474e-03
  3.845089e+00    5.057012e-01   9.094541e-03
  3.847299e+00    4.716553e-01   8.808223e-03
  3.849510e+00    4.742182e-01   8.857359e-03
  3.851720e+00    4.818721e-01   8.949708e-03
  3.853931e+00    5.104107e-01   9.230161e-03
  3.856141e+00    4.870752e-01   9.035629e-03
  3.858352e+00    5.037335e-01   9.208252e-03
  3.860562e+00    4.726369e-01   8.938419e-03
  3.862772e+00    4.878599e-01   9.100619e-03
  3.864983e+00    4.956819e-01   9.193046e-03
  3.867193e+00    4.884866e-01   9.145761e-03
  3.869404e+00    4.836352e-01   9.119842e-03
  3.871614e+00    4.874568e-01   9.175587e-03
  3.873825e+00    4.995023e-01   9.308777e-03
  3.876035e+00    4.794373e-01   9.140171e-03
  3.878246e+00    4.837198e-01   9.206467e-03
  3.880456e+00    4.781858e-01   9.182214e-03
  3.882667e+00    4.781749e-01   9.211019e-03
  3.884877e+00    4.957207e-01   9.408313e-03
  3.887087e+00    4.871214e-01   9.356172e-03
  3.889298e+00    4.903332e-01   9.417322e-03
  3.891508e+00    4.731874e-01   9.281198e-03
  3.893719e+00    4.606374e-01   9.187306e-03
  3.895929e+00    4.727482e-01   9.338100e-03
  3.898140e+00    5.154540e-01   9.783291e-03
  3.900350e+00    4.863050e-01   9.534662e-03
  3.902561e+00    4.899501e-01   9.602598e-03
  3.904771e+00    4.947372e-01   9.682505e-03
  3.906982e+00    4.358024e-01   9.118768e-03
  3.909192e+00    4.534633e-01   9.333852e-03
  3.911403e+00    4.711621e-01   9.547734e-03
  3.913613e+00    4.835995e-01   9.707020e-03
  3.915823e+00    4.579212e-01   9.479443e-03
  3.918034e+00    4.709579e-01   9.648066e-03
  3.920244e+00    4.933882e-01   9.911057e-03
  3.922455e+00    4.818673e-01   9.830561e-03
  3.924665e+00    4.634021e-01   9.675859e-03
  3.926876e+00    4.645394e-01   9.723821e-03
  3.929086e+00    4.938951e-01   1.006405e-02
  3.931297e+00    4.958017e-01   1.011857e-02
  3.933507e+00    4.863077e-01   1.005009e-02
  3.935718e+00    4.758223e-01   9.969575e-03
  3.937928e+00    4.803836e-01   1.004644e-02
  3.940138e+00    4.749261e-01   1.001822e-02
  3.942349e+00    4.839882e-01   1.014310e-02
  3.944559e+00    4.939298e-01   1.027694e-02
  3.946770e+00    4.897321e-01   1.026348e-02
  3.948980e+00    4.807382e-01   1.019927e-02
  3.951191e+00    4.873741e-01   1.030037e-02
  3.953401e+00    4.685450e-01   1.013018e-02
  3.955612e+00    4.628626e-01   1.009953e-02
  3.957822e+00    4.406313e-01   9.884047e-03
  3.960033e+00    4.930260e-01   1.048809e-02
  3.962243e+00    4.574305e-01   1.013424e-02
  3.964453e+00    4.702303e-01   1.030766e-02
  3.966664e+00    4.727036e-01   1.036773e-02
  3.968874e+00    4.601659e-01   1.025695e-02
  3.971085e+00    4.595564e-01   1.027143e-02
  3.973295e+00    4.706275e-01   1.041551e-02
  3.975506e+00    4.843469e-01   1.058785e-02
  3.977716e+00    4.958796e-01   1.073546e-02
  3.979927e+00    4.634623e-01   1.040021e-02
  3.982137e+00    4.537956e-01   1.031276e-02
  3.984348e+00    4.615561e-01   1.042246e-02
  3.986558e+00    4.761100e-01   1.060770e-02
  3.988768e+00    4.750876e-01   1.061907e-02
  3.990979e+00    4.526569e-01   1.038733e-02
  3.993189e+00    4.568951e-01   1.045819e-02
  3.995400e+00    4.724259e-01   1.065775e-02
  3.997610e+00    4.835986e-01   1.081273e-02
  3.999821e+00    4.850587e-01   1.086664e-02
  4.002031e+00    4.865108e-01   1.092137e-02
  4.004242e+00    4.527500e-01   1.057281e-02
  4.006452e+00    4.687021e-01   1.079611e-02
  4.008663e+00    4.764150e-01   1.092426e-02
  4.010873e+00    4.813616e-01   1.102065e-02
  4.013084e+00    4.927511e-01   1.119159e-02
  4.015294e+00    4.892844e-01   1.119333e-02
  4.017504e+00    4.894678e-01   1.123755e-02
  4.019715e+00    4.937751e-01   1.132972e-02
  4.021925e+00    4.773059e-01   1.118194e-02
  4.024136e+00    4.559882e-01   1.097179e-02
  4.026346e+00    4.744159e-01   1.123485e-02
  4.028557e+00    4.807993e-01   1.135448e-02
  4.030767e+00    4.772024e-01   1.135724e-02
  4.032978e+00    4.777863e-01   1.141025e-02
  4.035188e+00    4.895341e-01   1.159605e-02
  4.037399e+00    4.621309e-01   1.131339e-02
  4.039609e+00    4.325924e-01   1.099104e-02
  4.041819e+00    4.567350e-01   1.134077e-02
  4.044030e+00    5.163330e-01   1.210972e-02
  4.046240e+00    4.745418e-01   1.165882e-02
  4.048451e+00    4.883746e-01   1.187856e-02
  4.050661e+00    5.010971e-01   1.208487e-02
  4.052872e+00    4.789289e-01   1.186691e-02
  4.055082e+00    4.731623e-01   1.184848e-02
  4.057293e+00    4.418052e-01   1.150033e-02
  4.059503e+00    4.721310e-01   1.194258e-02
  4.061714e+00    4.715713e-01   1.199142e-02
  4.063924e+00    4.801808e-01   1.215700e-02
  4.066134e+00    4.634901e-01   1.200015e-02
  4.068345e+00    4.408828e-01   1.176018e-02
  4.070555e+00    4.716991e-01   1.222288e-02
  4.072766e+00    4.577527e-01   1.210018e-02
  4.074976e+00    4.505299e-01   1.206420e-02
  4.077187e+00    4.592125e-01   1.224046e-02
  4.079397e+00    4.548592e-01   1.224439e-02
  4.081608e+00    4.777652e-01   1.261431e-02
  4.083818e+00    5.158691e-01   1.317576e-02
  4.086029e+00    4.752099e-01   1.271261e-02
  4.088239e+00    4.868351e-01   1.293644e-02
  4.090449e+00    4.802220e-01   1.291793e-02
  4.092660e+00    4.641479e-01   1.276977e-02
  4.094870e+00    4.517634e-01   1.266835e-02
  4.097081e+00    4.352671e-01   1.250318e-02
  4.099291e+00    4.600011e-01   1.290627e-02
  4.101502e+00    4.600716e-01   1.295573e-02
  4.103712e+00    5.026218e-01   1.359199e-02
  4.105923e+00    4.835291e-01   1.338295e-02
  4.108133e+00    4.780034e-01   1.335753e-02
  4.110344e+00    4.592141e-01   1.314244e-02
  4.112554e+00    4.465685e-01   1.301144e-02
  4.114764e+00    4.855642e-01   1.362220e-02
  4.116975e+00    4.722454e-01   1.348693e-02
  4.119185e+00    4.864706e-01   1.374414e-02
  4.121396e+00    4.838292e-01   1.376353e-02
  4.123606e+00    4.804662e-01   1.377184e-02
  4.125817e+00    4.844454e-01   1.388672e-02
  4.128027e+00    4.745871e-01   1.380252e-02
  4.130238e+00    4.770235e-01   1.389737e-02
  4.132448e+00    4.636974e-01   1.376126e-02
  4.134659e+00    4.523657e-01   1.365046e-02
  4.136869e+00    5.050189e-01   1.448736e-02
  4.139080e+00    4.593428e-01   1.387908e-02
  4.141290e+00    4.622925e-01   1.398527e-02
  4.143500e+00    4.674057e-01   1.412705e-02
  4.145711e+00    4.637905e-01   1.413827e-02
  4.147921e+00    4.808891e-01   1.446228e-02
  4.150132e+00    4.808333e-01   1.453077e-02
  4.152342e+00    4.940310e-01   1.480004e-02
  4.154553e+00    4.845001e-01   1.472629e-02
  4.156763e+00    4.917506e-01   1.490950e-02
  4.158974e+00    4.654518e-01   1.457842e-02
  4.161184e+00    4.568522e-01   1.451458e-02
  4.163395e+00    4.390931e-01   1.430227e-02
  4.165605e+00    4.670548e-01   1.482746e-02
  4.167815e+00    4.716043e-01   1.497723e-02
  4.170026e+00    4.448023e-01   1.462196e-02
  4.172236e+00    5.079222e-01   1.570955e-02
  4.174447e+00    4.757906e-01   1.528724e-02
  4.176657e+00    4.689694e-01   1.526032e-02
  4.178868e+00    4.708609e-01   1.537746e-02
  4.181078e+00    5.023654e-01   1.597298e-02
  4.183289e+00    5.160611e-01   1.628228e-02
  4.185499e+00    4.866042e-01   1.590381e-02
  4.187710e+00    4.623713e-01   1.559361e-02
  4.189920e+00    4.018699e-01   1.462544e-02
  4.192130e+00    4.083918e-01   1.483346e-02
  4.194341e+00    4.310624e-01   1.533297e-02
  4.196551e+00    4.504748e-01   1.577382e-02
  4.198762e+00    4.429774e-01   1.574125e-02
  4.200972e+00    4.718823e-01   1.635179e-02
  4.203183e+00    4.080824e-01   1.530689e-02
  4.205393e+00    4.802322e-01   1.671495e-02
  4.207604e+00    5.372856e-01   1.780078e-02
  4.209814e+00    5.355078e-01   1.789343e-02
  4.212025e+00    4.218682e-01   1.599433e-02
  4.214235e+00    4.354198e-01   1.636427e-02
  4.216445e+00    4.554671e-01   1.685759e-02
  4.218656e+00    4.829547e-01   1.748891e-02
  4.220866e+00    4.945456e-01   1.782890e-02
  4.223077e+00    4.540416e-01   1.721433e-02
  4.225287e+00    4.402509e-01   1.708432e-02
  4.227498e+00    4.701335e-01   1.779299e-02
  4.229708e+00    4.952764e-01   1.841108e-02
  4.231919e+00    4.675201e-01   1.803602e-02
  4.234129e+00    5.614680e-01   1.993059e-02
  4.236340e+00    4.508076e-01   1.801202e-02
  4.238550e+00    4.656391e-01   1.846727e-02
  4.240761e+00    4.224170e-01   1.774478e-02
  4.242971e+00    4.726067e-01   1.894139e-02
  4.245181e+00    4.426525e-01   1.850328e-02
  4.247392e+00    5.051858e-01   1.995202e-02
  4.249602e+00    4.837355e-01   1.971796e-02
  4.251813e+00    4.260188e-01   1.868629e-02
  4.254023e+00    4.237250e-01   1.882386e-02
  4.256234e+00    4.766242e-01   2.017785e-02
  4.258444e+00    4.148103e-01   1.902083e-02
  4.260655e+00    4.763589e-01   2.060711e-02
  4.262865e+00    4.127432e-01   1.939986e-02
  4.265076e+00    4.412573e-01   2.028616e-02
  4.267286e+00    5.030192e-01   2.191658e-02
  4.269496e+00    4.078349e-01   1.997554e-02
  4.271707e+00    4.641501e-01   2.157285e-02
  4.273917e+00    5.992657e-01   2.482911e-02
  4.276128e+00    5.035658e-01   2.306385e-02
  4.278338e+00    4.289026e-01   2.156899e-02
  4.280549e+00    4.642929e-01   2.276317e-02
  4.282759e+00    4.646789e-01   2.309976e-02
  4.284970e+00    5.109308e-01   2.458056e-02
  4.287180e+00    4.408730e-01   2.310749e-02
  4.289391e+00    4.397460e-01   2.325037e-02
  4.291601e+00    4.558176e-01   2.386078e-02
  4.293811e+00    4.612838e-01   2.419157e-02
  4.296022e+00    4.337207e-01   2.364578e-02
  4.298232e+00    4.818574e-01   2.513205e-02
  4.300443e+00    4.353786e-01   2.408706e-02
  4.302653e+00    4.566865e-01   2.488206e-02
  4.304864e+00    4.735980e-01   2.555848e-02
  4.307074e+00    4.355306e-01   2.472949e-02
  4.309285e+00    4.954851e-01   2.661725e-02
  4.311495e+00    4.317993e-01   2.507993e-02
  4.313706e+00    4.881762e-01   2.691741e-02
  4.315916e+00    4.938825e-01   2.734128e-02
  4.318126e+00    4.198287e-01   2.545735e-02
  4.320337e+00    3.670917e-01   2.404542e-02
  4.322547e+00    5.010070e-01   2.838792e-02
  4.324758e+00    4.806622e-01   2.809666e-02
  4.326968e+00    4.945616e-01   2.881987e-02
  4.329179e+00    4.731174e-01   2.849911e-02
  4.331389e+00    5.177460e-01   3.015589e-02
  4.333600e+00    4.725839e-01   2.915551e-02
  4.335810e+00    4.931043e-01   3.013540e-02
  4.338021e+00    5.171984e-01   3.125893e-02
  4.340231e+00    4.356425e-01   2.904847e-02
  4.342442e+00    4.546213e-01   3.007165e-02
  4.344652e+00    4.224263e-01   2.938248e-02
  4.346862e+00    3.686115e-01   2.783003e-02
  4.349073e+00    4.416568e-01   3.090676e-02
  4.351283e+00    3.885651e-01   2.942272e-02
  4.353494e+00    5.061129e-01   3.409840e-02
  4.355704e+00    3.713346e-01   2.967839e-02
  4.357915e+00    4.900539e-01   3.466024e-02
  4.360125e+00    3.656015e-01   3.044932e-02
  4.362336e+00    4.189280e-01   3.318788e-02
  4.364546e+00    4.714481e-01   3.584789e-02
  4.366757e+00    4.336467e-01   3.506435e-02
  4.368967e+00    3.604110e-01   3.260585e-02
  4.371177e+00    3.783301e-01   3.411489e-02
  4.373388e+00    5.040693e-01   4.025777e-02
  4.375598e+00    5.070678e-01   4.130150e-02
  4.377809e+00    4.139858e-01   3.826024e-02
  4.380019e+00    4.293126e-01   3.994371e-02
  4.382230e+00    3.695657e-01   3.809594e-02
  4.384440e+00    4.130044e-01   4.142798e-02
  4.386651e+00    4.345126e-01   4.380378e-02
  4.388861e+00    3.879890e-01   4.278224e-02
  4.391072e+00    5.727679e-01   5.380503e-02
  4.393282e+00    6.585472e-01   5.992838e-02
  4.395492e+00    4.656764e-01   5.248578e-02
  4.397703e+00    5.026958e-01   5.702674e-02
  4.399913e+00    4.411904e-01   5.612473e-02
  4.402124e+00    4.500886e-01   5.990608e-02
  4.404334e+00    3.809507e-01   5.858326e-02
  4.406545e+00    2.514023e-01   5.113607e-02
  4.408755e+00    3.593677e-01   6.629800e-02
  4.410966e+00    5.075935e-01   8.721161e-02
  4.413176e+00    4.516948e-02   2.947162e-02
  4.415387e+00   -7.030813e-01            nan
  4.417597e+00   -2.044852e+00            nan
  4.419807e+00   -3.766224e-01            nan
