# == pyFAI calibration ==
# Distance Sample to Detector: 0.216 m
# PONI: 1.166e-01, 1.308e-01 m
# Rotations: 0.000000 0.000000 0.000000 rad
# 
# == Fit2d calibration ==
# Distance Sample-beamCenter: 216.000 mm
# Center: x=1744.293, y=1555.000 pix
# Tilt: 0.000 deg  TiltPlanRot: 0.000 deg
# 
# Detector Eiger 9M	 PixelSize= 7.500e-05, 7.500e-05 m
#    Detector has a mask: True 
#    Detector has a dark current: False 
#    detector has a flat field: False 
# 
# Wavelength: 9.8e-11 m
# Mask applied: from detector
# Dark current applied: False
# Flat field applied: False
# Polarization factor: None
# Normalization factor: 1.0
# 
# Headers of the input frame:
# {
# "_array_data.header_convention": "SLS_1.0",
# "_array_data.header_contents": "# Detector: Dectris Eiger 9M, S/N E-18-0102\r\n# Pixel_size 75e-6 m x 75e-6 m\r\n# Silicon sensor, thickness 0.000450 m\r\n# Exposure_time 0.024997 s\r\n# Exposure_period 0.025000 s\r\n# Count_cutoff 62318 counts\r\n# Wavelength 0.980106 A\r\n# Detector_distance 0.215992 m\r\n# Beam_xy (1555, 1744) pixels\r\n# Start_angle 0.000000 deg.\r\n# Angle_increment 0.000000 deg.",
# "Content-Type": "application/octet-stream;",
# "conversions": "x-CBF_BYTE_OFFSET",
# "Content-Transfer-Encoding": "BINARY",
# "X-Binary-Size": "10166590",
# "X-Binary-ID": "1",
# "X-Binary-Element-Type": "signed 32-bit integer",
# "X-Binary-Element-Byte-Order": "LITTLE_ENDIAN",
# "Content-MD5": "Sxqtz7kbBfSeqlIezjFw9A==",
# "X-Binary-Number-of-Elements": "10166590",
# "X-Binary-Size-Fastest-Dimension": "3110",
# "X-Binary-Size-Second-Dimension": "3269",
# "X-Binary-Size-Padding": "4095"
# }
# --> H:/Proxima2a_2019-04-05/RAW_DATA/C5_gel17_position5/C5_mesh_1_data.cbf/C5_mesh_1_data.cbf000021.dat
#        q_A^-1              I           sigma 
  1.105228e-03    2.385823e+00   8.358071e-01
  3.315685e-03    1.604028e+00   4.166309e-01
  5.526141e-03    1.529942e+00   3.146369e-01
  7.736597e-03    1.574849e+00   2.696743e-01
  9.947054e-03    1.724323e+00   2.487631e-01
  1.215751e-02    1.351523e+00   1.991500e-01
  1.436797e-02    1.379128e+00   1.850453e-01
  1.657842e-02    1.383625e+00   1.725256e-01
  1.878888e-02    1.480912e+00   1.676595e-01
  2.099934e-02    1.354790e+00   1.517183e-01
  2.320979e-02    1.537362e+00   1.537167e-01
  2.542025e-02    1.576371e+00   1.487437e-01
  2.763070e-02    1.536974e+00   1.408716e-01
  2.984116e-02    1.527250e+00   1.351237e-01
  3.205162e-02    1.306961e+00   1.206195e-01
  3.426207e-02    1.325611e+00   1.174851e-01
  3.647253e-02    1.505748e+00   1.213573e-01
  3.868299e-02    1.482803e+00   1.169465e-01
  4.089344e-02    1.395910e+00   1.103594e-01
  4.310390e-02    1.380603e+00   1.068952e-01
  4.531436e-02    1.378838e+00   1.041891e-01
  4.752481e-02    1.458458e+00   1.046323e-01
  4.973527e-02    1.454667e+00   1.021489e-01
  5.194572e-02    1.455127e+00   9.996625e-02
  5.415618e-02    1.438300e+00   9.733375e-02
  5.636664e-02    1.395582e+00   9.398160e-02
  5.857709e-02    1.415005e+00   9.283112e-02
  6.078755e-02    1.362571e+00   8.942046e-02
  6.299801e-02    1.401360e+00   8.907817e-02
  6.520846e-02    1.462001e+00   8.943028e-02
  6.741892e-02    1.484234e+00   8.861373e-02
  6.962938e-02    1.348086e+00   8.310463e-02
  7.183983e-02    1.263750e+00   7.921412e-02
  7.405029e-02    1.305707e+00   7.930563e-02
  7.626074e-02    1.456589e+00   8.253892e-02
  7.847120e-02    1.470847e+00   8.176320e-02
  8.068166e-02    1.400491e+00   7.868256e-02
  8.289211e-02    1.466012e+00   7.942102e-02
  8.510257e-02    1.514923e+00   7.967915e-02
  8.731303e-02    1.481215e+00   7.778103e-02
  8.952348e-02    1.534316e+00   7.818167e-02
  9.173394e-02    1.377138e+00   7.316825e-02
  9.394439e-02    1.434389e+00   7.378747e-02
  9.615485e-02    1.585692e+00   7.668301e-02
  9.836531e-02    1.456776e+00   7.266726e-02
  1.005758e-01    1.531054e+00   7.367408e-02
  1.027862e-01    1.535601e+00   7.298391e-02
  1.049967e-01    1.527591e+00   7.202172e-02
  1.072071e-01    1.616513e+00   7.331964e-02
  1.094176e-01    1.662486e+00   7.359893e-02
  1.116280e-01    1.478009e+00   6.870339e-02
  1.138385e-01    1.462213e+00   6.766727e-02
  1.160490e-01    1.510177e+00   6.810921e-02
  1.182594e-01    1.591453e+00   6.925996e-02
  1.204699e-01    1.594248e+00   6.868133e-02
  1.226803e-01    1.486757e+00   6.572255e-02
  1.248908e-01    1.592180e+00   6.740739e-02
  1.271012e-01    1.659189e+00   6.820893e-02
  1.293117e-01    1.535361e+00   6.505027e-02
  1.315222e-01    1.633226e+00   6.652368e-02
  1.337326e-01    1.526778e+00   6.378426e-02
  1.359431e-01    1.593756e+00   6.520646e-02
  1.381535e-01    1.659074e+00   6.742228e-02
  1.403640e-01    1.687881e+00   6.829872e-02
  1.425744e-01    1.646715e+00   6.756848e-02
  1.447849e-01    1.587239e+00   6.635233e-02
  1.469953e-01    1.601338e+00   6.660461e-02
  1.492058e-01    1.588052e+00   6.625067e-02
  1.514163e-01    1.564249e+00   6.564309e-02
  1.536267e-01    1.611482e+00   6.649669e-02
  1.558372e-01    1.643342e+00   6.700256e-02
  1.580476e-01    1.650646e+00   6.698836e-02
  1.602581e-01    1.646901e+00   6.674238e-02
  1.624685e-01    1.758345e+00   6.877479e-02
  1.646790e-01    1.759882e+00   6.860729e-02
  1.668895e-01    1.754816e+00   6.831060e-02
  1.690999e-01    1.726840e+00   6.756043e-02
  1.713104e-01    1.737008e+00   6.754874e-02
  1.735208e-01    1.779965e+00   6.816627e-02
  1.757313e-01    1.780267e+00   6.795841e-02
  1.779417e-01    1.787223e+00   6.786898e-02
  1.801522e-01    1.763166e+00   6.719594e-02
  1.823626e-01    1.847889e+00   6.856242e-02
  1.845731e-01    1.993847e+00   7.098802e-02
  1.867836e-01    1.989648e+00   7.067392e-02
  1.889940e-01    1.959916e+00   6.991469e-02
  1.912045e-01    1.856757e+00   6.782261e-02
  1.934149e-01    1.909854e+00   6.855528e-02
  1.956254e-01    1.934674e+00   6.877174e-02
  1.978358e-01    2.024899e+00   7.011598e-02
  2.000463e-01    2.012757e+00   6.967378e-02
  2.022568e-01    2.016678e+00   6.951272e-02
  2.044672e-01    1.981753e+00   6.867209e-02
  2.066777e-01    2.012894e+00   6.897983e-02
  2.088881e-01    2.064723e+00   6.963368e-02
  2.110986e-01    2.034785e+00   6.888998e-02
  2.133090e-01    1.962015e+00   6.742699e-02
  2.155195e-01    1.953604e+00   6.705911e-02
  2.177300e-01    1.951187e+00   6.649113e-02
  2.199404e-01    1.904067e+00   6.395261e-02
  2.221509e-01    1.898147e+00   6.280462e-02
  2.243613e-01    1.934050e+00   6.259211e-02
  2.265718e-01    1.923426e+00   6.173197e-02
  2.287822e-01    1.994525e+00   6.224036e-02
  2.309927e-01    2.130991e+00   6.374831e-02
  2.332031e-01    2.117670e+00   6.300484e-02
  2.354136e-01    2.122705e+00   6.256846e-02
  2.376241e-01    2.150574e+00   6.248902e-02
  2.398345e-01    2.177312e+00   6.241095e-02
  2.420450e-01    2.199846e+00   6.228473e-02
  2.442554e-01    2.166896e+00   6.139067e-02
  2.464659e-01    2.095432e+00   5.996452e-02
  2.486763e-01    2.083521e+00   5.940082e-02
  2.508868e-01    2.181752e+00   6.040151e-02
  2.530973e-01    2.109047e+00   5.901841e-02
  2.553077e-01    2.122713e+00   5.885013e-02
  2.575182e-01    2.072184e+00   5.780147e-02
  2.597286e-01    2.116277e+00   5.807363e-02
  2.619391e-01    2.179116e+00   5.859026e-02
  2.641495e-01    2.060292e+00   5.665516e-02
  2.663600e-01    2.029812e+00   5.592524e-02
  2.685704e-01    2.051530e+00   5.591888e-02
  2.707809e-01    2.048634e+00   5.558279e-02
  2.729914e-01    2.052945e+00   5.535126e-02
  2.752018e-01    2.029234e+00   5.474426e-02
  2.774123e-01    1.986609e+00   5.388958e-02
  2.796227e-01    1.986196e+00   5.361741e-02
  2.818332e-01    1.966491e+00   5.308466e-02
  2.840436e-01    1.977236e+00   5.297144e-02
  2.862541e-01    2.028377e+00   5.339422e-02
  2.884646e-01    1.988354e+00   5.261394e-02
  2.906750e-01    1.943861e+00   5.177528e-02
  2.928855e-01    1.899194e+00   5.093984e-02
  2.950959e-01    1.901511e+00   5.073675e-02
  2.973064e-01    1.905870e+00   5.056658e-02
  2.995168e-01    1.950683e+00   5.092593e-02
  3.017273e-01    1.978057e+00   5.105590e-02
  3.039377e-01    1.943533e+00   5.038681e-02
  3.061482e-01    1.894343e+00   4.952989e-02
  3.083587e-01    1.899885e+00   4.938757e-02
  3.105691e-01    1.895422e+00   4.911885e-02
  3.127796e-01    1.866753e+00   4.854102e-02
  3.149900e-01    1.891783e+00   4.866174e-02
  3.172005e-01    1.888909e+00   4.842595e-02
  3.194109e-01    1.892873e+00   4.827661e-02
  3.216214e-01    1.878047e+00   4.789095e-02
  3.238319e-01    1.908286e+00   4.808372e-02
  3.260423e-01    1.861571e+00   4.730236e-02
  3.282528e-01    1.848897e+00   4.695340e-02
  3.304632e-01    1.852940e+00   4.682262e-02
  3.326737e-01    1.820393e+00   4.622848e-02
  3.348841e-01    1.813769e+00   4.596537e-02
  3.370946e-01    1.862062e+00   4.639802e-02
  3.393050e-01    1.927870e+00   4.703199e-02
  3.415155e-01    1.826117e+00   4.560186e-02
  3.437260e-01    1.831305e+00   4.549736e-02
  3.459364e-01    1.808337e+00   4.504387e-02
  3.481469e-01    1.888391e+00   4.586211e-02
  3.503573e-01    1.789701e+00   4.448499e-02
  3.525678e-01    1.822084e+00   4.472566e-02
  3.547782e-01    1.782618e+00   4.407874e-02
  3.569887e-01    1.804486e+00   4.419114e-02
  3.591992e-01    1.792375e+00   4.388677e-02
  3.614096e-01    1.843103e+00   4.434915e-02
  3.636201e-01    1.845315e+00   4.421986e-02
  3.658305e-01    1.819938e+00   4.376492e-02
  3.680410e-01    1.796902e+00   4.333751e-02
  3.702514e-01    1.796533e+00   4.318731e-02
  3.724619e-01    1.827933e+00   4.341475e-02
  3.746724e-01    1.844985e+00   4.347125e-02
  3.768828e-01    1.782939e+00   4.259027e-02
  3.790933e-01    1.719474e+00   4.168908e-02
  3.813037e-01    1.780705e+00   4.228605e-02
  3.835142e-01    1.815023e+00   4.255137e-02
  3.857246e-01    1.854274e+00   4.286982e-02
  3.879351e-01    1.702927e+00   4.095009e-02
  3.901455e-01    1.769402e+00   4.160878e-02
  3.923560e-01    1.797935e+00   4.180963e-02
  3.945665e-01    1.824982e+00   4.198936e-02
  3.967769e-01    1.807824e+00   4.166064e-02
  3.989874e-01    1.797326e+00   4.140978e-02
  4.011978e-01    1.769286e+00   4.095916e-02
  4.034083e-01    1.834936e+00   4.158407e-02
  4.056187e-01    1.790736e+00   4.095365e-02
  4.078292e-01    1.750868e+00   4.037264e-02
  4.100397e-01    1.770691e+00   4.047657e-02
  4.122501e-01    1.765235e+00   4.029326e-02
  4.144606e-01    1.780749e+00   4.034992e-02
  4.166710e-01    1.786013e+00   4.028936e-02
  4.188815e-01    1.790057e+00   4.021581e-02
  4.210919e-01    1.829504e+00   4.053734e-02
  4.233024e-01    1.831751e+00   4.044293e-02
  4.255128e-01    1.835795e+00   4.037052e-02
  4.277233e-01    1.779896e+00   3.963693e-02
  4.299338e-01    1.780109e+00   3.952523e-02
  4.321442e-01    1.797700e+00   3.960638e-02
  4.343547e-01    1.797729e+00   3.949472e-02
  4.365651e-01    1.776548e+00   3.914981e-02
  4.387756e-01    1.718933e+00   3.840192e-02
  4.409860e-01    1.763677e+00   3.879073e-02
  4.431965e-01    1.812799e+00   3.921848e-02
  4.454070e-01    1.759075e+00   3.852551e-02
  4.476174e-01    1.692256e+00   3.768296e-02
  4.498279e-01    1.689540e+00   3.755026e-02
  4.520383e-01    1.726179e+00   3.785107e-02
  4.542488e-01    1.792490e+00   3.846723e-02
  4.564592e-01    1.772407e+00   3.814853e-02
  4.586697e-01    1.712434e+00   3.739803e-02
  4.608801e-01    1.710528e+00   3.727710e-02
  4.630906e-01    1.684947e+00   3.689935e-02
  4.653011e-01    1.677941e+00   3.672570e-02
  4.675115e-01    1.724936e+00   3.713838e-02
  4.697220e-01    1.716442e+00   3.694985e-02
  4.719324e-01    1.690846e+00   3.657844e-02
  4.741429e-01    1.755301e+00   3.717306e-02
  4.763533e-01    1.706081e+00   3.655425e-02
  4.785638e-01    1.705090e+00   3.644920e-02
  4.807743e-01    1.717060e+00   3.648392e-02
  4.829847e-01    1.668024e+00   3.586834e-02
  4.851952e-01    1.660500e+00   3.569679e-02
  4.874056e-01    1.724835e+00   3.629001e-02
  4.896161e-01    1.700640e+00   3.594522e-02
  4.918265e-01    1.727780e+00   3.614093e-02
  4.940370e-01    1.671028e+00   3.545468e-02
  4.962475e-01    1.644819e+00   3.508867e-02
  4.984579e-01    1.683056e+00   3.540669e-02
  5.006684e-01    1.675612e+00   3.524218e-02
  5.028788e-01    1.657129e+00   3.496233e-02
  5.050893e-01    1.707437e+00   3.540275e-02
  5.072997e-01    1.671762e+00   3.494636e-02
  5.095102e-01    1.674132e+00   3.488735e-02
  5.117206e-01    1.672687e+00   3.478938e-02
  5.139311e-01    1.666988e+00   3.464786e-02
  5.161416e-01    1.689057e+00   3.479404e-02
  5.183520e-01    1.674139e+00   3.455774e-02
  5.205625e-01    1.636668e+00   3.408876e-02
  5.227729e-01    1.654408e+00   3.419307e-02
  5.249834e-01    1.686954e+00   3.444759e-02
  5.271938e-01    1.701809e+00   3.451821e-02
  5.294043e-01    1.741822e+00   3.484104e-02
  5.316148e-01    1.767055e+00   3.501214e-02
  5.338252e-01    1.790434e+00   3.516246e-02
  5.360357e-01    1.757208e+00   3.475535e-02
  5.382461e-01    1.745931e+00   3.456535e-02
  5.404566e-01    1.720688e+00   3.423646e-02
  5.426670e-01    1.709574e+00   3.404881e-02
  5.448775e-01    1.734817e+00   3.422265e-02
  5.470879e-01    1.742089e+00   3.421782e-02
  5.492984e-01    1.750418e+00   3.422324e-02
  5.515089e-01    1.740982e+00   3.405520e-02
  5.537193e-01    1.739822e+00   3.396883e-02
  5.559298e-01    1.785722e+00   3.433853e-02
  5.581402e-01    1.763298e+00   3.404767e-02
  5.603507e-01    1.757945e+00   3.392198e-02
  5.625611e-01    1.795934e+00   3.421212e-02
  5.647716e-01    1.803100e+00   3.420590e-02
  5.669821e-01    1.799402e+00   3.409713e-02
  5.691925e-01    1.752586e+00   3.357843e-02
  5.714030e-01    1.732338e+00   3.331270e-02
  5.736134e-01    1.757092e+00   3.347852e-02
  5.758239e-01    1.742915e+00   3.327201e-02
  5.780343e-01    1.716372e+00   3.294785e-02
  5.802448e-01    1.705400e+00   3.277362e-02
  5.824552e-01    1.656838e+00   3.223584e-02
  5.846657e-01    1.647185e+00   3.207480e-02
  5.868762e-01    1.618267e+00   3.172582e-02
  5.890866e-01    1.610281e+00   3.158177e-02
  5.912971e-01    1.633558e+00   3.174334e-02
  5.935075e-01    1.681558e+00   3.213978e-02
  5.957180e-01    1.692421e+00   3.217729e-02
  5.979284e-01    1.621078e+00   3.142750e-02
  6.001389e-01    1.662519e+00   3.176182e-02
  6.023494e-01    1.687158e+00   3.193139e-02
  6.045598e-01    1.656868e+00   3.157902e-02
  6.067703e-01    1.693640e+00   3.186330e-02
  6.089807e-01    1.687568e+00   3.174222e-02
  6.111912e-01    1.665484e+00   3.147085e-02
  6.134016e-01    1.658388e+00   3.134110e-02
  6.156121e-01    1.670649e+00   3.139422e-02
  6.178226e-01    1.705210e+00   3.165449e-02
  6.200330e-01    1.697915e+00   3.152441e-02
  6.222435e-01    1.688721e+00   3.137666e-02
  6.244539e-01    1.660527e+00   3.105270e-02
  6.266644e-01    1.748925e+00   3.180636e-02
  6.288748e-01    1.697394e+00   3.127332e-02
  6.310853e-01    1.727343e+00   3.148672e-02
  6.332957e-01    1.719437e+00   3.135396e-02
  6.355062e-01    1.704205e+00   3.115412e-02
  6.377167e-01    1.699626e+00   3.105255e-02
  6.399271e-01    1.690889e+00   3.091328e-02
  6.421376e-01    1.697703e+00   3.091638e-02
  6.443480e-01    1.685659e+00   3.074792e-02
  6.465585e-01    1.672740e+00   3.057184e-02
  6.487689e-01    1.666700e+00   3.045896e-02
  6.509794e-01    1.688392e+00   3.059871e-02
  6.531899e-01    1.626888e+00   2.997975e-02
  6.554003e-01    1.606120e+00   2.973177e-02
  6.576108e-01    1.606418e+00   2.967917e-02
  6.598212e-01    1.641993e+00   2.995025e-02
  6.620317e-01    1.590912e+00   2.942606e-02
  6.642421e-01    1.592634e+00   2.938751e-02
  6.664526e-01    1.597071e+00   2.937420e-02
  6.686630e-01    1.594419e+00   2.929553e-02
  6.708735e-01    1.627716e+00   2.954555e-02
  6.730840e-01    1.573839e+00   2.899951e-02
  6.752944e-01    1.596145e+00   2.915115e-02
  6.775049e-01    1.591543e+00   2.905627e-02
  6.797153e-01    1.616013e+00   2.922576e-02
  6.819258e-01    1.584906e+00   2.889091e-02
  6.841362e-01    1.617071e+00   2.913012e-02
  6.863467e-01    1.643702e+00   2.931640e-02
  6.885572e-01    1.622147e+00   2.907138e-02
  6.907676e-01    1.580591e+00   2.864515e-02
  6.929781e-01    1.603533e+00   2.880101e-02
  6.951885e-01    1.589569e+00   2.862454e-02
  6.973990e-01    1.619791e+00   2.884430e-02
  6.996094e-01    1.598339e+00   2.860224e-02
  7.018199e-01    1.596176e+00   2.853271e-02
  7.040303e-01    1.616279e+00   2.866139e-02
  7.062408e-01    1.643265e+00   2.884905e-02
  7.084513e-01    1.617828e+00   2.857512e-02
  7.106617e-01    1.601183e+00   2.837833e-02
  7.128722e-01    1.592579e+00   2.825303e-02
  7.150826e-01    1.570195e+00   2.800542e-02
  7.172931e-01    1.604078e+00   2.825716e-02
  7.195035e-01    1.590069e+00   2.808513e-02
  7.217140e-01    1.555185e+00   2.782451e-02
  7.239245e-01    1.537051e+00   2.788580e-02
  7.261349e-01    1.550995e+00   2.811981e-02
  7.283454e-01    1.559028e+00   2.826458e-02
  7.305558e-01    1.545918e+00   2.819899e-02
  7.327663e-01    1.597044e+00   2.870428e-02
  7.349767e-01    1.572123e+00   2.849583e-02
  7.371872e-01    1.562875e+00   2.840073e-02
  7.393976e-01    1.576219e+00   2.850744e-02
  7.416081e-01    1.563994e+00   2.838058e-02
  7.438186e-01    1.574321e+00   2.832979e-02
  7.460290e-01    1.579960e+00   2.808578e-02
  7.482395e-01    1.504603e+00   2.724048e-02
  7.504499e-01    1.540673e+00   2.743026e-02
  7.526604e-01    1.563655e+00   2.751795e-02
  7.548708e-01    1.550400e+00   2.731236e-02
  7.570813e-01    1.546921e+00   2.723116e-02
  7.592918e-01    1.567890e+00   2.738001e-02
  7.615022e-01    1.585453e+00   2.749901e-02
  7.637127e-01    1.599058e+00   2.758372e-02
  7.659231e-01    1.537791e+00   2.701851e-02
  7.681336e-01    1.535902e+00   2.697068e-02
  7.703440e-01    1.582139e+00   2.734235e-02
  7.725545e-01    1.595295e+00   2.742470e-02
  7.747650e-01    1.612902e+00   2.753699e-02
  7.769754e-01    1.615148e+00   2.750277e-02
  7.791859e-01    1.582741e+00   2.717187e-02
  7.813963e-01    1.548000e+00   2.681993e-02
  7.836068e-01    1.549927e+00   2.678516e-02
  7.858172e-01    1.610278e+00   2.725063e-02
  7.880277e-01    1.583035e+00   2.696775e-02
  7.902381e-01    1.609723e+00   2.714469e-02
  7.924486e-01    1.647419e+00   2.740984e-02
  7.946591e-01    1.585461e+00   2.684140e-02
  7.968695e-01    1.582501e+00   2.676834e-02
  7.990800e-01    1.602413e+00   2.688808e-02
  8.012904e-01    1.604704e+00   2.686075e-02
  8.035009e-01    1.629662e+00   2.702067e-02
  8.057113e-01    1.628707e+00   2.696605e-02
  8.079218e-01    1.633031e+00   2.695520e-02
  8.101323e-01    1.642381e+00   2.698639e-02
  8.123427e-01    1.628212e+00   2.682389e-02
  8.145532e-01    1.653351e+00   2.698394e-02
  8.167636e-01    1.637162e+00   2.680636e-02
  8.189741e-01    1.638443e+00   2.677213e-02
  8.211845e-01    1.651438e+00   2.683304e-02
  8.233950e-01    1.668582e+00   2.692810e-02
  8.256054e-01    1.656971e+00   2.678979e-02
  8.278159e-01    1.643364e+00   2.663550e-02
  8.300264e-01    1.647767e+00   2.662796e-02
  8.322368e-01    1.644201e+00   2.655592e-02
  8.344473e-01    1.681096e+00   2.680830e-02
  8.366577e-01    1.624517e+00   2.631092e-02
  8.388682e-01    1.624606e+00   2.626957e-02
  8.410786e-01    1.631712e+00   2.628501e-02
  8.432891e-01    1.633387e+00   2.625672e-02
  8.454996e-01    1.658555e+00   2.641634e-02
  8.477100e-01    1.668329e+00   2.645203e-02
  8.499205e-01    1.696145e+00   2.662975e-02
  8.521309e-01    1.650340e+00   2.622677e-02
  8.543414e-01    1.612673e+00   2.588529e-02
  8.565518e-01    1.600556e+00   2.574770e-02
  8.587623e-01    1.631376e+00   2.595396e-02
  8.609727e-01    1.600754e+00   2.566936e-02
  8.631832e-01    1.582984e+00   2.548712e-02
  8.653937e-01    1.599078e+00   2.557698e-02
  8.676041e-01    1.635458e+00   2.582726e-02
  8.698146e-01    1.619190e+00   2.565921e-02
  8.720250e-01    1.626795e+00   2.568020e-02
  8.742355e-01    1.628608e+00   2.565540e-02
  8.764459e-01    1.594631e+00   2.534764e-02
  8.786564e-01    1.585116e+00   2.523422e-02
  8.808669e-01    1.592476e+00   2.525439e-02
  8.830773e-01    1.595664e+00   2.524160e-02
  8.852878e-01    1.584776e+00   2.511763e-02
  8.874982e-01    1.607315e+00   2.525888e-02
  8.897087e-01    1.598437e+00   2.515140e-02
  8.919191e-01    1.594481e+00   2.508256e-02
  8.941296e-01    1.593930e+00   2.504101e-02
  8.963401e-01    1.603782e+00   2.508182e-02
  8.985505e-01    1.617649e+00   2.515285e-02
  9.007610e-01    1.589544e+00   2.489679e-02
  9.029714e-01    1.588942e+00   2.485634e-02
  9.051819e-01    1.568438e+00   2.465860e-02
  9.073923e-01    1.581740e+00   2.472657e-02
  9.096028e-01    1.581952e+00   2.469352e-02
  9.118132e-01    1.594441e+00   2.475464e-02
  9.140237e-01    1.621565e+00   2.492743e-02
  9.162342e-01    1.608426e+00   2.479160e-02
  9.184446e-01    1.630596e+00   2.492576e-02
  9.206551e-01    1.640503e+00   2.496533e-02
  9.228655e-01    1.646559e+00   2.497564e-02
  9.250760e-01    1.618844e+00   2.472900e-02
  9.272864e-01    1.614008e+00   2.465765e-02
  9.294969e-01    1.596462e+00   2.448753e-02
  9.317074e-01    1.607547e+00   2.453765e-02
  9.339178e-01    1.613443e+00   2.454904e-02
  9.361283e-01    1.621331e+00   2.457270e-02
  9.383387e-01    1.620260e+00   2.453118e-02
  9.405492e-01    1.654282e+00   2.475276e-02
  9.427596e-01    1.667684e+00   2.481706e-02
  9.449701e-01    1.698028e+00   2.500779e-02
  9.471805e-01    1.678102e+00   2.482542e-02
  9.493910e-01    1.685601e+00   2.484667e-02
  9.516015e-01    1.694693e+00   2.487881e-02
  9.538119e-01    1.708615e+00   2.494655e-02
  9.560224e-01    1.726148e+00   2.503894e-02
  9.582328e-01    1.724878e+00   2.499615e-02
  9.604433e-01    1.732435e+00   2.501535e-02
  9.626537e-01    1.817827e+00   2.558998e-02
  9.648642e-01    1.850355e+00   2.578258e-02
  9.670747e-01    1.880774e+00   2.595779e-02
  9.692851e-01    1.867353e+00   2.583065e-02
  9.714956e-01    1.828774e+00   2.552638e-02
  9.737060e-01    1.814048e+00   2.538999e-02
  9.759165e-01    1.839906e+00   2.553425e-02
  9.781269e-01    1.838879e+00   2.549374e-02
  9.803374e-01    1.808724e+00   2.524888e-02
  9.825478e-01    1.815471e+00   2.526255e-02
  9.847583e-01    1.808021e+00   2.517644e-02
  9.869688e-01    1.809498e+00   2.515300e-02
  9.891792e-01    1.813202e+00   2.514527e-02
  9.913897e-01    1.771153e+00   2.481848e-02
  9.936001e-01    1.694866e+00   2.424631e-02
  9.958106e-01    1.684809e+00   2.414138e-02
  9.980210e-01    1.702271e+00   2.423470e-02
  1.000231e+00    1.671211e+00   2.414412e-02
  1.002442e+00    1.663159e+00   2.421387e-02
  1.004652e+00    1.642274e+00   2.412846e-02
  1.006863e+00    1.612640e+00   2.395941e-02
  1.009073e+00    1.613509e+00   2.400253e-02
  1.011284e+00    1.602233e+00   2.395050e-02
  1.013494e+00    1.590674e+00   2.388762e-02
  1.015705e+00    1.566994e+00   2.373155e-02
  1.017915e+00    1.577927e+00   2.383060e-02
  1.020126e+00    1.614906e+00   2.412450e-02
  1.022336e+00    1.606467e+00   2.407326e-02
  1.024547e+00    1.588205e+00   2.394740e-02
  1.026757e+00    1.552638e+00   2.368611e-02
  1.028967e+00    1.514090e+00   2.339784e-02
  1.031178e+00    1.534453e+00   2.356080e-02
  1.033388e+00    1.533677e+00   2.355992e-02
  1.035599e+00    1.539921e+00   2.361125e-02
  1.037809e+00    1.548883e+00   2.368314e-02
  1.040020e+00    1.574339e+00   2.387825e-02
  1.042230e+00    1.612504e+00   2.416795e-02
  1.044441e+00    1.624426e+00   2.425691e-02
  1.046651e+00    1.601949e+00   2.408868e-02
  1.048862e+00    1.577915e+00   2.390649e-02
  1.051072e+00    1.543761e+00   2.364396e-02
  1.053282e+00    1.555806e+00   2.373502e-02
  1.055493e+00    1.597617e+00   2.404742e-02
  1.057703e+00    1.543552e+00   2.363549e-02
  1.059914e+00    1.520617e+00   2.345490e-02
  1.062124e+00    1.495716e+00   2.325802e-02
  1.064335e+00    1.489279e+00   2.320446e-02
  1.066545e+00    1.537720e+00   2.357271e-02
  1.068756e+00    1.514293e+00   2.338870e-02
  1.070966e+00    1.507562e+00   2.333003e-02
  1.073177e+00    1.528689e+00   2.348679e-02
  1.075387e+00    1.500278e+00   2.326225e-02
  1.077597e+00    1.490477e+00   2.317879e-02
  1.079808e+00    1.523082e+00   2.329558e-02
  1.082018e+00    1.512268e+00   2.302051e-02
  1.084229e+00    1.465189e+00   2.254911e-02
  1.086439e+00    1.499062e+00   2.271951e-02
  1.088650e+00    1.529485e+00   2.287131e-02
  1.090860e+00    1.557785e+00   2.301194e-02
  1.093071e+00    1.514154e+00   2.262388e-02
  1.095281e+00    1.516450e+00   2.258237e-02
  1.097492e+00    1.510393e+00   2.248111e-02
  1.099702e+00    1.470436e+00   2.212982e-02
  1.101912e+00    1.505402e+00   2.234142e-02
  1.104123e+00    1.534409e+00   2.250579e-02
  1.106333e+00    1.553073e+00   2.259601e-02
  1.108544e+00    1.554911e+00   2.256323e-02
  1.110754e+00    1.493554e+00   2.206959e-02
  1.112965e+00    1.421149e+00   2.148745e-02
  1.115175e+00    1.415801e+00   2.140585e-02
  1.117386e+00    1.418846e+00   2.138954e-02
  1.119596e+00    1.403244e+00   2.123387e-02
  1.121807e+00    1.433900e+00   2.142540e-02
  1.124017e+00    1.410187e+00   2.121083e-02
  1.126228e+00    1.411727e+00   2.118655e-02
  1.128438e+00    1.432845e+00   2.130723e-02
  1.130648e+00    1.428762e+00   2.124221e-02
  1.132859e+00    1.368571e+00   2.075591e-02
  1.135069e+00    1.384071e+00   2.083850e-02
  1.137280e+00    1.384637e+00   2.080982e-02
  1.139490e+00    1.384951e+00   2.077915e-02
  1.141701e+00    1.401884e+00   2.087247e-02
  1.143911e+00    1.422351e+00   2.099196e-02
  1.146122e+00    1.403341e+00   2.081897e-02
  1.148332e+00    1.382184e+00   2.062951e-02
  1.150543e+00    1.367992e+00   2.049260e-02
  1.152753e+00    1.372828e+00   2.049797e-02
  1.154963e+00    1.395354e+00   2.063418e-02
  1.157174e+00    1.367261e+00   2.039533e-02
  1.159384e+00    1.353467e+00   2.026252e-02
  1.161595e+00    1.367424e+00   2.033692e-02
  1.163805e+00    1.360708e+00   2.025773e-02
  1.166016e+00    1.384067e+00   2.040127e-02
  1.168226e+00    1.366024e+00   2.023892e-02
  1.170437e+00    1.354375e+00   2.012392e-02
  1.172647e+00    1.379432e+00   2.028019e-02
  1.174858e+00    1.368842e+00   2.017405e-02
  1.177068e+00    1.376194e+00   2.019975e-02
  1.179278e+00    1.368555e+00   2.011498e-02
  1.181489e+00    1.350050e+00   1.995161e-02
  1.183699e+00    1.323290e+00   1.972565e-02
  1.185910e+00    1.350243e+00   1.989783e-02
  1.188120e+00    1.376951e+00   2.006679e-02
  1.190331e+00    1.377845e+00   2.004632e-02
  1.192541e+00    1.397430e+00   2.016046e-02
  1.194752e+00    1.378899e+00   1.999907e-02
  1.196962e+00    1.343069e+00   1.971184e-02
  1.199173e+00    1.363896e+00   1.983747e-02
  1.201383e+00    1.323368e+00   1.951362e-02
  1.203593e+00    1.342107e+00   1.962653e-02
  1.205804e+00    1.336267e+00   1.955801e-02
  1.208014e+00    1.328964e+00   1.947784e-02
  1.210225e+00    1.337953e+00   1.951840e-02
  1.212435e+00    1.317019e+00   1.934062e-02
  1.214646e+00    1.330898e+00   1.941633e-02
  1.216856e+00    1.333239e+00   1.940808e-02
  1.219067e+00    1.340200e+00   1.943430e-02
  1.221277e+00    1.349480e+00   1.947644e-02
  1.223488e+00    1.328947e+00   1.930218e-02
  1.225698e+00    1.312207e+00   1.915369e-02
  1.227909e+00    1.328879e+00   1.924505e-02
  1.230119e+00    1.340319e+00   1.929597e-02
  1.232329e+00    1.340224e+00   1.926468e-02
  1.234540e+00    1.320820e+00   1.909476e-02
  1.236750e+00    1.331262e+00   1.914002e-02
  1.238961e+00    1.329753e+00   1.910241e-02
  1.241171e+00    1.348588e+00   1.921305e-02
  1.243382e+00    1.355523e+00   1.923883e-02
  1.245592e+00    1.312292e+00   1.890582e-02
  1.247803e+00    1.300458e+00   1.879714e-02
  1.250013e+00    1.328338e+00   1.897421e-02
  1.252224e+00    1.323139e+00   1.891403e-02
  1.254434e+00    1.320200e+00   1.886954e-02
  1.256644e+00    1.316992e+00   1.882366e-02
  1.258855e+00    1.344200e+00   1.899390e-02
  1.261065e+00    1.328859e+00   1.886202e-02
  1.263276e+00    1.330575e+00   1.885142e-02
  1.265486e+00    1.352436e+00   1.898273e-02
  1.267697e+00    1.385273e+00   1.918850e-02
  1.269907e+00    1.366135e+00   1.903267e-02
  1.272118e+00    1.323568e+00   1.871145e-02
  1.274328e+00    1.338070e+00   1.879104e-02
  1.276539e+00    1.337366e+00   1.876342e-02
  1.278749e+00    1.366392e+00   1.894351e-02
  1.280959e+00    1.346026e+00   1.877934e-02
  1.283170e+00    1.298868e+00   1.842543e-02
  1.285380e+00    1.313674e+00   1.850797e-02
  1.287591e+00    1.342378e+00   1.868712e-02
  1.289801e+00    1.338383e+00   1.863817e-02
  1.292012e+00    1.336127e+00   1.860545e-02
  1.294222e+00    1.347700e+00   1.866961e-02
  1.296433e+00    1.336377e+00   1.857551e-02
  1.298643e+00    1.356639e+00   1.869928e-02
  1.300854e+00    1.341423e+00   1.857777e-02
  1.303064e+00    1.346476e+00   1.859352e-02
  1.305274e+00    1.341021e+00   1.853446e-02
  1.307485e+00    1.361277e+00   1.865225e-02
  1.309695e+00    1.367724e+00   1.867401e-02
  1.311906e+00    1.354852e+00   1.856418e-02
  1.314116e+00    1.347648e+00   1.849399e-02
  1.316327e+00    1.338952e+00   1.841261e-02
  1.318537e+00    1.366224e+00   1.857717e-02
  1.320748e+00    1.341664e+00   1.838795e-02
  1.322958e+00    1.345472e+00   1.839354e-02
  1.325169e+00    1.354702e+00   1.843547e-02
  1.327379e+00    1.334791e+00   1.827780e-02
  1.329589e+00    1.339939e+00   1.829202e-02
  1.331800e+00    1.361009e+00   1.841448e-02
  1.334010e+00    1.385939e+00   1.856146e-02
  1.336221e+00    1.367737e+00   1.841729e-02
  1.338431e+00    1.363584e+00   1.836831e-02
  1.340642e+00    1.346992e+00   1.832033e-02
  1.342852e+00    1.351665e+00   1.845279e-02
  1.345063e+00    1.392082e+00   1.877690e-02
  1.347273e+00    1.361042e+00   1.860179e-02
  1.349484e+00    1.334522e+00   1.844717e-02
  1.351694e+00    1.349548e+00   1.857345e-02
  1.353905e+00    1.324983e+00   1.842146e-02
  1.356115e+00    1.369800e+00   1.874555e-02
  1.358325e+00    1.347275e+00   1.860413e-02
  1.360536e+00    1.303752e+00   1.831255e-02
  1.362746e+00    1.336964e+00   1.855387e-02
  1.364957e+00    1.336819e+00   1.856049e-02
  1.367167e+00    1.320334e+00   1.845278e-02
  1.369378e+00    1.322824e+00   1.847613e-02
  1.371588e+00    1.331508e+00   1.854179e-02
  1.373799e+00    1.340472e+00   1.860778e-02
  1.376009e+00    1.324187e+00   1.849777e-02
  1.378220e+00    1.341179e+00   1.861860e-02
  1.380430e+00    1.344041e+00   1.864119e-02
  1.382640e+00    1.327551e+00   1.852738e-02
  1.384851e+00    1.330121e+00   1.854619e-02
  1.387061e+00    1.322806e+00   1.849542e-02
  1.389272e+00    1.299551e+00   1.833234e-02
  1.391482e+00    1.318275e+00   1.846323e-02
  1.393693e+00    1.316161e+00   1.844755e-02
  1.395903e+00    1.298166e+00   1.831951e-02
  1.398114e+00    1.269241e+00   1.811291e-02
  1.400324e+00    1.255168e+00   1.801008e-02
  1.402535e+00    1.278121e+00   1.817168e-02
  1.404745e+00    1.282813e+00   1.820264e-02
  1.406955e+00    1.285926e+00   1.822202e-02
  1.409166e+00    1.278000e+00   1.816245e-02
  1.411376e+00    1.272088e+00   1.811728e-02
  1.413587e+00    1.289936e+00   1.824009e-02
  1.415797e+00    1.271255e+00   1.810400e-02
  1.418008e+00    1.264469e+00   1.801382e-02
  1.420218e+00    1.255621e+00   1.780183e-02
  1.422429e+00    1.236894e+00   1.758435e-02
  1.424639e+00    1.251323e+00   1.762243e-02
  1.426850e+00    1.274967e+00   1.773331e-02
  1.429060e+00    1.271013e+00   1.765681e-02
  1.431270e+00    1.260718e+00   1.754099e-02
  1.433481e+00    1.293119e+00   1.772365e-02
  1.435691e+00    1.268151e+00   1.751330e-02
  1.437902e+00    1.286031e+00   1.759965e-02
  1.440112e+00    1.270810e+00   1.745983e-02
  1.442323e+00    1.254329e+00   1.731340e-02
  1.444533e+00    1.286996e+00   1.750462e-02
  1.446744e+00    1.272273e+00   1.737308e-02
  1.448954e+00    1.266124e+00   1.730089e-02
  1.451165e+00    1.255084e+00   1.719571e-02
  1.453375e+00    1.267993e+00   1.725589e-02
  1.455586e+00    1.268721e+00   1.723269e-02
  1.457796e+00    1.280327e+00   1.728371e-02
  1.460006e+00    1.275010e+00   1.722048e-02
  1.462217e+00    1.270342e+00   1.716270e-02
  1.464427e+00    1.277024e+00   1.718210e-02
  1.466638e+00    1.255178e+00   1.700931e-02
  1.468848e+00    1.266863e+00   1.706299e-02
  1.471059e+00    1.267079e+00   1.703938e-02
  1.473269e+00    1.248167e+00   1.688757e-02
  1.475480e+00    1.241522e+00   1.681904e-02
  1.477690e+00    1.272292e+00   1.700230e-02
  1.479901e+00    1.283422e+00   1.705254e-02
  1.482111e+00    1.273572e+00   1.696359e-02
  1.484321e+00    1.264138e+00   1.687756e-02
  1.486532e+00    1.276222e+00   1.693561e-02
  1.488742e+00    1.278988e+00   1.693117e-02
  1.490953e+00    1.272514e+00   1.686561e-02
  1.493163e+00    1.270063e+00   1.682701e-02
  1.495374e+00    1.275567e+00   1.684183e-02
  1.497584e+00    1.269717e+00   1.678145e-02
  1.499795e+00    1.279992e+00   1.682739e-02
  1.502005e+00    1.251852e+00   1.661981e-02
  1.504216e+00    1.242670e+00   1.653780e-02
  1.506426e+00    1.259260e+00   1.662703e-02
  1.508636e+00    1.255072e+00   1.657893e-02
  1.510847e+00    1.265077e+00   1.662298e-02
  1.513057e+00    1.270726e+00   1.663481e-02
  1.515268e+00    1.274158e+00   1.663136e-02
  1.517478e+00    1.256647e+00   1.649151e-02
  1.519689e+00    1.235322e+00   1.632619e-02
  1.521899e+00    1.265755e+00   1.650285e-02
  1.524110e+00    1.260312e+00   1.644694e-02
  1.526320e+00    1.263091e+00   1.644539e-02
  1.528531e+00    1.296205e+00   1.663945e-02
  1.530741e+00    1.255092e+00   1.635427e-02
  1.532951e+00    1.240236e+00   1.623767e-02
  1.535162e+00    1.238786e+00   1.631439e-02
  1.537372e+00    1.256193e+00   1.649571e-02
  1.539583e+00    1.271493e+00   1.663042e-02
  1.541793e+00    1.252639e+00   1.651363e-02
  1.544004e+00    1.221896e+00   1.630998e-02
  1.546214e+00    1.230654e+00   1.636682e-02
  1.548425e+00    1.225777e+00   1.633462e-02
  1.550635e+00    1.220757e+00   1.631073e-02
  1.552846e+00    1.237303e+00   1.643050e-02
  1.555056e+00    1.230312e+00   1.634280e-02
  1.557266e+00    1.225744e+00   1.620281e-02
  1.559477e+00    1.220983e+00   1.611274e-02
  1.561687e+00    1.245034e+00   1.624001e-02
  1.563898e+00    1.234944e+00   1.615696e-02
  1.566108e+00    1.246614e+00   1.621714e-02
  1.568319e+00    1.251633e+00   1.623411e-02
  1.570529e+00    1.253678e+00   1.622211e-02
  1.572740e+00    1.269853e+00   1.629855e-02
  1.574950e+00    1.239060e+00   1.607347e-02
  1.577161e+00    1.248967e+00   1.611206e-02
  1.579371e+00    1.252812e+00   1.611313e-02
  1.581582e+00    1.231247e+00   1.595416e-02
  1.583792e+00    1.235714e+00   1.596513e-02
  1.586002e+00    1.231888e+00   1.592286e-02
  1.588213e+00    1.229773e+00   1.589204e-02
  1.590423e+00    1.227923e+00   1.586014e-02
  1.592634e+00    1.236820e+00   1.589594e-02
  1.594844e+00    1.239915e+00   1.589443e-02
  1.597055e+00    1.251722e+00   1.594936e-02
  1.599265e+00    1.250951e+00   1.592367e-02
  1.601476e+00    1.229092e+00   1.576372e-02
  1.603686e+00    1.224877e+00   1.571701e-02
  1.605897e+00    1.194748e+00   1.550273e-02
  1.608107e+00    1.205352e+00   1.555205e-02
  1.610317e+00    1.220711e+00   1.563164e-02
  1.612528e+00    1.225906e+00   1.564578e-02
  1.614738e+00    1.216101e+00   1.556425e-02
  1.616949e+00    1.203487e+00   1.546453e-02
  1.619159e+00    1.187387e+00   1.534228e-02
  1.621370e+00    1.179758e+00   1.527476e-02
  1.623580e+00    1.177606e+00   1.524276e-02
  1.625791e+00    1.181528e+00   1.525008e-02
  1.628001e+00    1.166150e+00   1.513253e-02
  1.630212e+00    1.178400e+00   1.519413e-02
  1.632422e+00    1.173058e+00   1.514190e-02
  1.634632e+00    1.133077e+00   1.486466e-02
  1.636843e+00    1.166217e+00   1.506300e-02
  1.639053e+00    1.153815e+00   1.496558e-02
  1.641264e+00    1.140637e+00   1.486298e-02
  1.643474e+00    1.124237e+00   1.473863e-02
  1.645685e+00    1.144843e+00   1.485652e-02
  1.647895e+00    1.149257e+00   1.486858e-02
  1.650106e+00    1.133597e+00   1.475007e-02
  1.652316e+00    1.115510e+00   1.461569e-02
  1.654527e+00    1.095333e+00   1.446657e-02
  1.656737e+00    1.102267e+00   1.449597e-02
  1.658947e+00    1.108878e+00   1.452327e-02
  1.661158e+00    1.112092e+00   1.452814e-02
  1.663368e+00    1.110780e+00   1.450363e-02
  1.665579e+00    1.098467e+00   1.440703e-02
  1.667789e+00    1.090497e+00   1.433862e-02
  1.670000e+00    1.090378e+00   1.432250e-02
  1.672210e+00    1.111282e+00   1.444325e-02
  1.674421e+00    1.091231e+00   1.429713e-02
  1.676631e+00    1.075090e+00   1.417531e-02
  1.678842e+00    1.095549e+00   1.429380e-02
  1.681052e+00    1.085695e+00   1.421405e-02
  1.683263e+00    1.078696e+00   1.415309e-02
  1.685473e+00    1.085566e+00   1.418295e-02
  1.687683e+00    1.081033e+00   1.413789e-02
  1.689894e+00    1.062384e+00   1.399979e-02
  1.692104e+00    1.071641e+00   1.404575e-02
  1.694315e+00    1.067788e+00   1.400602e-02
  1.696525e+00    1.051596e+00   1.388439e-02
  1.698736e+00    1.044387e+00   1.382204e-02
  1.700946e+00    1.039533e+00   1.377488e-02
  1.703157e+00    1.051795e+00   1.384128e-02
  1.705367e+00    1.066108e+00   1.392057e-02
  1.707578e+00    1.055564e+00   1.383694e-02
  1.709788e+00    1.036713e+00   1.369877e-02
  1.711998e+00    1.033699e+00   1.366389e-02
  1.714209e+00    1.015588e+00   1.352941e-02
  1.716419e+00    9.985002e-01   1.340107e-02
  1.718630e+00    1.009532e+00   1.346077e-02
  1.720840e+00    1.031922e+00   1.359503e-02
  1.723051e+00    1.018927e+00   1.349533e-02
  1.725261e+00    1.014037e+00   1.344828e-02
  1.727472e+00    1.008008e+00   1.339414e-02
  1.729682e+00    1.021640e+00   1.347091e-02
  1.731893e+00    9.966756e-01   1.329151e-02
  1.734103e+00    9.749943e-01   1.313258e-02
  1.736313e+00    9.791424e-01   1.314665e-02
  1.738524e+00    9.904554e-01   1.320865e-02
  1.740734e+00    9.785513e-01   1.311547e-02
  1.742945e+00    9.586912e-01   1.296850e-02
  1.745155e+00    9.917009e-01   1.317642e-02
  1.747366e+00    9.863267e-01   1.312690e-02
  1.749576e+00    9.715753e-01   1.301476e-02
  1.751787e+00    1.000953e+00   1.319661e-02
  1.753997e+00    1.026408e+00   1.334966e-02
  1.756208e+00    1.153873e+00   1.413995e-02
  1.758418e+00    1.147675e+00   1.408768e-02
  1.760628e+00    1.067795e+00   1.357462e-02
  1.762839e+00    9.979032e-01   1.310937e-02
  1.765049e+00    9.803347e-01   1.298020e-02
  1.767260e+00    1.000583e+00   1.310049e-02
  1.769470e+00    9.669044e-01   1.286508e-02
  1.771681e+00    9.660729e-01   1.284629e-02
  1.773891e+00    9.741154e-01   1.288645e-02
  1.776102e+00    9.742084e-01   1.287401e-02
  1.778312e+00    9.662406e-01   1.280839e-02
  1.780523e+00    9.279935e-01   1.253969e-02
  1.782733e+00    9.177834e-01   1.245797e-02
  1.784944e+00    9.352651e-01   1.256315e-02
  1.787154e+00    9.559969e-01   1.268895e-02
  1.789364e+00    9.846255e-01   1.286470e-02
  1.791575e+00    9.679554e-01   1.274254e-02
  1.793785e+00    9.561192e-01   1.265176e-02
  1.795996e+00    9.390189e-01   1.252547e-02
  1.798206e+00    9.252961e-01   1.242106e-02
  1.800417e+00    9.236647e-01   1.239735e-02
  1.802627e+00    9.205393e-01   1.236440e-02
  1.804838e+00    9.208261e-01   1.235415e-02
  1.807048e+00    9.225356e-01   1.235268e-02
  1.809259e+00    9.314414e-01   1.239837e-02
  1.811469e+00    9.137377e-01   1.226497e-02
  1.813679e+00    8.862854e-01   1.206445e-02
  1.815890e+00    8.854395e-01   1.204405e-02
  1.818100e+00    8.830828e-01   1.201301e-02
  1.820311e+00    8.828883e-01   1.199703e-02
  1.822521e+00    8.849967e-01   1.199652e-02
  1.824732e+00    9.065364e-01   1.212669e-02
  1.826942e+00    8.896369e-01   1.200080e-02
  1.829153e+00    8.731925e-01   1.187774e-02
  1.831363e+00    8.696224e-01   1.184149e-02
  1.833574e+00    8.709658e-01   1.183903e-02
  1.835784e+00    8.695739e-01   1.181820e-02
  1.837994e+00    8.669680e-01   1.178884e-02
  1.840205e+00    8.641946e-01   1.175886e-02
  1.842415e+00    8.689724e-01   1.177958e-02
  1.844626e+00    8.619814e-01   1.172060e-02
  1.846836e+00    8.567462e-01   1.167360e-02
  1.849047e+00    8.707856e-01   1.175721e-02
  1.851257e+00    8.624414e-01   1.169120e-02
  1.853468e+00    8.308393e-01   1.146634e-02
  1.855678e+00    8.471032e-01   1.156922e-02
  1.857889e+00    8.552454e-01   1.161619e-02
  1.860099e+00    8.542936e-01   1.160113e-02
  1.862309e+00    8.461009e-01   1.153690e-02
  1.864520e+00    8.547269e-01   1.158699e-02
  1.866730e+00    8.404442e-01   1.148048e-02
  1.868941e+00    8.445031e-01   1.149726e-02
  1.871151e+00    8.372800e-01   1.143670e-02
  1.873362e+00    8.562481e-01   1.155413e-02
  1.875572e+00    8.482939e-01   1.148942e-02
  1.877783e+00    8.509879e-01   1.149619e-02
  1.879993e+00    8.392698e-01   1.140567e-02
  1.882204e+00    8.396428e-01   1.139733e-02
  1.884414e+00    8.232611e-01   1.127467e-02
  1.886624e+00    8.315239e-01   1.132010e-02
  1.888835e+00    8.450596e-01   1.140088e-02
  1.891045e+00    8.371436e-01   1.133648e-02
  1.893256e+00    8.430108e-01   1.136504e-02
  1.895466e+00    8.635185e-01   1.149107e-02
  1.897677e+00    8.742977e-01   1.155143e-02
  1.899887e+00    8.475014e-01   1.136196e-02
  1.902098e+00    8.428753e-01   1.131998e-02
  1.904308e+00    8.243052e-01   1.118407e-02
  1.906519e+00    8.182899e-01   1.113239e-02
  1.908729e+00    8.404564e-01   1.127150e-02
  1.910940e+00    8.234861e-01   1.114603e-02
  1.913150e+00    8.132064e-01   1.106573e-02
  1.915360e+00    8.393730e-01   1.123162e-02
  1.917571e+00    8.334903e-01   1.118128e-02
  1.919781e+00    8.311954e-01   1.115511e-02
  1.921992e+00    8.317772e-01   1.114833e-02
  1.924202e+00    8.212267e-01   1.106661e-02
  1.926413e+00    8.159334e-01   1.102058e-02
  1.928623e+00    8.145269e-01   1.100054e-02
  1.930834e+00    8.002779e-01   1.089355e-02
  1.933044e+00    8.045419e-01   1.091191e-02
  1.935255e+00    7.971597e-01   1.085149e-02
  1.937465e+00    7.985542e-01   1.085063e-02
  1.939675e+00    7.956300e-01   1.082000e-02
  1.941886e+00    7.874614e-01   1.075410e-02
  1.944096e+00    8.016599e-01   1.084048e-02
  1.946307e+00    7.866932e-01   1.072856e-02
  1.948517e+00    7.787088e-01   1.066367e-02
  1.950728e+00    7.838312e-01   1.068853e-02
  1.952938e+00    8.019852e-01   1.080149e-02
  1.955149e+00    7.758189e-01   1.061372e-02
  1.957359e+00    7.749125e-01   1.059761e-02
  1.959570e+00    7.803652e-01   1.062405e-02
  1.961780e+00    7.900792e-01   1.068008e-02
  1.963990e+00    7.874971e-01   1.065250e-02
  1.966201e+00    8.221329e-01   1.087400e-02
  1.968411e+00    7.992173e-01   1.071119e-02
  1.970622e+00    7.636788e-01   1.046039e-02
  1.972832e+00    7.743248e-01   1.052315e-02
  1.975043e+00    7.881213e-01   1.060642e-02
  1.977253e+00    7.941739e-01   1.063708e-02
  1.979464e+00    7.815923e-01   1.054245e-02
  1.981674e+00    7.835562e-01   1.054543e-02
  1.983885e+00    7.873023e-01   1.056055e-02
  1.986095e+00    7.968352e-01   1.061448e-02
  1.988305e+00    7.763774e-01   1.046748e-02
  1.990516e+00    7.802785e-01   1.048381e-02
  1.992726e+00    7.843681e-01   1.050152e-02
  1.994937e+00    7.712141e-01   1.040303e-02
  1.997147e+00    7.602154e-01   1.031893e-02
  1.999358e+00    7.755139e-01   1.041239e-02
  2.001568e+00    7.687080e-01   1.035583e-02
  2.003779e+00    7.649627e-01   1.031869e-02
  2.005989e+00    7.566773e-01   1.025077e-02
  2.008200e+00    7.635459e-01   1.028570e-02
  2.010410e+00    7.810738e-01   1.039125e-02
  2.012621e+00    7.732161e-01   1.032713e-02
  2.014831e+00    7.531820e-01   1.018108e-02
  2.017041e+00    7.816747e-01   1.036139e-02
  2.019252e+00    7.690291e-01   1.026727e-02
  2.021462e+00    7.508649e-01   1.013587e-02
  2.023673e+00    7.521206e-01   1.013501e-02
  2.025883e+00    7.578356e-01   1.016396e-02
  2.028094e+00    7.493551e-01   1.009739e-02
  2.030304e+00    7.574606e-01   1.014232e-02
  2.032515e+00    7.646658e-01   1.018113e-02
  2.034725e+00    7.790958e-01   1.026719e-02
  2.036936e+00    7.544918e-01   1.009446e-02
  2.039146e+00    7.462206e-01   1.002945e-02
  2.041356e+00    7.561787e-01   1.008652e-02
  2.043567e+00    7.472789e-01   1.001773e-02
  2.045777e+00    7.392021e-01   9.954306e-03
  2.047988e+00    7.439191e-01   9.976705e-03
  2.050198e+00    7.413607e-01   9.951179e-03
  2.052409e+00    7.479703e-01   9.987790e-03
  2.054619e+00    7.501272e-01   9.994844e-03
  2.056830e+00    7.496234e-01   9.984301e-03
  2.059040e+00    7.646809e-01   1.007649e-02
  2.061251e+00    7.685376e-01   1.009456e-02
  2.063461e+00    7.471074e-01   9.945226e-03
  2.065671e+00    7.450964e-01   9.923120e-03
  2.067882e+00    7.536483e-01   9.970883e-03
  2.070092e+00    7.428029e-01   9.889716e-03
  2.072303e+00    7.533919e-01   9.950764e-03
  2.074513e+00    7.576774e-01   9.969642e-03
  2.076724e+00    7.515977e-01   9.920049e-03
  2.078934e+00    7.451532e-01   9.868420e-03
  2.081145e+00    7.536724e-01   9.915509e-03
  2.083355e+00    7.501757e-01   9.883263e-03
  2.085566e+00    7.555701e-01   9.909741e-03
  2.087776e+00    7.385195e-01   9.787797e-03
  2.089986e+00    7.200773e-01   9.656137e-03
  2.092197e+00    7.302238e-01   9.715000e-03
  2.094407e+00    7.413309e-01   9.779358e-03
  2.096618e+00    7.425326e-01   9.778331e-03
  2.098828e+00    7.238324e-01   9.645197e-03
  2.101039e+00    7.282351e-01   9.665510e-03
  2.103249e+00    7.411342e-01   9.742006e-03
  2.105460e+00    7.329976e-01   9.679371e-03
  2.107670e+00    7.271249e-01   9.631781e-03
  2.109881e+00    7.322156e-01   9.656243e-03
  2.112091e+00    7.281347e-01   9.620288e-03
  2.114301e+00    7.385023e-01   9.679671e-03
  2.116512e+00    7.381545e-01   9.668520e-03
  2.118722e+00    7.406136e-01   9.675655e-03
  2.120933e+00    7.428951e-01   9.681565e-03
  2.123143e+00    7.248446e-01   9.554285e-03
  2.125354e+00    7.177693e-01   9.498995e-03
  2.127564e+00    7.159641e-01   9.478317e-03
  2.129775e+00    7.260275e-01   9.535907e-03
  2.131985e+00    7.108869e-01   9.426928e-03
  2.134196e+00    7.069425e-01   9.392164e-03
  2.136406e+00    7.312024e-01   9.543127e-03
  2.138617e+00    7.007254e-01   9.333716e-03
  2.140827e+00    6.952869e-01   9.313335e-03
  2.143037e+00    7.084438e-01   9.446547e-03
  2.145248e+00    7.228507e-01   9.564379e-03
  2.147458e+00    7.369578e-01   9.672749e-03
  2.149669e+00    7.314256e-01   9.648475e-03
  2.151879e+00    7.176456e-01   9.566472e-03
  2.154090e+00    7.305803e-01   9.659762e-03
  2.156300e+00    7.106003e-01   9.533426e-03
  2.158511e+00    7.063558e-01   9.510225e-03
  2.160721e+00    7.118313e-01   9.551874e-03
  2.162932e+00    7.061930e-01   9.517748e-03
  2.165142e+00    7.061805e-01   9.520685e-03
  2.167352e+00    6.965379e-01   9.458398e-03
  2.169563e+00    6.905425e-01   9.419532e-03
  2.171773e+00    6.969395e-01   9.465515e-03
  2.173984e+00    7.003421e-01   9.490019e-03
  2.176194e+00    6.993018e-01   9.484177e-03
  2.178405e+00    6.812295e-01   9.361505e-03
  2.180615e+00    7.000192e-01   9.490418e-03
  2.182826e+00    6.891106e-01   9.416869e-03
  2.185036e+00    6.752031e-01   9.321415e-03
  2.187247e+00    6.694936e-01   9.281857e-03
  2.189457e+00    6.824988e-01   9.371166e-03
  2.191667e+00    6.955740e-01   9.460332e-03
  2.193878e+00    6.721235e-01   9.298958e-03
  2.196088e+00    6.736480e-01   9.308787e-03
  2.198299e+00    6.812385e-01   9.360013e-03
  2.200509e+00    6.762684e-01   9.324754e-03
  2.202720e+00    6.719010e-01   9.293447e-03
  2.204930e+00    6.814236e-01   9.357830e-03
  2.207141e+00    6.778957e-01   9.332476e-03
  2.209351e+00    6.863019e-01   9.388243e-03
  2.211562e+00    6.894336e-01   9.408030e-03
  2.213772e+00    6.809645e-01   9.294416e-03
  2.215982e+00    6.911418e-01   9.318889e-03
  2.218193e+00    6.877531e-01   9.266140e-03
  2.220403e+00    6.756341e-01   9.159527e-03
  2.222614e+00    6.635758e-01   9.056641e-03
  2.224824e+00    6.567504e-01   8.990800e-03
  2.227035e+00    6.525179e-01   8.944584e-03
  2.229245e+00    6.787513e-01   9.105565e-03
  2.231456e+00    6.653250e-01   8.999531e-03
  2.233666e+00    6.481714e-01   8.867916e-03
  2.235877e+00    6.452276e-01   8.833751e-03
  2.238087e+00    6.627595e-01   8.939542e-03
  2.240298e+00    6.813998e-01   9.050511e-03
  2.242508e+00    6.624461e-01   8.908693e-03
  2.244718e+00    6.602236e-01   8.878028e-03
  2.246929e+00    6.575591e-01   8.845782e-03
  2.249139e+00    6.693199e-01   8.912145e-03
  2.251350e+00    6.660931e-01   8.878934e-03
  2.253560e+00    6.597973e-01   8.825370e-03
  2.255771e+00    6.648427e-01   8.847647e-03
  2.257981e+00    6.585471e-01   8.794528e-03
  2.260192e+00    6.659063e-01   8.832408e-03
  2.262402e+00    6.642339e-01   8.810469e-03
  2.264613e+00    6.679248e-01   8.824032e-03
  2.266823e+00    6.637735e-01   8.786176e-03
  2.269033e+00    6.700834e-01   8.817390e-03
  2.271244e+00    6.663932e-01   8.782663e-03
  2.273454e+00    6.606449e-01   8.734460e-03
  2.275665e+00    6.463329e-01   8.629144e-03
  2.277875e+00    6.763166e-01   8.816962e-03
  2.280086e+00    6.739009e-01   8.791093e-03
  2.282296e+00    6.756055e-01   8.792671e-03
  2.284507e+00    6.611786e-01   8.688132e-03
  2.286717e+00    6.599888e-01   8.670839e-03
  2.288928e+00    6.638976e-01   8.686544e-03
  2.291138e+00    6.658413e-01   8.689774e-03
  2.293348e+00    6.653562e-01   8.677000e-03
  2.295559e+00    6.474069e-01   8.549913e-03
  2.297769e+00    6.480137e-01   8.544690e-03
  2.299980e+00    6.491810e-01   8.543096e-03
  2.302190e+00    6.515196e-01   8.549355e-03
  2.304401e+00    6.474162e-01   8.513105e-03
  2.306611e+00    6.419347e-01   8.467857e-03
  2.308822e+00    6.543094e-01   8.540684e-03
  2.311032e+00    6.469423e-01   8.486022e-03
  2.313243e+00    6.598052e-01   8.563660e-03
  2.315453e+00    6.436077e-01   8.450358e-03
  2.317663e+00    6.345964e-01   8.381956e-03
  2.319874e+00    6.448282e-01   8.440530e-03
  2.322084e+00    6.303889e-01   8.336637e-03
  2.324295e+00    6.472406e-01   8.439104e-03
  2.326505e+00    6.381329e-01   8.370495e-03
  2.328716e+00    6.436349e-01   8.397966e-03
  2.330926e+00    6.415021e-01   8.375244e-03
  2.333137e+00    6.458616e-01   8.395267e-03
  2.335347e+00    6.351141e-01   8.316289e-03
  2.337558e+00    6.326316e-01   8.291844e-03
  2.339768e+00    6.288226e-01   8.258335e-03
  2.341979e+00    6.408495e-01   8.328561e-03
  2.344189e+00    6.242011e-01   8.211374e-03
  2.346399e+00    6.229159e-01   8.194493e-03
  2.348610e+00    6.332480e-01   8.253734e-03
  2.350820e+00    6.468359e-01   8.333559e-03
  2.353031e+00    6.314089e-01   8.225327e-03
  2.355241e+00    6.287624e-01   8.200030e-03
  2.357452e+00    6.307271e-01   8.204426e-03
  2.359662e+00    6.240309e-01   8.152592e-03
  2.361873e+00    6.249772e-01   8.150562e-03
  2.364083e+00    6.328388e-01   8.193669e-03
  2.366294e+00    6.071668e-01   8.017770e-03
  2.368504e+00    6.230985e-01   8.114224e-03
  2.370714e+00    6.134469e-01   8.043171e-03
  2.372925e+00    6.085296e-01   8.002913e-03
  2.375135e+00    6.333876e-01   8.156615e-03
  2.377346e+00    6.188731e-01   8.054725e-03
  2.379556e+00    6.101337e-01   7.989809e-03
  2.381767e+00    6.249277e-01   8.078211e-03
  2.383977e+00    6.266178e-01   8.081176e-03
  2.386188e+00    6.102341e-01   7.966961e-03
  2.388398e+00    6.203750e-01   8.024910e-03
  2.390609e+00    6.051930e-01   7.918479e-03
  2.392819e+00    6.030296e-01   7.896599e-03
  2.395029e+00    6.207884e-01   8.004351e-03
  2.397240e+00    6.129627e-01   7.945865e-03
  2.399450e+00    6.124886e-01   7.935021e-03
  2.401661e+00    6.010076e-01   7.852661e-03
  2.403871e+00    6.109859e-01   7.909828e-03
  2.406082e+00    6.108379e-01   7.901442e-03
  2.408292e+00    6.080539e-01   7.875624e-03
  2.410503e+00    6.038446e-01   7.840850e-03
  2.412713e+00    6.151592e-01   7.906130e-03
  2.414924e+00    6.058713e-01   7.838735e-03
  2.417134e+00    5.997008e-01   7.791120e-03
  2.419344e+00    5.887361e-01   7.712232e-03
  2.421555e+00    5.864640e-01   7.689930e-03
  2.423765e+00    5.903347e-01   7.707915e-03
  2.425976e+00    5.922104e-01   7.712412e-03
  2.428186e+00    5.947832e-01   7.721928e-03
  2.430397e+00    6.067278e-01   7.791554e-03
  2.432607e+00    5.880199e-01   7.663269e-03
  2.434818e+00    5.871745e-01   7.650264e-03
  2.437028e+00    5.862101e-01   7.636862e-03
  2.439239e+00    6.038557e-01   7.743238e-03
  2.441449e+00    5.915505e-01   7.656755e-03
  2.443659e+00    5.806471e-01   7.578566e-03
  2.445870e+00    5.841570e-01   7.613635e-03
  2.448080e+00    5.798412e-01   7.620160e-03
  2.450291e+00    5.816056e-01   7.648427e-03
  2.452501e+00    5.684527e-01   7.572532e-03
  2.454712e+00    5.608492e-01   7.530051e-03
  2.456922e+00    5.629811e-01   7.550918e-03
  2.459133e+00    5.629713e-01   7.556269e-03
  2.461343e+00    5.641743e-01   7.568679e-03
  2.463554e+00    5.579788e-01   7.530453e-03
  2.465764e+00    5.716164e-01   7.625089e-03
  2.467975e+00    5.564212e-01   7.525344e-03
  2.470185e+00    5.460914e-01   7.457383e-03
  2.472395e+00    5.476104e-01   7.468959e-03
  2.474606e+00    5.382152e-01   7.406164e-03
  2.476816e+00    5.417252e-01   7.430986e-03
  2.479027e+00    5.534343e-01   7.511706e-03
  2.481237e+00    5.511623e-01   7.496583e-03
  2.483448e+00    5.378467e-01   7.405754e-03
  2.485658e+00    5.445242e-01   7.451440e-03
  2.487869e+00    5.440914e-01   7.448522e-03
  2.490079e+00    5.428711e-01   7.439644e-03
  2.492290e+00    5.371720e-01   7.400061e-03
  2.494500e+00    5.322768e-01   7.365535e-03
  2.496710e+00    5.336322e-01   7.374204e-03
  2.498921e+00    5.362691e-01   7.391418e-03
  2.501131e+00    5.279385e-01   7.332845e-03
  2.503342e+00    5.314156e-01   7.355673e-03
  2.505552e+00    5.426362e-01   7.431786e-03
  2.507763e+00    5.394737e-01   7.408682e-03
  2.509973e+00    5.218626e-01   7.285365e-03
  2.512184e+00    5.105100e-01   7.204089e-03
  2.514394e+00    5.332735e-01   7.353520e-03
  2.516605e+00    5.253610e-01   7.251773e-03
  2.518815e+00    5.273957e-01   7.237428e-03
  2.521025e+00    5.397924e-01   7.300748e-03
  2.523236e+00    5.314708e-01   7.226181e-03
  2.525446e+00    5.245933e-01   7.163677e-03
  2.527657e+00    5.203454e-01   7.120081e-03
  2.529867e+00    5.277096e-01   7.156061e-03
  2.532078e+00    5.270194e-01   7.136318e-03
  2.534288e+00    5.376585e-01   7.193933e-03
  2.536499e+00    5.219615e-01   7.076245e-03
  2.538709e+00    5.178627e-01   7.037473e-03
  2.540920e+00    5.131665e-01   6.994963e-03
  2.543130e+00    5.065662e-01   6.939635e-03
  2.545340e+00    5.194598e-01   7.017372e-03
  2.547551e+00    5.178874e-01   6.996852e-03
  2.549761e+00    5.222360e-01   7.016593e-03
  2.551972e+00    5.095339e-01   6.921486e-03
  2.554182e+00    5.187993e-01   6.974981e-03
  2.556393e+00    5.266265e-01   7.018247e-03
  2.558603e+00    5.191656e-01   6.959309e-03
  2.560814e+00    5.185670e-01   6.946594e-03
  2.563024e+00    5.237978e-01   6.972924e-03
  2.565235e+00    5.203629e-01   6.940512e-03
  2.567445e+00    5.159361e-01   6.901400e-03
  2.569656e+00    5.136326e-01   6.876269e-03
  2.571866e+00    5.078005e-01   6.827862e-03
  2.574076e+00    5.098863e-01   6.832643e-03
  2.576287e+00    5.105444e-01   6.828788e-03
  2.578497e+00    5.122216e-01   6.832171e-03
  2.580708e+00    5.109687e-01   6.815759e-03
  2.582918e+00    5.027455e-01   6.753044e-03
  2.585129e+00    5.123699e-01   6.809619e-03
  2.587339e+00    5.018803e-01   6.731967e-03
  2.589550e+00    5.053444e-01   6.747660e-03
  2.591760e+00    5.175228e-01   6.820718e-03
  2.593971e+00    5.147767e-01   6.795038e-03
  2.596181e+00    5.161624e-01   6.797940e-03
  2.598391e+00    5.076958e-01   6.736771e-03
  2.600602e+00    5.085335e-01   6.736423e-03
  2.602812e+00    5.117095e-01   6.749869e-03
  2.605023e+00    5.076393e-01   6.715819e-03
  2.607233e+00    5.068386e-01   6.703385e-03
  2.609444e+00    5.010878e-01   6.658060e-03
  2.611654e+00    5.080371e-01   6.696743e-03
  2.613865e+00    4.978637e-01   6.622373e-03
  2.616075e+00    5.045950e-01   6.659857e-03
  2.618286e+00    5.189292e-01   6.746715e-03
  2.620496e+00    5.037910e-01   6.640880e-03
  2.622706e+00    5.118290e-01   6.687871e-03
  2.624917e+00    5.007784e-01   6.609454e-03
  2.627127e+00    5.011626e-01   6.606265e-03
  2.629338e+00    4.964601e-01   6.569257e-03
  2.631548e+00    5.161951e-01   6.692309e-03
  2.633759e+00    5.076562e-01   6.629543e-03
  2.635969e+00    5.210294e-01   6.709477e-03
  2.638180e+00    5.071449e-01   6.612459e-03
  2.640390e+00    5.049080e-01   6.591239e-03
  2.642601e+00    4.952323e-01   6.521135e-03
  2.644811e+00    5.083298e-01   6.599690e-03
  2.647021e+00    5.105229e-01   6.607255e-03
  2.649232e+00    5.090584e-01   6.591007e-03
  2.651442e+00    5.117463e-01   6.601803e-03
  2.653653e+00    5.050730e-01   6.551774e-03
  2.655863e+00    4.954424e-01   6.482360e-03
  2.658074e+00    4.945225e-01   6.469736e-03
  2.660284e+00    4.958736e-01   6.472220e-03
  2.662495e+00    4.948677e-01   6.458931e-03
  2.664705e+00    4.863254e-01   6.396432e-03
  2.666916e+00    4.981395e-01   6.467185e-03
  2.669126e+00    4.795932e-01   6.339305e-03
  2.671337e+00    4.929181e-01   6.420197e-03
  2.673547e+00    4.981546e-01   6.447822e-03
  2.675757e+00    4.932851e-01   6.409780e-03
  2.677968e+00    4.839607e-01   6.342468e-03
  2.680178e+00    4.958151e-01   6.413236e-03
  2.682389e+00    5.025964e-01   6.450512e-03
  2.684599e+00    4.942662e-01   6.390642e-03
  2.686810e+00    4.823518e-01   6.306589e-03
  2.689020e+00    4.965901e-01   6.392681e-03
  2.691231e+00    4.884737e-01   6.333951e-03
  2.693441e+00    4.814908e-01   6.282429e-03
  2.695652e+00    4.697569e-01   6.199034e-03
  2.697862e+00    4.891615e-01   6.319394e-03
  2.700072e+00    4.909332e-01   6.324783e-03
  2.702283e+00    4.864539e-01   6.289643e-03
  2.704493e+00    4.932682e-01   6.327230e-03
  2.706704e+00    4.924369e-01   6.315468e-03
  2.708914e+00    4.833943e-01   6.251293e-03
  2.711125e+00    4.829873e-01   6.242413e-03
  2.713335e+00    4.974246e-01   6.328892e-03
  2.715546e+00    4.933556e-01   6.296449e-03
  2.717756e+00    4.913206e-01   6.277531e-03
  2.719967e+00    4.823886e-01   6.214028e-03
  2.722177e+00    4.824120e-01   6.208064e-03
  2.724387e+00    4.909525e-01   6.256629e-03
  2.726598e+00    4.891340e-01   6.238971e-03
  2.728808e+00    4.816838e-01   6.185134e-03
  2.731019e+00    4.795072e-01   6.165056e-03
  2.733229e+00    4.854055e-01   6.197037e-03
  2.735440e+00    4.797270e-01   6.154459e-03
  2.737650e+00    4.815883e-01   6.160368e-03
  2.739861e+00    4.836595e-01   6.167524e-03
  2.742071e+00    4.896652e-01   6.199944e-03
  2.744282e+00    4.774863e-01   6.116110e-03
  2.746492e+00    4.883695e-01   6.179362e-03
  2.748702e+00    4.833983e-01   6.141917e-03
  2.750913e+00    4.770651e-01   6.095793e-03
  2.753123e+00    4.838506e-01   6.132836e-03
  2.755334e+00    4.956382e-01   6.200936e-03
  2.757544e+00    4.892628e-01   6.155149e-03
  2.759755e+00    4.832405e-01   6.111240e-03
  2.761965e+00    4.831285e-01   6.104529e-03
  2.764176e+00    4.632488e-01   5.971745e-03
  2.766386e+00    4.605939e-01   5.948917e-03
  2.768597e+00    4.674481e-01   5.987239e-03
  2.770807e+00    4.717101e-01   6.008631e-03
  2.773017e+00    4.745548e-01   6.020794e-03
  2.775228e+00    4.678242e-01   5.972209e-03
  2.777438e+00    4.693350e-01   5.976122e-03
  2.779649e+00    4.727523e-01   5.991945e-03
  2.781859e+00    4.839312e-01   6.056604e-03
  2.784070e+00    4.695349e-01   5.960004e-03
  2.786280e+00    4.855945e-01   6.055262e-03
  2.788491e+00    4.802556e-01   6.016025e-03
  2.790701e+00    4.734826e-01   5.967824e-03
  2.792912e+00    4.739882e-01   5.965056e-03
  2.795122e+00    4.761812e-01   5.973122e-03
  2.797333e+00    4.699477e-01   5.928354e-03
  2.799543e+00    4.819500e-01   5.997680e-03
  2.801753e+00    4.783891e-01   5.969616e-03
  2.803964e+00    4.713528e-01   5.919915e-03
  2.806174e+00    4.655667e-01   5.877371e-03
  2.808385e+00    4.843791e-01   5.988087e-03
  2.810595e+00    4.728088e-01   5.909276e-03
  2.812806e+00    4.859529e-01   5.984167e-03
  2.815016e+00    4.753256e-01   5.913632e-03
  2.817227e+00    4.750470e-01   5.937833e-03
  2.819437e+00    4.854017e-01   6.013425e-03
  2.821648e+00    4.702713e-01   5.921254e-03
  2.823858e+00    4.610215e-01   5.867985e-03
  2.826068e+00    4.616507e-01   5.876908e-03
  2.828279e+00    4.768669e-01   5.977046e-03
  2.830489e+00    4.609956e-01   5.880024e-03
  2.832700e+00    4.704763e-01   5.942742e-03
  2.834910e+00    4.645746e-01   5.907384e-03
  2.837121e+00    4.704583e-01   5.946407e-03
  2.839331e+00    4.780023e-01   5.995107e-03
  2.841542e+00    4.756773e-01   5.981549e-03
  2.843752e+00    4.582199e-01   5.871549e-03
  2.845963e+00    4.581366e-01   5.871365e-03
  2.848173e+00    4.720103e-01   5.959717e-03
  2.850383e+00    4.737546e-01   5.971006e-03
  2.852594e+00    4.670485e-01   5.928531e-03
  2.854804e+00    4.618090e-01   5.894670e-03
  2.857015e+00    4.588878e-01   5.875573e-03
  2.859225e+00    4.589727e-01   5.875860e-03
  2.861436e+00    4.658016e-01   5.918760e-03
  2.863646e+00    4.571976e-01   5.863879e-03
  2.865857e+00    4.748719e-01   5.976483e-03
  2.868067e+00    4.686888e-01   5.937694e-03
  2.870278e+00    4.577950e-01   5.867904e-03
  2.872488e+00    4.642842e-01   5.908197e-03
  2.874698e+00    4.694405e-01   5.939867e-03
  2.876909e+00    4.502944e-01   5.816176e-03
  2.879119e+00    4.639017e-01   5.901751e-03
  2.881330e+00    4.709141e-01   5.944734e-03
  2.883540e+00    4.585154e-01   5.864552e-03
  2.885751e+00    4.619650e-01   5.884937e-03
  2.887961e+00    4.639493e-01   5.895663e-03
  2.890172e+00    4.678414e-01   5.918740e-03
  2.892382e+00    4.616247e-01   5.877467e-03
  2.894593e+00    4.622043e-01   5.879338e-03
  2.896803e+00    4.699987e-01   5.926713e-03
  2.899014e+00    4.677222e-01   5.910411e-03
  2.901224e+00    4.437542e-01   5.755024e-03
  2.903434e+00    4.611188e-01   5.864595e-03
  2.905645e+00    4.667560e-01   5.898101e-03
  2.907855e+00    4.510678e-01   5.796052e-03
  2.910066e+00    4.556181e-01   5.823134e-03
  2.912276e+00    4.555128e-01   5.820351e-03
  2.914487e+00    4.637699e-01   5.870393e-03
  2.916697e+00    4.623433e-01   5.859136e-03
  2.918908e+00    4.508648e-01   5.783956e-03
  2.921118e+00    4.599611e-01   5.839299e-03
  2.923329e+00    4.665101e-01   5.878403e-03
  2.925539e+00    4.655446e-01   5.870011e-03
  2.927749e+00    4.519660e-01   5.781462e-03
  2.929960e+00    4.530393e-01   5.785563e-03
  2.932170e+00    4.618860e-01   5.839438e-03
  2.934381e+00    4.487228e-01   5.753223e-03
  2.936591e+00    4.482902e-01   5.747873e-03
  2.938802e+00    4.569511e-01   5.800421e-03
  2.941012e+00    4.658577e-01   5.854329e-03
  2.943223e+00    4.584005e-01   5.804573e-03
  2.945433e+00    4.552127e-01   5.780621e-03
  2.947644e+00    4.544170e-01   5.771441e-03
  2.949854e+00    4.550353e-01   5.771094e-03
  2.952064e+00    4.630055e-01   5.817150e-03
  2.954275e+00    4.534610e-01   5.752501e-03
  2.956485e+00    4.605117e-01   5.792806e-03
  2.958696e+00    4.559406e-01   5.759626e-03
  2.960906e+00    4.517342e-01   5.728825e-03
  2.963117e+00    4.448846e-01   5.680783e-03
  2.965327e+00    4.564189e-01   5.750051e-03
  2.967538e+00    4.533170e-01   5.727575e-03
  2.969748e+00    4.427877e-01   5.657868e-03
  2.971959e+00    4.603036e-01   5.765547e-03
  2.974169e+00    4.542117e-01   5.724682e-03
  2.976379e+00    4.500726e-01   5.695638e-03
  2.978590e+00    4.519940e-01   5.704639e-03
  2.980800e+00    4.646471e-01   5.781120e-03
  2.983011e+00    4.566250e-01   5.728192e-03
  2.985221e+00    4.628579e-01   5.763958e-03
  2.987432e+00    4.677317e-01   5.791080e-03
  2.989642e+00    4.458132e-01   5.651168e-03
  2.991853e+00    4.503146e-01   5.676349e-03
  2.994063e+00    4.573692e-01   5.717719e-03
  2.996274e+00    4.561089e-01   5.706652e-03
  2.998484e+00    4.545131e-01   5.693946e-03
  3.000694e+00    4.562370e-01   5.701284e-03
  3.002905e+00    4.609808e-01   5.727878e-03
  3.005115e+00    4.493672e-01   5.652311e-03
  3.007326e+00    4.526832e-01   5.669965e-03
  3.009536e+00    4.301696e-01   5.524006e-03
  3.011747e+00    4.520962e-01   5.660120e-03
  3.013957e+00    4.459182e-01   5.618169e-03
  3.016168e+00    4.528466e-01   5.658379e-03
  3.018378e+00    4.635773e-01   5.721962e-03
  3.020589e+00    4.485364e-01   5.625175e-03
  3.022799e+00    4.529377e-01   5.649530e-03
  3.025010e+00    4.461993e-01   5.604137e-03
  3.027220e+00    4.517851e-01   5.636005e-03
  3.029430e+00    4.597256e-01   5.682033e-03
  3.031641e+00    4.581882e-01   5.669370e-03
  3.033851e+00    4.527125e-01   5.631876e-03
  3.036062e+00    4.488022e-01   5.604730e-03
  3.038272e+00    4.508960e-01   5.614202e-03
  3.040483e+00    4.517983e-01   5.616604e-03
  3.042693e+00    4.468767e-01   5.582695e-03
  3.044904e+00    4.285468e-01   5.463053e-03
  3.047114e+00    4.602339e-01   5.656566e-03
  3.049325e+00    4.585127e-01   5.641568e-03
  3.051535e+00    4.462529e-01   5.561254e-03
  3.053745e+00    4.439200e-01   5.541991e-03
  3.055956e+00    4.567754e-01   5.617045e-03
  3.058166e+00    4.526446e-01   5.587329e-03
  3.060377e+00    4.417656e-01   5.515038e-03
  3.062587e+00    4.518332e-01   5.572914e-03
  3.064798e+00    4.283289e-01   5.421867e-03
  3.067008e+00    4.393169e-01   5.486276e-03
  3.069219e+00    4.563784e-01   5.587255e-03
  3.071429e+00    4.445439e-01   5.510865e-03
  3.073640e+00    4.389825e-01   5.472973e-03
  3.075850e+00    4.364817e-01   5.453845e-03
  3.078060e+00    4.471439e-01   5.516937e-03
  3.080271e+00    4.554400e-01   5.564394e-03
  3.082481e+00    4.505492e-01   5.530978e-03
  3.084692e+00    4.394239e-01   5.458934e-03
  3.086902e+00    4.387445e-01   5.451481e-03
  3.089113e+00    4.392798e-01   5.451293e-03
  3.091323e+00    4.352979e-01   5.423196e-03
  3.093534e+00    4.291246e-01   5.381293e-03
  3.095744e+00    4.422770e-01   5.459777e-03
  3.097955e+00    4.431826e-01   5.461848e-03
  3.100165e+00    4.497589e-01   5.498868e-03
  3.102375e+00    4.515070e-01   5.506122e-03
  3.104586e+00    4.346271e-01   5.398761e-03
  3.106796e+00    4.397819e-01   5.427186e-03
  3.109007e+00    4.573869e-01   5.531503e-03
  3.111217e+00    4.430240e-01   5.440268e-03
  3.113428e+00    4.581432e-01   5.528864e-03
  3.115638e+00    4.444775e-01   5.442557e-03
  3.117849e+00    4.546967e-01   5.501001e-03
  3.120059e+00    4.360294e-01   5.383469e-03
  3.122270e+00    4.417918e-01   5.415664e-03
  3.124480e+00    4.436285e-01   5.423253e-03
  3.126691e+00    4.533311e-01   5.478617e-03
  3.128901e+00    4.531469e-01   5.474369e-03
  3.131111e+00    4.484627e-01   5.442143e-03
  3.133322e+00    4.529927e-01   5.466076e-03
  3.135532e+00    4.376421e-01   5.369300e-03
  3.137743e+00    4.451839e-01   5.411854e-03
  3.139953e+00    4.417819e-01   5.387481e-03
  3.142164e+00    4.315361e-01   5.336509e-03
  3.144374e+00    4.402401e-01   5.418363e-03
  3.146585e+00    4.486722e-01   5.484700e-03
  3.148795e+00    4.347624e-01   5.409693e-03
  3.151006e+00    4.429755e-01   5.469089e-03
  3.153216e+00    4.516633e-01   5.529693e-03
  3.155426e+00    4.458633e-01   5.500416e-03
  3.157637e+00    4.508244e-01   5.536521e-03
  3.159847e+00    4.427035e-01   5.491302e-03
  3.162058e+00    4.464392e-01   5.518903e-03
  3.164268e+00    4.435955e-01   5.505373e-03
  3.166479e+00    4.359365e-01   5.461260e-03
  3.168689e+00    4.484751e-01   5.542667e-03
  3.170900e+00    4.376147e-01   5.478295e-03
  3.173110e+00    4.385888e-01   5.487267e-03
  3.175321e+00    4.389938e-01   5.492287e-03
  3.177531e+00    4.330671e-01   5.457822e-03
  3.179741e+00    4.335765e-01   5.463087e-03
  3.181952e+00    4.268461e-01   5.422600e-03
  3.184162e+00    4.418147e-01   5.519061e-03
  3.186373e+00    4.386777e-01   5.501053e-03
  3.188583e+00    4.283156e-01   5.437450e-03
  3.190794e+00    4.391504e-01   5.507546e-03
  3.193004e+00    4.495261e-01   5.573492e-03
  3.195215e+00    4.407555e-01   5.520384e-03
  3.197425e+00    4.273002e-01   5.436659e-03
  3.199636e+00    4.367453e-01   5.495625e-03
  3.201846e+00    4.375846e-01   5.500332e-03
  3.204056e+00    4.300134e-01   5.453401e-03
  3.206267e+00    4.411501e-01   5.524420e-03
  3.208477e+00    4.378655e-01   5.504759e-03
  3.210688e+00    4.364072e-01   5.496428e-03
  3.212898e+00    4.309808e-01   5.462707e-03
  3.215109e+00    4.349061e-01   5.488305e-03
  3.217319e+00    4.247130e-01   5.424228e-03
  3.219530e+00    4.443486e-01   5.548591e-03
  3.221740e+00    4.301713e-01   5.459930e-03
  3.223951e+00    4.347977e-01   5.489673e-03
  3.226161e+00    4.231603e-01   5.415915e-03
  3.228372e+00    4.376657e-01   5.508469e-03
  3.230582e+00    4.353492e-01   5.494024e-03
  3.232792e+00    4.395842e-01   5.520912e-03
  3.235003e+00    4.200023e-01   5.396780e-03
  3.237213e+00    4.373138e-01   5.506989e-03
  3.239424e+00    4.246969e-01   5.426964e-03
  3.241634e+00    4.211074e-01   5.404100e-03
  3.243845e+00    4.303136e-01   5.462908e-03
  3.246055e+00    4.343936e-01   5.488500e-03
  3.248266e+00    4.266984e-01   5.439853e-03
  3.250476e+00    4.280177e-01   5.447960e-03
  3.252687e+00    4.103763e-01   5.334433e-03
  3.254897e+00    4.211495e-01   5.403865e-03
  3.257107e+00    4.210560e-01   5.402968e-03
  3.259318e+00    4.284438e-01   5.449889e-03
  3.261528e+00    4.364763e-01   5.500656e-03
  3.263739e+00    4.276939e-01   5.444448e-03
  3.265949e+00    4.209044e-01   5.400928e-03
  3.268160e+00    4.278844e-01   5.445126e-03
  3.270370e+00    4.272679e-01   5.440691e-03
  3.272581e+00    4.343372e-01   5.485216e-03
  3.274791e+00    4.321482e-01   5.470878e-03
  3.277002e+00    4.289316e-01   5.449888e-03
  3.279212e+00    4.200253e-01   5.392639e-03
  3.281422e+00    4.348922e-01   5.486657e-03
  3.283633e+00    4.258123e-01   5.428400e-03
  3.285843e+00    4.378502e-01   5.504261e-03
  3.288054e+00    4.148084e-01   5.356541e-03
  3.290264e+00    4.218619e-01   5.401583e-03
  3.292475e+00    4.184932e-01   5.379138e-03
  3.294685e+00    4.275681e-01   5.436502e-03
  3.296896e+00    4.282153e-01   5.439872e-03
  3.299106e+00    4.247265e-01   5.417095e-03
  3.301317e+00    4.374364e-01   5.496507e-03
  3.303527e+00    4.314759e-01   5.458485e-03
  3.305737e+00    4.181088e-01   5.372213e-03
  3.307948e+00    4.237235e-01   5.407488e-03
  3.310158e+00    4.261584e-01   5.422155e-03
  3.312369e+00    4.117303e-01   5.328712e-03
  3.314579e+00    4.178112e-01   5.367005e-03
  3.316790e+00    4.200180e-01   5.380445e-03
  3.319000e+00    4.283165e-01   5.432165e-03
  3.321211e+00    4.272094e-01   5.424506e-03
  3.323421e+00    4.321772e-01   5.454753e-03
  3.325632e+00    4.272361e-01   5.422600e-03
  3.327842e+00    4.097496e-01   5.309560e-03
  3.330052e+00    4.194964e-01   5.371241e-03
  3.332263e+00    4.267886e-01   5.416736e-03
  3.334473e+00    4.310166e-01   5.442556e-03
  3.336684e+00    4.324443e-01   5.450300e-03
  3.338894e+00    4.225526e-01   5.386779e-03
  3.341105e+00    4.065469e-01   5.282550e-03
  3.343315e+00    4.279911e-01   5.418936e-03
  3.345526e+00    4.310076e-01   5.437097e-03
  3.347736e+00    4.130782e-01   5.321418e-03
  3.349947e+00    4.159384e-01   5.338863e-03
  3.352157e+00    4.187416e-01   5.355670e-03
  3.354368e+00    4.115703e-01   5.308322e-03
  3.356578e+00    4.160504e-01   5.336102e-03
  3.358788e+00    4.212834e-01   5.368248e-03
  3.360999e+00    4.070217e-01   5.275347e-03
  3.363209e+00    4.342911e-01   5.448173e-03
  3.365420e+00    4.187011e-01   5.347996e-03
  3.367630e+00    4.133335e-01   5.312587e-03
  3.369841e+00    4.094274e-01   5.285997e-03
  3.372051e+00    4.177521e-01   5.337493e-03
  3.374262e+00    4.009924e-01   5.226949e-03
  3.376472e+00    4.101116e-01   5.283603e-03
  3.378683e+00    4.080288e-01   5.267689e-03
  3.380893e+00    4.115628e-01   5.288137e-03
  3.383103e+00    4.197013e-01   5.337432e-03
  3.385314e+00    4.170187e-01   5.318140e-03
  3.387524e+00    4.079501e-01   5.257281e-03
  3.389735e+00    4.082343e-01   5.256494e-03
  3.391945e+00    4.024636e-01   5.215577e-03
  3.394156e+00    4.101535e-01   5.260956e-03
  3.396366e+00    4.145023e-01   5.285375e-03
  3.398577e+00    4.007405e-01   5.193878e-03
  3.400787e+00    3.863177e-01   5.111123e-03
  3.402998e+00    3.884038e-01   5.161937e-03
  3.405208e+00    3.976066e-01   5.243180e-03
  3.407418e+00    3.907699e-01   5.213490e-03
  3.409629e+00    3.962130e-01   5.263571e-03
  3.411839e+00    4.025199e-01   5.317102e-03
  3.414050e+00    4.078284e-01   5.363190e-03
  3.416260e+00    4.117782e-01   5.398980e-03
  3.418471e+00    3.892763e-01   5.258734e-03
  3.420681e+00    3.818319e-01   5.216602e-03
  3.422892e+00    3.821293e-01   5.226516e-03
  3.425102e+00    3.875968e-01   5.271580e-03
  3.427313e+00    3.843859e-01   5.256867e-03
  3.429523e+00    3.978449e-01   5.355247e-03
  3.431733e+00    3.825332e-01   5.257835e-03
  3.433944e+00    3.713695e-01   5.186921e-03
  3.436154e+00    3.755127e-01   5.221930e-03
  3.438365e+00    3.739661e-01   5.217054e-03
  3.440575e+00    3.794761e-01   5.261252e-03
  3.442786e+00    3.652453e-01   5.167186e-03
  3.444996e+00    3.779857e-01   5.262019e-03
  3.447207e+00    3.583273e-01   5.128543e-03
  3.449417e+00    3.663887e-01   5.226414e-03
  3.451628e+00    3.735032e-01   5.306561e-03
  3.453838e+00    3.748994e-01   5.337846e-03
  3.456049e+00    3.724677e-01   5.344583e-03
  3.458259e+00    3.827340e-01   5.440133e-03
  3.460469e+00    3.702370e-01   5.370506e-03
  3.462680e+00    3.658493e-01   5.357629e-03
  3.464890e+00    3.704397e-01   5.408999e-03
  3.467101e+00    3.863753e-01   5.542053e-03
  3.469311e+00    3.896507e-01   5.582449e-03
  3.471522e+00    3.874949e-01   5.583677e-03
  3.473732e+00    4.019249e-01   5.703114e-03
  3.475943e+00    3.938996e-01   5.661830e-03
  3.478153e+00    4.063355e-01   5.766297e-03
  3.480364e+00    4.145350e-01   5.839755e-03
  3.482574e+00    4.258358e-01   5.934552e-03
  3.484784e+00    4.145077e-01   5.870048e-03
  3.486995e+00    4.293188e-01   5.989316e-03
  3.489205e+00    4.355981e-01   6.047864e-03
  3.491416e+00    4.333327e-01   6.047120e-03
  3.493626e+00    4.418786e-01   6.121184e-03
  3.495837e+00    4.461100e-01   6.165244e-03
  3.498047e+00    4.499344e-01   6.206206e-03
  3.500258e+00    4.698288e-01   6.356801e-03
  3.502468e+00    4.566350e-01   6.281383e-03
  3.504679e+00    4.523875e-01   6.266434e-03
  3.506889e+00    4.685166e-01   6.391637e-03
  3.509099e+00    5.010098e-01   6.624380e-03
  3.511310e+00    4.794312e-01   6.494697e-03
  3.513520e+00    4.707083e-01   6.449553e-03
  3.515731e+00    4.954659e-01   6.631491e-03
  3.517941e+00    5.123036e-01   6.757958e-03
  3.520152e+00    5.000308e-01   6.690897e-03
  3.522362e+00    5.114070e-01   6.781224e-03
  3.524573e+00    5.050451e-01   6.753160e-03
  3.526783e+00    5.250412e-01   6.899101e-03
  3.528994e+00    5.238909e-01   6.903885e-03
  3.531204e+00    5.163225e-01   6.866197e-03
  3.533414e+00    5.373513e-01   7.016846e-03
  3.535625e+00    5.283005e-01   6.969904e-03
  3.537835e+00    5.190744e-01   6.920710e-03
  3.540046e+00    5.226682e-01   6.953464e-03
  3.542256e+00    5.314139e-01   7.018887e-03
  3.544467e+00    5.346864e-01   7.048078e-03
  3.546677e+00    5.482777e-01   7.144755e-03
  3.548888e+00    5.366971e-01   7.076420e-03
  3.551098e+00    5.216284e-01   6.983555e-03
  3.553309e+00    5.224523e-01   6.997120e-03
  3.555519e+00    5.208057e-01   6.997226e-03
  3.557729e+00    5.310501e-01   7.077366e-03
  3.559940e+00    5.338795e-01   7.107747e-03
  3.562150e+00    5.234409e-01   7.049468e-03
  3.564361e+00    5.175334e-01   7.022662e-03
  3.566571e+00    5.388035e-01   7.179402e-03
  3.568782e+00    5.202834e-01   7.068836e-03
  3.570992e+00    5.371973e-01   7.196568e-03
  3.573203e+00    5.439888e-01   7.256175e-03
  3.575413e+00    5.421031e-01   7.257476e-03
  3.577624e+00    5.339116e-01   7.216498e-03
  3.579834e+00    5.388975e-01   7.264036e-03
  3.582045e+00    5.464272e-01   7.328765e-03
  3.584255e+00    5.465852e-01   7.344057e-03
  3.586465e+00    5.435555e-01   7.337682e-03
  3.588676e+00    5.452411e-01   7.363359e-03
  3.590886e+00    5.314640e-01   7.283418e-03
  3.593097e+00    5.242398e-01   7.248065e-03
  3.595307e+00    5.332344e-01   7.323855e-03
  3.597518e+00    5.419275e-01   7.397640e-03
  3.599728e+00    5.449175e-01   7.432226e-03
  3.601939e+00    5.419418e-01   7.426061e-03
  3.604149e+00    5.524020e-01   7.512015e-03
  3.606360e+00    5.380120e-01   7.427711e-03
  3.608570e+00    5.185961e-01   7.306390e-03
  3.610780e+00    5.456187e-01   7.505481e-03
  3.612991e+00    5.569144e-01   7.593002e-03
  3.615201e+00    5.450191e-01   7.521355e-03
  3.617412e+00    5.383338e-01   7.482427e-03
  3.619622e+00    5.515587e-01   7.579769e-03
  3.621833e+00    5.368757e-01   7.484972e-03
  3.624043e+00    5.303484e-01   7.448754e-03
  3.626254e+00    5.607921e-01   7.669520e-03
  3.628464e+00    5.466992e-01   7.583666e-03
  3.630675e+00    5.306107e-01   7.485302e-03
  3.632885e+00    5.266199e-01   7.471454e-03
  3.635095e+00    5.245945e-01   7.471341e-03
  3.637306e+00    5.416822e-01   7.606524e-03
  3.639516e+00    5.303126e-01   7.540757e-03
  3.641727e+00    5.529560e-01   7.714892e-03
  3.643937e+00    5.420111e-01   7.652866e-03
  3.646148e+00    5.284004e-01   7.570683e-03
  3.648358e+00    5.457432e-01   7.708929e-03
  3.650569e+00    5.531912e-01   7.776419e-03
  3.652779e+00    5.504966e-01   7.772419e-03
  3.654990e+00    5.524918e-01   7.801720e-03
  3.657200e+00    5.245583e-01   7.616686e-03
  3.659410e+00    5.377773e-01   7.727094e-03
  3.661621e+00    5.280160e-01   7.671718e-03
  3.663831e+00    5.047460e-01   7.515513e-03
  3.666042e+00    5.238892e-01   7.671706e-03
  3.668252e+00    5.369173e-01   7.781851e-03
  3.670463e+00    5.306278e-01   7.751359e-03
  3.672673e+00    5.414895e-01   7.845874e-03
  3.674884e+00    5.334651e-01   7.802978e-03
  3.677094e+00    5.167983e-01   7.695423e-03
  3.679305e+00    5.157385e-01   7.702838e-03
  3.681515e+00    5.472090e-01   7.950255e-03
  3.683726e+00    5.267650e-01   7.816114e-03
  3.685936e+00    5.194342e-01   7.777082e-03
  3.688146e+00    5.082607e-01   7.708472e-03
  3.690357e+00    5.226852e-01   7.832935e-03
  3.692567e+00    5.240320e-01   7.859100e-03
  3.694778e+00    5.295789e-01   7.916672e-03
  3.696988e+00    5.359851e-01   7.980591e-03
  3.699199e+00    5.146646e-01   7.836286e-03
  3.701409e+00    5.377325e-01   8.026527e-03
  3.703620e+00    5.525696e-01   8.153263e-03
  3.705830e+00    5.243878e-01   7.959081e-03
  3.708041e+00    5.082493e-01   7.851951e-03
  3.710251e+00    5.314605e-01   8.046054e-03
  3.712461e+00    5.334703e-01   8.078200e-03
  3.714672e+00    5.299901e-01   8.068681e-03
  3.716882e+00    5.120911e-01   7.947826e-03
  3.719093e+00    4.971025e-01   7.847386e-03
  3.721303e+00    5.088853e-01   7.956615e-03
  3.723514e+00    5.203975e-01   8.063423e-03
  3.725724e+00    5.079206e-01   7.983136e-03
  3.727935e+00    5.043226e-01   7.972034e-03
  3.730145e+00    5.376226e-01   8.248682e-03
  3.732356e+00    5.328991e-01   8.230246e-03
  3.734566e+00    5.367426e-01   8.277672e-03
  3.736776e+00    5.222065e-01   8.182799e-03
  3.738987e+00    5.300629e-01   8.262069e-03
  3.741197e+00    5.129697e-01   8.145804e-03
  3.743408e+00    5.140139e-01   8.172119e-03
  3.745618e+00    5.226175e-01   8.258705e-03
  3.747829e+00    5.219485e-01   8.271737e-03
  3.750039e+00    5.074122e-01   8.174011e-03
  3.752250e+00    5.210469e-01   8.301790e-03
  3.754460e+00    4.956490e-01   8.115167e-03
  3.756671e+00    5.128424e-01   8.273619e-03
  3.758881e+00    5.157354e-01   8.315645e-03
  3.761091e+00    5.228192e-01   8.392014e-03
  3.763302e+00    5.071732e-01   8.284540e-03
  3.765512e+00    4.956551e-01   8.208945e-03
  3.767723e+00    5.042885e-01   8.299419e-03
  3.769933e+00    5.105745e-01   8.370378e-03
  3.772144e+00    5.236339e-01   8.496709e-03
  3.774354e+00    5.220822e-01   8.504266e-03
  3.776565e+00    4.986893e-01   8.331269e-03
  3.778775e+00    5.117977e-01   8.460159e-03
  3.780986e+00    5.003902e-01   8.385577e-03
  3.783196e+00    4.963141e-01   8.371463e-03
  3.785407e+00    4.983905e-01   8.409272e-03
  3.787617e+00    4.890720e-01   8.350741e-03
  3.789827e+00    5.138986e-01   8.580838e-03
  3.792038e+00    4.982091e-01   8.469649e-03
  3.794248e+00    4.981082e-01   8.489843e-03
  3.796459e+00    5.001560e-01   8.528588e-03
  3.798669e+00    5.191751e-01   8.711006e-03
  3.800880e+00    4.932793e-01   8.512324e-03
  3.803090e+00    4.855832e-01   8.467075e-03
  3.805301e+00    4.990031e-01   8.605396e-03
  3.807511e+00    5.271071e-01   8.866956e-03
  3.809722e+00    5.088033e-01   8.734134e-03
  3.811932e+00    4.765503e-01   8.474493e-03
  3.814142e+00    4.789241e-01   8.517901e-03
  3.816353e+00    4.911080e-01   8.648275e-03
  3.818563e+00    5.164974e-01   8.892465e-03
  3.820774e+00    4.971071e-01   8.747187e-03
  3.822984e+00    4.860688e-01   8.672556e-03
  3.825195e+00    5.005973e-01   8.824979e-03
  3.827405e+00    5.105450e-01   8.936480e-03
  3.829616e+00    4.734891e-01   8.629516e-03
  3.831826e+00    4.846925e-01   8.754849e-03
  3.834037e+00    5.104830e-01   9.009533e-03
  3.836247e+00    5.296532e-01   9.202746e-03
  3.838457e+00    4.809422e-01   8.793987e-03
  3.840668e+00    4.856484e-01   8.861783e-03
  3.842878e+00    4.865935e-01   8.895677e-03
  3.845089e+00    4.907918e-01   8.959431e-03
  3.847299e+00    5.004833e-01   9.073412e-03
  3.849510e+00    4.415753e-01   8.547127e-03
  3.851720e+00    4.919958e-01   9.043147e-03
  3.853931e+00    5.194781e-01   9.311851e-03
  3.856141e+00    5.135704e-01   9.278092e-03
  3.858352e+00    4.918170e-01   9.098713e-03
  3.860562e+00    4.919648e-01   9.119337e-03
  3.862772e+00    4.722702e-01   8.954069e-03
  3.864983e+00    4.875804e-01   9.117558e-03
  3.867193e+00    4.998315e-01   9.251309e-03
  3.869404e+00    5.113261e-01   9.377277e-03
  3.871614e+00    4.978100e-01   9.272554e-03
  3.873825e+00    5.242763e-01   9.536841e-03
  3.876035e+00    4.904442e-01   9.244510e-03
  3.878246e+00    5.025667e-01   9.384056e-03
  3.880456e+00    4.924587e-01   9.318261e-03
  3.882667e+00    4.771748e-01   9.201375e-03
  3.884877e+00    5.169763e-01   9.607915e-03
  3.887087e+00    5.063953e-01   9.539469e-03
  3.889298e+00    5.132440e-01   9.634831e-03
  3.891508e+00    5.106153e-01   9.641253e-03
  3.893719e+00    5.183343e-01   9.745731e-03
  3.895929e+00    4.698301e-01   9.309250e-03
  3.898140e+00    4.912107e-01   9.550487e-03
  3.900350e+00    4.824668e-01   9.496906e-03
  3.902561e+00    4.920243e-01   9.622973e-03
  3.904771e+00    5.109751e-01   9.840056e-03
  3.906982e+00    5.039845e-01   9.806169e-03
  3.909192e+00    5.081925e-01   9.881102e-03
  3.911403e+00    4.781599e-01   9.618411e-03
  3.913613e+00    4.965053e-01   9.835630e-03
  3.915823e+00    4.810875e-01   9.716275e-03
  3.918034e+00    5.203477e-01   1.014133e-02
  3.920244e+00    4.899761e-01   9.876772e-03
  3.922455e+00    5.015352e-01   1.002918e-02
  3.924665e+00    4.751765e-01   9.797991e-03
  3.926876e+00    4.736757e-01   9.819054e-03
  3.929086e+00    4.833347e-01   9.955895e-03
  3.931297e+00    4.707715e-01   9.859771e-03
  3.933507e+00    5.164931e-01   1.035730e-02
  3.935718e+00    5.319797e-01   1.054148e-02
  3.937928e+00    5.098722e-01   1.035026e-02
  3.940138e+00    5.087880e-01   1.036919e-02
  3.942349e+00    5.090930e-01   1.040282e-02
  3.944559e+00    5.085756e-01   1.042825e-02
  3.946770e+00    4.905441e-01   1.027195e-02
  3.948980e+00    4.822247e-01   1.021507e-02
  3.951191e+00    4.838544e-01   1.026313e-02
  3.953401e+00    4.865592e-01   1.032307e-02
  3.955612e+00    4.758919e-01   1.024053e-02
  3.957822e+00    5.100787e-01   1.063456e-02
  3.960033e+00    4.941865e-01   1.050044e-02
  3.962243e+00    4.965409e-01   1.055863e-02
  3.964453e+00    4.761088e-01   1.037189e-02
  3.966664e+00    4.872703e-01   1.052618e-02
  3.968874e+00    4.788699e-01   1.046326e-02
  3.971085e+00    4.936940e-01   1.064612e-02
  3.973295e+00    5.233411e-01   1.098334e-02
  3.975506e+00    5.178390e-01   1.094787e-02
  3.977716e+00    5.006640e-01   1.078714e-02
  3.979927e+00    4.753655e-01   1.053285e-02
  3.982137e+00    4.926059e-01   1.074468e-02
  3.984348e+00    5.023753e-01   1.087360e-02
  3.986558e+00    5.027878e-01   1.090081e-02
  3.988768e+00    5.171059e-01   1.107873e-02
  3.990979e+00    4.776675e-01   1.067047e-02
  3.993189e+00    4.883922e-01   1.081269e-02
  3.995400e+00    5.028830e-01   1.099592e-02
  3.997610e+00    4.732003e-01   1.069591e-02
  3.999821e+00    5.245755e-01   1.130051e-02
  4.002031e+00    5.084372e-01   1.116483e-02
  4.004242e+00    4.636421e-01   1.069921e-02
  4.006452e+00    4.765744e-01   1.088636e-02
  4.008663e+00    4.893603e-01   1.107178e-02
  4.010873e+00    4.883688e-01   1.110059e-02
  4.013084e+00    5.066808e-01   1.134864e-02
  4.015294e+00    4.889393e-01   1.118942e-02
  4.017504e+00    4.945729e-01   1.129596e-02
  4.019715e+00    4.798312e-01   1.116861e-02
  4.021925e+00    5.064352e-01   1.151806e-02
  4.024136e+00    4.821114e-01   1.128165e-02
  4.026346e+00    4.757994e-01   1.125138e-02
  4.028557e+00    4.726457e-01   1.125776e-02
  4.030767e+00    4.848120e-01   1.144740e-02
  4.032978e+00    4.900470e-01   1.155559e-02
  4.035188e+00    5.195621e-01   1.194643e-02
  4.037399e+00    4.945611e-01   1.170371e-02
  4.039609e+00    4.444180e-01   1.114016e-02
  4.041819e+00    4.889570e-01   1.173413e-02
  4.044030e+00    5.266072e-01   1.222955e-02
  4.046240e+00    5.069504e-01   1.205032e-02
  4.048451e+00    4.882624e-01   1.187729e-02
  4.050661e+00    4.968978e-01   1.203403e-02
  4.052872e+00    4.627762e-01   1.166523e-02
  4.055082e+00    4.970631e-01   1.214383e-02
  4.057293e+00    4.783929e-01   1.196720e-02
  4.059503e+00    4.498915e-01   1.165797e-02
  4.061714e+00    4.639843e-01   1.189456e-02
  4.063924e+00    4.998044e-01   1.240280e-02
  4.066134e+00    4.582901e-01   1.193272e-02
  4.068345e+00    5.005208e-01   1.253034e-02
  4.070555e+00    4.878214e-01   1.243002e-02
  4.072766e+00    4.623936e-01   1.216132e-02
  4.074976e+00    4.631779e-01   1.223240e-02
  4.077187e+00    5.223440e-01   1.305463e-02
  4.079397e+00    5.186017e-01   1.307436e-02
  4.081608e+00    5.273480e-01   1.325267e-02
  4.083818e+00    4.897960e-01   1.283855e-02
  4.086029e+00    4.538934e-01   1.242423e-02
  4.088239e+00    4.697064e-01   1.270678e-02
  4.090449e+00    4.901586e-01   1.305099e-02
  4.092660e+00    4.728943e-01   1.288952e-02
  4.094870e+00    4.852405e-01   1.312929e-02
  4.097081e+00    4.673467e-01   1.295555e-02
  4.099291e+00    5.029604e-01   1.349566e-02
  4.101502e+00    4.885027e-01   1.335005e-02
  4.103712e+00    4.795552e-01   1.327632e-02
  4.105923e+00    4.964671e-01   1.356091e-02
  4.108133e+00    4.520869e-01   1.299037e-02
  4.110344e+00    4.962371e-01   1.366194e-02
  4.112554e+00    4.872495e-01   1.359122e-02
  4.114764e+00    4.454868e-01   1.304791e-02
  4.116975e+00    4.535123e-01   1.321685e-02
  4.119185e+00    4.394324e-01   1.306292e-02
  4.121396e+00    4.381276e-01   1.309726e-02
  4.123606e+00    4.728248e-01   1.366178e-02
  4.125817e+00    4.569211e-01   1.348651e-02
  4.128027e+00    4.732679e-01   1.378331e-02
  4.130238e+00    4.924971e-01   1.412098e-02
  4.132448e+00    4.517025e-01   1.358191e-02
  4.134659e+00    4.975228e-01   1.431569e-02
  4.136869e+00    4.822133e-01   1.415642e-02
  4.139080e+00    5.293936e-01   1.489985e-02
  4.141290e+00    4.828097e-01   1.429232e-02
  4.143500e+00    4.360124e-01   1.364447e-02
  4.145711e+00    4.613457e-01   1.410090e-02
  4.147921e+00    4.526505e-01   1.403125e-02
  4.150132e+00    5.260863e-01   1.519901e-02
  4.152342e+00    4.929842e-01   1.478445e-02
  4.154553e+00    4.539945e-01   1.425517e-02
  4.156763e+00    4.856791e-01   1.481706e-02
  4.158974e+00    4.955995e-01   1.504312e-02
  4.161184e+00    4.909670e-01   1.504666e-02
  4.163395e+00    5.484579e-01   1.598448e-02
  4.165605e+00    5.039142e-01   1.540145e-02
  4.167815e+00    5.037428e-01   1.547917e-02
  4.170026e+00    5.016879e-01   1.552887e-02
  4.172236e+00    4.990311e-01   1.557153e-02
  4.174447e+00    5.189327e-01   1.596511e-02
  4.176657e+00    5.110122e-01   1.592994e-02
  4.178868e+00    5.109335e-01   1.601837e-02
  4.181078e+00    5.125194e-01   1.613384e-02
  4.183289e+00    4.719665e-01   1.557077e-02
  4.185499e+00    4.916771e-01   1.598672e-02
  4.187710e+00    4.551960e-01   1.547224e-02
  4.189920e+00    4.602881e-01   1.565200e-02
  4.192130e+00    4.439856e-01   1.546647e-02
  4.194341e+00    4.645309e-01   1.591720e-02
  4.196551e+00    4.426385e-01   1.563591e-02
  4.198762e+00    4.765096e-01   1.632618e-02
  4.200972e+00    4.483919e-01   1.593982e-02
  4.203183e+00    4.664254e-01   1.636400e-02
  4.205393e+00    4.658889e-01   1.646361e-02
  4.207604e+00    5.661970e-01   1.827340e-02
  4.209814e+00    4.990661e-01   1.727399e-02
  4.212025e+00    4.788721e-01   1.704034e-02
  4.214235e+00    4.658913e-01   1.692721e-02
  4.216445e+00    5.260882e-01   1.811745e-02
  4.218656e+00    4.559929e-01   1.699403e-02
  4.220866e+00    4.831397e-01   1.762198e-02
  4.223077e+00    4.982800e-01   1.803347e-02
  4.225287e+00    4.869459e-01   1.796758e-02
  4.227498e+00    5.138958e-01   1.860282e-02
  4.229708e+00    4.800444e-01   1.812578e-02
  4.231919e+00    4.689492e-01   1.806347e-02
  4.234129e+00    4.799807e-01   1.842778e-02
  4.236340e+00    5.152560e-01   1.925619e-02
  4.238550e+00    5.261710e-01   1.963125e-02
  4.240761e+00    4.757386e-01   1.883129e-02
  4.242971e+00    4.908521e-01   1.930360e-02
  4.245181e+00    5.219277e-01   2.009176e-02
  4.247392e+00    5.494130e-01   2.080723e-02
  4.249602e+00    4.368514e-01   1.873785e-02
  4.251813e+00    4.250065e-01   1.866469e-02
  4.254023e+00    4.035015e-01   1.836883e-02
  4.256234e+00    4.635667e-01   1.989914e-02
  4.258444e+00    4.758856e-01   2.037321e-02
  4.260655e+00    4.458877e-01   1.993696e-02
  4.262865e+00    5.364038e-01   2.211539e-02
  4.265076e+00    4.282203e-01   1.998505e-02
  4.267286e+00    4.421947e-01   2.054875e-02
  4.269496e+00    4.786140e-01   2.163932e-02
  4.271707e+00    4.794497e-01   2.192576e-02
  4.273917e+00    5.562863e-01   2.392216e-02
  4.276128e+00    4.017532e-01   2.060099e-02
  4.278338e+00    3.795859e-01   2.029118e-02
  4.280549e+00    4.404901e-01   2.217195e-02
  4.282759e+00    4.147555e-01   2.182375e-02
  4.284970e+00    4.568369e-01   2.324297e-02
  4.287180e+00    4.784519e-01   2.407176e-02
  4.289391e+00    4.297853e-01   2.298604e-02
  4.291601e+00    4.304026e-01   2.318600e-02
  4.293811e+00    4.913764e-01   2.496811e-02
  4.296022e+00    4.997398e-01   2.538146e-02
  4.298232e+00    4.997152e-01   2.559363e-02
  4.300443e+00    5.021656e-01   2.586795e-02
  4.302653e+00    4.836317e-01   2.560597e-02
  4.304864e+00    4.597056e-01   2.518073e-02
  4.307074e+00    4.216357e-01   2.433260e-02
  4.309285e+00    4.312253e-01   2.483078e-02
  4.311495e+00    4.603136e-01   2.589517e-02
  4.313706e+00    4.936140e-01   2.706656e-02
  4.315916e+00    4.880733e-01   2.717966e-02
  4.318126e+00    4.521025e-01   2.641764e-02
  4.320337e+00    5.060064e-01   2.823095e-02
  4.322547e+00    4.718359e-01   2.755028e-02
  4.324758e+00    4.839851e-01   2.819256e-02
  4.326968e+00    5.387496e-01   3.007953e-02
  4.329179e+00    4.385886e-01   2.744029e-02
  4.331389e+00    3.416890e-01   2.449811e-02
  4.333600e+00    4.855373e-01   2.955164e-02
  4.335810e+00    5.400578e-01   3.153798e-02
  4.338021e+00    4.388953e-01   2.879537e-02
  4.340231e+00    5.155079e-01   3.159883e-02
  4.342442e+00    4.425871e-01   2.967182e-02
  4.344652e+00    4.175248e-01   2.921041e-02
  4.346862e+00    4.738133e-01   3.155309e-02
  4.349073e+00    4.428589e-01   3.094864e-02
  4.351283e+00    4.356155e-01   3.115297e-02
  4.353494e+00    4.613912e-01   3.255754e-02
  4.355704e+00    2.921604e-01   2.632404e-02
  4.357915e+00    3.973357e-01   3.121014e-02
  4.360125e+00    3.777356e-01   3.094953e-02
  4.362336e+00    4.035549e-01   3.257275e-02
  4.364546e+00    4.272039e-01   3.412498e-02
  4.366757e+00    4.247210e-01   3.470149e-02
  4.368967e+00    5.326028e-01   3.963598e-02
  4.371177e+00    4.291552e-01   3.633427e-02
  4.373388e+00    4.678539e-01   3.878437e-02
  4.375598e+00    4.635623e-01   3.948925e-02
  4.377809e+00    4.848494e-01   4.140680e-02
  4.380019e+00    4.400718e-01   4.044086e-02
  4.382230e+00    3.917711e-01   3.922224e-02
  4.384440e+00    4.219175e-01   4.187199e-02
  4.386651e+00    3.636743e-01   4.007675e-02
  4.388861e+00    3.310734e-01   3.952146e-02
  4.391072e+00    5.533233e-01   5.288320e-02
  4.393282e+00    5.802802e-01   5.625302e-02
  4.395492e+00    5.504940e-01   5.706602e-02
  4.397703e+00    4.165871e-01   5.191520e-02
  4.399913e+00    4.575163e-01   5.715221e-02
  4.402124e+00    4.693714e-01   6.117964e-02
  4.404334e+00    2.347961e-01   4.599172e-02
  4.406545e+00    3.516136e-01   6.046872e-02
  4.408755e+00    6.573812e-01   8.967160e-02
  4.410966e+00    4.824429e-01   8.501969e-02
  4.413176e+00    4.055218e-01   8.823545e-02
  4.415387e+00   -4.295818e-01            nan
  4.417597e+00   -2.013521e+00            nan
  4.419807e+00   -3.766224e-01            nan
