# == pyFAI calibration ==
# Distance Sample to Detector: 0.216 m
# PONI: 1.166e-01, 1.308e-01 m
# Rotations: 0.000000 0.000000 0.000000 rad
# 
# == Fit2d calibration ==
# Distance Sample-beamCenter: 216.000 mm
# Center: x=1744.293, y=1555.000 pix
# Tilt: 0.000 deg  TiltPlanRot: 0.000 deg
# 
# Detector Eiger 9M	 PixelSize= 7.500e-05, 7.500e-05 m
#    Detector has a mask: True 
#    Detector has a dark current: False 
#    detector has a flat field: False 
# 
# Wavelength: 9.8e-11 m
# Mask applied: from detector
# Dark current applied: False
# Flat field applied: False
# Polarization factor: None
# Normalization factor: 1.0
# 
# Headers of the input frame:
# {
# "_array_data.header_convention": "SLS_1.0",
# "_array_data.header_contents": "# Detector: Dectris Eiger 9M, S/N E-18-0102\r\n# Pixel_size 75e-6 m x 75e-6 m\r\n# Silicon sensor, thickness 0.000450 m\r\n# Exposure_time 0.024997 s\r\n# Exposure_period 0.025000 s\r\n# Count_cutoff 62318 counts\r\n# Wavelength 0.980106 A\r\n# Detector_distance 0.215992 m\r\n# Beam_xy (1555, 1744) pixels\r\n# Start_angle 0.000000 deg.\r\n# Angle_increment 0.000000 deg.",
# "Content-Type": "application/octet-stream;",
# "conversions": "x-CBF_BYTE_OFFSET",
# "Content-Transfer-Encoding": "BINARY",
# "X-Binary-Size": "10166594",
# "X-Binary-ID": "1",
# "X-Binary-Element-Type": "signed 32-bit integer",
# "X-Binary-Element-Byte-Order": "LITTLE_ENDIAN",
# "Content-MD5": "aBNXsBmXeFhYSs4oPVrk3Q==",
# "X-Binary-Number-of-Elements": "10166590",
# "X-Binary-Size-Fastest-Dimension": "3110",
# "X-Binary-Size-Second-Dimension": "3269",
# "X-Binary-Size-Padding": "4095"
# }
# --> H:/Proxima2a_2019-04-05/RAW_DATA/C5_gel17_position5/C5_mesh_1_data.cbf/C5_mesh_1_data.cbf000053.dat
#        q_A^-1              I           sigma 
  1.105228e-03    9.218834e-01   5.195471e-01
  3.315685e-03    9.298296e-01   3.172102e-01
  5.526141e-03    1.062644e+00   2.622201e-01
  7.736597e-03    1.293022e+00   2.443561e-01
  9.947054e-03    1.456623e+00   2.286388e-01
  1.215751e-02    1.295443e+00   1.949745e-01
  1.436797e-02    1.218343e+00   1.739244e-01
  1.657842e-02    1.423885e+00   1.750177e-01
  1.878888e-02    1.320580e+00   1.583237e-01
  2.099934e-02    1.179773e+00   1.415798e-01
  2.320979e-02    1.330943e+00   1.430252e-01
  2.542025e-02    1.431592e+00   1.417487e-01
  2.763070e-02    1.516676e+00   1.399384e-01
  2.984116e-02    1.480078e+00   1.330206e-01
  3.205162e-02    1.388297e+00   1.243161e-01
  3.426207e-02    1.293750e+00   1.160647e-01
  3.647253e-02    1.325135e+00   1.138465e-01
  3.868299e-02    1.526637e+00   1.186625e-01
  4.089344e-02    1.507148e+00   1.146723e-01
  4.310390e-02    1.466816e+00   1.101823e-01
  4.531436e-02    1.454785e+00   1.070201e-01
  4.752481e-02    1.469815e+00   1.050389e-01
  4.973527e-02    1.409868e+00   1.005636e-01
  5.194572e-02    1.336933e+00   9.582037e-02
  5.415618e-02    1.328443e+00   9.354275e-02
  5.636664e-02    1.433176e+00   9.523903e-02
  5.857709e-02    1.408317e+00   9.261147e-02
  6.078755e-02    1.390457e+00   9.033084e-02
  6.299801e-02    1.488677e+00   9.181144e-02
  6.520846e-02    1.502882e+00   9.067200e-02
  6.741892e-02    1.384146e+00   8.557381e-02
  6.962938e-02    1.426985e+00   8.550195e-02
  7.183983e-02    1.425696e+00   8.413672e-02
  7.405029e-02    1.479483e+00   8.441822e-02
  7.626074e-02    1.482871e+00   8.328028e-02
  7.847120e-02    1.527590e+00   8.332540e-02
  8.068166e-02    1.492178e+00   8.121733e-02
  8.289211e-02    1.506946e+00   8.052217e-02
  8.510257e-02    1.484375e+00   7.887171e-02
  8.731303e-02    1.525516e+00   7.893563e-02
  8.952348e-02    1.542641e+00   7.839350e-02
  9.173394e-02    1.567296e+00   7.805655e-02
  9.394439e-02    1.482885e+00   7.502452e-02
  9.615485e-02    1.479647e+00   7.407450e-02
  9.836531e-02    1.553856e+00   7.504951e-02
  1.005758e-01    1.505086e+00   7.304662e-02
  1.027862e-01    1.486536e+00   7.180846e-02
  1.049967e-01    1.391538e+00   6.873967e-02
  1.072071e-01    1.395005e+00   6.811120e-02
  1.094176e-01    1.513710e+00   7.022853e-02
  1.116280e-01    1.492894e+00   6.904850e-02
  1.138385e-01    1.453972e+00   6.747630e-02
  1.160490e-01    1.450412e+00   6.674793e-02
  1.182594e-01    1.467008e+00   6.649692e-02
  1.204699e-01    1.538182e+00   6.746282e-02
  1.226803e-01    1.608562e+00   6.836177e-02
  1.248908e-01    1.529438e+00   6.606594e-02
  1.271012e-01    1.556953e+00   6.607404e-02
  1.293117e-01    1.560728e+00   6.558543e-02
  1.315222e-01    1.641113e+00   6.668413e-02
  1.337326e-01    1.601699e+00   6.533051e-02
  1.359431e-01    1.560403e+00   6.452058e-02
  1.381535e-01    1.500264e+00   6.411424e-02
  1.403640e-01    1.524431e+00   6.490761e-02
  1.425744e-01    1.525568e+00   6.503554e-02
  1.447849e-01    1.456068e+00   6.355150e-02
  1.469953e-01    1.499036e+00   6.444198e-02
  1.492058e-01    1.493950e+00   6.425782e-02
  1.514163e-01    1.494601e+00   6.416507e-02
  1.536267e-01    1.595548e+00   6.616711e-02
  1.558372e-01    1.557642e+00   6.523209e-02
  1.580476e-01    1.552797e+00   6.497253e-02
  1.602581e-01    1.608708e+00   6.596393e-02
  1.624685e-01    1.647287e+00   6.656746e-02
  1.646790e-01    1.602438e+00   6.546651e-02
  1.668895e-01    1.568870e+00   6.459007e-02
  1.690999e-01    1.676212e+00   6.656265e-02
  1.713104e-01    1.704062e+00   6.690508e-02
  1.735208e-01    1.774106e+00   6.805399e-02
  1.757313e-01    1.748417e+00   6.734775e-02
  1.779417e-01    1.734195e+00   6.685454e-02
  1.801522e-01    1.814888e+00   6.817438e-02
  1.823626e-01    1.891176e+00   6.936082e-02
  1.845731e-01    1.857528e+00   6.851836e-02
  1.867836e-01    1.861608e+00   6.836206e-02
  1.889940e-01    1.887122e+00   6.860401e-02
  1.912045e-01    1.945220e+00   6.941945e-02
  1.934149e-01    1.957907e+00   6.941237e-02
  1.956254e-01    1.966252e+00   6.933072e-02
  1.978358e-01    1.921163e+00   6.829636e-02
  2.000463e-01    1.917686e+00   6.800839e-02
  2.022568e-01    1.926050e+00   6.793283e-02
  2.044672e-01    1.921561e+00   6.762117e-02
  2.066777e-01    1.900471e+00   6.702584e-02
  2.088881e-01    1.932249e+00   6.736281e-02
  2.110986e-01    1.922886e+00   6.696894e-02
  2.133090e-01    1.870201e+00   6.583045e-02
  2.155195e-01    1.835852e+00   6.500674e-02
  2.177300e-01    1.893827e+00   6.550651e-02
  2.199404e-01    1.883328e+00   6.360337e-02
  2.221509e-01    1.951968e+00   6.368880e-02
  2.243613e-01    1.967757e+00   6.313518e-02
  2.265718e-01    2.073336e+00   6.409251e-02
  2.287822e-01    2.075147e+00   6.348583e-02
  2.309927e-01    2.047933e+00   6.249365e-02
  2.332031e-01    2.096067e+00   6.268264e-02
  2.354136e-01    2.118659e+00   6.250881e-02
  2.376241e-01    2.158700e+00   6.260697e-02
  2.398345e-01    2.166364e+00   6.225386e-02
  2.420450e-01    2.184150e+00   6.206213e-02
  2.442554e-01    2.235335e+00   6.235261e-02
  2.464659e-01    2.167185e+00   6.098256e-02
  2.486763e-01    2.138698e+00   6.018223e-02
  2.508868e-01    2.087419e+00   5.908128e-02
  2.530973e-01    2.080399e+00   5.861619e-02
  2.553077e-01    2.049059e+00   5.782013e-02
  2.575182e-01    1.974005e+00   5.641557e-02
  2.597286e-01    2.038529e+00   5.699689e-02
  2.619391e-01    2.105447e+00   5.759137e-02
  2.641495e-01    2.109570e+00   5.732867e-02
  2.663600e-01    2.072464e+00   5.650979e-02
  2.685704e-01    2.014982e+00   5.541853e-02
  2.707809e-01    2.007885e+00   5.502722e-02
  2.729914e-01    1.969309e+00   5.421205e-02
  2.752018e-01    1.980210e+00   5.407894e-02
  2.774123e-01    1.972508e+00   5.369797e-02
  2.796227e-01    1.970102e+00   5.339976e-02
  2.818332e-01    1.962080e+00   5.302507e-02
  2.840436e-01    1.951450e+00   5.262490e-02
  2.862541e-01    1.976116e+00   5.270188e-02
  2.884646e-01    1.963473e+00   5.228373e-02
  2.906750e-01    1.866150e+00   5.072981e-02
  2.928855e-01    1.890537e+00   5.082360e-02
  2.950959e-01    1.901509e+00   5.073672e-02
  2.973064e-01    1.893891e+00   5.040744e-02
  2.995168e-01    1.843067e+00   4.950123e-02
  3.017273e-01    1.896479e+00   4.999203e-02
  3.039377e-01    1.836982e+00   4.898613e-02
  3.061482e-01    1.883093e+00   4.938259e-02
  3.083587e-01    1.892516e+00   4.929169e-02
  3.105691e-01    1.878959e+00   4.890507e-02
  3.127796e-01    1.854044e+00   4.837549e-02
  3.149900e-01    1.881773e+00   4.853285e-02
  3.172005e-01    1.888881e+00   4.842558e-02
  3.194109e-01    1.914932e+00   4.855711e-02
  3.216214e-01    1.905767e+00   4.824312e-02
  3.238319e-01    1.854026e+00   4.739520e-02
  3.260423e-01    1.814875e+00   4.670532e-02
  3.282528e-01    1.897603e+00   4.756781e-02
  3.304632e-01    1.903862e+00   4.746163e-02
  3.326737e-01    1.889748e+00   4.710088e-02
  3.348841e-01    1.884373e+00   4.685145e-02
  3.370946e-01    1.876666e+00   4.657964e-02
  3.393050e-01    1.834793e+00   4.588259e-02
  3.415155e-01    1.801551e+00   4.529411e-02
  3.437260e-01    1.774225e+00   4.478268e-02
  3.459364e-01    1.789913e+00   4.481384e-02
  3.481469e-01    1.794686e+00   4.470976e-02
  3.503573e-01    1.760086e+00   4.411539e-02
  3.525678e-01    1.790709e+00   4.433890e-02
  3.547782e-01    1.807717e+00   4.438797e-02
  3.569887e-01    1.761644e+00   4.366342e-02
  3.591992e-01    1.720612e+00   4.299922e-02
  3.614096e-01    1.750556e+00   4.322139e-02
  3.636201e-01    1.765869e+00   4.325745e-02
  3.658305e-01    1.818576e+00   4.374856e-02
  3.680410e-01    1.728215e+00   4.250114e-02
  3.702514e-01    1.740496e+00   4.250843e-02
  3.724619e-01    1.771684e+00   4.274155e-02
  3.746724e-01    1.786207e+00   4.277319e-02
  3.768828e-01    1.797855e+00   4.276803e-02
  3.790933e-01    1.749108e+00   4.204679e-02
  3.813037e-01    1.755672e+00   4.198778e-02
  3.835142e-01    1.694571e+00   4.111521e-02
  3.857246e-01    1.747510e+00   4.161735e-02
  3.879351e-01    1.778609e+00   4.185015e-02
  3.901455e-01    1.763925e+00   4.154434e-02
  3.923560e-01    1.748436e+00   4.123009e-02
  3.945665e-01    1.747191e+00   4.108470e-02
  3.967769e-01    1.815582e+00   4.174991e-02
  3.989874e-01    1.753703e+00   4.090419e-02
  4.011978e-01    1.757041e+00   4.081715e-02
  4.034083e-01    1.772859e+00   4.087462e-02
  4.056187e-01    1.747306e+00   4.045397e-02
  4.078292e-01    1.712331e+00   3.992587e-02
  4.100397e-01    1.728189e+00   3.998783e-02
  4.122501e-01    1.756159e+00   4.018954e-02
  4.144606e-01    1.763800e+00   4.015744e-02
  4.166710e-01    1.721301e+00   3.955273e-02
  4.188815e-01    1.756786e+00   3.984031e-02
  4.210919e-01    1.773788e+00   3.991532e-02
  4.233024e-01    1.798269e+00   4.007160e-02
  4.255128e-01    1.769719e+00   3.963733e-02
  4.277233e-01    1.756315e+00   3.937348e-02
  4.299338e-01    1.767916e+00   3.938963e-02
  4.321442e-01    1.788724e+00   3.950738e-02
  4.343547e-01    1.792299e+00   3.943503e-02
  4.365651e-01    1.772340e+00   3.910341e-02
  4.387756e-01    1.755505e+00   3.880829e-02
  4.409860e-01    1.739737e+00   3.852656e-02
  4.431965e-01    1.763634e+00   3.868301e-02
  4.454070e-01    1.733249e+00   3.824164e-02
  4.476174e-01    1.691111e+00   3.767021e-02
  4.498279e-01    1.674218e+00   3.737962e-02
  4.520383e-01    1.636587e+00   3.685571e-02
  4.542488e-01    1.696154e+00   3.741926e-02
  4.564592e-01    1.698116e+00   3.734047e-02
  4.586697e-01    1.650155e+00   3.671167e-02
  4.608801e-01    1.688303e+00   3.703411e-02
  4.630906e-01    1.716976e+00   3.724840e-02
  4.653011e-01    1.702889e+00   3.699772e-02
  4.675115e-01    1.689541e+00   3.675537e-02
  4.697220e-01    1.685526e+00   3.661556e-02
  4.719324e-01    1.682891e+00   3.649230e-02
  4.741429e-01    1.664914e+00   3.620333e-02
  4.763533e-01    1.663274e+00   3.609274e-02
  4.785638e-01    1.656788e+00   3.592923e-02
  4.807743e-01    1.685847e+00   3.615078e-02
  4.829847e-01    1.680921e+00   3.600674e-02
  4.851952e-01    1.689900e+00   3.601141e-02
  4.874056e-01    1.704812e+00   3.607875e-02
  4.896161e-01    1.688329e+00   3.581490e-02
  4.918265e-01    1.658338e+00   3.540720e-02
  4.940370e-01    1.661772e+00   3.535634e-02
  4.962475e-01    1.693129e+00   3.560023e-02
  4.984579e-01    1.606525e+00   3.459236e-02
  5.006684e-01    1.593264e+00   3.436527e-02
  5.028788e-01    1.678728e+00   3.518944e-02
  5.050893e-01    1.700658e+00   3.533240e-02
  5.072997e-01    1.690041e+00   3.513689e-02
  5.095102e-01    1.656665e+00   3.470488e-02
  5.117206e-01    1.654114e+00   3.459568e-02
  5.139311e-01    1.726490e+00   3.526082e-02
  5.161416e-01    1.664032e+00   3.453534e-02
  5.183520e-01    1.671942e+00   3.453505e-02
  5.205625e-01    1.653715e+00   3.426582e-02
  5.227729e-01    1.643502e+00   3.408020e-02
  5.249834e-01    1.619317e+00   3.374995e-02
  5.271938e-01    1.675084e+00   3.424611e-02
  5.294043e-01    1.723172e+00   3.465401e-02
  5.316148e-01    1.732714e+00   3.467027e-02
  5.338252e-01    1.697500e+00   3.423771e-02
  5.360357e-01    1.721534e+00   3.440075e-02
  5.382461e-01    1.757241e+00   3.467709e-02
  5.404566e-01    1.777670e+00   3.479874e-02
  5.426670e-01    1.727781e+00   3.422966e-02
  5.448775e-01    1.719251e+00   3.406876e-02
  5.470879e-01    1.736009e+00   3.415805e-02
  5.492984e-01    1.741171e+00   3.413274e-02
  5.515089e-01    1.741929e+00   3.406444e-02
  5.537193e-01    1.743039e+00   3.400023e-02
  5.559298e-01    1.759006e+00   3.408068e-02
  5.581402e-01    1.744440e+00   3.386513e-02
  5.603507e-01    1.778775e+00   3.412234e-02
  5.625611e-01    1.769416e+00   3.395863e-02
  5.647716e-01    1.745622e+00   3.365627e-02
  5.669821e-01    1.744117e+00   3.356925e-02
  5.691925e-01    1.777864e+00   3.381970e-02
  5.714030e-01    1.759632e+00   3.357413e-02
  5.736134e-01    1.698533e+00   3.291592e-02
  5.758239e-01    1.701936e+00   3.287853e-02
  5.780343e-01    1.704659e+00   3.283524e-02
  5.802448e-01    1.661110e+00   3.234525e-02
  5.824552e-01    1.644174e+00   3.211240e-02
  5.846657e-01    1.659460e+00   3.219410e-02
  5.868762e-01    1.630945e+00   3.184984e-02
  5.890866e-01    1.590116e+00   3.138343e-02
  5.912971e-01    1.585877e+00   3.127664e-02
  5.935075e-01    1.627478e+00   3.161876e-02
  5.957180e-01    1.584667e+00   3.113609e-02
  5.979284e-01    1.622401e+00   3.144030e-02
  6.001389e-01    1.638816e+00   3.153461e-02
  6.023494e-01    1.619814e+00   3.128761e-02
  6.045598e-01    1.612440e+00   3.115274e-02
  6.067703e-01    1.603526e+00   3.100407e-02
  6.089807e-01    1.589279e+00   3.080394e-02
  6.111912e-01    1.656732e+00   3.138805e-02
  6.134016e-01    1.668499e+00   3.143651e-02
  6.156121e-01    1.635932e+00   3.106631e-02
  6.178226e-01    1.619585e+00   3.084951e-02
  6.200330e-01    1.656338e+00   3.113604e-02
  6.222435e-01    1.665888e+00   3.116380e-02
  6.244539e-01    1.692710e+00   3.135218e-02
  6.266644e-01    1.706026e+00   3.141386e-02
  6.288748e-01    1.684816e+00   3.115723e-02
  6.310853e-01    1.679578e+00   3.104833e-02
  6.332957e-01    1.712139e+00   3.128734e-02
  6.355062e-01    1.685239e+00   3.098028e-02
  6.377167e-01    1.673864e+00   3.081631e-02
  6.399271e-01    1.652308e+00   3.055856e-02
  6.421376e-01    1.684247e+00   3.079361e-02
  6.443480e-01    1.705801e+00   3.093108e-02
  6.465585e-01    1.675873e+00   3.060045e-02
  6.487689e-01    1.662465e+00   3.042025e-02
  6.509794e-01    1.631403e+00   3.007788e-02
  6.531899e-01    1.616968e+00   2.988820e-02
  6.554003e-01    1.603773e+00   2.971004e-02
  6.576108e-01    1.587978e+00   2.950834e-02
  6.598212e-01    1.589205e+00   2.946488e-02
  6.620317e-01    1.615303e+00   2.965077e-02
  6.642421e-01    1.575653e+00   2.923043e-02
  6.664526e-01    1.565811e+00   2.908531e-02
  6.686630e-01    1.591918e+00   2.927255e-02
  6.708735e-01    1.596684e+00   2.926256e-02
  6.730840e-01    1.581868e+00   2.907338e-02
  6.752944e-01    1.562053e+00   2.883818e-02
  6.775049e-01    1.578429e+00   2.893629e-02
  6.797153e-01    1.607419e+00   2.914794e-02
  6.819258e-01    1.603968e+00   2.906414e-02
  6.841362e-01    1.558826e+00   2.860069e-02
  6.863467e-01    1.576603e+00   2.871180e-02
  6.885572e-01    1.571098e+00   2.861026e-02
  6.907676e-01    1.613490e+00   2.894172e-02
  6.929781e-01    1.607993e+00   2.884106e-02
  6.951885e-01    1.573644e+00   2.848080e-02
  6.973990e-01    1.594796e+00   2.862087e-02
  6.996094e-01    1.581856e+00   2.845439e-02
  7.018199e-01    1.570603e+00   2.830323e-02
  7.040303e-01    1.580546e+00   2.834279e-02
  7.062408e-01    1.539419e+00   2.792264e-02
  7.084513e-01    1.571658e+00   2.816441e-02
  7.106617e-01    1.564643e+00   2.805266e-02
  7.128722e-01    1.573385e+00   2.808226e-02
  7.150826e-01    1.567435e+00   2.798078e-02
  7.172931e-01    1.565046e+00   2.791126e-02
  7.195035e-01    1.549311e+00   2.772284e-02
  7.217140e-01    1.546624e+00   2.774782e-02
  7.239245e-01    1.546854e+00   2.797460e-02
  7.261349e-01    1.542157e+00   2.803958e-02
  7.283454e-01    1.566284e+00   2.833027e-02
  7.305558e-01    1.565673e+00   2.837860e-02
  7.327663e-01    1.531508e+00   2.810917e-02
  7.349767e-01    1.568275e+00   2.846091e-02
  7.371872e-01    1.545282e+00   2.824043e-02
  7.393976e-01    1.530578e+00   2.809170e-02
  7.416081e-01    1.546001e+00   2.821684e-02
  7.438186e-01    1.561605e+00   2.821517e-02
  7.460290e-01    1.572197e+00   2.801667e-02
  7.482395e-01    1.557828e+00   2.771812e-02
  7.504499e-01    1.497427e+00   2.704256e-02
  7.526604e-01    1.504744e+00   2.699460e-02
  7.548708e-01    1.545529e+00   2.726940e-02
  7.570813e-01    1.549967e+00   2.725798e-02
  7.592918e-01    1.525709e+00   2.700919e-02
  7.615022e-01    1.532171e+00   2.703299e-02
  7.637127e-01    1.523936e+00   2.692798e-02
  7.659231e-01    1.568044e+00   2.728297e-02
  7.681336e-01    1.569029e+00   2.726000e-02
  7.703440e-01    1.546322e+00   2.703110e-02
  7.725545e-01    1.529268e+00   2.685117e-02
  7.747650e-01    1.592647e+00   2.736353e-02
  7.769754e-01    1.556409e+00   2.699805e-02
  7.791859e-01    1.574009e+00   2.709679e-02
  7.813963e-01    1.564215e+00   2.696004e-02
  7.836068e-01    1.528481e+00   2.659923e-02
  7.858172e-01    1.579821e+00   2.699169e-02
  7.880277e-01    1.594769e+00   2.706751e-02
  7.902381e-01    1.590656e+00   2.698346e-02
  7.924486e-01    1.598339e+00   2.699845e-02
  7.946591e-01    1.584847e+00   2.683619e-02
  7.968695e-01    1.563559e+00   2.660766e-02
  7.990800e-01    1.558113e+00   2.651380e-02
  8.012904e-01    1.600971e+00   2.682950e-02
  8.035009e-01    1.603933e+00   2.680651e-02
  8.057113e-01    1.621782e+00   2.690866e-02
  8.079218e-01    1.655530e+00   2.714025e-02
  8.101323e-01    1.625105e+00   2.684408e-02
  8.123427e-01    1.630267e+00   2.684082e-02
  8.145532e-01    1.623728e+00   2.674110e-02
  8.167636e-01    1.627337e+00   2.672580e-02
  8.189741e-01    1.598832e+00   2.644653e-02
  8.211845e-01    1.614704e+00   2.653293e-02
  8.233950e-01    1.653776e+00   2.680836e-02
  8.256054e-01    1.667284e+00   2.687303e-02
  8.278159e-01    1.633348e+00   2.655423e-02
  8.300264e-01    1.624421e+00   2.643865e-02
  8.322368e-01    1.608838e+00   2.626880e-02
  8.344473e-01    1.621959e+00   2.633256e-02
  8.366577e-01    1.600223e+00   2.611343e-02
  8.388682e-01    1.613338e+00   2.617832e-02
  8.410786e-01    1.604457e+00   2.606455e-02
  8.432891e-01    1.609208e+00   2.606165e-02
  8.454996e-01    1.619209e+00   2.610114e-02
  8.477100e-01    1.611067e+00   2.599412e-02
  8.499205e-01    1.597383e+00   2.584283e-02
  8.521309e-01    1.602271e+00   2.584199e-02
  8.543414e-01    1.622928e+00   2.596746e-02
  8.565518e-01    1.598212e+00   2.572886e-02
  8.587623e-01    1.655977e+00   2.614889e-02
  8.609727e-01    1.648793e+00   2.605168e-02
  8.631832e-01    1.576332e+00   2.543353e-02
  8.653937e-01    1.575186e+00   2.538517e-02
  8.676041e-01    1.575693e+00   2.535098e-02
  8.698146e-01    1.592906e+00   2.545009e-02
  8.720250e-01    1.603266e+00   2.549381e-02
  8.742355e-01    1.587852e+00   2.533234e-02
  8.764459e-01    1.593651e+00   2.533985e-02
  8.786564e-01    1.578503e+00   2.518154e-02
  8.808669e-01    1.568543e+00   2.506391e-02
  8.830773e-01    1.575243e+00   2.507955e-02
  8.852878e-01    1.605237e+00   2.527925e-02
  8.874982e-01    1.586689e+00   2.509630e-02
  8.897087e-01    1.582363e+00   2.502461e-02
  8.919191e-01    1.592238e+00   2.506492e-02
  8.941296e-01    1.558051e+00   2.475756e-02
  8.963401e-01    1.595485e+00   2.501686e-02
  8.985505e-01    1.562351e+00   2.471921e-02
  9.007610e-01    1.552436e+00   2.460445e-02
  9.029714e-01    1.588670e+00   2.485421e-02
  9.051819e-01    1.569041e+00   2.466333e-02
  9.073923e-01    1.587560e+00   2.477201e-02
  9.096028e-01    1.588770e+00   2.474668e-02
  9.118132e-01    1.571772e+00   2.457804e-02
  9.140237e-01    1.581515e+00   2.461767e-02
  9.162342e-01    1.602893e+00   2.474892e-02
  9.184446e-01    1.557763e+00   2.436274e-02
  9.206551e-01    1.584611e+00   2.453636e-02
  9.228655e-01    1.570907e+00   2.439512e-02
  9.250760e-01    1.573725e+00   2.438194e-02
  9.272864e-01    1.583449e+00   2.442311e-02
  9.294969e-01    1.597013e+00   2.449174e-02
  9.317074e-01    1.597645e+00   2.446196e-02
  9.339178e-01    1.594307e+00   2.440304e-02
  9.361283e-01    1.622314e+00   2.458014e-02
  9.383387e-01    1.601453e+00   2.438839e-02
  9.405492e-01    1.621583e+00   2.450691e-02
  9.427596e-01    1.625966e+00   2.450468e-02
  9.449701e-01    1.646220e+00   2.462333e-02
  9.471805e-01    1.642256e+00   2.455883e-02
  9.493910e-01    1.666455e+00   2.470515e-02
  9.516015e-01    1.677730e+00   2.475399e-02
  9.538119e-01    1.677233e+00   2.471640e-02
  9.560224e-01    1.693161e+00   2.479853e-02
  9.582328e-01    1.710049e+00   2.488846e-02
  9.604433e-01    1.758527e+00   2.520303e-02
  9.626537e-01    1.738003e+00   2.502186e-02
  9.648642e-01    1.759316e+00   2.514030e-02
  9.670747e-01    1.812258e+00   2.548059e-02
  9.692851e-01    1.792008e+00   2.530416e-02
  9.714956e-01    1.787235e+00   2.523481e-02
  9.737060e-01    1.765558e+00   2.504836e-02
  9.759165e-01    1.753552e+00   2.492785e-02
  9.781269e-01    1.772902e+00   2.503221e-02
  9.803374e-01    1.798716e+00   2.517892e-02
  9.825478e-01    1.788917e+00   2.507712e-02
  9.847583e-01    1.759989e+00   2.483977e-02
  9.869688e-01    1.756643e+00   2.478292e-02
  9.891792e-01    1.739768e+00   2.463082e-02
  9.913897e-01    1.734500e+00   2.456031e-02
  9.936001e-01    1.730022e+00   2.449647e-02
  9.958106e-01    1.668445e+00   2.402390e-02
  9.980210e-01    1.625303e+00   2.368046e-02
  1.000231e+00    1.609018e+00   2.369060e-02
  1.002442e+00    1.606667e+00   2.379908e-02
  1.004652e+00    1.597589e+00   2.379794e-02
  1.006863e+00    1.578348e+00   2.370330e-02
  1.009073e+00    1.558217e+00   2.358769e-02
  1.011284e+00    1.577980e+00   2.376853e-02
  1.013494e+00    1.540038e+00   2.350434e-02
  1.015705e+00    1.510045e+00   2.329633e-02
  1.017915e+00    1.479601e+00   2.307617e-02
  1.020126e+00    1.530386e+00   2.348472e-02
  1.022336e+00    1.514258e+00   2.337217e-02
  1.024547e+00    1.493831e+00   2.322499e-02
  1.026757e+00    1.494435e+00   2.323792e-02
  1.028967e+00    1.475659e+00   2.309899e-02
  1.031178e+00    1.472462e+00   2.307998e-02
  1.033388e+00    1.473441e+00   2.309261e-02
  1.035599e+00    1.474743e+00   2.310618e-02
  1.037809e+00    1.438414e+00   2.282297e-02
  1.040020e+00    1.440490e+00   2.284066e-02
  1.042230e+00    1.440901e+00   2.284582e-02
  1.044441e+00    1.445524e+00   2.288220e-02
  1.046651e+00    1.460786e+00   2.300288e-02
  1.048862e+00    1.438030e+00   2.282221e-02
  1.051072e+00    1.459568e+00   2.299017e-02
  1.053282e+00    1.439072e+00   2.282725e-02
  1.055493e+00    1.418155e+00   2.265655e-02
  1.057703e+00    1.432100e+00   2.276618e-02
  1.059914e+00    1.457553e+00   2.296339e-02
  1.062124e+00    1.446174e+00   2.286959e-02
  1.064335e+00    1.457267e+00   2.295372e-02
  1.066545e+00    1.451765e+00   2.290442e-02
  1.068756e+00    1.456381e+00   2.293711e-02
  1.070966e+00    1.409580e+00   2.255917e-02
  1.073177e+00    1.423861e+00   2.266719e-02
  1.075387e+00    1.415709e+00   2.259709e-02
  1.077597e+00    1.426406e+00   2.267514e-02
  1.079808e+00    1.432661e+00   2.259352e-02
  1.082018e+00    1.398251e+00   2.213568e-02
  1.084229e+00    1.385368e+00   2.192630e-02
  1.086439e+00    1.399701e+00   2.195366e-02
  1.088650e+00    1.398352e+00   2.186889e-02
  1.090860e+00    1.414226e+00   2.192598e-02
  1.093071e+00    1.439155e+00   2.205644e-02
  1.095281e+00    1.437286e+00   2.198505e-02
  1.097492e+00    1.391580e+00   2.157879e-02
  1.099702e+00    1.399254e+00   2.158752e-02
  1.101912e+00    1.406635e+00   2.159611e-02
  1.104123e+00    1.386513e+00   2.139371e-02
  1.106333e+00    1.394378e+00   2.141046e-02
  1.108544e+00    1.380356e+00   2.125907e-02
  1.110754e+00    1.378741e+00   2.120432e-02
  1.112965e+00    1.372515e+00   2.111659e-02
  1.115175e+00    1.369570e+00   2.105345e-02
  1.117386e+00    1.398802e+00   2.123793e-02
  1.119596e+00    1.390982e+00   2.114089e-02
  1.121807e+00    1.376242e+00   2.099022e-02
  1.124017e+00    1.376237e+00   2.095395e-02
  1.126228e+00    1.361649e+00   2.080738e-02
  1.128438e+00    1.387798e+00   2.096963e-02
  1.130648e+00    1.403075e+00   2.105037e-02
  1.132859e+00    1.451080e+00   2.137242e-02
  1.135069e+00    1.426991e+00   2.115916e-02
  1.137280e+00    1.383012e+00   2.079763e-02
  1.139490e+00    1.373629e+00   2.069404e-02
  1.141701e+00    1.364109e+00   2.058933e-02
  1.143911e+00    1.370693e+00   2.060725e-02
  1.146122e+00    1.356683e+00   2.046994e-02
  1.148332e+00    1.344275e+00   2.034463e-02
  1.150543e+00    1.347127e+00   2.033573e-02
  1.152753e+00    1.326230e+00   2.014709e-02
  1.154963e+00    1.362203e+00   2.038758e-02
  1.157174e+00    1.359197e+00   2.033508e-02
  1.159384e+00    1.336227e+00   2.013307e-02
  1.161595e+00    1.351782e+00   2.022026e-02
  1.163805e+00    1.370732e+00   2.033222e-02
  1.166016e+00    1.349785e+00   2.014703e-02
  1.168226e+00    1.355064e+00   2.015755e-02
  1.170437e+00    1.368366e+00   2.022758e-02
  1.172647e+00    1.416038e+00   2.054751e-02
  1.174858e+00    1.377646e+00   2.023884e-02
  1.177068e+00    1.335544e+00   1.989919e-02
  1.179278e+00    1.353546e+00   2.000436e-02
  1.181489e+00    1.349472e+00   1.994733e-02
  1.183699e+00    1.353452e+00   1.994920e-02
  1.185910e+00    1.318920e+00   1.966571e-02
  1.188120e+00    1.319732e+00   1.964542e-02
  1.190331e+00    1.328664e+00   1.968529e-02
  1.192541e+00    1.337923e+00   1.972655e-02
  1.194752e+00    1.327317e+00   1.962143e-02
  1.196962e+00    1.318350e+00   1.952961e-02
  1.199173e+00    1.324699e+00   1.955032e-02
  1.201383e+00    1.315196e+00   1.945329e-02
  1.203593e+00    1.322618e+00   1.948350e-02
  1.205804e+00    1.333250e+00   1.953592e-02
  1.208014e+00    1.308455e+00   1.932697e-02
  1.210225e+00    1.316855e+00   1.936388e-02
  1.212435e+00    1.313476e+00   1.931459e-02
  1.214646e+00    1.294147e+00   1.914637e-02
  1.216856e+00    1.318067e+00   1.929733e-02
  1.219067e+00    1.316365e+00   1.926073e-02
  1.221277e+00    1.304740e+00   1.915086e-02
  1.223488e+00    1.330940e+00   1.931665e-02
  1.225698e+00    1.318401e+00   1.919884e-02
  1.227909e+00    1.308494e+00   1.909687e-02
  1.230119e+00    1.323180e+00   1.917222e-02
  1.232329e+00    1.320462e+00   1.912212e-02
  1.234540e+00    1.307659e+00   1.899939e-02
  1.236750e+00    1.314056e+00   1.901593e-02
  1.238961e+00    1.293590e+00   1.884088e-02
  1.241171e+00    1.323751e+00   1.903530e-02
  1.243382e+00    1.309930e+00   1.891252e-02
  1.245592e+00    1.303179e+00   1.884005e-02
  1.247803e+00    1.285956e+00   1.869205e-02
  1.250013e+00    1.293841e+00   1.872621e-02
  1.252224e+00    1.291136e+00   1.868389e-02
  1.254434e+00    1.293006e+00   1.867418e-02
  1.256644e+00    1.319010e+00   1.883809e-02
  1.258855e+00    1.295766e+00   1.864857e-02
  1.261065e+00    1.312300e+00   1.874412e-02
  1.263276e+00    1.335226e+00   1.888434e-02
  1.265486e+00    1.315396e+00   1.872100e-02
  1.267697e+00    1.334826e+00   1.883586e-02
  1.269907e+00    1.327655e+00   1.876271e-02
  1.272118e+00    1.316481e+00   1.866127e-02
  1.274328e+00    1.342522e+00   1.882227e-02
  1.276539e+00    1.346905e+00   1.883022e-02
  1.278749e+00    1.345967e+00   1.880140e-02
  1.280959e+00    1.313551e+00   1.855141e-02
  1.283170e+00    1.300661e+00   1.843812e-02
  1.285380e+00    1.306546e+00   1.845770e-02
  1.287591e+00    1.342186e+00   1.868579e-02
  1.289801e+00    1.320113e+00   1.851053e-02
  1.292012e+00    1.286538e+00   1.825692e-02
  1.294222e+00    1.296845e+00   1.831398e-02
  1.296433e+00    1.314698e+00   1.842423e-02
  1.298643e+00    1.306714e+00   1.835199e-02
  1.300854e+00    1.331776e+00   1.851083e-02
  1.303064e+00    1.355598e+00   1.865640e-02
  1.305274e+00    1.347601e+00   1.857987e-02
  1.307485e+00    1.336093e+00   1.847893e-02
  1.309695e+00    1.366408e+00   1.866502e-02
  1.311906e+00    1.375691e+00   1.870640e-02
  1.314116e+00    1.359658e+00   1.857622e-02
  1.316327e+00    1.355412e+00   1.852544e-02
  1.318537e+00    1.353133e+00   1.848796e-02
  1.320748e+00    1.340608e+00   1.838072e-02
  1.322958e+00    1.338769e+00   1.834766e-02
  1.325169e+00    1.337768e+00   1.831987e-02
  1.327379e+00    1.382667e+00   1.860269e-02
  1.329589e+00    1.372863e+00   1.851540e-02
  1.331800e+00    1.346913e+00   1.831889e-02
  1.334010e+00    1.341102e+00   1.825875e-02
  1.336221e+00    1.349064e+00   1.829112e-02
  1.338431e+00    1.348781e+00   1.826836e-02
  1.340642e+00    1.320122e+00   1.813667e-02
  1.342852e+00    1.315809e+00   1.820641e-02
  1.345063e+00    1.318938e+00   1.827695e-02
  1.347273e+00    1.348855e+00   1.851829e-02
  1.349484e+00    1.335315e+00   1.845267e-02
  1.351694e+00    1.328932e+00   1.843103e-02
  1.353905e+00    1.301363e+00   1.825652e-02
  1.356115e+00    1.302697e+00   1.828065e-02
  1.358325e+00    1.331779e+00   1.849679e-02
  1.360536e+00    1.344344e+00   1.859547e-02
  1.362746e+00    1.303415e+00   1.831961e-02
  1.364957e+00    1.312502e+00   1.839089e-02
  1.367167e+00    1.301005e+00   1.831722e-02
  1.369378e+00    1.305200e+00   1.835261e-02
  1.371588e+00    1.317799e+00   1.844611e-02
  1.373799e+00    1.300514e+00   1.832832e-02
  1.376009e+00    1.294570e+00   1.828976e-02
  1.378220e+00    1.271629e+00   1.812942e-02
  1.380430e+00    1.283384e+00   1.821569e-02
  1.382640e+00    1.272939e+00   1.814229e-02
  1.384851e+00    1.285930e+00   1.823551e-02
  1.387061e+00    1.273393e+00   1.814668e-02
  1.389272e+00    1.280107e+00   1.819466e-02
  1.391482e+00    1.293234e+00   1.828704e-02
  1.393693e+00    1.299910e+00   1.833330e-02
  1.395903e+00    1.270663e+00   1.812442e-02
  1.398114e+00    1.249408e+00   1.797080e-02
  1.400324e+00    1.260872e+00   1.805096e-02
  1.402535e+00    1.264509e+00   1.807466e-02
  1.404745e+00    1.269948e+00   1.811114e-02
  1.406955e+00    1.286075e+00   1.822307e-02
  1.409166e+00    1.246971e+00   1.794062e-02
  1.411376e+00    1.249367e+00   1.795475e-02
  1.413587e+00    1.239090e+00   1.787698e-02
  1.415797e+00    1.270667e+00   1.809979e-02
  1.418008e+00    1.252195e+00   1.792620e-02
  1.420218e+00    1.237317e+00   1.767158e-02
  1.422429e+00    1.233906e+00   1.756311e-02
  1.424639e+00    1.225224e+00   1.743769e-02
  1.426850e+00    1.222045e+00   1.736138e-02
  1.429060e+00    1.242682e+00   1.745891e-02
  1.431270e+00    1.249295e+00   1.746133e-02
  1.433481e+00    1.281697e+00   1.764519e-02
  1.435691e+00    1.280158e+00   1.759603e-02
  1.437902e+00    1.282363e+00   1.757452e-02
  1.440112e+00    1.275085e+00   1.748917e-02
  1.442323e+00    1.283208e+00   1.751157e-02
  1.444533e+00    1.274315e+00   1.741819e-02
  1.446744e+00    1.259535e+00   1.728587e-02
  1.448954e+00    1.266220e+00   1.730155e-02
  1.451165e+00    1.263098e+00   1.725051e-02
  1.453375e+00    1.271390e+00   1.727900e-02
  1.455586e+00    1.248723e+00   1.709634e-02
  1.457796e+00    1.265147e+00   1.718095e-02
  1.460006e+00    1.237926e+00   1.696820e-02
  1.462217e+00    1.253244e+00   1.704681e-02
  1.464427e+00    1.262762e+00   1.708589e-02
  1.466638e+00    1.240971e+00   1.691278e-02
  1.468848e+00    1.248456e+00   1.693858e-02
  1.471059e+00    1.259034e+00   1.698520e-02
  1.473269e+00    1.267378e+00   1.701703e-02
  1.475480e+00    1.269343e+00   1.700645e-02
  1.477690e+00    1.267697e+00   1.697160e-02
  1.479901e+00    1.255638e+00   1.686694e-02
  1.482111e+00    1.254625e+00   1.683696e-02
  1.484321e+00    1.228624e+00   1.663878e-02
  1.486532e+00    1.249013e+00   1.675412e-02
  1.488742e+00    1.257351e+00   1.678735e-02
  1.490953e+00    1.252846e+00   1.673476e-02
  1.493163e+00    1.225002e+00   1.652582e-02
  1.495374e+00    1.218527e+00   1.646096e-02
  1.497584e+00    1.253234e+00   1.667217e-02
  1.499795e+00    1.236848e+00   1.654137e-02
  1.502005e+00    1.227203e+00   1.645535e-02
  1.504216e+00    1.247298e+00   1.656858e-02
  1.506426e+00    1.212294e+00   1.631404e-02
  1.508636e+00    1.232720e+00   1.643062e-02
  1.510847e+00    1.250776e+00   1.652875e-02
  1.513057e+00    1.258536e+00   1.655485e-02
  1.515268e+00    1.245649e+00   1.644423e-02
  1.517478e+00    1.248003e+00   1.643469e-02
  1.519689e+00    1.220272e+00   1.622644e-02
  1.521899e+00    1.249439e+00   1.639614e-02
  1.524110e+00    1.256083e+00   1.641933e-02
  1.526320e+00    1.234550e+00   1.625853e-02
  1.528531e+00    1.248427e+00   1.632991e-02
  1.530741e+00    1.238356e+00   1.624486e-02
  1.532951e+00    1.220608e+00   1.610868e-02
  1.535162e+00    1.220201e+00   1.619156e-02
  1.537372e+00    1.200750e+00   1.612760e-02
  1.539583e+00    1.215056e+00   1.625713e-02
  1.541793e+00    1.230405e+00   1.636641e-02
  1.544004e+00    1.237259e+00   1.641217e-02
  1.546214e+00    1.223354e+00   1.631821e-02
  1.548425e+00    1.223499e+00   1.631944e-02
  1.550635e+00    1.230779e+00   1.637752e-02
  1.552846e+00    1.230071e+00   1.638244e-02
  1.555056e+00    1.204656e+00   1.617149e-02
  1.557266e+00    1.212394e+00   1.611434e-02
  1.559477e+00    1.207342e+00   1.602248e-02
  1.561687e+00    1.231048e+00   1.614853e-02
  1.563898e+00    1.244073e+00   1.621656e-02
  1.566108e+00    1.245817e+00   1.621198e-02
  1.568319e+00    1.223591e+00   1.605121e-02
  1.570529e+00    1.223386e+00   1.602495e-02
  1.572740e+00    1.230598e+00   1.604464e-02
  1.574950e+00    1.234424e+00   1.604337e-02
  1.577161e+00    1.259455e+00   1.617957e-02
  1.579371e+00    1.235071e+00   1.599863e-02
  1.581582e+00    1.224996e+00   1.591361e-02
  1.583792e+00    1.238046e+00   1.598019e-02
  1.586002e+00    1.245634e+00   1.601144e-02
  1.588213e+00    1.247903e+00   1.600876e-02
  1.590423e+00    1.233933e+00   1.589891e-02
  1.592634e+00    1.219978e+00   1.578735e-02
  1.594844e+00    1.203790e+00   1.566119e-02
  1.597055e+00    1.187996e+00   1.553808e-02
  1.599265e+00    1.199034e+00   1.558973e-02
  1.601476e+00    1.185362e+00   1.548075e-02
  1.603686e+00    1.218746e+00   1.567761e-02
  1.605897e+00    1.214683e+00   1.563153e-02
  1.608107e+00    1.210024e+00   1.558217e-02
  1.610317e+00    1.205051e+00   1.553106e-02
  1.612528e+00    1.202131e+00   1.549333e-02
  1.614738e+00    1.193241e+00   1.541727e-02
  1.616949e+00    1.194959e+00   1.540964e-02
  1.619159e+00    1.174072e+00   1.525602e-02
  1.621370e+00    1.172096e+00   1.522507e-02
  1.623580e+00    1.158695e+00   1.511989e-02
  1.625791e+00    1.173439e+00   1.519778e-02
  1.628001e+00    1.159589e+00   1.508989e-02
  1.630212e+00    1.154130e+00   1.503687e-02
  1.632422e+00    1.166473e+00   1.509931e-02
  1.634632e+00    1.156100e+00   1.501493e-02
  1.636843e+00    1.127035e+00   1.480781e-02
  1.639053e+00    1.124680e+00   1.477541e-02
  1.641264e+00    1.115936e+00   1.470117e-02
  1.643474e+00    1.119719e+00   1.470898e-02
  1.645685e+00    1.113550e+00   1.465209e-02
  1.647895e+00    1.115238e+00   1.464686e-02
  1.650106e+00    1.099761e+00   1.452827e-02
  1.652316e+00    1.105457e+00   1.454966e-02
  1.654527e+00    1.112439e+00   1.457909e-02
  1.656737e+00    1.102743e+00   1.449911e-02
  1.658947e+00    1.099104e+00   1.445911e-02
  1.661158e+00    1.091148e+00   1.439071e-02
  1.663368e+00    1.073970e+00   1.426128e-02
  1.665579e+00    1.083564e+00   1.430896e-02
  1.667789e+00    1.077497e+00   1.425290e-02
  1.670000e+00    1.071146e+00   1.419562e-02
  1.672210e+00    1.058705e+00   1.409745e-02
  1.674421e+00    1.032225e+00   1.390521e-02
  1.676631e+00    1.056823e+00   1.405436e-02
  1.678842e+00    1.067741e+00   1.411123e-02
  1.681052e+00    1.051049e+00   1.398542e-02
  1.683263e+00    1.053194e+00   1.398478e-02
  1.685473e+00    1.072023e+00   1.409420e-02
  1.687683e+00    1.056378e+00   1.397574e-02
  1.689894e+00    1.053862e+00   1.394352e-02
  1.692104e+00    1.049051e+00   1.389693e-02
  1.694315e+00    1.030961e+00   1.376236e-02
  1.696525e+00    1.069839e+00   1.400429e-02
  1.698736e+00    1.049220e+00   1.385400e-02
  1.700946e+00    1.035374e+00   1.374731e-02
  1.703157e+00    1.016837e+00   1.360933e-02
  1.705367e+00    1.019839e+00   1.361514e-02
  1.707578e+00    1.001586e+00   1.347850e-02
  1.709788e+00    1.023066e+00   1.360830e-02
  1.711998e+00    1.015766e+00   1.354485e-02
  1.714209e+00    1.016367e+00   1.353458e-02
  1.716419e+00    1.000648e+00   1.341548e-02
  1.718630e+00    9.959317e-01   1.336981e-02
  1.720840e+00    1.005290e+00   1.341844e-02
  1.723051e+00    1.014296e+00   1.346463e-02
  1.725261e+00    9.911041e-01   1.329534e-02
  1.727472e+00    9.989351e-01   1.333372e-02
  1.729682e+00    9.776897e-01   1.317798e-02
  1.731893e+00    9.753393e-01   1.314845e-02
  1.734103e+00    9.549004e-01   1.299655e-02
  1.736313e+00    9.641714e-01   1.304577e-02
  1.738524e+00    9.459631e-01   1.290855e-02
  1.740734e+00    9.676049e-01   1.304190e-02
  1.742945e+00    9.608190e-01   1.298290e-02
  1.745155e+00    9.299760e-01   1.275979e-02
  1.747366e+00    9.496926e-01   1.288077e-02
  1.749576e+00    9.791034e-01   1.306511e-02
  1.751787e+00    9.422540e-01   1.280383e-02
  1.753997e+00    9.429734e-01   1.279558e-02
  1.756208e+00    9.468964e-01   1.280916e-02
  1.758418e+00    9.404308e-01   1.275246e-02
  1.760628e+00    9.204823e-01   1.260348e-02
  1.762839e+00    9.027335e-01   1.246858e-02
  1.765049e+00    9.232984e-01   1.259694e-02
  1.767260e+00    9.485408e-01   1.275525e-02
  1.769470e+00    9.473793e-01   1.273450e-02
  1.771681e+00    9.428543e-01   1.269100e-02
  1.773891e+00    8.976434e-01   1.237031e-02
  1.776102e+00    9.006482e-01   1.237841e-02
  1.778312e+00    9.109949e-01   1.243683e-02
  1.780523e+00    8.977859e-01   1.233390e-02
  1.782733e+00    8.991545e-01   1.233089e-02
  1.784944e+00    8.835735e-01   1.221105e-02
  1.787154e+00    8.951908e-01   1.227878e-02
  1.789364e+00    8.941037e-01   1.225910e-02
  1.791575e+00    8.801249e-01   1.215067e-02
  1.793785e+00    8.866079e-01   1.218318e-02
  1.795996e+00    8.935469e-01   1.221843e-02
  1.798206e+00    9.186187e-01   1.237615e-02
  1.800417e+00    8.868099e-01   1.214752e-02
  1.802627e+00    8.679489e-01   1.200601e-02
  1.804838e+00    8.559705e-01   1.191116e-02
  1.807048e+00    8.460865e-01   1.182977e-02
  1.809259e+00    8.686268e-01   1.197302e-02
  1.811469e+00    8.719838e-01   1.198144e-02
  1.813679e+00    8.724328e-01   1.196980e-02
  1.815890e+00    8.567731e-01   1.184748e-02
  1.818100e+00    8.470036e-01   1.176507e-02
  1.820311e+00    8.483939e-01   1.176031e-02
  1.822521e+00    8.480828e-01   1.174368e-02
  1.824732e+00    8.523951e-01   1.175900e-02
  1.826942e+00    8.474421e-01   1.171273e-02
  1.829153e+00    8.472880e-01   1.170022e-02
  1.831363e+00    8.549432e-01   1.174112e-02
  1.833574e+00    8.627010e-01   1.178273e-02
  1.835784e+00    8.513940e-01   1.169402e-02
  1.837994e+00    8.304108e-01   1.153762e-02
  1.840205e+00    8.469526e-01   1.164095e-02
  1.842415e+00    8.439536e-01   1.160878e-02
  1.844626e+00    8.444744e-01   1.160096e-02
  1.846836e+00    8.193734e-01   1.141616e-02
  1.849047e+00    8.363388e-01   1.152231e-02
  1.851257e+00    8.446286e-01   1.156981e-02
  1.853468e+00    8.458118e-01   1.156921e-02
  1.855678e+00    8.329136e-01   1.147192e-02
  1.857889e+00    8.205885e-01   1.137841e-02
  1.860099e+00    8.130665e-01   1.131774e-02
  1.862309e+00    8.143173e-01   1.131813e-02
  1.864520e+00    8.357931e-01   1.145794e-02
  1.866730e+00    8.200415e-01   1.134026e-02
  1.868941e+00    8.478930e-01   1.152031e-02
  1.871151e+00    8.436662e-01   1.148024e-02
  1.873362e+00    8.254500e-01   1.134444e-02
  1.875572e+00    8.341850e-01   1.139346e-02
  1.877783e+00    8.220941e-01   1.129936e-02
  1.879993e+00    8.155292e-01   1.124317e-02
  1.882204e+00    8.498420e-01   1.146635e-02
  1.884414e+00    8.177672e-01   1.123699e-02
  1.886624e+00    8.306546e-01   1.131418e-02
  1.888835e+00    8.371903e-01   1.134768e-02
  1.891045e+00    8.221933e-01   1.123481e-02
  1.893256e+00    7.900240e-01   1.100208e-02
  1.895466e+00    7.906125e-01   1.099530e-02
  1.897677e+00    8.042910e-01   1.107930e-02
  1.899887e+00    8.029590e-01   1.105934e-02
  1.902098e+00    8.222699e-01   1.118076e-02
  1.904308e+00    8.255518e-01   1.119250e-02
  1.906519e+00    8.321918e-01   1.122658e-02
  1.908729e+00    8.235816e-01   1.115777e-02
  1.910940e+00    8.234113e-01   1.114552e-02
  1.913150e+00    8.158134e-01   1.108345e-02
  1.915360e+00    8.100954e-01   1.103403e-02
  1.917571e+00    7.983184e-01   1.094280e-02
  1.919781e+00    8.230185e-01   1.110010e-02
  1.921992e+00    8.234589e-01   1.109244e-02
  1.924202e+00    8.099614e-01   1.099044e-02
  1.926413e+00    8.112963e-01   1.098922e-02
  1.928623e+00    7.977683e-01   1.088679e-02
  1.930834e+00    8.044198e-01   1.092169e-02
  1.933044e+00    8.122059e-01   1.096376e-02
  1.935255e+00    8.046384e-01   1.090227e-02
  1.937465e+00    7.970734e-01   1.084057e-02
  1.939675e+00    7.957436e-01   1.082075e-02
  1.941886e+00    7.939754e-01   1.079852e-02
  1.944096e+00    7.812859e-01   1.070182e-02
  1.946307e+00    8.084386e-01   1.087581e-02
  1.948517e+00    8.166745e-01   1.092053e-02
  1.950728e+00    8.115237e-01   1.087572e-02
  1.952938e+00    8.036261e-01   1.081253e-02
  1.955149e+00    7.986485e-01   1.076875e-02
  1.957359e+00    7.928120e-01   1.071931e-02
  1.959570e+00    7.826523e-01   1.063962e-02
  1.961780e+00    7.819982e-01   1.062532e-02
  1.963990e+00    7.968236e-01   1.071541e-02
  1.966201e+00    7.917466e-01   1.067117e-02
  1.968411e+00    7.817389e-01   1.059339e-02
  1.970622e+00    7.869552e-01   1.061861e-02
  1.972832e+00    7.851033e-01   1.059613e-02
  1.975043e+00    7.763725e-01   1.052708e-02
  1.977253e+00    7.935496e-01   1.063288e-02
  1.979464e+00    7.923606e-01   1.061484e-02
  1.981674e+00    7.760032e-01   1.049449e-02
  1.983885e+00    7.641281e-01   1.040395e-02
  1.986095e+00    7.659582e-01   1.040681e-02
  1.988305e+00    7.771983e-01   1.047300e-02
  1.990516e+00    7.612835e-01   1.035541e-02
  1.992726e+00    7.708562e-01   1.041068e-02
  1.994937e+00    7.659048e-01   1.036716e-02
  1.997147e+00    7.568716e-01   1.029620e-02
  1.999358e+00    7.796754e-01   1.044029e-02
  2.001568e+00    7.648562e-01   1.032985e-02
  2.003779e+00    7.570674e-01   1.026532e-02
  2.005989e+00    7.523527e-01   1.022143e-02
  2.008200e+00    7.588881e-01   1.025429e-02
  2.010410e+00    7.629349e-01   1.026989e-02
  2.012621e+00    7.623329e-01   1.025419e-02
  2.014831e+00    7.633097e-01   1.024930e-02
  2.017041e+00    7.562361e-01   1.019140e-02
  2.019252e+00    7.650468e-01   1.024064e-02
  2.021462e+00    7.660490e-01   1.023783e-02
  2.023673e+00    7.502846e-01   1.012265e-02
  2.025883e+00    7.341796e-01   1.000408e-02
  2.028094e+00    7.331913e-01   9.987882e-03
  2.030304e+00    7.424008e-01   1.004100e-02
  2.032515e+00    7.387336e-01   1.000700e-02
  2.034725e+00    7.527729e-01   1.009225e-02
  2.036936e+00    7.391049e-01   9.990982e-03
  2.039146e+00    7.335774e-01   9.944145e-03
  2.041356e+00    7.454336e-01   1.001458e-02
  2.043567e+00    7.639474e-01   1.012885e-02
  2.045777e+00    7.592665e-01   1.008849e-02
  2.047988e+00    7.407420e-01   9.955388e-03
  2.050198e+00    7.356063e-01   9.912479e-03
  2.052409e+00    7.401677e-01   9.935580e-03
  2.054619e+00    7.240779e-01   9.819753e-03
  2.056830e+00    7.620947e-01   1.006699e-02
  2.059040e+00    7.747413e-01   1.014257e-02
  2.061251e+00    7.567436e-01   1.001680e-02
  2.063461e+00    7.364738e-01   9.874194e-03
  2.065671e+00    7.392340e-01   9.884017e-03
  2.067882e+00    7.423438e-01   9.895819e-03
  2.070092e+00    7.250204e-01   9.770630e-03
  2.072303e+00    7.307600e-01   9.800157e-03
  2.074513e+00    7.291769e-01   9.780345e-03
  2.076724e+00    7.219486e-01   9.722412e-03
  2.078934e+00    7.335075e-01   9.790992e-03
  2.081145e+00    7.282116e-01   9.746595e-03
  2.083355e+00    7.181043e-01   9.669701e-03
  2.085566e+00    7.141515e-01   9.634287e-03
  2.087776e+00    7.091532e-01   9.591225e-03
  2.089986e+00    7.019198e-01   9.533603e-03
  2.092197e+00    7.067416e-01   9.557519e-03
  2.094407e+00    7.451190e-01   9.804302e-03
  2.096618e+00    7.191218e-01   9.622973e-03
  2.098828e+00    7.075691e-01   9.536203e-03
  2.101039e+00    7.177552e-01   9.595711e-03
  2.103249e+00    7.328628e-01   9.687506e-03
  2.105460e+00    7.112657e-01   9.534799e-03
  2.107670e+00    7.099940e-01   9.517639e-03
  2.109881e+00    7.192549e-01   9.570393e-03
  2.112091e+00    7.163716e-01   9.542285e-03
  2.114301e+00    7.067687e-01   9.469414e-03
  2.116512e+00    7.112551e-01   9.490712e-03
  2.118722e+00    6.999444e-01   9.406257e-03
  2.120933e+00    7.061478e-01   9.439073e-03
  2.123143e+00    7.070445e-01   9.436226e-03
  2.125354e+00    7.092365e-01   9.442373e-03
  2.127564e+00    7.081539e-01   9.426469e-03
  2.129775e+00    7.113589e-01   9.439090e-03
  2.131985e+00    6.992143e-01   9.349203e-03
  2.134196e+00    6.981289e-01   9.333454e-03
  2.136406e+00    6.937074e-01   9.295208e-03
  2.138617e+00    6.922371e-01   9.277008e-03
  2.140827e+00    7.036387e-01   9.369105e-03
  2.143037e+00    6.993085e-01   9.385442e-03
  2.145248e+00    6.967407e-01   9.390079e-03
  2.147458e+00    6.878752e-01   9.345079e-03
  2.149669e+00    6.956064e-01   9.409257e-03
  2.151879e+00    6.827846e-01   9.331228e-03
  2.154090e+00    6.950334e-01   9.421821e-03
  2.156300e+00    6.892371e-01   9.389029e-03
  2.158511e+00    6.792746e-01   9.326141e-03
  2.160721e+00    6.795613e-01   9.332852e-03
  2.162932e+00    6.848279e-01   9.372665e-03
  2.165142e+00    6.529639e-01   9.154947e-03
  2.167352e+00    6.684343e-01   9.265591e-03
  2.169563e+00    6.696053e-01   9.275635e-03
  2.171773e+00    6.801783e-01   9.351014e-03
  2.173984e+00    6.682959e-01   9.270346e-03
  2.176194e+00    6.783695e-01   9.341153e-03
  2.178405e+00    6.691244e-01   9.277957e-03
  2.180615e+00    6.771842e-01   9.334342e-03
  2.182826e+00    6.752294e-01   9.321543e-03
  2.185036e+00    6.667433e-01   9.262830e-03
  2.187247e+00    6.742284e-01   9.314601e-03
  2.189457e+00    6.869047e-01   9.401384e-03
  2.191667e+00    6.839848e-01   9.381186e-03
  2.193878e+00    6.672170e-01   9.264953e-03
  2.196088e+00    6.616611e-01   9.225597e-03
  2.198299e+00    6.751025e-01   9.317765e-03
  2.200509e+00    6.535757e-01   9.166977e-03
  2.202720e+00    6.560218e-01   9.182965e-03
  2.204930e+00    6.541789e-01   9.168861e-03
  2.207141e+00    6.441836e-01   9.097463e-03
  2.209351e+00    6.540679e-01   9.165113e-03
  2.211562e+00    6.729991e-01   9.295209e-03
  2.213772e+00    6.733262e-01   9.242140e-03
  2.215982e+00    6.753738e-01   9.211982e-03
  2.218193e+00    6.630205e-01   9.098008e-03
  2.220403e+00    6.525218e-01   9.001493e-03
  2.222614e+00    6.588216e-01   9.024130e-03
  2.224824e+00    6.578582e-01   8.998379e-03
  2.227035e+00    6.485423e-01   8.917309e-03
  2.229245e+00    6.491035e-01   8.904482e-03
  2.231456e+00    6.533551e-01   8.918186e-03
  2.233666e+00    6.634275e-01   8.971675e-03
  2.235877e+00    6.518651e-01   8.879067e-03
  2.238087e+00    6.522532e-01   8.868426e-03
  2.240298e+00    6.474615e-01   8.822226e-03
  2.242508e+00    6.696543e-01   8.957033e-03
  2.244718e+00    6.464468e-01   8.784904e-03
  2.246929e+00    6.598790e-01   8.861381e-03
  2.249139e+00    6.640552e-01   8.877020e-03
  2.251350e+00    6.808313e-01   8.976620e-03
  2.253560e+00    6.584902e-01   8.816644e-03
  2.255771e+00    6.421657e-01   8.695441e-03
  2.257981e+00    6.443181e-01   8.699010e-03
  2.260192e+00    6.374848e-01   8.641870e-03
  2.262402e+00    6.374945e-01   8.631300e-03
  2.264613e+00    6.623767e-01   8.787301e-03
  2.266823e+00    6.578839e-01   8.747115e-03
  2.269033e+00    6.409264e-01   8.623427e-03
  2.271244e+00    6.405055e-01   8.610382e-03
  2.273454e+00    6.549364e-01   8.696634e-03
  2.275665e+00    6.524482e-01   8.669864e-03
  2.277875e+00    6.462362e-01   8.618689e-03
  2.280086e+00    6.429480e-01   8.586808e-03
  2.282296e+00    6.399109e-01   8.557255e-03
  2.284507e+00    6.297747e-01   8.479300e-03
  2.286717e+00    6.343251e-01   8.500563e-03
  2.288928e+00    6.327860e-01   8.480588e-03
  2.291138e+00    6.385553e-01   8.509850e-03
  2.293348e+00    6.384839e-01   8.499972e-03
  2.295559e+00    6.424088e-01   8.516825e-03
  2.297769e+00    6.467210e-01   8.536181e-03
  2.299980e+00    6.364507e-01   8.458918e-03
  2.302190e+00    6.322225e-01   8.421795e-03
  2.304401e+00    6.303443e-01   8.400106e-03
  2.306611e+00    6.329529e-01   8.408407e-03
  2.308822e+00    6.406604e-01   8.451128e-03
  2.311032e+00    6.387836e-01   8.432359e-03
  2.313243e+00    6.361527e-01   8.408763e-03
  2.315453e+00    6.373395e-01   8.409096e-03
  2.317663e+00    6.368439e-01   8.396789e-03
  2.319874e+00    6.190186e-01   8.269889e-03
  2.322084e+00    6.275153e-01   8.317615e-03
  2.324295e+00    6.137123e-01   8.217617e-03
  2.326505e+00    6.420006e-01   8.395812e-03
  2.328716e+00    6.468858e-01   8.419150e-03
  2.330926e+00    6.418997e-01   8.377842e-03
  2.333137e+00    6.429754e-01   8.376481e-03
  2.335347e+00    6.333876e-01   8.304989e-03
  2.337558e+00    6.171166e-01   8.189537e-03
  2.339768e+00    6.163955e-01   8.176328e-03
  2.341979e+00    6.259971e-01   8.231481e-03
  2.344189e+00    6.132182e-01   8.138814e-03
  2.346399e+00    6.166364e-01   8.153087e-03
  2.348610e+00    6.102822e-01   8.102687e-03
  2.350820e+00    6.186044e-01   8.149658e-03
  2.353031e+00    6.106389e-01   8.088919e-03
  2.355241e+00    6.195353e-01   8.139634e-03
  2.357452e+00    6.080807e-01   8.055802e-03
  2.359662e+00    6.137335e-01   8.085030e-03
  2.361873e+00    6.159745e-01   8.091663e-03
  2.364083e+00    6.016768e-01   7.989376e-03
  2.366294e+00    6.111178e-01   8.043812e-03
  2.368504e+00    6.135690e-01   8.051940e-03
  2.370714e+00    6.262639e-01   8.126741e-03
  2.372925e+00    6.177710e-01   8.063478e-03
  2.375135e+00    6.010548e-01   7.945690e-03
  2.377346e+00    6.109577e-01   8.003041e-03
  2.379556e+00    6.039107e-01   7.948964e-03
  2.381767e+00    6.121616e-01   7.995275e-03
  2.383977e+00    6.130701e-01   7.993332e-03
  2.386188e+00    6.150424e-01   7.998278e-03
  2.388398e+00    6.119640e-01   7.970339e-03
  2.390609e+00    6.105077e-01   7.953164e-03
  2.392819e+00    5.953835e-01   7.846385e-03
  2.395029e+00    5.999790e-01   7.869054e-03
  2.397240e+00    5.904863e-01   7.798832e-03
  2.399450e+00    6.098579e-01   7.917935e-03
  2.401661e+00    6.028019e-01   7.864400e-03
  2.403871e+00    5.865512e-01   7.750052e-03
  2.406082e+00    5.925704e-01   7.782376e-03
  2.408292e+00    5.948321e-01   7.789538e-03
  2.410503e+00    5.943159e-01   7.778742e-03
  2.412713e+00    5.977213e-01   7.793272e-03
  2.414924e+00    5.871063e-01   7.716390e-03
  2.417134e+00    5.880887e-01   7.715308e-03
  2.419344e+00    5.903533e-01   7.722828e-03
  2.421555e+00    5.780140e-01   7.634324e-03
  2.423765e+00    5.826773e-01   7.657767e-03
  2.425976e+00    5.841342e-01   7.659634e-03
  2.428186e+00    5.895203e-01   7.687696e-03
  2.430397e+00    5.916430e-01   7.694090e-03
  2.432607e+00    5.797443e-01   7.609147e-03
  2.434818e+00    5.763324e-01   7.579301e-03
  2.437028e+00    5.838673e-01   7.621591e-03
  2.439239e+00    5.973963e-01   7.701711e-03
  2.441449e+00    5.913200e-01   7.655261e-03
  2.443659e+00    5.838507e-01   7.599445e-03
  2.445870e+00    5.754153e-01   7.556456e-03
  2.448080e+00    5.647377e-01   7.520268e-03
  2.450291e+00    5.654413e-01   7.541385e-03
  2.452501e+00    5.559973e-01   7.489111e-03
  2.454712e+00    5.571316e-01   7.505053e-03
  2.456922e+00    5.566004e-01   7.508009e-03
  2.459133e+00    5.520524e-01   7.482636e-03
  2.461343e+00    5.544568e-01   7.503202e-03
  2.463554e+00    5.502057e-01   7.477842e-03
  2.465764e+00    5.345501e-01   7.373711e-03
  2.467975e+00    5.457099e-01   7.452552e-03
  2.470185e+00    5.470678e-01   7.464043e-03
  2.472395e+00    5.415866e-01   7.427773e-03
  2.474606e+00    5.403696e-01   7.420954e-03
  2.476816e+00    5.394175e-01   7.415153e-03
  2.479027e+00    5.314465e-01   7.360986e-03
  2.481237e+00    5.391673e-01   7.414541e-03
  2.483448e+00    5.349563e-01   7.385832e-03
  2.485658e+00    5.251742e-01   7.317855e-03
  2.487869e+00    5.370746e-01   7.400326e-03
  2.490079e+00    5.335669e-01   7.375621e-03
  2.492290e+00    5.298102e-01   7.349168e-03
  2.494500e+00    5.277455e-01   7.334121e-03
  2.496710e+00    5.186962e-01   7.270278e-03
  2.498921e+00    5.304114e-01   7.350937e-03
  2.501131e+00    5.180959e-01   7.264168e-03
  2.503342e+00    5.095353e-01   7.202653e-03
  2.505552e+00    5.232967e-01   7.298154e-03
  2.507763e+00    5.120223e-01   7.217724e-03
  2.509973e+00    5.141670e-01   7.231418e-03
  2.512184e+00    5.253230e-01   7.307875e-03
  2.514394e+00    5.194423e-01   7.257544e-03
  2.516605e+00    5.272706e-01   7.264921e-03
  2.518815e+00    5.449826e-01   7.357116e-03
  2.521025e+00    5.235977e-01   7.190408e-03
  2.523236e+00    5.202246e-01   7.149308e-03
  2.525446e+00    5.254452e-01   7.169499e-03
  2.527657e+00    5.096223e-01   7.046329e-03
  2.529867e+00    5.065137e-01   7.010886e-03
  2.532078e+00    5.142479e-01   7.049312e-03
  2.534288e+00    5.119258e-01   7.019681e-03
  2.536499e+00    5.155134e-01   7.032392e-03
  2.538709e+00    5.057333e-01   6.954571e-03
  2.540920e+00    5.091851e-01   6.967772e-03
  2.543130e+00    5.008629e-01   6.900460e-03
  2.545340e+00    5.115576e-01   6.963784e-03
  2.547551e+00    5.162980e-01   6.986115e-03
  2.549761e+00    5.036239e-01   6.890418e-03
  2.551972e+00    5.085983e-01   6.915138e-03
  2.554182e+00    5.035409e-01   6.871633e-03
  2.556393e+00    5.098991e-01   6.905898e-03
  2.558603e+00    5.221940e-01   6.979560e-03
  2.560814e+00    5.144946e-01   6.919282e-03
  2.563024e+00    5.003918e-01   6.815345e-03
  2.565235e+00    5.020279e-01   6.817148e-03
  2.567445e+00    5.032883e-01   6.816272e-03
  2.569656e+00    5.140213e-01   6.878859e-03
  2.571866e+00    5.138563e-01   6.868457e-03
  2.574076e+00    5.055249e-01   6.803368e-03
  2.576287e+00    5.176827e-01   6.876351e-03
  2.578497e+00    5.261095e-01   6.924174e-03
  2.580708e+00    5.131178e-01   6.830091e-03
  2.582918e+00    5.032609e-01   6.756487e-03
  2.585129e+00    4.966094e-01   6.704081e-03
  2.587339e+00    4.965678e-01   6.696252e-03
  2.589550e+00    5.020255e-01   6.725457e-03
  2.591760e+00    5.130364e-01   6.791092e-03
  2.593971e+00    5.014122e-01   6.706257e-03
  2.596181e+00    5.048512e-01   6.723025e-03
  2.598391e+00    4.974639e-01   6.668561e-03
  2.600602e+00    4.966617e-01   6.657316e-03
  2.602812e+00    5.159808e-01   6.777975e-03
  2.605023e+00    5.152473e-01   6.765961e-03
  2.607233e+00    5.037658e-01   6.683035e-03
  2.609444e+00    5.020819e-01   6.664664e-03
  2.611654e+00    4.985974e-01   6.634235e-03
  2.613865e+00    4.958687e-01   6.609093e-03
  2.616075e+00    5.030618e-01   6.649737e-03
  2.618286e+00    4.899012e-01   6.555295e-03
  2.620496e+00    4.820736e-01   6.496181e-03
  2.622706e+00    4.831246e-01   6.497620e-03
  2.624917e+00    4.745922e-01   6.434337e-03
  2.627127e+00    4.849241e-01   6.498345e-03
  2.629338e+00    4.933110e-01   6.548393e-03
  2.631548e+00    4.976982e-01   6.571309e-03
  2.633759e+00    4.881656e-01   6.501039e-03
  2.635969e+00    4.843203e-01   6.468798e-03
  2.638180e+00    4.895259e-01   6.496589e-03
  2.640390e+00    4.902951e-01   6.495136e-03
  2.642601e+00    4.969535e-01   6.532464e-03
  2.644811e+00    4.956710e-01   6.516992e-03
  2.647021e+00    5.100303e-01   6.604074e-03
  2.649232e+00    4.876795e-01   6.451132e-03
  2.651442e+00    4.856638e-01   6.431350e-03
  2.653653e+00    4.998100e-01   6.517547e-03
  2.655863e+00    4.935606e-01   6.470031e-03
  2.658074e+00    4.804190e-01   6.376822e-03
  2.660284e+00    4.813377e-01   6.376656e-03
  2.662495e+00    4.802481e-01   6.362799e-03
  2.664705e+00    4.828553e-01   6.373580e-03
  2.666916e+00    4.841435e-01   6.375681e-03
  2.669126e+00    4.698114e-01   6.274330e-03
  2.671337e+00    4.820031e-01   6.348707e-03
  2.673547e+00    4.855482e-01   6.365715e-03
  2.675757e+00    4.879705e-01   6.375161e-03
  2.677968e+00    4.745395e-01   6.280431e-03
  2.680178e+00    4.746771e-01   6.275055e-03
  2.682389e+00    4.819836e-01   6.316838e-03
  2.684599e+00    4.750159e-01   6.264958e-03
  2.686810e+00    4.689330e-01   6.218252e-03
  2.689020e+00    4.868625e-01   6.329749e-03
  2.691231e+00    4.947519e-01   6.374517e-03
  2.693441e+00    4.911340e-01   6.345032e-03
  2.695652e+00    4.813905e-01   6.275322e-03
  2.697862e+00    4.760072e-01   6.233871e-03
  2.700072e+00    4.770905e-01   6.234964e-03
  2.702283e+00    4.961414e-01   6.351954e-03
  2.704493e+00    4.839556e-01   6.267235e-03
  2.706704e+00    4.801794e-01   6.236365e-03
  2.708914e+00    4.801739e-01   6.230421e-03
  2.711125e+00    4.799755e-01   6.222937e-03
  2.713335e+00    4.704696e-01   6.155024e-03
  2.715546e+00    4.847754e-01   6.241447e-03
  2.717756e+00    4.837323e-01   6.228876e-03
  2.719967e+00    4.660059e-01   6.107593e-03
  2.722177e+00    4.752479e-01   6.161797e-03
  2.724387e+00    4.694831e-01   6.118306e-03
  2.726598e+00    4.860253e-01   6.219095e-03
  2.728808e+00    4.865493e-01   6.216292e-03
  2.731019e+00    4.833758e-01   6.189880e-03
  2.733229e+00    4.724566e-01   6.113833e-03
  2.735440e+00    4.850804e-01   6.188685e-03
  2.737650e+00    4.764059e-01   6.127145e-03
  2.739861e+00    4.742390e-01   6.107170e-03
  2.742071e+00    4.685632e-01   6.064864e-03
  2.744282e+00    4.753920e-01   6.102698e-03
  2.746492e+00    4.771745e-01   6.108120e-03
  2.748702e+00    4.662720e-01   6.032147e-03
  2.750913e+00    4.699101e-01   6.049885e-03
  2.753123e+00    4.749903e-01   6.076447e-03
  2.755334e+00    4.747305e-01   6.068746e-03
  2.757544e+00    4.769203e-01   6.077000e-03
  2.759755e+00    4.763595e-01   6.067578e-03
  2.761965e+00    4.661639e-01   5.996396e-03
  2.764176e+00    4.744426e-01   6.043441e-03
  2.766386e+00    4.728807e-01   6.027757e-03
  2.768597e+00    4.747570e-01   6.033863e-03
  2.770807e+00    4.707461e-01   6.002493e-03
  2.773017e+00    4.593199e-01   5.923361e-03
  2.775228e+00    4.646343e-01   5.951828e-03
  2.777438e+00    4.542460e-01   5.879254e-03
  2.779649e+00    4.626774e-01   5.927764e-03
  2.781859e+00    4.802575e-01   6.033560e-03
  2.784070e+00    4.722998e-01   5.977533e-03
  2.786280e+00    4.791024e-01   6.014639e-03
  2.788491e+00    4.755588e-01   5.986551e-03
  2.790701e+00    4.782448e-01   5.997759e-03
  2.792912e+00    4.706500e-01   5.944019e-03
  2.795122e+00    4.765178e-01   5.975216e-03
  2.797333e+00    4.755095e-01   5.963335e-03
  2.799543e+00    4.700804e-01   5.923380e-03
  2.801753e+00    4.653117e-01   5.887448e-03
  2.803964e+00    4.743809e-01   5.938890e-03
  2.806174e+00    4.731478e-01   5.925038e-03
  2.808385e+00    4.708457e-01   5.903840e-03
  2.810595e+00    4.670906e-01   5.873440e-03
  2.812806e+00    4.668021e-01   5.865068e-03
  2.815016e+00    4.613703e-01   5.826160e-03
  2.817227e+00    4.756031e-01   5.941320e-03
  2.819437e+00    4.609798e-01   5.860208e-03
  2.821648e+00    4.597361e-01   5.854532e-03
  2.823858e+00    4.700284e-01   5.925032e-03
  2.826068e+00    4.824113e-01   6.007599e-03
  2.828279e+00    4.713016e-01   5.942064e-03
  2.830489e+00    4.695602e-01   5.934401e-03
  2.832700e+00    4.591545e-01   5.870807e-03
  2.834910e+00    4.407906e-01   5.754187e-03
  2.837121e+00    4.483135e-01   5.804755e-03
  2.839331e+00    4.603363e-01   5.883294e-03
  2.841542e+00    4.679990e-01   5.933066e-03
  2.843752e+00    4.645456e-01   5.911926e-03
  2.845963e+00    4.617875e-01   5.894733e-03
  2.848173e+00    4.598414e-01   5.882390e-03
  2.850383e+00    4.558939e-01   5.857382e-03
  2.852594e+00    4.542750e-01   5.846889e-03
  2.854804e+00    4.549734e-01   5.850875e-03
  2.857015e+00    4.587675e-01   5.874796e-03
  2.859225e+00    4.702373e-01   5.947530e-03
  2.861436e+00    4.655596e-01   5.917231e-03
  2.863646e+00    4.593641e-01   5.877754e-03
  2.865857e+00    4.617821e-01   5.893551e-03
  2.868067e+00    4.471915e-01   5.799914e-03
  2.870278e+00    4.392428e-01   5.747793e-03
  2.872488e+00    4.601040e-01   5.881517e-03
  2.874698e+00    4.783380e-01   5.995901e-03
  2.876909e+00    4.540086e-01   5.840111e-03
  2.879119e+00    4.569873e-01   5.857617e-03
  2.881330e+00    4.571259e-01   5.857049e-03
  2.883540e+00    4.463010e-01   5.785924e-03
  2.885751e+00    4.464768e-01   5.785431e-03
  2.887961e+00    4.506626e-01   5.810640e-03
  2.890172e+00    4.473307e-01   5.787535e-03
  2.892382e+00    4.517953e-01   5.814556e-03
  2.894593e+00    4.501107e-01   5.801918e-03
  2.896803e+00    4.540955e-01   5.825562e-03
  2.899014e+00    4.588470e-01   5.854068e-03
  2.901224e+00    4.613130e-01   5.867781e-03
  2.903434e+00    4.356553e-01   5.700392e-03
  2.905645e+00    4.490193e-01   5.784936e-03
  2.907855e+00    4.384725e-01   5.714551e-03
  2.910066e+00    4.389172e-01   5.715417e-03
  2.912276e+00    4.531702e-01   5.805372e-03
  2.914487e+00    4.339902e-01   5.678798e-03
  2.916697e+00    4.430327e-01   5.735462e-03
  2.918908e+00    4.469201e-01   5.758589e-03
  2.921118e+00    4.597881e-01   5.838210e-03
  2.923329e+00    4.542719e-01   5.800777e-03
  2.925539e+00    4.515941e-01   5.781392e-03
  2.927749e+00    4.298722e-01   5.638395e-03
  2.929960e+00    4.422973e-01   5.716559e-03
  2.932170e+00    4.438827e-01   5.724490e-03
  2.934381e+00    4.592494e-01   5.820308e-03
  2.936591e+00    4.510837e-01   5.765767e-03
  2.938802e+00    4.394748e-01   5.688423e-03
  2.941012e+00    4.381562e-01   5.677601e-03
  2.943223e+00    4.525813e-01   5.767602e-03
  2.945433e+00    4.516432e-01   5.757918e-03
  2.947644e+00    4.458480e-01   5.716766e-03
  2.949854e+00    4.498608e-01   5.738189e-03
  2.952064e+00    4.384594e-01   5.660866e-03
  2.954275e+00    4.377636e-01   5.652028e-03
  2.956485e+00    4.408480e-01   5.667813e-03
  2.958696e+00    4.365411e-01   5.635743e-03
  2.960906e+00    4.559485e-01   5.755479e-03
  2.963117e+00    4.438519e-01   5.674202e-03
  2.965327e+00    4.382404e-01   5.634374e-03
  2.967538e+00    4.627865e-01   5.787065e-03
  2.969748e+00    4.574299e-01   5.750678e-03
  2.971959e+00    4.445110e-01   5.665776e-03
  2.974169e+00    4.501875e-01   5.699262e-03
  2.976379e+00    4.568852e-01   5.738581e-03
  2.978590e+00    4.490104e-01   5.685783e-03
  2.980800e+00    4.498794e-01   5.688523e-03
  2.983011e+00    4.334419e-01   5.580878e-03
  2.985221e+00    4.492355e-01   5.678509e-03
  2.987432e+00    4.506890e-01   5.684595e-03
  2.989642e+00    4.454809e-01   5.649045e-03
  2.991853e+00    4.447978e-01   5.641487e-03
  2.994063e+00    4.429138e-01   5.626624e-03
  2.996274e+00    4.434861e-01   5.627141e-03
  2.998484e+00    4.396769e-01   5.600250e-03
  3.000694e+00    4.480309e-01   5.649771e-03
  3.002905e+00    4.478720e-01   5.645846e-03
  3.005115e+00    4.496612e-01   5.654155e-03
  3.007326e+00    4.505544e-01   5.656626e-03
  3.009536e+00    4.398831e-01   5.586014e-03
  3.011747e+00    4.498004e-01   5.645737e-03
  3.013957e+00    4.459602e-01   5.618442e-03
  3.016168e+00    4.343148e-01   5.541395e-03
  3.018378e+00    4.346004e-01   5.540243e-03
  3.020589e+00    4.411749e-01   5.578813e-03
  3.022799e+00    4.407057e-01   5.572728e-03
  3.025010e+00    4.415506e-01   5.574867e-03
  3.027220e+00    4.392702e-01   5.557396e-03
  3.029430e+00    4.387023e-01   5.550595e-03
  3.031641e+00    4.395663e-01   5.552963e-03
  3.033851e+00    4.360889e-01   5.527508e-03
  3.036062e+00    4.429461e-01   5.568045e-03
  3.038272e+00    4.431200e-01   5.565581e-03
  3.040483e+00    4.313392e-01   5.487974e-03
  3.042693e+00    4.262974e-01   5.452605e-03
  3.044904e+00    4.513464e-01   5.606504e-03
  3.047114e+00    4.538348e-01   5.617111e-03
  3.049325e+00    4.464456e-01   5.566835e-03
  3.051535e+00    4.431573e-01   5.541931e-03
  3.053745e+00    4.305873e-01   5.458132e-03
  3.055956e+00    4.388918e-01   5.505995e-03
  3.058166e+00    4.316441e-01   5.456166e-03
  3.060377e+00    4.361340e-01   5.479793e-03
  3.062587e+00    4.353425e-01   5.470236e-03
  3.064798e+00    4.299883e-01   5.432369e-03
  3.067008e+00    4.380091e-01   5.478096e-03
  3.069219e+00    4.546297e-01   5.576552e-03
  3.071429e+00    4.451546e-01   5.514643e-03
  3.073640e+00    4.472356e-01   5.524179e-03
  3.075850e+00    4.374287e-01   5.459759e-03
  3.078060e+00    4.309249e-01   5.415972e-03
  3.080271e+00    4.458795e-01   5.505667e-03
  3.082481e+00    4.379062e-01   5.452840e-03
  3.084692e+00    4.260271e-01   5.375056e-03
  3.086902e+00    4.380850e-01   5.447395e-03
  3.089113e+00    4.361697e-01   5.431954e-03
  3.091323e+00    4.405564e-01   5.455846e-03
  3.093534e+00    4.346963e-01   5.416118e-03
  3.095744e+00    4.454457e-01   5.479302e-03
  3.097955e+00    4.441929e-01   5.468073e-03
  3.100165e+00    4.400501e-01   5.439207e-03
  3.102375e+00    4.205056e-01   5.313719e-03
  3.104586e+00    4.382877e-01   5.421452e-03
  3.106796e+00    4.356928e-01   5.401897e-03
  3.109007e+00    4.290963e-01   5.357711e-03
  3.111217e+00    4.299368e-01   5.359300e-03
  3.113428e+00    4.475349e-01   5.464473e-03
  3.115638e+00    4.597940e-01   5.535532e-03
  3.117849e+00    4.425785e-01   5.427211e-03
  3.120059e+00    4.338068e-01   5.369724e-03
  3.122270e+00    4.388554e-01   5.397649e-03
  3.124480e+00    4.315033e-01   5.348616e-03
  3.126691e+00    4.427846e-01   5.414527e-03
  3.128901e+00    4.351139e-01   5.364338e-03
  3.131111e+00    4.441006e-01   5.415590e-03
  3.133322e+00    4.464686e-01   5.426584e-03
  3.135532e+00    4.303095e-01   5.324125e-03
  3.137743e+00    4.158144e-01   5.230309e-03
  3.139953e+00    4.266482e-01   5.294393e-03
  3.142164e+00    4.209985e-01   5.270941e-03
  3.144374e+00    4.337313e-01   5.378168e-03
  3.146585e+00    4.306937e-01   5.373684e-03
  3.148795e+00    4.351607e-01   5.412162e-03
  3.151006e+00    4.416056e-01   5.460633e-03
  3.153216e+00    4.432091e-01   5.477695e-03
  3.155426e+00    4.404009e-01   5.466617e-03
  3.157637e+00    4.372346e-01   5.452433e-03
  3.159847e+00    4.277007e-01   5.397468e-03
  3.162058e+00    4.273596e-01   5.399678e-03
  3.164268e+00    4.245903e-01   5.386139e-03
  3.166479e+00    4.292506e-01   5.419228e-03
  3.168689e+00    4.403670e-01   5.492312e-03
  3.170900e+00    4.378362e-01   5.479699e-03
  3.173110e+00    4.338463e-01   5.457515e-03
  3.175321e+00    4.269658e-01   5.416533e-03
  3.177531e+00    4.217938e-01   5.386312e-03
  3.179741e+00    4.309416e-01   5.446452e-03
  3.181952e+00    4.302152e-01   5.443971e-03
  3.184162e+00    4.307606e-01   5.449578e-03
  3.186373e+00    4.240618e-01   5.408637e-03
  3.188583e+00    4.307190e-01   5.452670e-03
  3.190794e+00    4.319728e-01   5.462370e-03
  3.193004e+00    4.141299e-01   5.349580e-03
  3.195215e+00    4.104345e-01   5.327105e-03
  3.197425e+00    4.175871e-01   5.374501e-03
  3.199636e+00    4.236222e-01   5.412447e-03
  3.201846e+00    4.324116e-01   5.467693e-03
  3.204056e+00    4.353419e-01   5.487093e-03
  3.206267e+00    4.267411e-01   5.433462e-03
  3.208477e+00    4.272211e-01   5.437441e-03
  3.210688e+00    4.159289e-01   5.365910e-03
  3.212898e+00    4.278276e-01   5.442696e-03
  3.215109e+00    4.283141e-01   5.446545e-03
  3.217319e+00    4.176343e-01   5.378831e-03
  3.219530e+00    4.346774e-01   5.487881e-03
  3.221740e+00    4.257333e-01   5.431690e-03
  3.223951e+00    4.300535e-01   5.459654e-03
  3.226161e+00    4.208488e-01   5.401093e-03
  3.228372e+00    4.258816e-01   5.433810e-03
  3.230582e+00    4.150407e-01   5.364355e-03
  3.232792e+00    4.170249e-01   5.377376e-03
  3.235003e+00    4.233955e-01   5.418537e-03
  3.237213e+00    4.238007e-01   5.421226e-03
  3.239424e+00    4.218519e-01   5.408762e-03
  3.241634e+00    4.115930e-01   5.342715e-03
  3.243845e+00    4.040081e-01   5.293307e-03
  3.246055e+00    4.073488e-01   5.314890e-03
  3.248266e+00    4.025812e-01   5.283888e-03
  3.250476e+00    4.161136e-01   5.371650e-03
  3.252687e+00    4.188419e-01   5.389176e-03
  3.254897e+00    4.183944e-01   5.386154e-03
  3.257107e+00    4.203650e-01   5.398537e-03
  3.259318e+00    4.108523e-01   5.336857e-03
  3.261528e+00    4.043065e-01   5.294044e-03
  3.263739e+00    4.225476e-01   5.411585e-03
  3.265949e+00    4.188915e-01   5.388014e-03
  3.268160e+00    4.141142e-01   5.356793e-03
  3.270370e+00    4.205217e-01   5.397557e-03
  3.272581e+00    4.167787e-01   5.373216e-03
  3.274791e+00    4.188433e-01   5.385989e-03
  3.277002e+00    4.132942e-01   5.349624e-03
  3.279212e+00    4.129206e-01   5.346840e-03
  3.281422e+00    4.231601e-01   5.412147e-03
  3.283633e+00    4.131877e-01   5.347325e-03
  3.285843e+00    4.135399e-01   5.349268e-03
  3.288054e+00    4.118617e-01   5.337497e-03
  3.290264e+00    4.080413e-01   5.312343e-03
  3.292475e+00    4.226046e-01   5.405503e-03
  3.294685e+00    4.163038e-01   5.364417e-03
  3.296896e+00    4.088934e-01   5.315728e-03
  3.299106e+00    4.095365e-01   5.319350e-03
  3.301317e+00    4.230247e-01   5.405212e-03
  3.303527e+00    4.203027e-01   5.387329e-03
  3.305737e+00    4.196246e-01   5.381945e-03
  3.307948e+00    4.163108e-01   5.359977e-03
  3.310158e+00    4.157194e-01   5.355358e-03
  3.312369e+00    4.035930e-01   5.275768e-03
  3.314579e+00    4.111945e-01   5.324347e-03
  3.316790e+00    4.140922e-01   5.342357e-03
  3.319000e+00    4.176843e-01   5.364314e-03
  3.321211e+00    4.081902e-01   5.302397e-03
  3.323421e+00    4.104754e-01   5.316020e-03
  3.325632e+00    4.225535e-01   5.392782e-03
  3.327842e+00    4.208851e-01   5.381225e-03
  3.330052e+00    4.236005e-01   5.397473e-03
  3.332263e+00    4.080588e-01   5.296548e-03
  3.334473e+00    4.092608e-01   5.303440e-03
  3.336684e+00    4.078717e-01   5.293170e-03
  3.338894e+00    4.137430e-01   5.330312e-03
  3.341105e+00    4.042647e-01   5.267713e-03
  3.343315e+00    4.039152e-01   5.264329e-03
  3.345526e+00    3.934077e-01   5.194520e-03
  3.347736e+00    4.085000e-01   5.291830e-03
  3.349947e+00    4.250876e-01   5.397267e-03
  3.352157e+00    4.257906e-01   5.400564e-03
  3.354368e+00    4.054192e-01   5.268503e-03
  3.356578e+00    4.023321e-01   5.247413e-03
  3.358788e+00    4.033512e-01   5.252744e-03
  3.360999e+00    4.063222e-01   5.270813e-03
  3.363209e+00    4.140402e-01   5.319639e-03
  3.365420e+00    4.185042e-01   5.346716e-03
  3.367630e+00    4.038711e-01   5.251421e-03
  3.369841e+00    3.979990e-01   5.211724e-03
  3.372051e+00    3.954648e-01   5.193157e-03
  3.374262e+00    3.980198e-01   5.207522e-03
  3.376472e+00    4.021788e-01   5.232259e-03
  3.378683e+00    3.963880e-01   5.192008e-03
  3.380893e+00    4.007875e-01   5.218445e-03
  3.383103e+00    4.045699e-01   5.240350e-03
  3.385314e+00    3.947529e-01   5.174204e-03
  3.387524e+00    4.074163e-01   5.253834e-03
  3.389735e+00    4.048479e-01   5.234632e-03
  3.391945e+00    4.205500e-01   5.331486e-03
  3.394156e+00    4.001964e-01   5.196728e-03
  3.396366e+00    3.963759e-01   5.168503e-03
  3.398577e+00    4.140819e-01   5.279625e-03
  3.400787e+00    4.038191e-01   5.225603e-03
  3.402998e+00    4.073281e-01   5.286195e-03
  3.405208e+00    3.903665e-01   5.195255e-03
  3.407418e+00    3.816353e-01   5.152203e-03
  3.409629e+00    3.682567e-01   5.074473e-03
  3.411839e+00    3.839300e-01   5.192862e-03
  3.414050e+00    3.754195e-01   5.145714e-03
  3.416260e+00    3.680146e-01   5.103997e-03
  3.418471e+00    3.673337e-01   5.108376e-03
  3.420681e+00    3.758554e-01   5.175597e-03
  3.422892e+00    3.785720e-01   5.202159e-03
  3.425102e+00    3.648794e-01   5.114759e-03
  3.427313e+00    3.676585e-01   5.141196e-03
  3.429523e+00    3.836279e-01   5.258688e-03
  3.431733e+00    3.826043e-01   5.258328e-03
  3.433944e+00    3.728933e-01   5.197532e-03
  3.436154e+00    3.756254e-01   5.222728e-03
  3.438365e+00    3.779616e-01   5.244848e-03
  3.440575e+00    3.696234e-01   5.192505e-03
  3.442786e+00    3.705097e-01   5.204292e-03
  3.444996e+00    3.688414e-01   5.197978e-03
  3.447207e+00    3.598422e-01   5.139380e-03
  3.449417e+00    3.566865e-01   5.156759e-03
  3.451628e+00    3.608380e-01   5.215826e-03
  3.453838e+00    3.564693e-01   5.204964e-03
  3.456049e+00    3.601526e-01   5.255507e-03
  3.458259e+00    3.409497e-01   5.134614e-03
  3.460469e+00    3.455434e-01   5.188276e-03
  3.462680e+00    3.582524e-01   5.301707e-03
  3.464890e+00    3.469593e-01   5.234793e-03
  3.467101e+00    3.652692e-01   5.388550e-03
  3.469311e+00    3.636726e-01   5.393159e-03
  3.471522e+00    3.857470e-01   5.571050e-03
  3.473732e+00    3.705583e-01   5.476067e-03
  3.475943e+00    3.940064e-01   5.662578e-03
  3.478153e+00    3.800574e-01   5.576753e-03
  3.480364e+00    4.027837e-01   5.756347e-03
  3.482574e+00    4.063605e-01   5.797280e-03
  3.484784e+00    4.237773e-01   5.935306e-03
  3.486995e+00    4.085418e-01   5.842621e-03
  3.489205e+00    4.361561e-01   6.051707e-03
  3.491416e+00    4.428357e-01   6.113072e-03
  3.493626e+00    4.492810e-01   6.172226e-03
  3.495837e+00    4.559646e-01   6.233000e-03
  3.498047e+00    4.345168e-01   6.098964e-03
  3.500258e+00    4.516346e-01   6.232476e-03
  3.502468e+00    4.436544e-01   6.191453e-03
  3.504679e+00    4.587502e-01   6.310341e-03
  3.506889e+00    4.626761e-01   6.351707e-03
  3.509099e+00    4.712812e-01   6.424809e-03
  3.511310e+00    4.787990e-01   6.490407e-03
  3.513520e+00    4.758399e-01   6.484619e-03
  3.515731e+00    4.813406e-01   6.536301e-03
  3.517941e+00    4.942540e-01   6.637829e-03
  3.520152e+00    4.818196e-01   6.567941e-03
  3.522362e+00    4.936219e-01   6.662253e-03
  3.524573e+00    5.008699e-01   6.725194e-03
  3.526783e+00    4.941887e-01   6.693358e-03
  3.528994e+00    4.939437e-01   6.703622e-03
  3.531204e+00    5.073546e-01   6.806307e-03
  3.533414e+00    5.321851e-01   6.983032e-03
  3.535625e+00    5.434387e-01   7.069041e-03
  3.537835e+00    5.360874e-01   7.033209e-03
  3.540046e+00    5.305680e-01   7.005839e-03
  3.542256e+00    5.172186e-01   6.924510e-03
  3.544467e+00    5.250795e-01   6.984466e-03
  3.546677e+00    5.374550e-01   7.073898e-03
  3.548888e+00    5.343332e-01   7.060806e-03
  3.551098e+00    5.331022e-01   7.059944e-03
  3.553309e+00    5.236775e-01   7.005328e-03
  3.555519e+00    5.253938e-01   7.027966e-03
  3.557729e+00    5.418726e-01   7.149113e-03
  3.559940e+00    5.364735e-01   7.124992e-03
  3.562150e+00    5.375360e-01   7.143751e-03
  3.564361e+00    5.476665e-01   7.224218e-03
  3.566571e+00    5.279784e-01   7.106908e-03
  3.568782e+00    5.369747e-01   7.181339e-03
  3.570992e+00    5.262120e-01   7.122624e-03
  3.573203e+00    5.365323e-01   7.206278e-03
  3.575413e+00    5.391649e-01   7.237757e-03
  3.577624e+00    5.258462e-01   7.161802e-03
  3.579834e+00    5.229701e-01   7.155878e-03
  3.582045e+00    5.397390e-01   7.283798e-03
  3.584255e+00    5.285060e-01   7.221562e-03
  3.586465e+00    5.363942e-01   7.289178e-03
  3.588676e+00    5.370523e-01   7.307853e-03
  3.590886e+00    5.537586e-01   7.434598e-03
  3.593097e+00    5.366490e-01   7.333353e-03
  3.595307e+00    5.447684e-01   7.402674e-03
  3.597518e+00    5.204645e-01   7.249647e-03
  3.599728e+00    5.326687e-01   7.348236e-03
  3.601939e+00    5.253286e-01   7.311355e-03
  3.604149e+00    5.208548e-01   7.294349e-03
  3.606360e+00    5.329227e-01   7.392471e-03
  3.608570e+00    5.319385e-01   7.399797e-03
  3.610780e+00    5.323033e-01   7.413338e-03
  3.612991e+00    5.253658e-01   7.374812e-03
  3.615201e+00    5.410700e-01   7.494054e-03
  3.617412e+00    5.386799e-01   7.484808e-03
  3.619622e+00    5.298684e-01   7.429246e-03
  3.621833e+00    5.348886e-01   7.471078e-03
  3.624043e+00    5.365063e-01   7.491905e-03
  3.626254e+00    5.205286e-01   7.389092e-03
  3.628464e+00    5.173886e-01   7.377544e-03
  3.630675e+00    5.269179e-01   7.459188e-03
  3.632885e+00    5.222006e-01   7.440044e-03
  3.635095e+00    5.237193e-01   7.465108e-03
  3.637306e+00    5.363920e-01   7.569296e-03
  3.639516e+00    5.192930e-01   7.462018e-03
  3.641727e+00    5.354725e-01   7.591937e-03
  3.643937e+00    5.256823e-01   7.536696e-03
  3.646148e+00    5.255107e-01   7.549925e-03
  3.648358e+00    5.332190e-01   7.619997e-03
  3.650569e+00    5.479975e-01   7.739796e-03
  3.652779e+00    5.304202e-01   7.629429e-03
  3.654990e+00    5.218678e-01   7.582367e-03
  3.657200e+00    5.362889e-01   7.701378e-03
  3.659410e+00    5.322880e-01   7.687593e-03
  3.661621e+00    5.209401e-01   7.620126e-03
  3.663831e+00    5.142105e-01   7.585613e-03
  3.666042e+00    5.283980e-01   7.704685e-03
  3.668252e+00    5.104040e-01   7.587283e-03
  3.670463e+00    5.212350e-01   7.682459e-03
  3.672673e+00    5.181713e-01   7.675081e-03
  3.674884e+00    5.140883e-01   7.659933e-03
  3.677094e+00    5.449203e-01   7.902007e-03
  3.679305e+00    5.216275e-01   7.746735e-03
  3.681515e+00    5.309027e-01   7.830895e-03
  3.683726e+00    5.105675e-01   7.695004e-03
  3.685936e+00    5.132954e-01   7.730972e-03
  3.688146e+00    5.187015e-01   7.787243e-03
  3.690357e+00    5.126343e-01   7.757258e-03
  3.692567e+00    5.275052e-01   7.885090e-03
  3.694778e+00    5.192834e-01   7.839387e-03
  3.696988e+00    5.127419e-01   7.805575e-03
  3.699199e+00    5.353569e-01   7.992290e-03
  3.701409e+00    5.069289e-01   7.793259e-03
  3.703620e+00    5.242935e-01   7.941918e-03
  3.705830e+00    5.128205e-01   7.870808e-03
  3.708041e+00    5.008194e-01   7.794315e-03
  3.710251e+00    5.110966e-01   7.890453e-03
  3.712461e+00    4.832953e-01   7.688919e-03
  3.714672e+00    5.146948e-01   7.951327e-03
  3.716882e+00    5.289829e-01   8.077883e-03
  3.719093e+00    5.070177e-01   7.925225e-03
  3.721303e+00    5.103415e-01   7.968047e-03
  3.723514e+00    4.853162e-01   7.786878e-03
  3.725724e+00    5.125825e-01   8.019673e-03
  3.727935e+00    5.040573e-01   7.969969e-03
  3.730145e+00    5.012788e-01   7.965014e-03
  3.732356e+00    5.043030e-01   8.006313e-03
  3.734566e+00    5.231006e-01   8.171830e-03
  3.736776e+00    4.946452e-01   7.963946e-03
  3.738987e+00    5.048485e-01   8.063150e-03
  3.741197e+00    5.200867e-01   8.202130e-03
  3.743408e+00    4.744555e-01   7.851387e-03
  3.745618e+00    4.833641e-01   7.942489e-03
  3.747829e+00    5.286649e-01   8.324755e-03
  3.750039e+00    5.083798e-01   8.181815e-03
  3.752250e+00    4.949870e-01   8.091513e-03
  3.754460e+00    4.992608e-01   8.144713e-03
  3.756671e+00    4.996740e-01   8.166678e-03
  3.758881e+00    5.259929e-01   8.397939e-03
  3.761091e+00    4.966881e-01   8.179615e-03
  3.763302e+00    5.065614e-01   8.279537e-03
  3.765512e+00    4.973496e-01   8.222953e-03
  3.767723e+00    5.095096e-01   8.342260e-03
  3.769933e+00    5.071568e-01   8.342340e-03
  3.772144e+00    4.968970e-01   8.276952e-03
  3.774354e+00    4.869073e-01   8.212783e-03
  3.776565e+00    4.976297e-01   8.322403e-03
  3.778775e+00    4.943105e-01   8.314375e-03
  3.780986e+00    4.888703e-01   8.288482e-03
  3.783196e+00    5.055395e-01   8.448886e-03
  3.785407e+00    4.766972e-01   8.224241e-03
  3.787617e+00    4.850044e-01   8.315926e-03
  3.789827e+00    5.162304e-01   8.600308e-03
  3.792038e+00    4.974975e-01   8.463562e-03
  3.794248e+00    4.926692e-01   8.443371e-03
  3.796459e+00    4.798798e-01   8.353945e-03
  3.798669e+00    4.983002e-01   8.534084e-03
  3.800880e+00    4.785058e-01   8.383866e-03
  3.803090e+00    5.109229e-01   8.685195e-03
  3.805301e+00    4.988425e-01   8.604020e-03
  3.807511e+00    4.978642e-01   8.617551e-03
  3.809722e+00    4.790642e-01   8.475008e-03
  3.811932e+00    4.722440e-01   8.436057e-03
  3.814142e+00    4.966179e-01   8.673846e-03
  3.816353e+00    5.121811e-01   8.831886e-03
  3.818563e+00    4.932049e-01   8.689702e-03
  3.820774e+00    4.510435e-01   8.332029e-03
  3.822984e+00    4.969868e-01   8.769374e-03
  3.825195e+00    4.996048e-01   8.816259e-03
  3.827405e+00    5.142128e-01   8.968492e-03
  3.829616e+00    5.083736e-01   8.941766e-03
  3.831826e+00    4.851652e-01   8.759130e-03
  3.834037e+00    4.799189e-01   8.735744e-03
  3.836247e+00    4.849008e-01   8.805304e-03
  3.838457e+00    4.965478e-01   8.935479e-03
  3.840668e+00    4.861161e-01   8.866065e-03
  3.842878e+00    5.023411e-01   9.038505e-03
  3.845089e+00    4.508905e-01   8.587538e-03
  3.847299e+00    4.736596e-01   8.826871e-03
  3.849510e+00    4.775930e-01   8.888804e-03
  3.851720e+00    5.147508e-01   9.249962e-03
  3.853931e+00    5.038521e-01   9.170732e-03
  3.856141e+00    5.185269e-01   9.322773e-03
  3.858352e+00    5.001373e-01   9.175336e-03
  3.860562e+00    4.895708e-01   9.097101e-03
  3.862772e+00    4.869837e-01   9.092486e-03
  3.864983e+00    4.811439e-01   9.057207e-03
  3.867193e+00    4.872495e-01   9.134154e-03
  3.869404e+00    4.824762e-01   9.108887e-03
  3.871614e+00    4.569243e-01   8.883660e-03
  3.873825e+00    4.743878e-01   9.071674e-03
  3.876035e+00    4.884569e-01   9.225792e-03
  3.878246e+00    4.990608e-01   9.351200e-03
  3.880456e+00    5.022649e-01   9.410623e-03
  3.882667e+00    4.803544e-01   9.231980e-03
  3.884877e+00    4.749518e-01   9.209120e-03
  3.887087e+00    4.970939e-01   9.451467e-03
  3.889298e+00    4.903516e-01   9.417480e-03
  3.891508e+00    4.967621e-01   9.509569e-03
  3.893719e+00    5.048491e-01   9.618120e-03
  3.895929e+00    4.478160e-01   9.088544e-03
  3.898140e+00    4.764177e-01   9.405585e-03
  3.900350e+00    4.580240e-01   9.253242e-03
  3.902561e+00    4.660823e-01   9.365861e-03
  3.904771e+00    4.611635e-01   9.348084e-03
  3.906982e+00    5.087342e-01   9.852251e-03
  3.909192e+00    5.062575e-01   9.862303e-03
  3.911403e+00    4.693915e-01   9.529788e-03
  3.913613e+00    4.932434e-01   9.803284e-03
  3.915823e+00    4.837660e-01   9.743293e-03
  3.918034e+00    4.944889e-01   9.886175e-03
  3.920244e+00    5.071347e-01   1.004813e-02
  3.922455e+00    5.083955e-01   1.009757e-02
  3.924665e+00    4.894661e-01   9.944214e-03
  3.926876e+00    4.928944e-01   1.001630e-02
  3.929086e+00    4.807718e-01   9.929414e-03
  3.931297e+00    4.967807e-01   1.012854e-02
  3.933507e+00    4.751810e-01   9.934464e-03
  3.935718e+00    4.716587e-01   9.925808e-03
  3.937928e+00    4.832844e-01   1.007687e-02
  3.940138e+00    4.858193e-01   1.013231e-02
  3.942349e+00    5.009267e-01   1.031914e-02
  3.944559e+00    4.755494e-01   1.008395e-02
  3.946770e+00    4.651331e-01   1.000235e-02
  3.948980e+00    4.851658e-01   1.024620e-02
  3.951191e+00    4.815118e-01   1.023817e-02
  3.953401e+00    4.959347e-01   1.042205e-02
  3.955612e+00    4.907948e-01   1.039979e-02
  3.957822e+00    4.686323e-01   1.019329e-02
  3.960033e+00    4.786916e-01   1.033448e-02
  3.962243e+00    4.627794e-01   1.019340e-02
  3.964453e+00    4.623105e-01   1.022041e-02
  3.966664e+00    4.809791e-01   1.045808e-02
  3.968874e+00    4.916564e-01   1.060199e-02
  3.971085e+00    4.882477e-01   1.058728e-02
  3.973295e+00    4.704718e-01   1.041385e-02
  3.975506e+00    4.823574e-01   1.056604e-02
  3.977716e+00    4.564018e-01   1.029927e-02
  3.979927e+00    4.726793e-01   1.050311e-02
  3.982137e+00    4.942407e-01   1.076243e-02
  3.984348e+00    4.847803e-01   1.068154e-02
  3.986558e+00    4.715512e-01   1.055678e-02
  3.988768e+00    4.600971e-01   1.045023e-02
  3.990979e+00    4.935055e-01   1.084581e-02
  3.993189e+00    4.671549e-01   1.057507e-02
  3.995400e+00    4.409406e-01   1.029642e-02
  3.997610e+00    4.697656e-01   1.065702e-02
  3.999821e+00    4.489555e-01   1.045440e-02
  4.002031e+00    4.864043e-01   1.092015e-02
  4.004242e+00    4.600629e-01   1.065791e-02
  4.006452e+00    4.502136e-01   1.058100e-02
  4.008663e+00    4.713419e-01   1.086598e-02
  4.010873e+00    4.784873e-01   1.098769e-02
  4.013084e+00    4.904726e-01   1.116567e-02
  4.015294e+00    4.876956e-01   1.117513e-02
  4.017504e+00    4.542019e-01   1.082519e-02
  4.019715e+00    4.683736e-01   1.103447e-02
  4.021925e+00    4.678762e-01   1.107089e-02
  4.024136e+00    4.676789e-01   1.111150e-02
  4.026346e+00    4.736851e-01   1.122630e-02
  4.028557e+00    4.851084e-01   1.140523e-02
  4.030767e+00    4.734010e-01   1.131188e-02
  4.032978e+00    4.763700e-01   1.139326e-02
  4.035188e+00    4.566891e-01   1.120034e-02
  4.037399e+00    4.576454e-01   1.125823e-02
  4.039609e+00    4.424612e-01   1.111574e-02
  4.041819e+00    4.070773e-01   1.070673e-02
  4.044030e+00    4.590319e-01   1.141795e-02
  4.046240e+00    4.676457e-01   1.157368e-02
  4.048451e+00    4.819121e-01   1.179978e-02
  4.050661e+00    4.559932e-01   1.152816e-02
  4.052872e+00    4.698228e-01   1.175360e-02
  4.055082e+00    4.668719e-01   1.176935e-02
  4.057293e+00    4.699030e-01   1.186046e-02
  4.059503e+00    4.817581e-01   1.206374e-02
  4.061714e+00    4.522303e-01   1.174298e-02
  4.063924e+00    4.685667e-01   1.200907e-02
  4.066134e+00    4.265988e-01   1.151272e-02
  4.068345e+00    4.592966e-01   1.200315e-02
  4.070555e+00    4.270694e-01   1.163043e-02
  4.072766e+00    4.521401e-01   1.202558e-02
  4.074976e+00    5.058993e-01   1.278400e-02
  4.077187e+00    4.716175e-01   1.240481e-02
  4.079397e+00    4.216071e-01   1.178840e-02
  4.081608e+00    4.799213e-01   1.264269e-02
  4.083818e+00    4.945660e-01   1.290086e-02
  4.086029e+00    4.790661e-01   1.276398e-02
  4.088239e+00    4.902139e-01   1.298134e-02
  4.090449e+00    4.753810e-01   1.285273e-02
  4.092660e+00    4.874165e-01   1.308588e-02
  4.094870e+00    4.587941e-01   1.276662e-02
  4.097081e+00    4.198379e-01   1.227933e-02
  4.099291e+00    4.668283e-01   1.300198e-02
  4.101502e+00    4.964877e-01   1.345861e-02
  4.103712e+00    4.947093e-01   1.348462e-02
  4.105923e+00    5.038367e-01   1.366108e-02
  4.108133e+00    4.713252e-01   1.326386e-02
  4.110344e+00    4.709412e-01   1.330924e-02
  4.112554e+00    4.891920e-01   1.361825e-02
  4.114764e+00    5.501718e-01   1.450003e-02
  4.116975e+00    5.192184e-01   1.414205e-02
  4.119185e+00    4.551039e-01   1.329377e-02
  4.121396e+00    4.581721e-01   1.339351e-02
  4.123606e+00    4.694290e-01   1.361269e-02
  4.125817e+00    4.572802e-01   1.349168e-02
  4.128027e+00    4.801248e-01   1.388283e-02
  4.130238e+00    4.961219e-01   1.417265e-02
  4.132448e+00    5.138918e-01   1.448691e-02
  4.134659e+00    5.046889e-01   1.441839e-02
  4.136869e+00    4.866391e-01   1.422142e-02
  4.139080e+00    5.199266e-01   1.476581e-02
  4.141290e+00    5.066640e-01   1.464100e-02
  4.143500e+00    4.776315e-01   1.428088e-02
  4.145711e+00    4.504750e-01   1.393380e-02
  4.147921e+00    4.904716e-01   1.460582e-02
  4.150132e+00    4.712981e-01   1.438592e-02
  4.152342e+00    4.661351e-01   1.437620e-02
  4.154553e+00    4.335147e-01   1.392995e-02
  4.156763e+00    4.619395e-01   1.445044e-02
  4.158974e+00    3.838447e-01   1.323872e-02
  4.161184e+00    4.781712e-01   1.484938e-02
  4.163395e+00    4.726733e-01   1.483922e-02
  4.165605e+00    4.392762e-01   1.437969e-02
  4.167815e+00    4.988011e-01   1.540284e-02
  4.170026e+00    4.656956e-01   1.496166e-02
  4.172236e+00    4.703544e-01   1.511752e-02
  4.174447e+00    4.572192e-01   1.498576e-02
  4.176657e+00    4.913679e-01   1.562051e-02
  4.178868e+00    4.979512e-01   1.581352e-02
  4.181078e+00    5.023210e-01   1.597251e-02
  4.183289e+00    4.988402e-01   1.600812e-02
  4.185499e+00    4.550484e-01   1.537955e-02
  4.187710e+00    4.698822e-01   1.571973e-02
  4.189920e+00    4.204583e-01   1.495974e-02
  4.192130e+00    4.853148e-01   1.616988e-02
  4.194341e+00    4.755318e-01   1.610480e-02
  4.196551e+00    5.019636e-01   1.665079e-02
  4.198762e+00    4.689757e-01   1.619674e-02
  4.200972e+00    4.495360e-01   1.596000e-02
  4.203183e+00    4.139753e-01   1.541672e-02
  4.205393e+00    4.385830e-01   1.597369e-02
  4.207604e+00    5.288762e-01   1.766122e-02
  4.209814e+00    5.062230e-01   1.739704e-02
  4.212025e+00    4.978946e-01   1.737565e-02
  4.214235e+00    5.235147e-01   1.794340e-02
  4.216445e+00    5.507857e-01   1.853802e-02
  4.218656e+00    4.883484e-01   1.758638e-02
  4.220866e+00    4.858656e-01   1.767177e-02
  4.223077e+00    4.275600e-01   1.670495e-02
  4.225287e+00    5.529152e-01   1.914579e-02
  4.227498e+00    4.657047e-01   1.770909e-02
  4.229708e+00    5.048991e-01   1.858916e-02
  4.231919e+00    4.836965e-01   1.834531e-02
  4.234129e+00    4.866143e-01   1.855470e-02
  4.236340e+00    4.467854e-01   1.793129e-02
  4.238550e+00    4.172905e-01   1.748233e-02
  4.240761e+00    4.923524e-01   1.915737e-02
  4.242971e+00    5.307195e-01   2.007225e-02
  4.245181e+00    5.165642e-01   1.998844e-02
  4.247392e+00    4.515796e-01   1.886390e-02
  4.249602e+00    4.849831e-01   1.974318e-02
  4.251813e+00    4.938119e-01   2.011815e-02
  4.254023e+00    4.320898e-01   1.900924e-02
  4.256234e+00    4.795025e-01   2.023807e-02
  4.258444e+00    4.686892e-01   2.021871e-02
  4.260655e+00    4.931534e-01   2.096712e-02
  4.262865e+00    4.832425e-01   2.099104e-02
  4.265076e+00    4.305451e-01   2.003891e-02
  4.267286e+00    4.238890e-01   2.011903e-02
  4.269496e+00    4.400324e-01   2.074886e-02
  4.271707e+00    4.388462e-01   2.097654e-02
  4.273917e+00    5.412571e-01   2.359694e-02
  4.276128e+00    5.163185e-01   2.335394e-02
  4.278338e+00    3.940817e-01   2.067500e-02
  4.280549e+00    4.685303e-01   2.286660e-02
  4.282759e+00    4.960127e-01   2.386604e-02
  4.284970e+00    4.414216e-01   2.284747e-02
  4.287180e+00    4.772168e-01   2.404091e-02
  4.289391e+00    4.442249e-01   2.336886e-02
  4.291601e+00    4.898422e-01   2.473530e-02
  4.293811e+00    4.314303e-01   2.339553e-02
  4.296022e+00    4.558998e-01   2.424286e-02
  4.298232e+00    4.359205e-01   2.390444e-02
  4.300443e+00    4.633662e-01   2.484830e-02
  4.302653e+00    5.194411e-01   2.653687e-02
  4.304864e+00    3.787681e-01   2.285746e-02
  4.307074e+00    3.942251e-01   2.352772e-02
  4.309285e+00    5.137392e-01   2.710276e-02
  4.311495e+00    4.312018e-01   2.506273e-02
  4.313706e+00    4.404144e-01   2.556764e-02
  4.315916e+00    3.384252e-01   2.263203e-02
  4.318126e+00    4.689405e-01   2.690471e-02
  4.320337e+00    4.739197e-01   2.732155e-02
  4.322547e+00    4.578831e-01   2.713994e-02
  4.324758e+00    4.100506e-01   2.595009e-02
  4.326968e+00    4.483485e-01   2.744065e-02
  4.329179e+00    4.581778e-01   2.804563e-02
  4.331389e+00    4.754002e-01   2.889681e-02
  4.333600e+00    4.129575e-01   2.725427e-02
  4.335810e+00    3.497000e-01   2.537833e-02
  4.338021e+00    4.170057e-01   2.806675e-02
  4.340231e+00    5.122809e-01   3.149999e-02
  4.342442e+00    4.677566e-01   3.050333e-02
  4.344652e+00    4.637402e-01   3.078563e-02
  4.346862e+00    3.406474e-01   2.675402e-02
  4.349073e+00    4.143141e-01   2.993405e-02
  4.351283e+00    3.547799e-01   2.811507e-02
  4.353494e+00    3.856328e-01   2.976283e-02
  4.355704e+00    5.491319e-01   3.609072e-02
  4.357915e+00    2.467831e-01   2.459830e-02
  4.360125e+00    2.846071e-01   2.686372e-02
  4.362336e+00    4.272023e-01   3.351393e-02
  4.364546e+00    4.993020e-01   3.689032e-02
  4.366757e+00    3.608694e-01   3.198989e-02
  4.368967e+00    3.517646e-01   3.221010e-02
  4.371177e+00    4.794852e-01   3.840582e-02
  4.373388e+00    4.339976e-01   3.735658e-02
  4.375598e+00    4.248178e-01   3.780109e-02
  4.377809e+00    4.633608e-01   4.047852e-02
  4.380019e+00    3.909487e-01   3.811697e-02
  4.382230e+00    3.737833e-01   3.831125e-02
  4.384440e+00    3.741657e-01   3.943345e-02
  4.386651e+00    4.896930e-01   4.650270e-02
  4.388861e+00    3.659327e-01   4.154826e-02
  4.391072e+00    4.582521e-01   4.812910e-02
  4.393282e+00    4.486268e-01   4.946027e-02
  4.395492e+00    4.442792e-01   5.126606e-02
  4.397703e+00    3.824623e-01   4.974132e-02
  4.399913e+00    2.852020e-01   4.513009e-02
  4.402124e+00    3.010356e-01   4.899158e-02
  4.404334e+00    2.976283e-01   5.178223e-02
  4.406545e+00    1.934231e-01   4.485228e-02
  4.408755e+00    2.401588e-01   5.419755e-02
  4.410966e+00    1.375653e-01   4.540173e-02
  4.413176e+00    3.639761e-01   8.359013e-02
  4.415387e+00   -3.338368e-01            nan
  4.417597e+00   -1.872752e+00            nan
  4.419807e+00   -3.766224e-01            nan
