# == pyFAI calibration ==
# Distance Sample to Detector: 0.216 m
# PONI: 1.166e-01, 1.308e-01 m
# Rotations: 0.000000 0.000000 0.000000 rad
# 
# == Fit2d calibration ==
# Distance Sample-beamCenter: 216.000 mm
# Center: x=1744.293, y=1555.000 pix
# Tilt: 0.000 deg  TiltPlanRot: 0.000 deg
# 
# Detector Eiger 9M	 PixelSize= 7.500e-05, 7.500e-05 m
#    Detector has a mask: True 
#    Detector has a dark current: False 
#    detector has a flat field: False 
# 
# Wavelength: 9.8e-11 m
# Mask applied: from detector
# Dark current applied: False
# Flat field applied: False
# Polarization factor: None
# Normalization factor: 1.0
# 
# Headers of the input frame:
# {
# "_array_data.header_convention": "SLS_1.0",
# "_array_data.header_contents": "# Detector: Dectris Eiger 9M, S/N E-18-0102\r\n# Pixel_size 75e-6 m x 75e-6 m\r\n# Silicon sensor, thickness 0.000450 m\r\n# Exposure_time 0.024997 s\r\n# Exposure_period 0.025000 s\r\n# Count_cutoff 62318 counts\r\n# Wavelength 0.980106 A\r\n# Detector_distance 0.215992 m\r\n# Beam_xy (1555, 1744) pixels\r\n# Start_angle 0.000000 deg.\r\n# Angle_increment 0.000000 deg.",
# "Content-Type": "application/octet-stream;",
# "conversions": "x-CBF_BYTE_OFFSET",
# "Content-Transfer-Encoding": "BINARY",
# "X-Binary-Size": "10166602",
# "X-Binary-ID": "1",
# "X-Binary-Element-Type": "signed 32-bit integer",
# "X-Binary-Element-Byte-Order": "LITTLE_ENDIAN",
# "Content-MD5": "kPk2g8IVMM17dE9K9jDBeA==",
# "X-Binary-Number-of-Elements": "10166590",
# "X-Binary-Size-Fastest-Dimension": "3110",
# "X-Binary-Size-Second-Dimension": "3269",
# "X-Binary-Size-Padding": "4095"
# }
# --> H:/Proxima2a_2019-04-05/RAW_DATA/C5_gel17_position5/C5_mesh_1_data.cbf/C5_mesh_1_data.cbf000138.dat
#        q_A^-1              I           sigma 
  1.105228e-03    1.507118e+00   6.642944e-01
  3.315685e-03    1.618017e+00   4.184436e-01
  5.526141e-03    1.417331e+00   3.028362e-01
  7.736597e-03    1.425665e+00   2.565836e-01
  9.947054e-03    1.465330e+00   2.293213e-01
  1.215751e-02    1.396740e+00   2.024540e-01
  1.436797e-02    1.346232e+00   1.828251e-01
  1.657842e-02    1.319616e+00   1.684877e-01
  1.878888e-02    1.404174e+00   1.632578e-01
  2.099934e-02    1.486009e+00   1.588959e-01
  2.320979e-02    1.685981e+00   1.609753e-01
  2.542025e-02    1.417831e+00   1.410658e-01
  2.763070e-02    1.419489e+00   1.353806e-01
  2.984116e-02    1.500417e+00   1.339314e-01
  3.205162e-02    1.484785e+00   1.285636e-01
  3.426207e-02    1.288149e+00   1.158132e-01
  3.647253e-02    1.423435e+00   1.179936e-01
  3.868299e-02    1.484714e+00   1.170219e-01
  4.089344e-02    1.356973e+00   1.088094e-01
  4.310390e-02    1.443452e+00   1.093012e-01
  4.531436e-02    1.267531e+00   9.989532e-02
  4.752481e-02    1.271006e+00   9.767708e-02
  4.973527e-02    1.306798e+00   9.681798e-02
  5.194572e-02    1.425552e+00   9.894511e-02
  5.415618e-02    1.472089e+00   9.847043e-02
  5.636664e-02    1.408448e+00   9.441382e-02
  5.857709e-02    1.390592e+00   9.202684e-02
  6.078755e-02    1.446681e+00   9.213904e-02
  6.299801e-02    1.424780e+00   8.981945e-02
  6.520846e-02    1.466488e+00   8.956742e-02
  6.741892e-02    1.537936e+00   9.020257e-02
  6.962938e-02    1.580272e+00   8.997717e-02
  7.183983e-02    1.490961e+00   8.604095e-02
  7.405029e-02    1.468066e+00   8.409186e-02
  7.626074e-02    1.473857e+00   8.302674e-02
  7.847120e-02    1.545046e+00   8.380014e-02
  8.068166e-02    1.449024e+00   8.003431e-02
  8.289211e-02    1.481343e+00   7.983523e-02
  8.510257e-02    1.448129e+00   7.790280e-02
  8.731303e-02    1.406894e+00   7.580458e-02
  8.952348e-02    1.429206e+00   7.545622e-02
  9.173394e-02    1.474572e+00   7.571235e-02
  9.394439e-02    1.481794e+00   7.499689e-02
  9.615485e-02    1.446862e+00   7.324925e-02
  9.836531e-02    1.462189e+00   7.280214e-02
  1.005758e-01    1.534735e+00   7.376257e-02
  1.027862e-01    1.568927e+00   7.377163e-02
  1.049967e-01    1.457139e+00   7.034132e-02
  1.072071e-01    1.492830e+00   7.045890e-02
  1.094176e-01    1.582941e+00   7.181659e-02
  1.116280e-01    1.462083e+00   6.833224e-02
  1.138385e-01    1.551925e+00   6.971216e-02
  1.160490e-01    1.596242e+00   7.002313e-02
  1.182594e-01    1.505864e+00   6.737180e-02
  1.204699e-01    1.515814e+00   6.697051e-02
  1.226803e-01    1.540661e+00   6.690335e-02
  1.248908e-01    1.646146e+00   6.854025e-02
  1.271012e-01    1.660973e+00   6.824559e-02
  1.293117e-01    1.646788e+00   6.736939e-02
  1.315222e-01    1.596727e+00   6.577616e-02
  1.337326e-01    1.621210e+00   6.572722e-02
  1.359431e-01    1.611289e+00   6.556416e-02
  1.381535e-01    1.586710e+00   6.593551e-02
  1.403640e-01    1.561975e+00   6.570200e-02
  1.425744e-01    1.632616e+00   6.727861e-02
  1.447849e-01    1.542770e+00   6.541623e-02
  1.469953e-01    1.546620e+00   6.545679e-02
  1.492058e-01    1.585687e+00   6.620131e-02
  1.514163e-01    1.565605e+00   6.567153e-02
  1.536267e-01    1.646463e+00   6.721456e-02
  1.558372e-01    1.686314e+00   6.787294e-02
  1.580476e-01    1.617255e+00   6.630737e-02
  1.602581e-01    1.570766e+00   6.518140e-02
  1.624685e-01    1.672356e+00   6.707206e-02
  1.646790e-01    1.637272e+00   6.617424e-02
  1.668895e-01    1.658690e+00   6.641328e-02
  1.690999e-01    1.731066e+00   6.764302e-02
  1.713104e-01    1.760809e+00   6.800995e-02
  1.735208e-01    1.763191e+00   6.784432e-02
  1.757313e-01    1.775757e+00   6.787226e-02
  1.779417e-01    1.810617e+00   6.831172e-02
  1.801522e-01    1.812304e+00   6.812584e-02
  1.823626e-01    1.883813e+00   6.922566e-02
  1.845731e-01    1.943091e+00   7.007866e-02
  1.867836e-01    1.860707e+00   6.834555e-02
  1.889940e-01    1.799412e+00   6.699075e-02
  1.912045e-01    1.944366e+00   6.940422e-02
  1.934149e-01    1.945225e+00   6.918722e-02
  1.956254e-01    1.923021e+00   6.856431e-02
  1.978358e-01    2.002944e+00   6.973483e-02
  2.000463e-01    2.036257e+00   7.007936e-02
  2.022568e-01    1.955278e+00   6.844634e-02
  2.044672e-01    2.004164e+00   6.905931e-02
  2.066777e-01    2.003071e+00   6.881132e-02
  2.088881e-01    1.944062e+00   6.756840e-02
  2.110986e-01    1.951348e+00   6.746274e-02
  2.133090e-01    1.942160e+00   6.708494e-02
  2.155195e-01    2.011211e+00   6.804063e-02
  2.177300e-01    1.973482e+00   6.686994e-02
  2.199404e-01    1.897859e+00   6.384828e-02
  2.221509e-01    1.951298e+00   6.367784e-02
  2.243613e-01    1.994410e+00   6.356134e-02
  2.265718e-01    2.017517e+00   6.322384e-02
  2.287822e-01    2.182285e+00   6.510405e-02
  2.309927e-01    2.115514e+00   6.351641e-02
  2.332031e-01    2.117769e+00   6.300631e-02
  2.354136e-01    2.236646e+00   6.422576e-02
  2.376241e-01    2.175766e+00   6.285397e-02
  2.398345e-01    2.148173e+00   6.199193e-02
  2.420450e-01    2.123967e+00   6.120114e-02
  2.442554e-01    2.102198e+00   6.046721e-02
  2.464659e-01    2.183190e+00   6.120732e-02
  2.486763e-01    2.166673e+00   6.057455e-02
  2.508868e-01    2.189483e+00   6.050845e-02
  2.530973e-01    2.069978e+00   5.846919e-02
  2.553077e-01    2.062064e+00   5.800333e-02
  2.575182e-01    2.014024e+00   5.698454e-02
  2.597286e-01    2.067158e+00   5.739572e-02
  2.619391e-01    2.150330e+00   5.820199e-02
  2.641495e-01    2.020564e+00   5.610626e-02
  2.663600e-01    2.016269e+00   5.573837e-02
  2.685704e-01    2.049895e+00   5.589657e-02
  2.707809e-01    2.096727e+00   5.623142e-02
  2.729914e-01    2.004956e+00   5.470051e-02
  2.752018e-01    2.061936e+00   5.518361e-02
  2.774123e-01    2.037729e+00   5.457852e-02
  2.796227e-01    2.005319e+00   5.387492e-02
  2.818332e-01    1.948525e+00   5.284159e-02
  2.840436e-01    1.981967e+00   5.303478e-02
  2.862541e-01    2.005998e+00   5.309886e-02
  2.884646e-01    1.953161e+00   5.214626e-02
  2.906750e-01    1.926093e+00   5.153810e-02
  2.928855e-01    1.953460e+00   5.166246e-02
  2.950959e-01    2.015771e+00   5.223888e-02
  2.973064e-01    1.975818e+00   5.148617e-02
  2.995168e-01    1.947507e+00   5.088444e-02
  3.017273e-01    1.903758e+00   5.008787e-02
  3.039377e-01    1.869201e+00   4.941385e-02
  3.061482e-01    1.931691e+00   5.001575e-02
  3.083587e-01    1.952318e+00   5.006443e-02
  3.105691e-01    1.937857e+00   4.966564e-02
  3.127796e-01    1.906158e+00   4.905066e-02
  3.149900e-01    1.795277e+00   4.740433e-02
  3.172005e-01    1.802941e+00   4.731112e-02
  3.194109e-01    1.893288e+00   4.828190e-02
  3.216214e-01    1.909101e+00   4.828528e-02
  3.238319e-01    1.888508e+00   4.783390e-02
  3.260423e-01    1.826767e+00   4.685808e-02
  3.282528e-01    1.866485e+00   4.717619e-02
  3.304632e-01    1.860015e+00   4.691191e-02
  3.326737e-01    1.856279e+00   4.668192e-02
  3.348841e-01    1.870668e+00   4.668079e-02
  3.370946e-01    1.824659e+00   4.592968e-02
  3.393050e-01    1.832142e+00   4.584944e-02
  3.415155e-01    1.831576e+00   4.566997e-02
  3.437260e-01    1.845431e+00   4.567249e-02
  3.459364e-01    1.820049e+00   4.518953e-02
  3.481469e-01    1.844318e+00   4.532374e-02
  3.503573e-01    1.811109e+00   4.475025e-02
  3.525678e-01    1.820513e+00   4.470638e-02
  3.547782e-01    1.801577e+00   4.431253e-02
  3.569887e-01    1.796137e+00   4.408881e-02
  3.591992e-01    1.744494e+00   4.329661e-02
  3.614096e-01    1.769657e+00   4.345655e-02
  3.636201e-01    1.768125e+00   4.328509e-02
  3.658305e-01    1.759306e+00   4.302973e-02
  3.680410e-01    1.759097e+00   4.287919e-02
  3.702514e-01    1.774964e+00   4.292728e-02
  3.724619e-01    1.804680e+00   4.313773e-02
  3.746724e-01    1.814329e+00   4.310858e-02
  3.768828e-01    1.825979e+00   4.310124e-02
  3.790933e-01    1.806281e+00   4.272845e-02
  3.813037e-01    1.787428e+00   4.236580e-02
  3.835142e-01    1.799006e+00   4.236320e-02
  3.857246e-01    1.746424e+00   4.160443e-02
  3.879351e-01    1.778186e+00   4.184515e-02
  3.901455e-01    1.782268e+00   4.175981e-02
  3.923560e-01    1.723357e+00   4.093333e-02
  3.945665e-01    1.761841e+00   4.125658e-02
  3.967769e-01    1.796892e+00   4.153447e-02
  3.989874e-01    1.767881e+00   4.106919e-02
  4.011978e-01    1.775674e+00   4.103301e-02
  4.034083e-01    1.778770e+00   4.094271e-02
  4.056187e-01    1.796559e+00   4.102016e-02
  4.078292e-01    1.786224e+00   4.077825e-02
  4.100397e-01    1.723195e+00   3.993001e-02
  4.122501e-01    1.841932e+00   4.115929e-02
  4.144606e-01    1.819459e+00   4.078614e-02
  4.166710e-01    1.769347e+00   4.010095e-02
  4.188815e-01    1.771856e+00   4.001083e-02
  4.210919e-01    1.769563e+00   3.986774e-02
  4.233024e-01    1.749789e+00   3.952776e-02
  4.255128e-01    1.810844e+00   4.009521e-02
  4.277233e-01    1.840905e+00   4.031050e-02
  4.299338e-01    1.815506e+00   3.991628e-02
  4.321442e-01    1.762944e+00   3.922166e-02
  4.343547e-01    1.722262e+00   3.865685e-02
  4.365651e-01    1.755625e+00   3.891858e-02
  4.387756e-01    1.782232e+00   3.910259e-02
  4.409860e-01    1.769139e+00   3.885077e-02
  4.431965e-01    1.717288e+00   3.817135e-02
  4.454070e-01    1.802772e+00   3.900104e-02
  4.476174e-01    1.767142e+00   3.850773e-02
  4.498279e-01    1.736909e+00   3.807301e-02
  4.520383e-01    1.711211e+00   3.768661e-02
  4.542488e-01    1.735855e+00   3.785466e-02
  4.564592e-01    1.740489e+00   3.780347e-02
  4.586697e-01    1.722518e+00   3.750797e-02
  4.608801e-01    1.748113e+00   3.768441e-02
  4.630906e-01    1.699548e+00   3.705887e-02
  4.653011e-01    1.719657e+00   3.717943e-02
  4.675115e-01    1.710552e+00   3.698320e-02
  4.697220e-01    1.731947e+00   3.711636e-02
  4.719324e-01    1.712842e+00   3.681559e-02
  4.741429e-01    1.716592e+00   3.676090e-02
  4.763533e-01    1.729419e+00   3.680341e-02
  4.785638e-01    1.652613e+00   3.588395e-02
  4.807743e-01    1.733567e+00   3.665883e-02
  4.829847e-01    1.742254e+00   3.665778e-02
  4.851952e-01    1.674321e+00   3.584503e-02
  4.874056e-01    1.711145e+00   3.614571e-02
  4.896161e-01    1.727827e+00   3.623141e-02
  4.918265e-01    1.700641e+00   3.585599e-02
  4.940370e-01    1.687112e+00   3.562489e-02
  4.962475e-01    1.681024e+00   3.547275e-02
  4.984579e-01    1.621211e+00   3.475009e-02
  5.006684e-01    1.665617e+00   3.513689e-02
  5.028788e-01    1.675951e+00   3.516034e-02
  5.050893e-01    1.643221e+00   3.473064e-02
  5.072997e-01    1.633068e+00   3.453955e-02
  5.095102e-01    1.661663e+00   3.475720e-02
  5.117206e-01    1.664501e+00   3.470414e-02
  5.139311e-01    1.685207e+00   3.483669e-02
  5.161416e-01    1.670271e+00   3.460001e-02
  5.183520e-01    1.716676e+00   3.499400e-02
  5.205625e-01    1.707252e+00   3.481608e-02
  5.227729e-01    1.690862e+00   3.456772e-02
  5.249834e-01    1.681617e+00   3.439308e-02
  5.271938e-01    1.675062e+00   3.424587e-02
  5.294043e-01    1.715706e+00   3.457888e-02
  5.316148e-01    1.722207e+00   3.456497e-02
  5.338252e-01    1.771206e+00   3.497314e-02
  5.360357e-01    1.739075e+00   3.457557e-02
  5.382461e-01    1.741866e+00   3.452508e-02
  5.404566e-01    1.713238e+00   3.416227e-02
  5.426670e-01    1.731164e+00   3.426314e-02
  5.448775e-01    1.740982e+00   3.428342e-02
  5.470879e-01    1.731604e+00   3.411468e-02
  5.492984e-01    1.764558e+00   3.436120e-02
  5.515089e-01    1.804865e+00   3.467437e-02
  5.537193e-01    1.792172e+00   3.447610e-02
  5.559298e-01    1.800407e+00   3.447943e-02
  5.581402e-01    1.791013e+00   3.431422e-02
  5.603507e-01    1.787321e+00   3.420423e-02
  5.625611e-01    1.790596e+00   3.416125e-02
  5.647716e-01    1.790342e+00   3.408467e-02
  5.669821e-01    1.779837e+00   3.391125e-02
  5.691925e-01    1.808240e+00   3.410740e-02
  5.714030e-01    1.818543e+00   3.413149e-02
  5.736134e-01    1.782500e+00   3.371972e-02
  5.758239e-01    1.695497e+00   3.281630e-02
  5.780343e-01    1.705955e+00   3.284769e-02
  5.802448e-01    1.710649e+00   3.282402e-02
  5.824552e-01    1.694879e+00   3.260381e-02
  5.846657e-01    1.659513e+00   3.219461e-02
  5.868762e-01    1.626586e+00   3.180725e-02
  5.890866e-01    1.607185e+00   3.155140e-02
  5.912971e-01    1.643682e+00   3.184156e-02
  5.935075e-01    1.618679e+00   3.153317e-02
  5.957180e-01    1.640737e+00   3.168215e-02
  5.979284e-01    1.626079e+00   3.147591e-02
  6.001389e-01    1.634036e+00   3.148859e-02
  6.023494e-01    1.654713e+00   3.162284e-02
  6.045598e-01    1.662136e+00   3.162919e-02
  6.067703e-01    1.654874e+00   3.149653e-02
  6.089807e-01    1.643214e+00   3.132229e-02
  6.111912e-01    1.650794e+00   3.133176e-02
  6.134016e-01    1.699420e+00   3.172644e-02
  6.156121e-01    1.716937e+00   3.182616e-02
  6.178226e-01    1.719796e+00   3.178959e-02
  6.200330e-01    1.663886e+00   3.120692e-02
  6.222435e-01    1.668804e+00   3.119107e-02
  6.244539e-01    1.706716e+00   3.148161e-02
  6.266644e-01    1.712402e+00   3.147252e-02
  6.288748e-01    1.693831e+00   3.124047e-02
  6.310853e-01    1.696446e+00   3.120387e-02
  6.332957e-01    1.716895e+00   3.133076e-02
  6.355062e-01    1.729424e+00   3.138378e-02
  6.377167e-01    1.735195e+00   3.137578e-02
  6.399271e-01    1.728117e+00   3.125173e-02
  6.421376e-01    1.736097e+00   3.126401e-02
  6.443480e-01    1.687661e+00   3.076618e-02
  6.465585e-01    1.685742e+00   3.069042e-02
  6.487689e-01    1.661000e+00   3.040685e-02
  6.509794e-01    1.684547e+00   3.056385e-02
  6.531899e-01    1.649222e+00   3.018484e-02
  6.554003e-01    1.650784e+00   3.014234e-02
  6.576108e-01    1.626833e+00   2.986716e-02
  6.598212e-01    1.638725e+00   2.992043e-02
  6.620317e-01    1.603565e+00   2.954286e-02
  6.642421e-01    1.553732e+00   2.902637e-02
  6.664526e-01    1.632298e+00   2.969637e-02
  6.686630e-01    1.659713e+00   2.988937e-02
  6.708735e-01    1.629991e+00   2.956620e-02
  6.730840e-01    1.616892e+00   2.939347e-02
  6.752944e-01    1.590355e+00   2.909826e-02
  6.775049e-01    1.544862e+00   2.862697e-02
  6.797153e-01    1.559539e+00   2.871055e-02
  6.819258e-01    1.588572e+00   2.892430e-02
  6.841362e-01    1.587550e+00   2.886300e-02
  6.863467e-01    1.600178e+00   2.892567e-02
  6.885572e-01    1.591800e+00   2.879814e-02
  6.907676e-01    1.640924e+00   2.918674e-02
  6.929781e-01    1.617254e+00   2.892398e-02
  6.951885e-01    1.580105e+00   2.853922e-02
  6.973990e-01    1.582759e+00   2.851266e-02
  6.996094e-01    1.581452e+00   2.845075e-02
  7.018199e-01    1.570026e+00   2.829803e-02
  7.040303e-01    1.599200e+00   2.850955e-02
  7.062408e-01    1.614136e+00   2.859222e-02
  7.084513e-01    1.645745e+00   2.882060e-02
  7.106617e-01    1.591558e+00   2.829293e-02
  7.128722e-01    1.568720e+00   2.804058e-02
  7.150826e-01    1.610000e+00   2.835816e-02
  7.172931e-01    1.602713e+00   2.824514e-02
  7.195035e-01    1.595779e+00   2.813552e-02
  7.217140e-01    1.572282e+00   2.797704e-02
  7.239245e-01    1.557540e+00   2.807106e-02
  7.261349e-01    1.591031e+00   2.848042e-02
  7.283454e-01    1.588158e+00   2.852742e-02
  7.305558e-01    1.592222e+00   2.861819e-02
  7.327663e-01    1.577579e+00   2.852882e-02
  7.349767e-01    1.572926e+00   2.850310e-02
  7.371872e-01    1.532428e+00   2.812272e-02
  7.393976e-01    1.570620e+00   2.845676e-02
  7.416081e-01    1.570608e+00   2.844052e-02
  7.438186e-01    1.553225e+00   2.813937e-02
  7.460290e-01    1.554998e+00   2.786300e-02
  7.482395e-01    1.599872e+00   2.808966e-02
  7.504499e-01    1.552978e+00   2.753961e-02
  7.526604e-01    1.531509e+00   2.723363e-02
  7.548708e-01    1.562355e+00   2.741743e-02
  7.570813e-01    1.609601e+00   2.777739e-02
  7.592918e-01    1.584677e+00   2.752619e-02
  7.615022e-01    1.580090e+00   2.745247e-02
  7.637127e-01    1.564520e+00   2.728420e-02
  7.659231e-01    1.572663e+00   2.732313e-02
  7.681336e-01    1.547235e+00   2.707003e-02
  7.703440e-01    1.531754e+00   2.690346e-02
  7.725545e-01    1.556678e+00   2.709073e-02
  7.747650e-01    1.673888e+00   2.805274e-02
  7.769754e-01    1.618525e+00   2.753154e-02
  7.791859e-01    1.549260e+00   2.688294e-02
  7.813963e-01    1.548616e+00   2.682525e-02
  7.836068e-01    1.569824e+00   2.695656e-02
  7.858172e-01    1.557203e+00   2.679778e-02
  7.880277e-01    1.572984e+00   2.688200e-02
  7.902381e-01    1.579706e+00   2.689042e-02
  7.924486e-01    1.611315e+00   2.710781e-02
  7.946591e-01    1.637986e+00   2.728238e-02
  7.968695e-01    1.615915e+00   2.704948e-02
  7.990800e-01    1.594838e+00   2.682446e-02
  8.012904e-01    1.603066e+00   2.684705e-02
  8.035009e-01    1.619969e+00   2.694018e-02
  8.057113e-01    1.616330e+00   2.686340e-02
  8.079218e-01    1.602237e+00   2.669985e-02
  8.101323e-01    1.632047e+00   2.690134e-02
  8.123427e-01    1.628104e+00   2.682301e-02
  8.145532e-01    1.652747e+00   2.697899e-02
  8.167636e-01    1.644067e+00   2.686283e-02
  8.189741e-01    1.625400e+00   2.666535e-02
  8.211845e-01    1.628829e+00   2.664873e-02
  8.233950e-01    1.644291e+00   2.673136e-02
  8.256054e-01    1.656661e+00   2.678727e-02
  8.278159e-01    1.643417e+00   2.663595e-02
  8.300264e-01    1.603467e+00   2.626758e-02
  8.322368e-01    1.635358e+00   2.648442e-02
  8.344473e-01    1.616870e+00   2.629120e-02
  8.366577e-01    1.624628e+00   2.631183e-02
  8.388682e-01    1.585863e+00   2.595446e-02
  8.410786e-01    1.593019e+00   2.597147e-02
  8.432891e-01    1.650030e+00   2.639015e-02
  8.454996e-01    1.676780e+00   2.656108e-02
  8.477100e-01    1.722112e+00   2.687503e-02
  8.499205e-01    1.728369e+00   2.688152e-02
  8.521309e-01    1.710299e+00   2.669896e-02
  8.543414e-01    1.656633e+00   2.623571e-02
  8.565518e-01    1.630665e+00   2.598879e-02
  8.587623e-01    1.603871e+00   2.573421e-02
  8.609727e-01    1.652502e+00   2.608096e-02
  8.631832e-01    1.615044e+00   2.574392e-02
  8.653937e-01    1.589732e+00   2.550214e-02
  8.676041e-01    1.570407e+00   2.530841e-02
  8.698146e-01    1.592566e+00   2.544737e-02
  8.720250e-01    1.619523e+00   2.562274e-02
  8.742355e-01    1.601766e+00   2.544310e-02
  8.764459e-01    1.582337e+00   2.524974e-02
  8.786564e-01    1.561333e+00   2.504420e-02
  8.808669e-01    1.589501e+00   2.523079e-02
  8.830773e-01    1.582466e+00   2.513700e-02
  8.852878e-01    1.569900e+00   2.499945e-02
  8.874982e-01    1.598053e+00   2.518599e-02
  8.897087e-01    1.614882e+00   2.528045e-02
  8.919191e-01    1.588949e+00   2.503901e-02
  8.941296e-01    1.614178e+00   2.519957e-02
  8.963401e-01    1.595680e+00   2.501839e-02
  8.985505e-01    1.576248e+00   2.482890e-02
  9.007610e-01    1.586870e+00   2.487582e-02
  9.029714e-01    1.576682e+00   2.476027e-02
  9.051819e-01    1.556087e+00   2.456132e-02
  9.073923e-01    1.571820e+00   2.464891e-02
  9.096028e-01    1.574397e+00   2.463449e-02
  9.118132e-01    1.561530e+00   2.449782e-02
  9.140237e-01    1.575705e+00   2.457242e-02
  9.162342e-01    1.591674e+00   2.466215e-02
  9.184446e-01    1.585835e+00   2.458128e-02
  9.206551e-01    1.599952e+00   2.465486e-02
  9.228655e-01    1.562381e+00   2.432883e-02
  9.250760e-01    1.585371e+00   2.447199e-02
  9.272864e-01    1.614471e+00   2.466119e-02
  9.294969e-01    1.621477e+00   2.467862e-02
  9.317074e-01    1.605767e+00   2.452408e-02
  9.339178e-01    1.587224e+00   2.434876e-02
  9.361283e-01    1.595631e+00   2.437717e-02
  9.383387e-01    1.607808e+00   2.443673e-02
  9.405492e-01    1.620775e+00   2.450080e-02
  9.427596e-01    1.659680e+00   2.475743e-02
  9.449701e-01    1.649312e+00   2.464646e-02
  9.471805e-01    1.622686e+00   2.441207e-02
  9.493910e-01    1.609822e+00   2.428174e-02
  9.516015e-01    1.670914e+00   2.470363e-02
  9.538119e-01    1.678784e+00   2.472784e-02
  9.560224e-01    1.676561e+00   2.467667e-02
  9.582328e-01    1.704125e+00   2.484530e-02
  9.604433e-01    1.755286e+00   2.517981e-02
  9.626537e-01    1.755131e+00   2.514484e-02
  9.648642e-01    1.789664e+00   2.535622e-02
  9.670747e-01    1.794829e+00   2.535778e-02
  9.692851e-01    1.775632e+00   2.518828e-02
  9.714956e-01    1.791181e+00   2.526263e-02
  9.737060e-01    1.822153e+00   2.544665e-02
  9.759165e-01    1.807676e+00   2.530963e-02
  9.781269e-01    1.783421e+00   2.510637e-02
  9.803374e-01    1.775795e+00   2.501797e-02
  9.825478e-01    1.797479e+00   2.513707e-02
  9.847583e-01    1.795012e+00   2.508568e-02
  9.869688e-01    1.799024e+00   2.508011e-02
  9.891792e-01    1.771344e+00   2.485333e-02
  9.913897e-01    1.751974e+00   2.468373e-02
  9.936001e-01    1.719725e+00   2.442346e-02
  9.958106e-01    1.721041e+00   2.439961e-02
  9.980210e-01    1.655206e+00   2.389732e-02
  1.000231e+00    1.680220e+00   2.420910e-02
  1.002442e+00    1.666252e+00   2.423638e-02
  1.004652e+00    1.644172e+00   2.414242e-02
  1.006863e+00    1.610958e+00   2.394690e-02
  1.009073e+00    1.586848e+00   2.380340e-02
  1.011284e+00    1.586864e+00   2.383535e-02
  1.013494e+00    1.640434e+00   2.425834e-02
  1.015705e+00    1.701031e+00   2.472569e-02
  1.017915e+00    1.677613e+00   2.457184e-02
  1.020126e+00    1.630733e+00   2.424245e-02
  1.022336e+00    1.611027e+00   2.410740e-02
  1.024547e+00    1.575825e+00   2.385388e-02
  1.026757e+00    1.545408e+00   2.363090e-02
  1.028967e+00    1.516260e+00   2.341460e-02
  1.031178e+00    1.521726e+00   2.346289e-02
  1.033388e+00    1.531951e+00   2.354665e-02
  1.035599e+00    1.516471e+00   2.343079e-02
  1.037809e+00    1.511423e+00   2.339500e-02
  1.040020e+00    1.511466e+00   2.339659e-02
  1.042230e+00    1.553496e+00   2.372163e-02
  1.044441e+00    1.603743e+00   2.410196e-02
  1.046651e+00    1.654056e+00   2.447731e-02
  1.048862e+00    1.700408e+00   2.481705e-02
  1.051072e+00    1.742490e+00   2.511973e-02
  1.053282e+00    1.689330e+00   2.473262e-02
  1.055493e+00    1.565841e+00   2.380710e-02
  1.057703e+00    1.504148e+00   2.333183e-02
  1.059914e+00    1.481488e+00   2.315119e-02
  1.062124e+00    1.484469e+00   2.317038e-02
  1.064335e+00    1.527116e+00   2.349739e-02
  1.066545e+00    1.502187e+00   2.329878e-02
  1.068756e+00    1.482485e+00   2.314176e-02
  1.070966e+00    1.475763e+00   2.308267e-02
  1.073177e+00    1.459090e+00   2.294591e-02
  1.075387e+00    1.482888e+00   2.312700e-02
  1.077597e+00    1.469721e+00   2.301687e-02
  1.079808e+00    1.465069e+00   2.284761e-02
  1.082018e+00    1.485378e+00   2.281490e-02
  1.084229e+00    1.457588e+00   2.249057e-02
  1.086439e+00    1.463796e+00   2.245067e-02
  1.088650e+00    1.484607e+00   2.253328e-02
  1.090860e+00    1.470502e+00   2.235797e-02
  1.093071e+00    1.435016e+00   2.202472e-02
  1.095281e+00    1.419317e+00   2.184718e-02
  1.097492e+00    1.429274e+00   2.186907e-02
  1.099702e+00    1.424138e+00   2.177865e-02
  1.101912e+00    1.409727e+00   2.161983e-02
  1.104123e+00    1.400031e+00   2.149774e-02
  1.106333e+00    1.408813e+00   2.152101e-02
  1.108544e+00    1.396749e+00   2.138492e-02
  1.110754e+00    1.405193e+00   2.140677e-02
  1.112965e+00    1.391885e+00   2.126506e-02
  1.115175e+00    1.388011e+00   2.119474e-02
  1.117386e+00    1.401169e+00   2.125588e-02
  1.119596e+00    1.400059e+00   2.120976e-02
  1.121807e+00    1.424956e+00   2.135848e-02
  1.124017e+00    1.387129e+00   2.103671e-02
  1.126228e+00    1.368172e+00   2.085717e-02
  1.128438e+00    1.359946e+00   2.075815e-02
  1.130648e+00    1.388038e+00   2.093726e-02
  1.132859e+00    1.378754e+00   2.083299e-02
  1.135069e+00    1.383067e+00   2.083095e-02
  1.137280e+00    1.349523e+00   2.054428e-02
  1.139490e+00    1.368647e+00   2.065647e-02
  1.141701e+00    1.365485e+00   2.059972e-02
  1.143911e+00    1.386455e+00   2.072539e-02
  1.146122e+00    1.385305e+00   2.068473e-02
  1.148332e+00    1.364180e+00   2.049472e-02
  1.150543e+00    1.374581e+00   2.054189e-02
  1.152753e+00    1.360919e+00   2.040889e-02
  1.154963e+00    1.346718e+00   2.027139e-02
  1.157174e+00    1.339920e+00   2.019037e-02
  1.159384e+00    1.344831e+00   2.019778e-02
  1.161595e+00    1.358564e+00   2.027092e-02
  1.163805e+00    1.359269e+00   2.024703e-02
  1.166016e+00    1.363777e+00   2.025118e-02
  1.168226e+00    1.385694e+00   2.038410e-02
  1.170437e+00    1.380441e+00   2.031665e-02
  1.172647e+00    1.357744e+00   2.012013e-02
  1.174858e+00    1.362131e+00   2.012453e-02
  1.177068e+00    1.342166e+00   1.994848e-02
  1.179278e+00    1.347251e+00   1.995778e-02
  1.181489e+00    1.343225e+00   1.990111e-02
  1.183699e+00    1.361879e+00   2.001120e-02
  1.185910e+00    1.377964e+00   2.010106e-02
  1.188120e+00    1.351026e+00   1.987699e-02
  1.190331e+00    1.376907e+00   2.003948e-02
  1.192541e+00    1.362964e+00   1.991030e-02
  1.194752e+00    1.392240e+00   2.009555e-02
  1.196962e+00    1.414039e+00   2.022596e-02
  1.199173e+00    1.349716e+00   1.973407e-02
  1.201383e+00    1.364263e+00   1.981282e-02
  1.203593e+00    1.340136e+00   1.961214e-02
  1.205804e+00    1.319319e+00   1.943357e-02
  1.208014e+00    1.330160e+00   1.948661e-02
  1.210225e+00    1.319856e+00   1.938595e-02
  1.212435e+00    1.310133e+00   1.928997e-02
  1.214646e+00    1.342681e+00   1.950209e-02
  1.216856e+00    1.354601e+00   1.956294e-02
  1.219067e+00    1.338274e+00   1.942036e-02
  1.221277e+00    1.331758e+00   1.934813e-02
  1.223488e+00    1.335551e+00   1.935007e-02
  1.225698e+00    1.329215e+00   1.927743e-02
  1.227909e+00    1.305250e+00   1.907318e-02
  1.230119e+00    1.347273e+00   1.934595e-02
  1.232329e+00    1.375898e+00   1.951939e-02
  1.234540e+00    1.352826e+00   1.932474e-02
  1.236750e+00    1.336708e+00   1.917913e-02
  1.238961e+00    1.341797e+00   1.918874e-02
  1.241171e+00    1.313785e+00   1.896353e-02
  1.243382e+00    1.315333e+00   1.895146e-02
  1.245592e+00    1.374150e+00   1.934624e-02
  1.247803e+00    1.369287e+00   1.928818e-02
  1.250013e+00    1.310794e+00   1.884850e-02
  1.252224e+00    1.331262e+00   1.897199e-02
  1.254434e+00    1.355148e+00   1.911766e-02
  1.256644e+00    1.373273e+00   1.922167e-02
  1.258855e+00    1.369894e+00   1.917459e-02
  1.261065e+00    1.357050e+00   1.906105e-02
  1.263276e+00    1.335272e+00   1.888464e-02
  1.265486e+00    1.374955e+00   1.914014e-02
  1.267697e+00    1.333744e+00   1.882824e-02
  1.269907e+00    1.369062e+00   1.905303e-02
  1.272118e+00    1.333921e+00   1.878449e-02
  1.274328e+00    1.333272e+00   1.875732e-02
  1.276539e+00    1.310660e+00   1.857514e-02
  1.278749e+00    1.293351e+00   1.843024e-02
  1.280959e+00    1.346191e+00   1.878045e-02
  1.283170e+00    1.348127e+00   1.877155e-02
  1.285380e+00    1.344633e+00   1.872480e-02
  1.287591e+00    1.353055e+00   1.876129e-02
  1.289801e+00    1.354637e+00   1.875100e-02
  1.292012e+00    1.356060e+00   1.874371e-02
  1.294222e+00    1.346446e+00   1.866093e-02
  1.296433e+00    1.347234e+00   1.865081e-02
  1.298643e+00    1.369975e+00   1.879096e-02
  1.300854e+00    1.366128e+00   1.874806e-02
  1.303064e+00    1.353355e+00   1.864094e-02
  1.305274e+00    1.373743e+00   1.875923e-02
  1.307485e+00    1.346056e+00   1.854769e-02
  1.309695e+00    1.348311e+00   1.854101e-02
  1.311906e+00    1.334980e+00   1.842752e-02
  1.314116e+00    1.348408e+00   1.849920e-02
  1.316327e+00    1.334141e+00   1.837950e-02
  1.318537e+00    1.358065e+00   1.852161e-02
  1.320748e+00    1.341707e+00   1.838825e-02
  1.322958e+00    1.353553e+00   1.844869e-02
  1.325169e+00    1.363329e+00   1.849407e-02
  1.327379e+00    1.360188e+00   1.845087e-02
  1.329589e+00    1.367658e+00   1.848024e-02
  1.331800e+00    1.401327e+00   1.868527e-02
  1.334010e+00    1.376944e+00   1.850113e-02
  1.336221e+00    1.366314e+00   1.840770e-02
  1.338431e+00    1.366263e+00   1.838636e-02
  1.340642e+00    1.346480e+00   1.831683e-02
  1.342852e+00    1.361698e+00   1.852115e-02
  1.345063e+00    1.395813e+00   1.880206e-02
  1.347273e+00    1.373944e+00   1.868974e-02
  1.349484e+00    1.344241e+00   1.851423e-02
  1.351694e+00    1.358140e+00   1.863247e-02
  1.353905e+00    1.356845e+00   1.864163e-02
  1.356115e+00    1.373114e+00   1.876823e-02
  1.358325e+00    1.360703e+00   1.869659e-02
  1.360536e+00    1.353539e+00   1.865896e-02
  1.362746e+00    1.319707e+00   1.843374e-02
  1.364957e+00    1.303246e+00   1.832595e-02
  1.367167e+00    1.311911e+00   1.839381e-02
  1.369378e+00    1.349284e+00   1.866000e-02
  1.371588e+00    1.313941e+00   1.841908e-02
  1.373799e+00    1.312438e+00   1.841217e-02
  1.376009e+00    1.316409e+00   1.844336e-02
  1.378220e+00    1.322269e+00   1.848689e-02
  1.380430e+00    1.327707e+00   1.852756e-02
  1.382640e+00    1.332062e+00   1.855884e-02
  1.384851e+00    1.308931e+00   1.839787e-02
  1.387061e+00    1.316145e+00   1.844879e-02
  1.389272e+00    1.299456e+00   1.833166e-02
  1.391482e+00    1.273481e+00   1.814685e-02
  1.393693e+00    1.274616e+00   1.815406e-02
  1.395903e+00    1.290897e+00   1.826813e-02
  1.398114e+00    1.280607e+00   1.819382e-02
  1.400324e+00    1.288590e+00   1.824829e-02
  1.402535e+00    1.285727e+00   1.822568e-02
  1.404745e+00    1.299561e+00   1.832109e-02
  1.406955e+00    1.289226e+00   1.824539e-02
  1.409166e+00    1.282033e+00   1.819108e-02
  1.411376e+00    1.282689e+00   1.819262e-02
  1.413587e+00    1.279969e+00   1.816949e-02
  1.415797e+00    1.270911e+00   1.810155e-02
  1.418008e+00    1.247229e+00   1.789061e-02
  1.420218e+00    1.248654e+00   1.775234e-02
  1.422429e+00    1.276901e+00   1.786648e-02
  1.424639e+00    1.272859e+00   1.777341e-02
  1.426850e+00    1.286086e+00   1.781049e-02
  1.429060e+00    1.248548e+00   1.750007e-02
  1.431270e+00    1.254254e+00   1.749597e-02
  1.433481e+00    1.250827e+00   1.743141e-02
  1.435691e+00    1.262201e+00   1.747216e-02
  1.437902e+00    1.274381e+00   1.751976e-02
  1.440112e+00    1.256905e+00   1.736404e-02
  1.442323e+00    1.248017e+00   1.726978e-02
  1.444533e+00    1.270124e+00   1.738950e-02
  1.446744e+00    1.276298e+00   1.740052e-02
  1.448954e+00    1.269068e+00   1.732100e-02
  1.451165e+00    1.221907e+00   1.696691e-02
  1.453375e+00    1.246345e+00   1.710794e-02
  1.455586e+00    1.248107e+00   1.709211e-02
  1.457796e+00    1.263886e+00   1.717239e-02
  1.460006e+00    1.266096e+00   1.716018e-02
  1.462217e+00    1.259804e+00   1.709137e-02
  1.464427e+00    1.253529e+00   1.702331e-02
  1.466638e+00    1.255594e+00   1.701212e-02
  1.468848e+00    1.266777e+00   1.706242e-02
  1.471059e+00    1.265323e+00   1.702756e-02
  1.473269e+00    1.270833e+00   1.704022e-02
  1.475480e+00    1.240317e+00   1.681090e-02
  1.477690e+00    1.262330e+00   1.693561e-02
  1.479901e+00    1.261061e+00   1.690334e-02
  1.482111e+00    1.255816e+00   1.684492e-02
  1.484321e+00    1.276716e+00   1.696132e-02
  1.486532e+00    1.297951e+00   1.707917e-02
  1.488742e+00    1.347004e+00   1.737553e-02
  1.490953e+00    1.370230e+00   1.750118e-02
  1.493163e+00    1.335741e+00   1.725662e-02
  1.495374e+00    1.310948e+00   1.707381e-02
  1.497584e+00    1.294035e+00   1.694140e-02
  1.499795e+00    1.255607e+00   1.666635e-02
  1.502005e+00    1.258348e+00   1.666285e-02
  1.504216e+00    1.259593e+00   1.665005e-02
  1.506426e+00    1.241309e+00   1.650809e-02
  1.508636e+00    1.268974e+00   1.667048e-02
  1.510847e+00    1.260035e+00   1.658984e-02
  1.513057e+00    1.243061e+00   1.645274e-02
  1.515268e+00    1.242784e+00   1.642533e-02
  1.517478e+00    1.227480e+00   1.629898e-02
  1.519689e+00    1.241723e+00   1.636844e-02
  1.521899e+00    1.240645e+00   1.633836e-02
  1.524110e+00    1.221580e+00   1.619225e-02
  1.526320e+00    1.256020e+00   1.639929e-02
  1.528531e+00    1.259203e+00   1.640024e-02
  1.530741e+00    1.244844e+00   1.628736e-02
  1.532951e+00    1.238687e+00   1.622753e-02
  1.535162e+00    1.219224e+00   1.618508e-02
  1.537372e+00    1.217953e+00   1.624270e-02
  1.539583e+00    1.231040e+00   1.636372e-02
  1.541793e+00    1.243108e+00   1.645068e-02
  1.544004e+00    1.251836e+00   1.650859e-02
  1.546214e+00    1.236021e+00   1.640248e-02
  1.548425e+00    1.238301e+00   1.641786e-02
  1.550635e+00    1.212485e+00   1.625538e-02
  1.552846e+00    1.218937e+00   1.630809e-02
  1.555056e+00    1.233294e+00   1.636259e-02
  1.557266e+00    1.218184e+00   1.615276e-02
  1.559477e+00    1.231005e+00   1.617874e-02
  1.561687e+00    1.231550e+00   1.615182e-02
  1.563898e+00    1.226148e+00   1.609931e-02
  1.566108e+00    1.235902e+00   1.614732e-02
  1.568319e+00    1.260189e+00   1.628949e-02
  1.570529e+00    1.255111e+00   1.623140e-02
  1.572740e+00    1.234491e+00   1.607002e-02
  1.574950e+00    1.233607e+00   1.603805e-02
  1.577161e+00    1.239622e+00   1.605168e-02
  1.579371e+00    1.260743e+00   1.616403e-02
  1.581582e+00    1.250226e+00   1.607667e-02
  1.583792e+00    1.237897e+00   1.597921e-02
  1.586002e+00    1.228487e+00   1.590088e-02
  1.588213e+00    1.220301e+00   1.583071e-02
  1.590423e+00    1.234050e+00   1.589967e-02
  1.592634e+00    1.198619e+00   1.564854e-02
  1.594844e+00    1.210758e+00   1.570644e-02
  1.597055e+00    1.216257e+00   1.572180e-02
  1.599265e+00    1.247816e+00   1.590369e-02
  1.601476e+00    1.229688e+00   1.576754e-02
  1.603686e+00    1.207989e+00   1.560829e-02
  1.605897e+00    1.220268e+00   1.566742e-02
  1.608107e+00    1.207521e+00   1.556604e-02
  1.610317e+00    1.218634e+00   1.561835e-02
  1.612528e+00    1.228526e+00   1.566248e-02
  1.614738e+00    1.210292e+00   1.552705e-02
  1.616949e+00    1.210878e+00   1.551192e-02
  1.619159e+00    1.218737e+00   1.554350e-02
  1.621370e+00    1.191850e+00   1.535286e-02
  1.623580e+00    1.177257e+00   1.524050e-02
  1.625791e+00    1.183229e+00   1.526105e-02
  1.628001e+00    1.163570e+00   1.511578e-02
  1.630212e+00    1.205343e+00   1.536687e-02
  1.632422e+00    1.181454e+00   1.519598e-02
  1.634632e+00    1.250697e+00   1.561707e-02
  1.636843e+00    1.470987e+00   1.691717e-02
  1.639053e+00    1.221568e+00   1.539872e-02
  1.641264e+00    1.160496e+00   1.499179e-02
  1.643474e+00    1.161899e+00   1.498348e-02
  1.645685e+00    1.153224e+00   1.491080e-02
  1.647895e+00    1.147617e+00   1.485798e-02
  1.650106e+00    1.123280e+00   1.468281e-02
  1.652316e+00    1.122870e+00   1.466380e-02
  1.654527e+00    1.149091e+00   1.481732e-02
  1.656737e+00    1.139636e+00   1.473964e-02
  1.658947e+00    1.145650e+00   1.476212e-02
  1.661158e+00    1.127071e+00   1.462566e-02
  1.663368e+00    1.095410e+00   1.440294e-02
  1.665579e+00    1.120964e+00   1.455380e-02
  1.667789e+00    1.113834e+00   1.449124e-02
  1.670000e+00    1.087219e+00   1.430175e-02
  1.672210e+00    1.095520e+00   1.434044e-02
  1.674421e+00    1.092266e+00   1.430391e-02
  1.676631e+00    1.079345e+00   1.420333e-02
  1.678842e+00    1.081042e+00   1.419886e-02
  1.681052e+00    1.071561e+00   1.412121e-02
  1.683263e+00    1.064374e+00   1.405884e-02
  1.685473e+00    1.067845e+00   1.406670e-02
  1.687683e+00    1.067830e+00   1.405129e-02
  1.689894e+00    1.057203e+00   1.396560e-02
  1.692104e+00    1.064450e+00   1.399855e-02
  1.694315e+00    1.035070e+00   1.378976e-02
  1.696525e+00    1.047555e+00   1.385769e-02
  1.698736e+00    1.038397e+00   1.378234e-02
  1.700946e+00    1.054298e+00   1.387236e-02
  1.703157e+00    1.068697e+00   1.395206e-02
  1.705367e+00    1.044936e+00   1.378166e-02
  1.707578e+00    1.035575e+00   1.370530e-02
  1.709788e+00    1.020823e+00   1.359338e-02
  1.711998e+00    1.031407e+00   1.364873e-02
  1.714209e+00    1.041579e+00   1.370142e-02
  1.716419e+00    1.022381e+00   1.356039e-02
  1.718630e+00    1.013915e+00   1.348998e-02
  1.720840e+00    9.941263e-01   1.334373e-02
  1.723051e+00    1.015828e+00   1.347479e-02
  1.725261e+00    1.011929e+00   1.343428e-02
  1.727472e+00    1.023164e+00   1.349446e-02
  1.729682e+00    1.016428e+00   1.343650e-02
  1.731893e+00    9.973430e-01   1.329594e-02
  1.734103e+00    1.000936e+00   1.330613e-02
  1.736313e+00    1.001342e+00   1.329486e-02
  1.738524e+00    1.004705e+00   1.330332e-02
  1.740734e+00    9.874052e-01   1.317468e-02
  1.742945e+00    9.843816e-01   1.314111e-02
  1.745155e+00    9.788207e-01   1.309059e-02
  1.747366e+00    9.605272e-01   1.295407e-02
  1.749576e+00    9.450760e-01   1.283607e-02
  1.751787e+00    9.494112e-01   1.285235e-02
  1.753997e+00    9.534978e-01   1.286679e-02
  1.756208e+00    9.554230e-01   1.286671e-02
  1.758418e+00    9.625326e-01   1.290143e-02
  1.760628e+00    9.667698e-01   1.291646e-02
  1.762839e+00    9.630494e-01   1.287839e-02
  1.765049e+00    9.637655e-01   1.287005e-02
  1.767260e+00    9.286456e-01   1.262079e-02
  1.769470e+00    9.206579e-01   1.255363e-02
  1.771681e+00    9.324501e-01   1.262076e-02
  1.773891e+00    9.299214e-01   1.259074e-02
  1.776102e+00    9.073812e-01   1.242462e-02
  1.778312e+00    9.114423e-01   1.243986e-02
  1.780523e+00    9.089770e-01   1.241054e-02
  1.782733e+00    9.183285e-01   1.246166e-02
  1.784944e+00    9.107078e-01   1.239713e-02
  1.787154e+00    9.353990e-01   1.255150e-02
  1.789364e+00    9.443969e-01   1.259916e-02
  1.791575e+00    9.191740e-01   1.241731e-02
  1.793785e+00    9.024457e-01   1.229152e-02
  1.795996e+00    8.989148e-01   1.225508e-02
  1.798206e+00    8.996494e-01   1.224769e-02
  1.800417e+00    9.100013e-01   1.230532e-02
  1.802627e+00    9.229792e-01   1.238076e-02
  1.804838e+00    9.217083e-01   1.236008e-02
  1.807048e+00    9.134436e-01   1.229165e-02
  1.809259e+00    9.214723e-01   1.233186e-02
  1.811469e+00    9.017728e-01   1.218439e-02
  1.813679e+00    8.780109e-01   1.200801e-02
  1.815890e+00    8.636488e-01   1.189492e-02
  1.818100e+00    8.853174e-01   1.202821e-02
  1.820311e+00    8.886127e-01   1.203584e-02
  1.822521e+00    8.749900e-01   1.192853e-02
  1.824732e+00    8.628708e-01   1.183102e-02
  1.826942e+00    8.902178e-01   1.200470e-02
  1.829153e+00    8.719059e-01   1.186899e-02
  1.831363e+00    8.688844e-01   1.183647e-02
  1.833574e+00    8.855560e-01   1.193777e-02
  1.835784e+00    8.916172e-01   1.196706e-02
  1.837994e+00    9.004433e-01   1.201428e-02
  1.840205e+00    8.867542e-01   1.191136e-02
  1.842415e+00    8.949318e-01   1.195422e-02
  1.844626e+00    9.052867e-01   1.201142e-02
  1.846836e+00    8.885701e-01   1.188842e-02
  1.849047e+00    8.928940e-01   1.190554e-02
  1.851257e+00    8.739293e-01   1.176879e-02
  1.853468e+00    8.671697e-01   1.171436e-02
  1.855678e+00    8.775803e-01   1.177549e-02
  1.857889e+00    8.560882e-01   1.162194e-02
  1.860099e+00    8.561630e-01   1.161380e-02
  1.862309e+00    8.629506e-01   1.165120e-02
  1.864520e+00    8.924138e-01   1.183968e-02
  1.866730e+00    8.847022e-01   1.177887e-02
  1.868941e+00    8.687004e-01   1.166083e-02
  1.871151e+00    8.659646e-01   1.163095e-02
  1.873362e+00    8.672399e-01   1.162807e-02
  1.875572e+00    8.470656e-01   1.148110e-02
  1.877783e+00    8.539631e-01   1.151626e-02
  1.879993e+00    8.578245e-01   1.153105e-02
  1.882204e+00    8.394902e-01   1.139631e-02
  1.884414e+00    8.362131e-01   1.136300e-02
  1.886624e+00    8.276654e-01   1.129384e-02
  1.888835e+00    8.190376e-01   1.122396e-02
  1.891045e+00    8.456370e-01   1.139385e-02
  1.893256e+00    8.512607e-01   1.142050e-02
  1.895466e+00    8.451437e-01   1.136818e-02
  1.897677e+00    8.306047e-01   1.125908e-02
  1.899887e+00    8.473274e-01   1.136078e-02
  1.902098e+00    8.224259e-01   1.118183e-02
  1.904308e+00    8.226582e-01   1.117287e-02
  1.906519e+00    8.269366e-01   1.119107e-02
  1.908729e+00    8.208165e-01   1.113903e-02
  1.910940e+00    8.266098e-01   1.116712e-02
  1.913150e+00    8.213192e-01   1.112081e-02
  1.915360e+00    8.158260e-01   1.107297e-02
  1.917571e+00    8.208019e-01   1.109583e-02
  1.919781e+00    8.155615e-01   1.104971e-02
  1.921992e+00    8.101997e-01   1.100278e-02
  1.924202e+00    7.942904e-01   1.088360e-02
  1.926413e+00    7.982916e-01   1.090079e-02
  1.928623e+00    7.998731e-01   1.090113e-02
  1.930834e+00    8.115425e-01   1.096995e-02
  1.933044e+00    8.100587e-01   1.094925e-02
  1.935255e+00    8.061374e-01   1.091242e-02
  1.937465e+00    8.072096e-01   1.090928e-02
  1.939675e+00    7.973217e-01   1.083148e-02
  1.941886e+00    7.985340e-01   1.082947e-02
  1.944096e+00    7.939555e-01   1.078825e-02
  1.946307e+00    7.934185e-01   1.077432e-02
  1.948517e+00    8.126105e-01   1.089332e-02
  1.950728e+00    8.056239e-01   1.083611e-02
  1.952938e+00    8.028337e-01   1.080721e-02
  1.955149e+00    8.028224e-01   1.079684e-02
  1.957359e+00    7.935933e-01   1.072460e-02
  1.959570e+00    7.970858e-01   1.073727e-02
  1.961780e+00    7.665949e-01   1.052017e-02
  1.963990e+00    7.759961e-01   1.057444e-02
  1.966201e+00    7.770245e-01   1.057149e-02
  1.968411e+00    7.748263e-01   1.054644e-02
  1.970622e+00    7.928973e-01   1.065862e-02
  1.972832e+00    7.783496e-01   1.055048e-02
  1.975043e+00    7.615280e-01   1.042594e-02
  1.977253e+00    7.822015e-01   1.055659e-02
  1.979464e+00    7.816062e-01   1.054254e-02
  1.981674e+00    7.700701e-01   1.045429e-02
  1.983885e+00    7.897987e-01   1.057726e-02
  1.986095e+00    7.912522e-01   1.057725e-02
  1.988305e+00    7.876605e-01   1.054326e-02
  1.990516e+00    7.802374e-01   1.048352e-02
  1.992726e+00    7.854026e-01   1.050845e-02
  1.994937e+00    7.788763e-01   1.045456e-02
  1.997147e+00    7.790870e-01   1.044622e-02
  1.999358e+00    7.788643e-01   1.043487e-02
  2.001568e+00    7.675180e-01   1.034780e-02
  2.003779e+00    7.720060e-01   1.036610e-02
  2.005989e+00    7.768679e-01   1.038662e-02
  2.008200e+00    7.713483e-01   1.033813e-02
  2.010410e+00    7.696902e-01   1.031527e-02
  2.012621e+00    7.505201e-01   1.017443e-02
  2.014831e+00    7.729012e-01   1.031349e-02
  2.017041e+00    7.563281e-01   1.019203e-02
  2.019252e+00    7.592290e-01   1.020163e-02
  2.021462e+00    7.665657e-01   1.024127e-02
  2.023673e+00    7.732070e-01   1.027611e-02
  2.025883e+00    7.815291e-01   1.032164e-02
  2.028094e+00    7.652910e-01   1.020418e-02
  2.030304e+00    7.716115e-01   1.023664e-02
  2.032515e+00    7.736979e-01   1.024108e-02
  2.034725e+00    7.617944e-01   1.015255e-02
  2.036936e+00    7.641090e-01   1.015857e-02
  2.039146e+00    7.577981e-01   1.010698e-02
  2.041356e+00    7.553759e-01   1.008115e-02
  2.043567e+00    7.565103e-01   1.007942e-02
  2.045777e+00    7.513801e-01   1.003597e-02
  2.047988e+00    7.546292e-01   1.004826e-02
  2.050198e+00    7.683716e-01   1.013084e-02
  2.052409e+00    7.705916e-01   1.013771e-02
  2.054619e+00    7.477055e-01   9.978696e-03
  2.056830e+00    7.386997e-01   9.911293e-03
  2.059040e+00    7.528425e-01   9.998187e-03
  2.061251e+00    7.571003e-01   1.001915e-02
  2.063461e+00    7.459457e-01   9.937488e-03
  2.065671e+00    7.504355e-01   9.958619e-03
  2.067882e+00    7.156095e-01   9.716013e-03
  2.070092e+00    7.315612e-01   9.814570e-03
  2.072303e+00    7.424681e-01   9.878376e-03
  2.074513e+00    7.409880e-01   9.859216e-03
  2.076724e+00    7.454916e-01   9.879679e-03
  2.078934e+00    7.372393e-01   9.815870e-03
  2.081145e+00    7.275043e-01   9.741865e-03
  2.083355e+00    7.313863e-01   9.758693e-03
  2.085566e+00    7.496890e-01   9.871107e-03
  2.087776e+00    7.198015e-01   9.662966e-03
  2.089986e+00    7.216425e-01   9.666609e-03
  2.092197e+00    7.235274e-01   9.670369e-03
  2.094407e+00    7.170522e-01   9.617882e-03
  2.096618e+00    7.206114e-01   9.632921e-03
  2.098828e+00    7.154318e-01   9.589048e-03
  2.101039e+00    7.216108e-01   9.621454e-03
  2.103249e+00    7.158542e-01   9.574420e-03
  2.105460e+00    7.277312e-01   9.644520e-03
  2.107670e+00    7.247247e-01   9.615880e-03
  2.109881e+00    6.966331e-01   9.418701e-03
  2.112091e+00    7.135115e-01   9.523191e-03
  2.114301e+00    7.230959e-01   9.578183e-03
  2.116512e+00    6.951942e-01   9.382957e-03
  2.118722e+00    7.114193e-01   9.483032e-03
  2.120933e+00    7.034999e-01   9.421371e-03
  2.123143e+00    7.086200e-01   9.446725e-03
  2.125354e+00    7.051578e-01   9.415187e-03
  2.127564e+00    7.131643e-01   9.459760e-03
  2.129775e+00    7.004170e-01   9.366222e-03
  2.131985e+00    6.986805e-01   9.345628e-03
  2.134196e+00    7.161620e-01   9.453208e-03
  2.136406e+00    7.060552e-01   9.377597e-03
  2.138617e+00    7.001867e-01   9.330112e-03
  2.140827e+00    7.097794e-01   9.409903e-03
  2.143037e+00    7.249868e-01   9.556193e-03
  2.145248e+00    7.242804e-01   9.573855e-03
  2.147458e+00    6.848838e-01   9.324769e-03
  2.149669e+00    6.871056e-01   9.351568e-03
  2.151879e+00    6.940121e-01   9.407640e-03
  2.154090e+00    6.783463e-01   9.308037e-03
  2.156300e+00    7.115763e-01   9.539944e-03
  2.158511e+00    7.070586e-01   9.514965e-03
  2.160721e+00    7.069482e-01   9.519051e-03
  2.162932e+00    7.037857e-01   9.501517e-03
  2.165142e+00    6.974486e-01   9.461641e-03
  2.167352e+00    7.044174e-01   9.511723e-03
  2.169563e+00    6.989192e-01   9.476515e-03
  2.171773e+00    6.714618e-01   9.290899e-03
  2.173984e+00    6.804531e-01   9.354278e-03
  2.176194e+00    6.952022e-01   9.456328e-03
  2.178405e+00    6.910783e-01   9.428944e-03
  2.180615e+00    6.886830e-01   9.413266e-03
  2.182826e+00    6.761683e-01   9.328017e-03
  2.185036e+00    6.820498e-01   9.368533e-03
  2.187247e+00    6.808212e-01   9.360076e-03
  2.189457e+00    6.705148e-01   9.288511e-03
  2.191667e+00    6.980670e-01   9.477286e-03
  2.193878e+00    6.821511e-01   9.368043e-03
  2.196088e+00    6.851184e-01   9.387720e-03
  2.198299e+00    6.715398e-01   9.293141e-03
  2.200509e+00    6.866261e-01   9.395887e-03
  2.202720e+00    6.754626e-01   9.318057e-03
  2.204930e+00    6.737933e-01   9.305296e-03
  2.207141e+00    6.621289e-01   9.223300e-03
  2.209351e+00    6.855348e-01   9.383002e-03
  2.211562e+00    6.660855e-01   9.247356e-03
  2.213772e+00    6.629788e-01   9.170852e-03
  2.215982e+00    6.617881e-01   9.118847e-03
  2.218193e+00    6.704687e-01   9.148956e-03
  2.220403e+00    6.677072e-01   9.105642e-03
  2.222614e+00    6.723055e-01   9.116003e-03
  2.224824e+00    6.704870e-01   9.084336e-03
  2.227035e+00    6.501247e-01   8.928188e-03
  2.229245e+00    6.780913e-01   9.101126e-03
  2.231456e+00    6.853662e-01   9.134069e-03
  2.233666e+00    6.492445e-01   8.875258e-03
  2.235877e+00    6.536283e-01   8.891065e-03
  2.238087e+00    6.658351e-01   8.960268e-03
  2.240298e+00    6.729620e-01   8.994300e-03
  2.242508e+00    6.792766e-01   9.021139e-03
  2.244718e+00    6.759797e-01   8.983348e-03
  2.246929e+00    6.571677e-01   8.843154e-03
  2.249139e+00    6.646273e-01   8.880852e-03
  2.251350e+00    6.431385e-01   8.724604e-03
  2.253560e+00    6.467471e-01   8.737658e-03
  2.255771e+00    6.471032e-01   8.728798e-03
  2.257981e+00    6.682044e-01   8.858779e-03
  2.260192e+00    6.654869e-01   8.829639e-03
  2.262402e+00    6.672125e-01   8.830193e-03
  2.264613e+00    6.533771e-01   8.727421e-03
  2.266823e+00    6.519026e-01   8.707242e-03
  2.269033e+00    6.635813e-01   8.774516e-03
  2.271244e+00    6.608937e-01   8.746352e-03
  2.273454e+00    6.528652e-01   8.682866e-03
  2.275665e+00    6.569304e-01   8.699602e-03
  2.277875e+00    6.557186e-01   8.681682e-03
  2.280086e+00    6.479154e-01   8.619920e-03
  2.282296e+00    6.555957e-01   8.661489e-03
  2.284507e+00    6.478053e-01   8.599812e-03
  2.286717e+00    6.669722e-01   8.716585e-03
  2.288928e+00    6.579288e-01   8.647417e-03
  2.291138e+00    6.544803e-01   8.615318e-03
  2.293348e+00    6.461164e-01   8.550633e-03
  2.295559e+00    6.484865e-01   8.557026e-03
  2.297769e+00    6.468287e-01   8.536885e-03
  2.299980e+00    6.470565e-01   8.529099e-03
  2.302190e+00    6.487834e-01   8.531390e-03
  2.304401e+00    6.511611e-01   8.537680e-03
  2.306611e+00    6.496874e-01   8.518849e-03
  2.308822e+00    6.383142e-01   8.435636e-03
  2.311032e+00    6.395738e-01   8.437589e-03
  2.313243e+00    6.228877e-01   8.320610e-03
  2.315453e+00    6.460876e-01   8.466622e-03
  2.317663e+00    6.397249e-01   8.415744e-03
  2.319874e+00    6.446871e-01   8.439610e-03
  2.322084e+00    6.445378e-01   8.429681e-03
  2.324295e+00    6.556948e-01   8.494029e-03
  2.326505e+00    6.466821e-01   8.426392e-03
  2.328716e+00    6.433927e-01   8.396378e-03
  2.330926e+00    6.438982e-01   8.390877e-03
  2.333137e+00    6.502471e-01   8.423707e-03
  2.335347e+00    6.512156e-01   8.421059e-03
  2.337558e+00    6.226842e-01   8.226395e-03
  2.339768e+00    6.412705e-01   8.339665e-03
  2.341979e+00    6.459614e-01   8.361715e-03
  2.344189e+00    6.397756e-01   8.313179e-03
  2.346399e+00    6.423007e-01   8.321016e-03
  2.348610e+00    6.450852e-01   8.330535e-03
  2.350820e+00    6.293688e-01   8.220269e-03
  2.353031e+00    6.259192e-01   8.189491e-03
  2.355241e+00    6.266895e-01   8.186497e-03
  2.357452e+00    6.347699e-01   8.230684e-03
  2.359662e+00    6.291282e-01   8.185807e-03
  2.361873e+00    6.228143e-01   8.136464e-03
  2.364083e+00    6.299568e-01   8.174972e-03
  2.366294e+00    6.175300e-01   8.085909e-03
  2.368504e+00    6.326072e-01   8.175913e-03
  2.370714e+00    6.186806e-01   8.077390e-03
  2.372925e+00    6.256305e-01   8.114591e-03
  2.375135e+00    6.245794e-01   8.099705e-03
  2.377346e+00    6.312095e-01   8.134592e-03
  2.379556e+00    6.288036e-01   8.111139e-03
  2.381767e+00    6.240619e-01   8.072619e-03
  2.383977e+00    6.146919e-01   8.003904e-03
  2.386188e+00    6.105351e-01   7.968917e-03
  2.388398e+00    6.360579e-01   8.125710e-03
  2.390609e+00    6.211182e-01   8.021982e-03
  2.392819e+00    6.105308e-01   7.945579e-03
  2.395029e+00    6.067529e-01   7.913345e-03
  2.397240e+00    6.062123e-01   7.901995e-03
  2.399450e+00    6.055519e-01   7.889946e-03
  2.401661e+00    6.048291e-01   7.877596e-03
  2.403871e+00    6.104397e-01   7.906293e-03
  2.406082e+00    6.087553e-01   7.887954e-03
  2.408292e+00    6.098306e-01   7.887120e-03
  2.410503e+00    5.961492e-01   7.790747e-03
  2.412713e+00    5.918139e-01   7.754646e-03
  2.414924e+00    5.984341e-01   7.790480e-03
  2.417134e+00    5.928797e-01   7.746675e-03
  2.419344e+00    5.842073e-01   7.682514e-03
  2.421555e+00    5.954689e-01   7.748738e-03
  2.423765e+00    5.993938e-01   7.766838e-03
  2.425976e+00    6.101279e-01   7.828201e-03
  2.428186e+00    5.991625e-01   7.750319e-03
  2.430397e+00    6.077828e-01   7.798318e-03
  2.432607e+00    6.209496e-01   7.874914e-03
  2.434818e+00    5.901392e-01   7.669574e-03
  2.437028e+00    5.761254e-01   7.570891e-03
  2.439239e+00    5.979072e-01   7.704995e-03
  2.441449e+00    5.951186e-01   7.679819e-03
  2.443659e+00    5.778508e-01   7.560300e-03
  2.445870e+00    5.716547e-01   7.531720e-03
  2.448080e+00    5.643917e-01   7.517971e-03
  2.450291e+00    5.683751e-01   7.560905e-03
  2.452501e+00    5.823040e-01   7.664244e-03
  2.454712e+00    5.679537e-01   7.577584e-03
  2.456922e+00    5.761656e-01   7.638841e-03
  2.459133e+00    5.686691e-01   7.594400e-03
  2.461343e+00    5.839376e-01   7.700108e-03
  2.463554e+00    5.607929e-01   7.549425e-03
  2.465764e+00    5.550495e-01   7.513786e-03
  2.467975e+00    5.531853e-01   7.503421e-03
  2.470185e+00    5.472277e-01   7.465145e-03
  2.472395e+00    5.487990e-01   7.477052e-03
  2.474606e+00    5.419694e-01   7.431946e-03
  2.476816e+00    5.480662e-01   7.474344e-03
  2.479027e+00    5.542511e-01   7.517263e-03
  2.481237e+00    5.570790e-01   7.536696e-03
  2.483448e+00    5.384387e-01   7.409846e-03
  2.485658e+00    5.410106e-01   7.427353e-03
  2.487869e+00    5.444360e-01   7.450880e-03
  2.490079e+00    5.338542e-01   7.377606e-03
  2.492290e+00    5.445480e-01   7.450674e-03
  2.494500e+00    5.483584e-01   7.475979e-03
  2.496710e+00    5.307523e-01   7.354295e-03
  2.498921e+00    5.276442e-01   7.331738e-03
  2.501131e+00    5.233616e-01   7.300981e-03
  2.503342e+00    5.285375e-01   7.335735e-03
  2.505552e+00    5.193688e-01   7.270715e-03
  2.507763e+00    5.163652e-01   7.248253e-03
  2.509973e+00    5.264719e-01   7.317469e-03
  2.512184e+00    5.146281e-01   7.233083e-03
  2.514394e+00    5.138984e-01   7.218721e-03
  2.516605e+00    5.121139e-01   7.159752e-03
  2.518815e+00    5.187772e-01   7.178046e-03
  2.521025e+00    5.183540e-01   7.154310e-03
  2.523236e+00    5.263171e-01   7.191053e-03
  2.525446e+00    5.210721e-01   7.139578e-03
  2.527657e+00    5.388542e-01   7.245606e-03
  2.529867e+00    5.308037e-01   7.177016e-03
  2.532078e+00    5.244445e-01   7.118882e-03
  2.534288e+00    5.109678e-01   7.013093e-03
  2.536499e+00    5.290187e-01   7.123916e-03
  2.538709e+00    5.164641e-01   7.027965e-03
  2.540920e+00    5.374388e-01   7.158459e-03
  2.543130e+00    5.189931e-01   7.024261e-03
  2.545340e+00    5.070300e-01   6.932916e-03
  2.547551e+00    4.997917e-01   6.873516e-03
  2.549761e+00    5.137356e-01   6.959251e-03
  2.551972e+00    5.091941e-01   6.919180e-03
  2.554182e+00    5.118619e-01   6.928190e-03
  2.556393e+00    5.054994e-01   6.876040e-03
  2.558603e+00    5.055777e-01   6.867624e-03
  2.560814e+00    5.107000e-01   6.893703e-03
  2.563024e+00    5.077220e-01   6.865092e-03
  2.565235e+00    5.088137e-01   6.863052e-03
  2.567445e+00    5.170536e-01   6.908862e-03
  2.569656e+00    5.130519e-01   6.872382e-03
  2.571866e+00    5.026409e-01   6.793083e-03
  2.574076e+00    5.115370e-01   6.843699e-03
  2.576287e+00    5.047356e-01   6.789836e-03
  2.578497e+00    5.213824e-01   6.892979e-03
  2.580708e+00    5.153126e-01   6.844686e-03
  2.582918e+00    5.035454e-01   6.758394e-03
  2.585129e+00    5.176430e-01   6.844571e-03
  2.587339e+00    5.113979e-01   6.795511e-03
  2.589550e+00    4.976624e-01   6.696196e-03
  2.591760e+00    4.919513e-01   6.650063e-03
  2.593971e+00    5.068846e-01   6.742747e-03
  2.596181e+00    4.954798e-01   6.660348e-03
  2.598391e+00    4.944345e-01   6.648210e-03
  2.600602e+00    4.991534e-01   6.674006e-03
  2.602812e+00    5.040183e-01   6.698949e-03
  2.605023e+00    4.975295e-01   6.648599e-03
  2.607233e+00    5.066360e-01   6.702045e-03
  2.609444e+00    5.093469e-01   6.712702e-03
  2.611654e+00    5.159880e-01   6.748947e-03
  2.613865e+00    5.048636e-01   6.668766e-03
  2.616075e+00    5.000010e-01   6.629481e-03
  2.618286e+00    4.994933e-01   6.619166e-03
  2.620496e+00    4.877878e-01   6.534550e-03
  2.622706e+00    4.942781e-01   6.572205e-03
  2.624917e+00    5.017885e-01   6.616119e-03
  2.627127e+00    4.878794e-01   6.518128e-03
  2.629338e+00    4.917180e-01   6.537805e-03
  2.631548e+00    5.064292e-01   6.628697e-03
  2.633759e+00    5.083900e-01   6.634342e-03
  2.635969e+00    5.065965e-01   6.615883e-03
  2.638180e+00    5.109760e-01   6.637389e-03
  2.640390e+00    5.249854e-01   6.721003e-03
  2.642601e+00    5.013516e-01   6.561324e-03
  2.644811e+00    4.806132e-01   6.417242e-03
  2.647021e+00    4.843350e-01   6.435567e-03
  2.649232e+00    4.852140e-01   6.434791e-03
  2.651442e+00    5.070201e-01   6.571223e-03
  2.653653e+00    5.020345e-01   6.532064e-03
  2.655863e+00    4.885428e-01   6.437046e-03
  2.658074e+00    4.978698e-01   6.491591e-03
  2.660284e+00    4.970157e-01   6.479683e-03
  2.662495e+00    4.912359e-01   6.435174e-03
  2.664705e+00    4.959194e-01   6.459218e-03
  2.666916e+00    4.986767e-01   6.470674e-03
  2.669126e+00    4.972956e-01   6.455244e-03
  2.671337e+00    4.932340e-01   6.422252e-03
  2.673547e+00    5.024944e-01   6.475844e-03
  2.675757e+00    4.893260e-01   6.384019e-03
  2.677968e+00    4.862307e-01   6.357306e-03
  2.680178e+00    5.019543e-01   6.452837e-03
  2.682389e+00    4.832329e-01   6.325033e-03
  2.684599e+00    4.879280e-01   6.349519e-03
  2.686810e+00    4.887003e-01   6.347956e-03
  2.689020e+00    4.987820e-01   6.406771e-03
  2.691231e+00    4.921713e-01   6.357886e-03
  2.693441e+00    4.829581e-01   6.291979e-03
  2.695652e+00    4.952615e-01   6.365081e-03
  2.697862e+00    4.882903e-01   6.313801e-03
  2.700072e+00    4.809111e-01   6.259876e-03
  2.702283e+00    4.862153e-01   6.288099e-03
  2.704493e+00    4.822125e-01   6.255931e-03
  2.706704e+00    4.791737e-01   6.229843e-03
  2.708914e+00    4.846208e-01   6.259194e-03
  2.711125e+00    4.801574e-01   6.224125e-03
  2.713335e+00    4.710026e-01   6.158507e-03
  2.715546e+00    4.823022e-01   6.225513e-03
  2.717756e+00    4.750196e-01   6.172510e-03
  2.719967e+00    4.989837e-01   6.320005e-03
  2.722177e+00    4.816262e-01   6.203019e-03
  2.724387e+00    4.731124e-01   6.141906e-03
  2.726598e+00    4.815360e-01   6.190316e-03
  2.728808e+00    4.803098e-01   6.176298e-03
  2.731019e+00    4.886523e-01   6.223575e-03
  2.733229e+00    4.746657e-01   6.128106e-03
  2.735440e+00    4.706771e-01   6.096127e-03
  2.737650e+00    4.766046e-01   6.128401e-03
  2.739861e+00    4.851120e-01   6.176792e-03
  2.742071e+00    4.759974e-01   6.112790e-03
  2.744282e+00    4.781653e-01   6.120468e-03
  2.746492e+00    4.773022e-01   6.108951e-03
  2.748702e+00    4.908502e-01   6.189061e-03
  2.750913e+00    4.877769e-01   6.163846e-03
  2.753123e+00    4.757937e-01   6.081590e-03
  2.755334e+00    4.745243e-01   6.067410e-03
  2.757544e+00    4.819894e-01   6.109225e-03
  2.759755e+00    4.719312e-01   6.039299e-03
  2.761965e+00    4.722770e-01   6.035589e-03
  2.764176e+00    4.719899e-01   6.027820e-03
  2.766386e+00    4.621892e-01   5.959212e-03
  2.768597e+00    4.679151e-01   5.990230e-03
  2.770807e+00    4.753414e-01   6.031706e-03
  2.773017e+00    4.789609e-01   6.048683e-03
  2.775228e+00    4.776947e-01   6.034889e-03
  2.777438e+00    4.745318e-01   6.009109e-03
  2.779649e+00    4.771326e-01   6.019651e-03
  2.781859e+00    4.806949e-01   6.036303e-03
  2.784070e+00    4.819024e-01   6.038003e-03
  2.786280e+00    4.713466e-01   5.965768e-03
  2.788491e+00    4.790363e-01   6.008374e-03
  2.790701e+00    4.818419e-01   6.020285e-03
  2.792912e+00    4.807175e-01   6.007242e-03
  2.795122e+00    4.804821e-01   6.000041e-03
  2.797333e+00    4.693745e-01   5.924740e-03
  2.799543e+00    4.730413e-01   5.941992e-03
  2.801753e+00    4.611731e-01   5.861219e-03
  2.803964e+00    4.703279e-01   5.913462e-03
  2.806174e+00    4.717158e-01   5.916066e-03
  2.808385e+00    4.609940e-01   5.841750e-03
  2.810595e+00    4.568582e-01   5.808753e-03
  2.812806e+00    4.627045e-01   5.839265e-03
  2.815016e+00    4.747173e-01   5.909822e-03
  2.817227e+00    4.779655e-01   5.956065e-03
  2.819437e+00    4.662534e-01   5.893628e-03
  2.821648e+00    4.614227e-01   5.865271e-03
  2.823858e+00    4.663874e-01   5.902033e-03
  2.826068e+00    4.763340e-01   5.969652e-03
  2.828279e+00    4.669734e-01   5.914696e-03
  2.830489e+00    4.680651e-01   5.924955e-03
  2.832700e+00    4.665205e-01   5.917692e-03
  2.834910e+00    4.618863e-01   5.890285e-03
  2.837121e+00    4.683140e-01   5.932832e-03
  2.839331e+00    4.645483e-01   5.910139e-03
  2.841542e+00    4.700631e-01   5.946142e-03
  2.843752e+00    4.793326e-01   6.005267e-03
  2.845963e+00    4.686115e-01   5.938136e-03
  2.848173e+00    4.652981e-01   5.917191e-03
  2.850383e+00    4.589442e-01   5.876944e-03
  2.852594e+00    4.542417e-01   5.846669e-03
  2.854804e+00    4.629368e-01   5.901857e-03
  2.857015e+00    4.628734e-01   5.901030e-03
  2.859225e+00    4.652584e-01   5.915965e-03
  2.861436e+00    4.705685e-01   5.948961e-03
  2.863646e+00    4.767589e-01   5.988006e-03
  2.865857e+00    4.722832e-01   5.960184e-03
  2.868067e+00    4.713651e-01   5.954597e-03
  2.870278e+00    4.681134e-01   5.933698e-03
  2.872488e+00    4.604135e-01   5.883506e-03
  2.874698e+00    4.531510e-01   5.835911e-03
  2.876909e+00    4.651493e-01   5.911306e-03
  2.879119e+00    4.640722e-01   5.902869e-03
  2.881330e+00    4.540378e-01   5.837210e-03
  2.883540e+00    4.626229e-01   5.890776e-03
  2.885751e+00    4.598452e-01   5.871418e-03
  2.887961e+00    4.652276e-01   5.903775e-03
  2.890172e+00    4.619294e-01   5.881226e-03
  2.892382e+00    4.617775e-01   5.878433e-03
  2.894593e+00    4.583242e-01   5.854626e-03
  2.896803e+00    4.476548e-01   5.784118e-03
  2.899014e+00    4.462586e-01   5.773185e-03
  2.901224e+00    4.665425e-01   5.900941e-03
  2.903434e+00    4.668393e-01   5.900864e-03
  2.905645e+00    4.531073e-01   5.811231e-03
  2.907855e+00    4.458020e-01   5.762121e-03
  2.910066e+00    4.575991e-01   5.835771e-03
  2.912276e+00    4.422910e-01   5.735275e-03
  2.914487e+00    4.448400e-01   5.749330e-03
  2.916697e+00    4.482124e-01   5.768901e-03
  2.918908e+00    4.440702e-01   5.740205e-03
  2.921118e+00    4.479789e-01   5.762735e-03
  2.923329e+00    4.487038e-01   5.765122e-03
  2.925539e+00    4.353507e-01   5.676459e-03
  2.927749e+00    4.541197e-01   5.795219e-03
  2.929960e+00    4.527541e-01   5.783743e-03
  2.932170e+00    4.618078e-01   5.838945e-03
  2.934381e+00    4.513288e-01   5.769908e-03
  2.936591e+00    4.321099e-01   5.643196e-03
  2.938802e+00    4.476277e-01   5.740940e-03
  2.941012e+00    4.569840e-01   5.798289e-03
  2.943223e+00    4.676787e-01   5.863024e-03
  2.945433e+00    4.633889e-01   5.832305e-03
  2.947644e+00    4.572634e-01   5.789493e-03
  2.949854e+00    4.566535e-01   5.781345e-03
  2.952064e+00    4.507948e-01   5.739948e-03
  2.954275e+00    4.498197e-01   5.729338e-03
  2.956485e+00    4.512263e-01   5.734114e-03
  2.958696e+00    4.617199e-01   5.796002e-03
  2.960906e+00    4.643880e-01   5.808514e-03
  2.963117e+00    4.536431e-01   5.736433e-03
  2.965327e+00    4.488373e-01   5.702100e-03
  2.967538e+00    4.623671e-01   5.784443e-03
  2.969748e+00    4.641353e-01   5.792679e-03
  2.971959e+00    4.505819e-01   5.704327e-03
  2.974169e+00    4.545918e-01   5.727078e-03
  2.976379e+00    4.594150e-01   5.754441e-03
  2.978590e+00    4.507566e-01   5.696841e-03
  2.980800e+00    4.529747e-01   5.708037e-03
  2.983011e+00    4.556205e-01   5.721883e-03
  2.985221e+00    4.515857e-01   5.693355e-03
  2.987432e+00    4.436026e-01   5.639737e-03
  2.989642e+00    4.301848e-01   5.551206e-03
  2.991853e+00    4.589674e-01   5.730632e-03
  2.994063e+00    4.564411e-01   5.711915e-03
  2.996274e+00    4.480277e-01   5.655863e-03
  2.998484e+00    4.572923e-01   5.711342e-03
  3.000694e+00    4.483177e-01   5.651588e-03
  3.002905e+00    4.350224e-01   5.564270e-03
  3.005115e+00    4.516581e-01   5.666682e-03
  3.007326e+00    4.443614e-01   5.617621e-03
  3.009536e+00    4.369629e-01   5.567446e-03
  3.011747e+00    4.443625e-01   5.611504e-03
  3.013957e+00    4.453605e-01   5.614660e-03
  3.016168e+00    4.414262e-01   5.586568e-03
  3.018378e+00    4.525626e-01   5.653577e-03
  3.020589e+00    4.431883e-01   5.591526e-03
  3.022799e+00    4.574421e-01   5.677569e-03
  3.025010e+00    4.484823e-01   5.618453e-03
  3.027220e+00    4.461218e-01   5.600568e-03
  3.029430e+00    4.480920e-01   5.609686e-03
  3.031641e+00    4.280806e-01   5.479931e-03
  3.033851e+00    4.556839e-01   5.650321e-03
  3.036062e+00    4.516236e-01   5.622323e-03
  3.038272e+00    4.486675e-01   5.600309e-03
  3.040483e+00    4.516990e-01   5.615998e-03
  3.042693e+00    4.503748e-01   5.604475e-03
  3.044904e+00    4.426761e-01   5.552404e-03
  3.047114e+00    4.387839e-01   5.523184e-03
  3.049325e+00    4.520868e-01   5.601885e-03
  3.051535e+00    4.459209e-01   5.559187e-03
  3.053745e+00    4.479332e-01   5.566980e-03
  3.055956e+00    4.491613e-01   5.570034e-03
  3.058166e+00    4.604466e-01   5.635270e-03
  3.060377e+00    4.583720e-01   5.617752e-03
  3.062587e+00    4.419095e-01   5.511361e-03
  3.064798e+00    4.509332e-01   5.563083e-03
  3.067008e+00    4.562289e-01   5.590897e-03
  3.069219e+00    4.484677e-01   5.538620e-03
  3.071429e+00    4.528321e-01   5.561988e-03
  3.073640e+00    4.557949e-01   5.576802e-03
  3.075850e+00    4.483940e-01   5.527761e-03
  3.078060e+00    4.623763e-01   5.610115e-03
  3.080271e+00    4.515877e-01   5.540820e-03
  3.082481e+00    4.650646e-01   5.619363e-03
  3.084692e+00    4.547685e-01   5.553427e-03
  3.086902e+00    4.439214e-01   5.483559e-03
  3.089113e+00    4.442025e-01   5.481746e-03
  3.091323e+00    4.501527e-01   5.514948e-03
  3.093534e+00    4.500650e-01   5.511025e-03
  3.095744e+00    4.452193e-01   5.477925e-03
  3.097955e+00    4.495555e-01   5.500969e-03
  3.100165e+00    4.387884e-01   5.431404e-03
  3.102375e+00    4.466085e-01   5.476159e-03
  3.104586e+00    4.511739e-01   5.500571e-03
  3.106796e+00    4.519946e-01   5.502033e-03
  3.109007e+00    4.446525e-01   5.453963e-03
  3.111217e+00    4.373628e-01   5.405393e-03
  3.113428e+00    4.568472e-01   5.521042e-03
  3.115638e+00    4.462076e-01   5.453130e-03
  3.117849e+00    4.541641e-01   5.497771e-03
  3.120059e+00    4.391450e-01   5.402684e-03
  3.122270e+00    4.450140e-01   5.435378e-03
  3.124480e+00    4.431541e-01   5.420351e-03
  3.126691e+00    4.402250e-01   5.398854e-03
  3.128901e+00    4.342699e-01   5.359124e-03
  3.131111e+00    4.520323e-01   5.463756e-03
  3.133322e+00    4.435788e-01   5.408984e-03
  3.135532e+00    4.516480e-01   5.454527e-03
  3.137743e+00    4.428339e-01   5.397569e-03
  3.139953e+00    4.401185e-01   5.377318e-03
  3.142164e+00    4.303265e-01   5.329020e-03
  3.144374e+00    4.382403e-01   5.406053e-03
  3.146585e+00    4.331753e-01   5.389144e-03
  3.148795e+00    4.373351e-01   5.425672e-03
  3.151006e+00    4.363430e-01   5.428004e-03
  3.153216e+00    4.439344e-01   5.482173e-03
  3.155426e+00    4.411864e-01   5.471491e-03
  3.157637e+00    4.218227e-01   5.355478e-03
  3.159847e+00    4.387344e-01   5.466623e-03
  3.162058e+00    4.466910e-01   5.520463e-03
  3.164268e+00    4.248191e-01   5.387598e-03
  3.166479e+00    4.424545e-01   5.501931e-03
  3.168689e+00    4.442005e-01   5.516191e-03
  3.170900e+00    4.367643e-01   5.472968e-03
  3.173110e+00    4.296917e-01   5.431326e-03
  3.175321e+00    4.309630e-01   5.441832e-03
  3.177531e+00    4.314478e-01   5.447597e-03
  3.179741e+00    4.223782e-01   5.392083e-03
  3.181952e+00    4.316791e-01   5.453197e-03
  3.184162e+00    4.331515e-01   5.464698e-03
  3.186373e+00    4.321410e-01   5.459903e-03
  3.188583e+00    4.244652e-01   5.412962e-03
  3.190794e+00    4.272326e-01   5.432309e-03
  3.193004e+00    4.302828e-01   5.452888e-03
  3.195215e+00    4.286601e-01   5.444102e-03
  3.197425e+00    4.292323e-01   5.448936e-03
  3.199636e+00    4.224005e-01   5.404645e-03
  3.201846e+00    4.214909e-01   5.398213e-03
  3.204056e+00    4.370394e-01   5.497762e-03
  3.206267e+00    4.264683e-01   5.431743e-03
  3.208477e+00    4.292868e-01   5.450535e-03
  3.210688e+00    4.373614e-01   5.502440e-03
  3.212898e+00    4.299184e-01   5.455985e-03
  3.215109e+00    4.364940e-01   5.498305e-03
  3.217319e+00    4.286140e-01   5.449083e-03
  3.219530e+00    4.144625e-01   5.358770e-03
  3.221740e+00    4.241832e-01   5.421782e-03
  3.223951e+00    4.280265e-01   5.446766e-03
  3.226161e+00    4.364520e-01   5.500294e-03
  3.228372e+00    4.268073e-01   5.439716e-03
  3.230582e+00    4.358786e-01   5.497363e-03
  3.232792e+00    4.243635e-01   5.424490e-03
  3.235003e+00    4.210667e-01   5.403614e-03
  3.237213e+00    4.303886e-01   5.463216e-03
  3.239424e+00    4.274861e-01   5.444730e-03
  3.241634e+00    4.372190e-01   5.506529e-03
  3.243845e+00    4.239345e-01   5.422273e-03
  3.246055e+00    4.311015e-01   5.467646e-03
  3.248266e+00    4.330406e-01   5.480147e-03
  3.250476e+00    4.148925e-01   5.363768e-03
  3.252687e+00    4.218157e-01   5.408282e-03
  3.254897e+00    4.210201e-01   5.403007e-03
  3.257107e+00    4.274260e-01   5.443700e-03
  3.259318e+00    4.183407e-01   5.385279e-03
  3.261528e+00    4.313466e-01   5.468199e-03
  3.263739e+00    4.305518e-01   5.462606e-03
  3.265949e+00    4.369042e-01   5.502638e-03
  3.268160e+00    4.303702e-01   5.460900e-03
  3.270370e+00    4.309857e-01   5.464328e-03
  3.272581e+00    4.224337e-01   5.409532e-03
  3.274791e+00    4.287837e-01   5.449533e-03
  3.277002e+00    4.254515e-01   5.427730e-03
  3.279212e+00    4.178616e-01   5.378747e-03
  3.281422e+00    4.190457e-01   5.385759e-03
  3.283633e+00    4.119757e-01   5.339486e-03
  3.285843e+00    4.303071e-01   5.456624e-03
  3.288054e+00    4.333606e-01   5.475021e-03
  3.290264e+00    4.190704e-01   5.383678e-03
  3.292475e+00    4.194742e-01   5.385445e-03
  3.294685e+00    4.206226e-01   5.392168e-03
  3.296896e+00    4.133433e-01   5.344576e-03
  3.299106e+00    4.166051e-01   5.365048e-03
  3.301317e+00    4.222147e-01   5.400038e-03
  3.303527e+00    4.234148e-01   5.407246e-03
  3.305737e+00    4.277993e-01   5.434104e-03
  3.307948e+00    4.239586e-01   5.408986e-03
  3.310158e+00    4.219395e-01   5.395260e-03
  3.312369e+00    4.280671e-01   5.433382e-03
  3.314579e+00    4.302922e-01   5.446591e-03
  3.316790e+00    4.050504e-01   5.283731e-03
  3.319000e+00    4.113058e-01   5.323173e-03
  3.321211e+00    4.328906e-01   5.460469e-03
  3.323421e+00    4.179434e-01   5.364191e-03
  3.325632e+00    4.116549e-01   5.322775e-03
  3.327842e+00    4.208317e-01   5.380869e-03
  3.330052e+00    4.285883e-01   5.429158e-03
  3.332263e+00    4.226529e-01   5.390425e-03
  3.334473e+00    4.332827e-01   5.456849e-03
  3.336684e+00    4.329048e-01   5.453204e-03
  3.338894e+00    4.238343e-01   5.394929e-03
  3.341105e+00    4.114014e-01   5.314006e-03
  3.343315e+00    4.210280e-01   5.374677e-03
  3.345526e+00    4.239986e-01   5.392697e-03
  3.347736e+00    4.357322e-01   5.465392e-03
  3.349947e+00    4.006756e-01   5.240008e-03
  3.352157e+00    4.227023e-01   5.380909e-03
  3.354368e+00    4.228174e-01   5.380383e-03
  3.356578e+00    4.135980e-01   5.320353e-03
  3.358788e+00    4.397759e-01   5.484798e-03
  3.360999e+00    4.297758e-01   5.420799e-03
  3.363209e+00    4.167082e-01   5.336777e-03
  3.365420e+00    4.159712e-01   5.330497e-03
  3.367630e+00    4.149375e-01   5.322882e-03
  3.369841e+00    4.148075e-01   5.320614e-03
  3.372051e+00    4.257297e-01   5.388216e-03
  3.374262e+00    4.242899e-01   5.376635e-03
  3.376472e+00    4.302956e-01   5.412065e-03
  3.378683e+00    4.186731e-01   5.335971e-03
  3.380893e+00    4.135361e-01   5.300778e-03
  3.383103e+00    4.292400e-01   5.397756e-03
  3.385314e+00    4.179207e-01   5.323889e-03
  3.387524e+00    4.000315e-01   5.206020e-03
  3.389735e+00    3.882492e-01   5.126206e-03
  3.391945e+00    4.038690e-01   5.224669e-03
  3.394156e+00    4.053946e-01   5.230357e-03
  3.396366e+00    4.028745e-01   5.210708e-03
  3.398577e+00    3.961522e-01   5.164054e-03
  3.400787e+00    4.031901e-01   5.221545e-03
  3.402998e+00    3.856233e-01   5.143423e-03
  3.405208e+00    4.000159e-01   5.259037e-03
  3.407418e+00    3.996894e-01   5.272681e-03
  3.409629e+00    3.810669e-01   5.161964e-03
  3.411839e+00    4.037700e-01   5.325356e-03
  3.414050e+00    3.946956e-01   5.276155e-03
  3.416260e+00    3.891486e-01   5.248516e-03
  3.418471e+00    3.782875e-01   5.183979e-03
  3.420681e+00    3.825376e-01   5.221399e-03
  3.422892e+00    4.034807e-01   5.370561e-03
  3.425102e+00    3.858045e-01   5.259386e-03
  3.427313e+00    3.808843e-01   5.232860e-03
  3.429523e+00    3.875882e-01   5.285754e-03
  3.431733e+00    3.930531e-01   5.329643e-03
  3.433944e+00    3.887826e-01   5.307119e-03
  3.436154e+00    3.869311e-01   5.300744e-03
  3.438365e+00    3.815573e-01   5.269732e-03
  3.440575e+00    3.938568e-01   5.360033e-03
  3.442786e+00    3.840017e-01   5.298174e-03
  3.444996e+00    3.673032e-01   5.187149e-03
  3.447207e+00    3.644952e-01   5.172487e-03
  3.449417e+00    3.754741e-01   5.290821e-03
  3.451628e+00    3.695017e-01   5.278076e-03
  3.453838e+00    3.668765e-01   5.280395e-03
  3.456049e+00    3.782408e-01   5.385856e-03
  3.458259e+00    3.749653e-01   5.384653e-03
  3.460469e+00    3.676530e-01   5.351728e-03
  3.462680e+00    3.684854e-01   5.376874e-03
  3.464890e+00    3.626126e-01   5.351569e-03
  3.467101e+00    3.642849e-01   5.381292e-03
  3.469311e+00    3.863555e-01   5.558801e-03
  3.471522e+00    3.872177e-01   5.581670e-03
  3.473732e+00    4.025507e-01   5.707553e-03
  3.475943e+00    4.082634e-01   5.764118e-03
  3.478153e+00    3.925491e-01   5.667666e-03
  3.480364e+00    3.990397e-01   5.729548e-03
  3.482574e+00    4.087499e-01   5.814271e-03
  3.484784e+00    4.136178e-01   5.863752e-03
  3.486995e+00    4.177850e-01   5.908329e-03
  3.489205e+00    4.278433e-01   5.993767e-03
  3.491416e+00    4.374084e-01   6.075491e-03
  3.493626e+00    4.565033e-01   6.221640e-03
  3.495837e+00    4.491127e-01   6.185994e-03
  3.498047e+00    4.468312e-01   6.184771e-03
  3.500258e+00    4.591888e-01   6.284389e-03
  3.502468e+00    4.745844e-01   6.403632e-03
  3.504679e+00    4.609994e-01   6.325821e-03
  3.506889e+00    4.658975e-01   6.373758e-03
  3.509099e+00    4.678707e-01   6.401547e-03
  3.511310e+00    4.823338e-01   6.514297e-03
  3.513520e+00    4.922913e-01   6.595780e-03
  3.515731e+00    4.830484e-01   6.547884e-03
  3.517941e+00    4.996907e-01   6.674231e-03
  3.520152e+00    5.083805e-01   6.746523e-03
  3.522362e+00    4.901320e-01   6.638674e-03
  3.524573e+00    5.179633e-01   6.838991e-03
  3.526783e+00    4.982553e-01   6.720833e-03
  3.528994e+00    5.077540e-01   6.796698e-03
  3.531204e+00    5.159543e-01   6.863737e-03
  3.533414e+00    5.442361e-01   7.061680e-03
  3.535625e+00    5.506773e-01   7.115947e-03
  3.537835e+00    5.408182e-01   7.064185e-03
  3.540046e+00    5.361848e-01   7.042798e-03
  3.542256e+00    5.336371e-01   7.033566e-03
  3.544467e+00    5.503300e-01   7.150433e-03
  3.546677e+00    5.433474e-01   7.112585e-03
  3.548888e+00    5.339971e-01   7.058577e-03
  3.551098e+00    5.442493e-01   7.133374e-03
  3.553309e+00    5.337204e-01   7.072181e-03
  3.555519e+00    5.325063e-01   7.075381e-03
  3.557729e+00    5.406236e-01   7.140885e-03
  3.559940e+00    5.343810e-01   7.111073e-03
  3.562150e+00    5.440747e-01   7.187063e-03
  3.564361e+00    5.399677e-01   7.173278e-03
  3.566571e+00    5.256353e-01   7.091119e-03
  3.568782e+00    5.352585e-01   7.169836e-03
  3.570992e+00    5.340261e-01   7.175310e-03
  3.573203e+00    5.268995e-01   7.141322e-03
  3.575413e+00    5.459728e-01   7.283281e-03
  3.577624e+00    5.393627e-01   7.253279e-03
  3.579834e+00    5.322627e-01   7.219168e-03
  3.582045e+00    5.433404e-01   7.308061e-03
  3.584255e+00    5.257809e-01   7.202923e-03
  3.586465e+00    5.337862e-01   7.271423e-03
  3.588676e+00    5.491146e-01   7.389460e-03
  3.590886e+00    5.506058e-01   7.413409e-03
  3.593097e+00    5.409740e-01   7.362853e-03
  3.595307e+00    5.367103e-01   7.347703e-03
  3.597518e+00    5.176039e-01   7.229725e-03
  3.599728e+00    5.232499e-01   7.282934e-03
  3.601939e+00    5.627153e-01   7.567063e-03
  3.604149e+00    5.388095e-01   7.419005e-03
  3.606360e+00    5.329744e-01   7.392873e-03
  3.608570e+00    5.348563e-01   7.420033e-03
  3.610780e+00    5.455565e-01   7.505080e-03
  3.612991e+00    5.233048e-01   7.360315e-03
  3.615201e+00    5.380559e-01   7.473162e-03
  3.617412e+00    5.446004e-01   7.525808e-03
  3.619622e+00    5.371006e-01   7.479807e-03
  3.621833e+00    5.291587e-01   7.430938e-03
  3.624043e+00    5.410391e-01   7.523495e-03
  3.626254e+00    5.379547e-01   7.511726e-03
  3.628464e+00    5.282536e-01   7.454628e-03
  3.630675e+00    5.228644e-01   7.430464e-03
  3.632885e+00    5.182923e-01   7.412152e-03
  3.635095e+00    5.163748e-01   7.412559e-03
  3.637306e+00    5.440673e-01   7.623250e-03
  3.639516e+00    5.350838e-01   7.574610e-03
  3.641727e+00    5.219038e-01   7.495180e-03
  3.643937e+00    5.128676e-01   7.444222e-03
  3.646148e+00    5.416103e-01   7.664733e-03
  3.648358e+00    5.445990e-01   7.700869e-03
  3.650569e+00    5.289252e-01   7.603924e-03
  3.652779e+00    5.306565e-01   7.631121e-03
  3.654990e+00    5.443444e-01   7.743916e-03
  3.657200e+00    5.321161e-01   7.671380e-03
  3.659410e+00    5.165725e-01   7.573246e-03
  3.661621e+00    5.358732e-01   7.728555e-03
  3.663831e+00    5.409641e-01   7.780479e-03
  3.666042e+00    5.309706e-01   7.723392e-03
  3.668252e+00    5.372073e-01   7.783943e-03
  3.670463e+00    5.355976e-01   7.787601e-03
  3.672673e+00    5.340708e-01   7.791933e-03
  3.674884e+00    5.367529e-01   7.826992e-03
  3.677094e+00    5.470672e-01   7.917504e-03
  3.679305e+00    5.497981e-01   7.953206e-03
  3.681515e+00    5.289654e-01   7.816591e-03
  3.683726e+00    5.326179e-01   7.859401e-03
  3.685936e+00    5.285929e-01   7.845344e-03
  3.688146e+00    5.205187e-01   7.800885e-03
  3.690357e+00    5.114559e-01   7.748339e-03
  3.692567e+00    5.116228e-01   7.765488e-03
  3.694778e+00    5.468081e-01   8.044410e-03
  3.696988e+00    5.482608e-01   8.071427e-03
  3.699199e+00    5.464122e-01   8.074402e-03
  3.701409e+00    5.294287e-01   7.964349e-03
  3.703620e+00    5.205823e-01   7.913755e-03
  3.705830e+00    5.274522e-01   7.982265e-03
  3.708041e+00    5.407830e-01   8.099357e-03
  3.710251e+00    5.318587e-01   8.049089e-03
  3.712461e+00    5.353113e-01   8.092112e-03
  3.714672e+00    5.138520e-01   7.944901e-03
  3.716882e+00    5.070216e-01   7.908377e-03
  3.719093e+00    4.991768e-01   7.863740e-03
  3.721303e+00    5.119240e-01   7.980343e-03
  3.723514e+00    5.207587e-01   8.066209e-03
  3.725724e+00    5.010197e-01   7.928740e-03
  3.727935e+00    5.251374e-01   8.134875e-03
  3.730145e+00    5.182043e-01   8.098378e-03
  3.732356e+00    4.949126e-01   7.931461e-03
  3.734566e+00    5.116070e-01   8.081563e-03
  3.736776e+00    5.064638e-01   8.058476e-03
  3.738987e+00    5.291433e-01   8.254887e-03
  3.741197e+00    5.168662e-01   8.176679e-03
  3.743408e+00    4.922305e-01   7.997127e-03
  3.745618e+00    4.979601e-01   8.061511e-03
  3.747829e+00    5.049086e-01   8.135578e-03
  3.750039e+00    5.310238e-01   8.362006e-03
  3.752250e+00    5.223613e-01   8.312269e-03
  3.754460e+00    5.081755e-01   8.217094e-03
  3.756671e+00    4.916927e-01   8.101188e-03
  3.758881e+00    4.949774e-01   8.146625e-03
  3.761091e+00    5.096629e-01   8.285707e-03
  3.763302e+00    5.077550e-01   8.289309e-03
  3.765512e+00    5.142165e-01   8.361238e-03
  3.767723e+00    5.021479e-01   8.281785e-03
  3.769933e+00    5.057267e-01   8.330582e-03
  3.772144e+00    4.969945e-01   8.277712e-03
  3.774354e+00    5.136458e-01   8.435282e-03
  3.776565e+00    5.007927e-01   8.348813e-03
  3.778775e+00    5.113509e-01   8.456455e-03
  3.780986e+00    5.113286e-01   8.476777e-03
  3.783196e+00    4.791784e-01   8.225659e-03
  3.785407e+00    5.286484e-01   8.660734e-03
  3.787617e+00    5.298527e-01   8.691981e-03
  3.789827e+00    4.985542e-01   8.451766e-03
  3.792038e+00    5.293025e-01   8.729882e-03
  3.794248e+00    5.365567e-01   8.811437e-03
  3.796459e+00    5.110142e-01   8.620659e-03
  3.798669e+00    5.406513e-01   8.889371e-03
  3.800880e+00    5.246937e-01   8.779172e-03
  3.803090e+00    5.187046e-01   8.751117e-03
  3.805301e+00    5.026047e-01   8.636426e-03
  3.807511e+00    4.907845e-01   8.556004e-03
  3.809722e+00    5.202073e-01   8.831431e-03
  3.811932e+00    5.044159e-01   8.718698e-03
  3.814142e+00    5.185184e-01   8.863057e-03
  3.816353e+00    5.021727e-01   8.745165e-03
  3.818563e+00    5.147275e-01   8.877244e-03
  3.820774e+00    4.887849e-01   8.673616e-03
  3.822984e+00    5.096693e-01   8.880586e-03
  3.825195e+00    5.026177e-01   8.842820e-03
  3.827405e+00    4.957529e-01   8.806050e-03
  3.829616e+00    4.798756e-01   8.687540e-03
  3.831826e+00    4.854364e-01   8.761561e-03
  3.834037e+00    4.810650e-01   8.746139e-03
  3.836247e+00    4.948019e-01   8.894769e-03
  3.838457e+00    5.010424e-01   8.975824e-03
  3.840668e+00    5.075434e-01   9.059377e-03
  3.842878e+00    4.973283e-01   8.993287e-03
  3.845089e+00    4.806415e-01   8.866294e-03
  3.847299e+00    4.931132e-01   9.006314e-03
  3.849510e+00    4.904574e-01   9.007771e-03
  3.851720e+00    4.838117e-01   8.967706e-03
  3.853931e+00    4.737504e-01   8.892534e-03
  3.856141e+00    4.851836e-01   9.018046e-03
  3.858352e+00    5.079187e-01   9.246409e-03
  3.860562e+00    4.874196e-01   9.077085e-03
  3.862772e+00    5.055379e-01   9.264099e-03
  3.864983e+00    4.848110e-01   9.091671e-03
  3.867193e+00    4.947405e-01   9.204065e-03
  3.869404e+00    4.984804e-01   9.258746e-03
  3.871614e+00    4.707796e-01   9.017322e-03
  3.873825e+00    4.857304e-01   9.179510e-03
  3.876035e+00    4.931909e-01   9.270366e-03
  3.878246e+00    5.029044e-01   9.387192e-03
  3.880456e+00    4.891420e-01   9.286872e-03
  3.882667e+00    4.840019e-01   9.266915e-03
  3.884877e+00    5.255955e-01   9.687648e-03
  3.887087e+00    4.952341e-01   9.433826e-03
  3.889298e+00    4.995805e-01   9.505693e-03
  3.891508e+00    5.128955e-01   9.662762e-03
  3.893719e+00    4.935338e-01   9.509706e-03
  3.895929e+00    4.714071e-01   9.324891e-03
  3.898140e+00    4.767318e-01   9.408689e-03
  3.900350e+00    4.979153e-01   9.647710e-03
  3.902561e+00    4.965055e-01   9.666722e-03
  3.904771e+00    5.090410e-01   9.821400e-03
  3.906982e+00    5.161992e-01   9.924229e-03
  3.909192e+00    5.125532e-01   9.923462e-03
  3.911403e+00    4.850444e-01   9.687383e-03
  3.913613e+00    4.814742e-01   9.685639e-03
  3.915823e+00    4.971105e-01   9.876722e-03
  3.918034e+00    5.013118e-01   9.954151e-03
  3.920244e+00    4.989799e-01   9.967120e-03
  3.922455e+00    4.954710e-01   9.968272e-03
  3.924665e+00    4.782577e-01   9.829762e-03
  3.926876e+00    4.850626e-01   9.936346e-03
  3.929086e+00    4.866562e-01   9.990019e-03
  3.931297e+00    4.861235e-01   1.001928e-02
  3.933507e+00    5.109575e-01   1.030169e-02
  3.935718e+00    4.797918e-01   1.001110e-02
  3.937928e+00    4.608687e-01   9.840270e-03
  3.940138e+00    4.773089e-01   1.004331e-02
  3.942349e+00    5.010151e-01   1.031994e-02
  3.944559e+00    4.791311e-01   1.012193e-02
  3.946770e+00    4.549642e-01   9.892365e-03
  3.948980e+00    4.789548e-01   1.018041e-02
  3.951191e+00    4.470398e-01   9.864923e-03
  3.953401e+00    4.972984e-01   1.043637e-02
  3.955612e+00    4.924149e-01   1.041685e-02
  3.957822e+00    4.996522e-01   1.052523e-02
  3.960033e+00    5.033280e-01   1.059717e-02
  3.962243e+00    5.000739e-01   1.059605e-02
  3.964453e+00    5.057554e-01   1.068997e-02
  3.966664e+00    5.011526e-01   1.067514e-02
  3.968874e+00    4.885821e-01   1.056882e-02
  3.971085e+00    4.993530e-01   1.070694e-02
  3.973295e+00    5.055280e-01   1.079485e-02
  3.975506e+00    4.778412e-01   1.051656e-02
  3.977716e+00    5.024448e-01   1.080619e-02
  3.979927e+00    5.190351e-01   1.100605e-02
  3.982137e+00    5.226762e-01   1.106784e-02
  3.984348e+00    4.686202e-01   1.050201e-02
  3.986558e+00    4.789129e-01   1.063884e-02
  3.988768e+00    4.764975e-01   1.063488e-02
  3.990979e+00    4.708190e-01   1.059360e-02
  3.993189e+00    4.850513e-01   1.077560e-02
  3.995400e+00    4.718305e-01   1.065109e-02
  3.997610e+00    4.722575e-01   1.068521e-02
  3.999821e+00    5.204030e-01   1.125554e-02
  4.002031e+00    5.065749e-01   1.114428e-02
  4.004242e+00    4.747487e-01   1.082663e-02
  4.006452e+00    4.918656e-01   1.105964e-02
  4.008663e+00    4.684945e-01   1.083313e-02
  4.010873e+00    4.809010e-01   1.101538e-02
  4.013084e+00    4.761214e-01   1.100112e-02
  4.015294e+00    4.871538e-01   1.116890e-02
  4.017504e+00    4.918476e-01   1.126480e-02
  4.019715e+00    4.688622e-01   1.104024e-02
  4.021925e+00    4.679328e-01   1.107160e-02
  4.024136e+00    4.729373e-01   1.117379e-02
  4.026346e+00    4.680442e-01   1.115922e-02
  4.028557e+00    4.776605e-01   1.131739e-02
  4.030767e+00    4.629902e-01   1.118682e-02
  4.032978e+00    4.629803e-01   1.123198e-02
  4.035188e+00    4.971597e-01   1.168603e-02
  4.037399e+00    4.985324e-01   1.175046e-02
  4.039609e+00    4.775374e-01   1.154787e-02
  4.041819e+00    4.872754e-01   1.171390e-02
  4.044030e+00    4.891745e-01   1.178699e-02
  4.046240e+00    5.042397e-01   1.201799e-02
  4.048451e+00    4.745892e-01   1.170983e-02
  4.050661e+00    4.666044e-01   1.166147e-02
  4.052872e+00    4.894423e-01   1.199649e-02
  4.055082e+00    5.265794e-01   1.249928e-02
  4.057293e+00    4.794112e-01   1.197992e-02
  4.059503e+00    4.593061e-01   1.177919e-02
  4.061714e+00    4.620776e-01   1.187018e-02
  4.063924e+00    4.756003e-01   1.209877e-02
  4.066134e+00    4.961080e-01   1.241524e-02
  4.068345e+00    4.740574e-01   1.219466e-02
  4.070555e+00    4.427770e-01   1.184224e-02
  4.072766e+00    4.731472e-01   1.230193e-02
  4.074976e+00    4.852239e-01   1.252000e-02
  4.077187e+00    5.196270e-01   1.302081e-02
  4.079397e+00    4.754368e-01   1.251834e-02
  4.081608e+00    5.201899e-01   1.316240e-02
  4.083818e+00    4.896347e-01   1.283638e-02
  4.086029e+00    4.974118e-01   1.300618e-02
  4.088239e+00    4.747233e-01   1.277458e-02
  4.090449e+00    4.531847e-01   1.254902e-02
  4.092660e+00    4.544403e-01   1.263556e-02
  4.094870e+00    4.461564e-01   1.258937e-02
  4.097081e+00    4.530624e-01   1.275599e-02
  4.099291e+00    4.753067e-01   1.311952e-02
  4.101502e+00    4.541496e-01   1.287205e-02
  4.103712e+00    4.614017e-01   1.302266e-02
  4.105923e+00    4.894892e-01   1.346515e-02
  4.108133e+00    5.192551e-01   1.392188e-02
  4.110344e+00    4.905213e-01   1.358330e-02
  4.112554e+00    4.282611e-01   1.274172e-02
  4.114764e+00    5.090308e-01   1.394751e-02
  4.116975e+00    4.737329e-01   1.350829e-02
  4.119185e+00    4.321043e-01   1.295345e-02
  4.121396e+00    4.609191e-01   1.343368e-02
  4.123606e+00    4.906560e-01   1.391703e-02
  4.125817e+00    4.789461e-01   1.380766e-02
  4.128027e+00    4.477735e-01   1.340699e-02
  4.130238e+00    4.439268e-01   1.340643e-02
  4.132448e+00    4.962775e-01   1.423644e-02
  4.134659e+00    4.967876e-01   1.430514e-02
  4.136869e+00    5.027720e-01   1.445512e-02
  4.139080e+00    5.108200e-01   1.463601e-02
  4.141290e+00    5.210377e-01   1.484719e-02
  4.143500e+00    4.821065e-01   1.434776e-02
  4.145711e+00    4.501488e-01   1.392866e-02
  4.147921e+00    4.699411e-01   1.429677e-02
  4.150132e+00    5.065704e-01   1.491454e-02
  4.152342e+00    5.240746e-01   1.524334e-02
  4.154553e+00    5.038037e-01   1.501696e-02
  4.156763e+00    4.802694e-01   1.473430e-02
  4.158974e+00    5.353702e-01   1.563491e-02
  4.161184e+00    4.777017e-01   1.484229e-02
  4.163395e+00    4.687702e-01   1.477783e-02
  4.165605e+00    4.300173e-01   1.422719e-02
  4.167815e+00    5.352535e-01   1.595597e-02
  4.170026e+00    4.451235e-01   1.462731e-02
  4.172236e+00    4.653236e-01   1.503646e-02
  4.174447e+00    4.487224e-01   1.484592e-02
  4.176657e+00    4.786627e-01   1.541715e-02
  4.178868e+00    4.880764e-01   1.565609e-02
  4.181078e+00    4.794566e-01   1.560478e-02
  4.183289e+00    4.902389e-01   1.586947e-02
  4.185499e+00    4.715832e-01   1.565652e-02
  4.187710e+00    4.836164e-01   1.594769e-02
  4.189920e+00    5.036416e-01   1.637271e-02
  4.192130e+00    4.638196e-01   1.580810e-02
  4.194341e+00    4.482115e-01   1.563520e-02
  4.196551e+00    4.916232e-01   1.647844e-02
  4.198762e+00    4.693265e-01   1.620260e-02
  4.200972e+00    4.643041e-01   1.622002e-02
  4.203183e+00    4.850163e-01   1.668704e-02
  4.205393e+00    4.929521e-01   1.693524e-02
  4.207604e+00    4.803126e-01   1.683072e-02
  4.209814e+00    4.608850e-01   1.659969e-02
  4.212025e+00    5.004449e-01   1.742009e-02
  4.214235e+00    5.094388e-01   1.770050e-02
  4.216445e+00    4.685590e-01   1.709827e-02
  4.218656e+00    4.605010e-01   1.707794e-02
  4.220866e+00    4.189217e-01   1.640899e-02
  4.223077e+00    4.443637e-01   1.702994e-02
  4.225287e+00    4.339915e-01   1.696229e-02
  4.227498e+00    4.532426e-01   1.747051e-02
  4.229708e+00    5.149767e-01   1.877362e-02
  4.231919e+00    5.348611e-01   1.929101e-02
  4.234129e+00    4.864875e-01   1.855255e-02
  4.236340e+00    4.927572e-01   1.883102e-02
  4.238550e+00    4.878477e-01   1.890272e-02
  4.240761e+00    4.966011e-01   1.923980e-02
  4.242971e+00    4.970164e-01   1.942445e-02
  4.245181e+00    4.707980e-01   1.908249e-02
  4.247392e+00    4.725318e-01   1.929674e-02
  4.249602e+00    4.288124e-01   1.856441e-02
  4.251813e+00    4.679548e-01   1.958465e-02
  4.254023e+00    4.528351e-01   1.945974e-02
  4.256234e+00    4.949776e-01   2.056251e-02
  4.258444e+00    4.748346e-01   2.035048e-02
  4.260655e+00    4.863335e-01   2.082184e-02
  4.262865e+00    5.135674e-01   2.163949e-02
  4.265076e+00    4.677103e-01   2.088603e-02
  4.267286e+00    4.661673e-01   2.109852e-02
  4.269496e+00    4.471533e-01   2.091602e-02
  4.271707e+00    4.928269e-01   2.222935e-02
  4.273917e+00    4.214298e-01   2.082236e-02
  4.276128e+00    4.147842e-01   2.093138e-02
  4.278338e+00    5.080110e-01   2.347414e-02
  4.280549e+00    4.405296e-01   2.217284e-02
  4.282759e+00    4.804342e-01   2.348867e-02
  4.284970e+00    4.076893e-01   2.195728e-02
  4.287180e+00    4.794787e-01   2.409760e-02
  4.289391e+00    4.394216e-01   2.324198e-02
  4.291601e+00    5.209512e-01   2.550880e-02
  4.293811e+00    5.222294e-01   2.573975e-02
  4.296022e+00    5.456328e-01   2.652152e-02
  4.298232e+00    5.285680e-01   2.632228e-02
  4.300443e+00    5.370377e-01   2.675112e-02
  4.302653e+00    4.665522e-01   2.515000e-02
  4.304864e+00    4.712158e-01   2.549407e-02
  4.307074e+00    4.993278e-01   2.647940e-02
  4.309285e+00    5.082435e-01   2.695727e-02
  4.311495e+00    4.663065e-01   2.606321e-02
  4.313706e+00    4.157695e-01   2.484130e-02
  4.315916e+00    3.891220e-01   2.426839e-02
  4.318126e+00    4.418012e-01   2.611473e-02
  4.320337e+00    4.910971e-01   2.781221e-02
  4.322547e+00    5.023161e-01   2.842597e-02
  4.324758e+00    5.294164e-01   2.948554e-02
  4.326968e+00    4.452575e-01   2.734672e-02
  4.329179e+00    5.176938e-01   2.981074e-02
  4.331389e+00    4.614357e-01   2.846961e-02
  4.333600e+00    4.305322e-01   2.782812e-02
  4.335810e+00    4.237865e-01   2.793715e-02
  4.338021e+00    5.377920e-01   3.187451e-02
  4.340231e+00    4.481942e-01   2.946477e-02
  4.342442e+00    4.355940e-01   2.943560e-02
  4.344652e+00    4.362971e-01   2.986023e-02
  4.346862e+00    4.076829e-01   2.926850e-02
  4.349073e+00    5.274572e-01   3.377464e-02
  4.351283e+00    4.840294e-01   3.284056e-02
  4.353494e+00    3.480928e-01   2.827837e-02
  4.355704e+00    4.512476e-01   3.271436e-02
  4.357915e+00    5.227069e-01   3.579756e-02
  4.360125e+00    4.011926e-01   3.189542e-02
  4.362336e+00    4.808246e-01   3.555616e-02
  4.364546e+00    4.785657e-01   3.611702e-02
  4.366757e+00    4.597507e-01   3.610495e-02
  4.368967e+00    4.947389e-01   3.819981e-02
  4.371177e+00    6.294500e-01   4.400447e-02
  4.373388e+00    5.386471e-01   4.161821e-02
  4.375598e+00    3.170618e-01   3.265734e-02
  4.377809e+00    5.665491e-01   4.475848e-02
  4.380019e+00    3.553503e-01   3.634134e-02
  4.382230e+00    1.839627e-01   2.687704e-02
  4.384440e+00    4.121301e-01   4.138436e-02
  4.386651e+00    3.686633e-01   4.034765e-02
  4.388861e+00    4.172513e-01   4.436482e-02
  4.391072e+00    8.061212e-01   6.383482e-02
  4.393282e+00    4.416297e-01   4.907678e-02
  4.395492e+00    4.808906e-01   5.333373e-02
  4.397703e+00    5.663785e-01   6.053086e-02
  4.399913e+00    3.508084e-01   5.005014e-02
  4.402124e+00    6.442587e-01   7.166867e-02
  4.404334e+00    3.104385e-01   5.288894e-02
  4.406545e+00    1.810305e-01   4.339025e-02
  4.408755e+00    2.193860e-01   5.180535e-02
  4.410966e+00    1.625644e-01   4.935038e-02
  4.413176e+00    3.017927e-01   7.612015e-02
  4.415387e+00   -6.538905e-01            nan
  4.417597e+00   -1.834139e+00            nan
  4.419807e+00    3.314528e-01   2.068390e-01
