# == pyFAI calibration ==
# Distance Sample to Detector: 0.216 m
# PONI: 1.166e-01, 1.308e-01 m
# Rotations: 0.000000 0.000000 0.000000 rad
# 
# == Fit2d calibration ==
# Distance Sample-beamCenter: 216.000 mm
# Center: x=1744.293, y=1555.000 pix
# Tilt: 0.000 deg  TiltPlanRot: 0.000 deg
# 
# Detector Eiger 9M	 PixelSize= 7.500e-05, 7.500e-05 m
#    Detector has a mask: True 
#    Detector has a dark current: False 
#    detector has a flat field: False 
# 
# Wavelength: 9.8e-11 m
# Mask applied: from detector
# Dark current applied: False
# Flat field applied: False
# Polarization factor: None
# Normalization factor: 1.0
# 
# Headers of the input frame:
# {
# "_array_data.header_convention": "SLS_1.0",
# "_array_data.header_contents": "# Detector: Dectris Eiger 9M, S/N E-18-0102\r\n# Pixel_size 75e-6 m x 75e-6 m\r\n# Silicon sensor, thickness 0.000450 m\r\n# Exposure_time 0.024997 s\r\n# Exposure_period 0.025000 s\r\n# Count_cutoff 62318 counts\r\n# Wavelength 0.980106 A\r\n# Detector_distance 0.215992 m\r\n# Beam_xy (1555, 1744) pixels\r\n# Start_angle 0.000000 deg.\r\n# Angle_increment 0.000000 deg.",
# "Content-Type": "application/octet-stream;",
# "conversions": "x-CBF_BYTE_OFFSET",
# "Content-Transfer-Encoding": "BINARY",
# "X-Binary-Size": "10166596",
# "X-Binary-ID": "1",
# "X-Binary-Element-Type": "signed 32-bit integer",
# "X-Binary-Element-Byte-Order": "LITTLE_ENDIAN",
# "Content-MD5": "5lkiwFRgNJqaAH7amGVFpw==",
# "X-Binary-Number-of-Elements": "10166590",
# "X-Binary-Size-Fastest-Dimension": "3110",
# "X-Binary-Size-Second-Dimension": "3269",
# "X-Binary-Size-Padding": "4095"
# }
# --> H:/Proxima2a_2019-04-05/RAW_DATA/C5_gel17_position5/C5_mesh_1_data.cbf/C5_mesh_1_data.cbf000015.dat
#        q_A^-1              I           sigma 
  1.105228e-03    1.064502e+00   5.582905e-01
  3.315685e-03    1.108197e+00   3.463011e-01
  5.526141e-03    1.546924e+00   3.163782e-01
  7.736597e-03    1.473735e+00   2.608735e-01
  9.947054e-03    1.339939e+00   2.192901e-01
  1.215751e-02    1.585650e+00   2.157110e-01
  1.436797e-02    1.218181e+00   1.739129e-01
  1.657842e-02    1.355599e+00   1.707694e-01
  1.878888e-02    1.378640e+00   1.617666e-01
  2.099934e-02    1.217117e+00   1.438031e-01
  2.320979e-02    1.496444e+00   1.516572e-01
  2.542025e-02    1.593017e+00   1.495270e-01
  2.763070e-02    1.434942e+00   1.361155e-01
  2.984116e-02    1.409549e+00   1.298125e-01
  3.205162e-02    1.501610e+00   1.292899e-01
  3.426207e-02    1.506575e+00   1.252479e-01
  3.647253e-02    1.366104e+00   1.155930e-01
  3.868299e-02    1.304085e+00   1.096727e-01
  4.089344e-02    1.503616e+00   1.145379e-01
  4.310390e-02    1.506635e+00   1.116678e-01
  4.531436e-02    1.437437e+00   1.063801e-01
  4.752481e-02    1.428826e+00   1.035640e-01
  4.973527e-02    1.358446e+00   9.871269e-02
  5.194572e-02    1.475720e+00   1.006711e-01
  5.415618e-02    1.486680e+00   9.895723e-02
  5.636664e-02    1.386348e+00   9.367018e-02
  5.857709e-02    1.443441e+00   9.375924e-02
  6.078755e-02    1.437281e+00   9.183924e-02
  6.299801e-02    1.454424e+00   9.074904e-02
  6.520846e-02    1.406183e+00   8.770647e-02
  6.741892e-02    1.465963e+00   8.806664e-02
  6.962938e-02    1.437403e+00   8.581351e-02
  7.183983e-02    1.462337e+00   8.521102e-02
  7.405029e-02    1.467945e+00   8.408840e-02
  7.626074e-02    1.421006e+00   8.152453e-02
  7.847120e-02    1.467195e+00   8.166161e-02
  8.068166e-02    1.541719e+00   8.255453e-02
  8.289211e-02    1.571287e+00   8.222320e-02
  8.510257e-02    1.555401e+00   8.073665e-02
  8.731303e-02    1.510906e+00   7.855672e-02
  8.952348e-02    1.561049e+00   7.885983e-02
  9.173394e-02    1.535695e+00   7.726565e-02
  9.394439e-02    1.542663e+00   7.652175e-02
  9.615485e-02    1.513930e+00   7.492776e-02
  9.836531e-02    1.452127e+00   7.255121e-02
  1.005758e-01    1.628715e+00   7.598745e-02
  1.027862e-01    1.556112e+00   7.346971e-02
  1.049967e-01    1.618710e+00   7.413860e-02
  1.072071e-01    1.629710e+00   7.361833e-02
  1.094176e-01    1.623093e+00   7.272172e-02
  1.116280e-01    1.583439e+00   7.111157e-02
  1.138385e-01    1.666802e+00   7.224624e-02
  1.160490e-01    1.610408e+00   7.033315e-02
  1.182594e-01    1.539624e+00   6.812283e-02
  1.204699e-01    1.561327e+00   6.796847e-02
  1.226803e-01    1.616494e+00   6.853013e-02
  1.248908e-01    1.536050e+00   6.620857e-02
  1.271012e-01    1.511703e+00   6.510685e-02
  1.293117e-01    1.540061e+00   6.514973e-02
  1.315222e-01    1.640591e+00   6.667352e-02
  1.337326e-01    1.634386e+00   6.599376e-02
  1.359431e-01    1.597167e+00   6.527622e-02
  1.381535e-01    1.585167e+00   6.590344e-02
  1.403640e-01    1.603998e+00   6.657997e-02
  1.425744e-01    1.593171e+00   6.646090e-02
  1.447849e-01    1.568023e+00   6.594945e-02
  1.469953e-01    1.674555e+00   6.811025e-02
  1.492058e-01    1.659886e+00   6.773250e-02
  1.514163e-01    1.593012e+00   6.624389e-02
  1.536267e-01    1.579141e+00   6.582603e-02
  1.558372e-01    1.622045e+00   6.656700e-02
  1.580476e-01    1.671836e+00   6.741696e-02
  1.602581e-01    1.635305e+00   6.650703e-02
  1.624685e-01    1.524069e+00   6.402943e-02
  1.646790e-01    1.664460e+00   6.672139e-02
  1.668895e-01    1.732935e+00   6.788340e-02
  1.690999e-01    1.750479e+00   6.802127e-02
  1.713104e-01    1.785303e+00   6.848135e-02
  1.735208e-01    1.843195e+00   6.936644e-02
  1.757313e-01    1.774923e+00   6.785633e-02
  1.779417e-01    1.902133e+00   7.001679e-02
  1.801522e-01    1.845665e+00   6.875005e-02
  1.823626e-01    1.863541e+00   6.885219e-02
  1.845731e-01    1.974345e+00   7.064001e-02
  1.867836e-01    1.923246e+00   6.948459e-02
  1.889940e-01    1.970408e+00   7.010156e-02
  1.912045e-01    1.930329e+00   6.915326e-02
  1.934149e-01    1.907915e+00   6.852047e-02
  1.956254e-01    1.971604e+00   6.942502e-02
  1.978358e-01    1.965330e+00   6.907696e-02
  2.000463e-01    1.890624e+00   6.752682e-02
  2.022568e-01    1.949110e+00   6.833829e-02
  2.044672e-01    1.994407e+00   6.889100e-02
  2.066777e-01    2.012084e+00   6.896597e-02
  2.088881e-01    1.956014e+00   6.777577e-02
  2.110986e-01    2.024538e+00   6.871627e-02
  2.133090e-01    2.028420e+00   6.855853e-02
  2.155195e-01    1.962412e+00   6.721012e-02
  2.177300e-01    1.935812e+00   6.622867e-02
  2.199404e-01    1.906221e+00   6.398878e-02
  2.221509e-01    1.996440e+00   6.441020e-02
  2.243613e-01    2.055067e+00   6.452066e-02
  2.265718e-01    2.053809e+00   6.378998e-02
  2.287822e-01    2.132535e+00   6.435768e-02
  2.309927e-01    2.099004e+00   6.326807e-02
  2.332031e-01    2.116919e+00   6.299367e-02
  2.354136e-01    2.081591e+00   6.195956e-02
  2.376241e-01    2.105737e+00   6.183416e-02
  2.398345e-01    2.149372e+00   6.200923e-02
  2.420450e-01    2.142469e+00   6.146711e-02
  2.442554e-01    2.172792e+00   6.147411e-02
  2.464659e-01    2.129651e+00   6.045217e-02
  2.486763e-01    2.081692e+00   5.937473e-02
  2.508868e-01    2.154366e+00   6.002124e-02
  2.530973e-01    2.151752e+00   5.961291e-02
  2.553077e-01    2.159319e+00   5.935542e-02
  2.575182e-01    2.121864e+00   5.849025e-02
  2.597286e-01    2.078402e+00   5.755163e-02
  2.619391e-01    2.038002e+00   5.666143e-02
  2.641495e-01    2.037941e+00   5.634699e-02
  2.663600e-01    2.092121e+00   5.677712e-02
  2.685704e-01    2.084636e+00   5.636826e-02
  2.707809e-01    2.055680e+00   5.567828e-02
  2.729914e-01    2.092220e+00   5.587821e-02
  2.752018e-01    2.040817e+00   5.490031e-02
  2.774123e-01    2.036074e+00   5.455633e-02
  2.796227e-01    2.078295e+00   5.484646e-02
  2.818332e-01    2.014372e+00   5.372702e-02
  2.840436e-01    1.994207e+00   5.319831e-02
  2.862541e-01    1.914560e+00   5.187456e-02
  2.884646e-01    1.885205e+00   5.123106e-02
  2.906750e-01    1.935756e+00   5.166721e-02
  2.928855e-01    2.039056e+00   5.278219e-02
  2.950959e-01    1.989999e+00   5.190388e-02
  2.973064e-01    1.897415e+00   5.045429e-02
  2.995168e-01    1.979131e+00   5.129591e-02
  3.017273e-01    1.992455e+00   5.124138e-02
  3.039377e-01    1.977259e+00   5.082210e-02
  3.061482e-01    1.941706e+00   5.014523e-02
  3.083587e-01    1.958589e+00   5.014478e-02
  3.105691e-01    1.945786e+00   4.976713e-02
  3.127796e-01    1.959794e+00   4.973598e-02
  3.149900e-01    1.935226e+00   4.921731e-02
  3.172005e-01    1.923362e+00   4.886559e-02
  3.194109e-01    1.873949e+00   4.803470e-02
  3.216214e-01    1.890423e+00   4.804849e-02
  3.238319e-01    1.876685e+00   4.768393e-02
  3.260423e-01    1.886854e+00   4.762249e-02
  3.282528e-01    1.845551e+00   4.691089e-02
  3.304632e-01    1.808843e+00   4.626212e-02
  3.326737e-01    1.776672e+00   4.566996e-02
  3.348841e-01    1.831786e+00   4.619309e-02
  3.370946e-01    1.874190e+00   4.654888e-02
  3.393050e-01    1.900196e+00   4.669319e-02
  3.415155e-01    1.859007e+00   4.601072e-02
  3.437260e-01    1.812871e+00   4.526778e-02
  3.459364e-01    1.838614e+00   4.541941e-02
  3.481469e-01    1.795251e+00   4.471679e-02
  3.503573e-01    1.841921e+00   4.512930e-02
  3.525678e-01    1.855491e+00   4.513381e-02
  3.547782e-01    1.848358e+00   4.488418e-02
  3.569887e-01    1.809435e+00   4.425171e-02
  3.591992e-01    1.819105e+00   4.421280e-02
  3.614096e-01    1.836621e+00   4.427112e-02
  3.636201e-01    1.857319e+00   4.436343e-02
  3.658305e-01    1.801426e+00   4.354179e-02
  3.680410e-01    1.775151e+00   4.307440e-02
  3.702514e-01    1.845549e+00   4.377251e-02
  3.724619e-01    1.831088e+00   4.345222e-02
  3.746724e-01    1.831085e+00   4.330719e-02
  3.768828e-01    1.810926e+00   4.292324e-02
  3.790933e-01    1.758250e+00   4.215651e-02
  3.813037e-01    1.818403e+00   4.273130e-02
  3.835142e-01    1.839848e+00   4.284139e-02
  3.857246e-01    1.802011e+00   4.226134e-02
  3.879351e-01    1.830670e+00   4.245823e-02
  3.901455e-01    1.812378e+00   4.211107e-02
  3.923560e-01    1.780696e+00   4.160871e-02
  3.945665e-01    1.838762e+00   4.214758e-02
  3.967769e-01    1.811769e+00   4.170607e-02
  3.989874e-01    1.802905e+00   4.147400e-02
  4.011978e-01    1.812494e+00   4.145627e-02
  4.034083e-01    1.801956e+00   4.120867e-02
  4.056187e-01    1.823379e+00   4.132522e-02
  4.078292e-01    1.834490e+00   4.132550e-02
  4.100397e-01    1.839005e+00   4.124999e-02
  4.122501e-01    1.787592e+00   4.054762e-02
  4.144606e-01    1.788127e+00   4.043343e-02
  4.166710e-01    1.809433e+00   4.055265e-02
  4.188815e-01    1.832983e+00   4.069515e-02
  4.210919e-01    1.831178e+00   4.055589e-02
  4.233024e-01    1.832387e+00   4.044995e-02
  4.255128e-01    1.802308e+00   4.000062e-02
  4.277233e-01    1.790773e+00   3.975784e-02
  4.299338e-01    1.803177e+00   3.978052e-02
  4.321442e-01    1.770623e+00   3.930697e-02
  4.343547e-01    1.815536e+00   3.968984e-02
  4.365651e-01    1.748104e+00   3.883515e-02
  4.387756e-01    1.689335e+00   3.806986e-02
  4.409860e-01    1.748929e+00   3.862821e-02
  4.431965e-01    1.787204e+00   3.894062e-02
  4.454070e-01    1.789406e+00   3.885622e-02
  4.476174e-01    1.749500e+00   3.831501e-02
  4.498279e-01    1.721781e+00   3.790685e-02
  4.520383e-01    1.715659e+00   3.773556e-02
  4.542488e-01    1.757426e+00   3.808914e-02
  4.564592e-01    1.719364e+00   3.757335e-02
  4.586697e-01    1.727730e+00   3.756467e-02
  4.608801e-01    1.781361e+00   3.804107e-02
  4.630906e-01    1.728082e+00   3.736869e-02
  4.653011e-01    1.706729e+00   3.703940e-02
  4.675115e-01    1.730294e+00   3.719602e-02
  4.697220e-01    1.692114e+00   3.668706e-02
  4.719324e-01    1.753867e+00   3.725387e-02
  4.741429e-01    1.688316e+00   3.645689e-02
  4.763533e-01    1.716267e+00   3.666319e-02
  4.785638e-01    1.705401e+00   3.645253e-02
  4.807743e-01    1.719941e+00   3.651451e-02
  4.829847e-01    1.714921e+00   3.636908e-02
  4.851952e-01    1.709032e+00   3.621471e-02
  4.874056e-01    1.659984e+00   3.560126e-02
  4.896161e-01    1.730170e+00   3.625593e-02
  4.918265e-01    1.712976e+00   3.598579e-02
  4.940370e-01    1.706951e+00   3.583374e-02
  4.962475e-01    1.682232e+00   3.548549e-02
  4.984579e-01    1.712506e+00   3.571511e-02
  5.006684e-01    1.662171e+00   3.510055e-02
  5.028788e-01    1.676669e+00   3.516787e-02
  5.050893e-01    1.644154e+00   3.474049e-02
  5.072997e-01    1.707517e+00   3.531808e-02
  5.095102e-01    1.789126e+00   3.606562e-02
  5.117206e-01    1.762927e+00   3.571549e-02
  5.139311e-01    1.717324e+00   3.516709e-02
  5.161416e-01    1.693842e+00   3.484329e-02
  5.183520e-01    1.646703e+00   3.427340e-02
  5.205625e-01    1.665092e+00   3.438348e-02
  5.227729e-01    1.696216e+00   3.462241e-02
  5.249834e-01    1.700325e+00   3.458384e-02
  5.271938e-01    1.710603e+00   3.460729e-02
  5.294043e-01    1.781168e+00   3.523237e-02
  5.316148e-01    1.799110e+00   3.532828e-02
  5.338252e-01    1.806799e+00   3.532278e-02
  5.360357e-01    1.786657e+00   3.504538e-02
  5.382461e-01    1.765987e+00   3.476331e-02
  5.404566e-01    1.773149e+00   3.475445e-02
  5.426670e-01    1.760044e+00   3.454776e-02
  5.448775e-01    1.764490e+00   3.451408e-02
  5.470879e-01    1.819064e+00   3.496562e-02
  5.492984e-01    1.768406e+00   3.439866e-02
  5.515089e-01    1.722953e+00   3.387839e-02
  5.537193e-01    1.783926e+00   3.439668e-02
  5.559298e-01    1.840255e+00   3.485890e-02
  5.581402e-01    1.782932e+00   3.423672e-02
  5.603507e-01    1.803459e+00   3.435828e-02
  5.625611e-01    1.805230e+00   3.430058e-02
  5.647716e-01    1.763011e+00   3.382349e-02
  5.669821e-01    1.779733e+00   3.391027e-02
  5.691925e-01    1.775611e+00   3.379827e-02
  5.714030e-01    1.765223e+00   3.362741e-02
  5.736134e-01    1.732502e+00   3.324343e-02
  5.758239e-01    1.700344e+00   3.286319e-02
  5.780343e-01    1.647149e+00   3.227659e-02
  5.802448e-01    1.671947e+00   3.245058e-02
  5.824552e-01    1.686114e+00   3.251940e-02
  5.846657e-01    1.630756e+00   3.191446e-02
  5.868762e-01    1.614164e+00   3.168555e-02
  5.890866e-01    1.605058e+00   3.153053e-02
  5.912971e-01    1.620931e+00   3.162042e-02
  5.935075e-01    1.662521e+00   3.195734e-02
  5.957180e-01    1.644127e+00   3.171486e-02
  5.979284e-01    1.669586e+00   3.189421e-02
  6.001389e-01    1.676685e+00   3.189689e-02
  6.023494e-01    1.619640e+00   3.128593e-02
  6.045598e-01    1.630996e+00   3.133148e-02
  6.067703e-01    1.640797e+00   3.136228e-02
  6.089807e-01    1.656267e+00   3.144645e-02
  6.111912e-01    1.664414e+00   3.146075e-02
  6.134016e-01    1.676910e+00   3.151563e-02
  6.156121e-01    1.708226e+00   3.174532e-02
  6.178226e-01    1.738103e+00   3.195834e-02
  6.200330e-01    1.726014e+00   3.178418e-02
  6.222435e-01    1.749619e+00   3.193738e-02
  6.244539e-01    1.716892e+00   3.157535e-02
  6.266644e-01    1.718367e+00   3.152727e-02
  6.288748e-01    1.749407e+00   3.174883e-02
  6.310853e-01    1.730785e+00   3.151812e-02
  6.332957e-01    1.714054e+00   3.130481e-02
  6.355062e-01    1.726743e+00   3.135946e-02
  6.377167e-01    1.720571e+00   3.124328e-02
  6.399271e-01    1.748325e+00   3.143393e-02
  6.421376e-01    1.708639e+00   3.101580e-02
  6.443480e-01    1.698205e+00   3.086213e-02
  6.465585e-01    1.715739e+00   3.096227e-02
  6.487689e-01    1.744442e+00   3.116123e-02
  6.509794e-01    1.697387e+00   3.068013e-02
  6.531899e-01    1.658912e+00   3.027337e-02
  6.554003e-01    1.651371e+00   3.014770e-02
  6.576108e-01    1.622936e+00   2.983137e-02
  6.598212e-01    1.665473e+00   3.016362e-02
  6.620317e-01    1.673642e+00   3.018148e-02
  6.642421e-01    1.635017e+00   2.977597e-02
  6.664526e-01    1.601123e+00   2.941146e-02
  6.686630e-01    1.590740e+00   2.926171e-02
  6.708735e-01    1.596056e+00   2.925681e-02
  6.730840e-01    1.627532e+00   2.949001e-02
  6.752944e-01    1.623322e+00   2.939830e-02
  6.775049e-01    1.602556e+00   2.915662e-02
  6.797153e-01    1.597249e+00   2.905560e-02
  6.819258e-01    1.594577e+00   2.897892e-02
  6.841362e-01    1.560920e+00   2.861990e-02
  6.863467e-01    1.594187e+00   2.887145e-02
  6.885572e-01    1.613264e+00   2.899166e-02
  6.907676e-01    1.570705e+00   2.855544e-02
  6.929781e-01    1.561612e+00   2.842204e-02
  6.951885e-01    1.612129e+00   2.882695e-02
  6.973990e-01    1.594792e+00   2.862085e-02
  6.996094e-01    1.592297e+00   2.854813e-02
  7.018199e-01    1.606554e+00   2.862530e-02
  7.040303e-01    1.673378e+00   2.916326e-02
  7.062408e-01    1.653805e+00   2.894143e-02
  7.084513e-01    1.631256e+00   2.869346e-02
  7.106617e-01    1.593434e+00   2.830959e-02
  7.128722e-01    1.615702e+00   2.845738e-02
  7.150826e-01    1.596161e+00   2.823605e-02
  7.172931e-01    1.553011e+00   2.780373e-02
  7.195035e-01    1.590355e+00   2.808766e-02
  7.217140e-01    1.592532e+00   2.815662e-02
  7.239245e-01    1.532236e+00   2.784210e-02
  7.261349e-01    1.581822e+00   2.839787e-02
  7.283454e-01    1.609852e+00   2.872160e-02
  7.305558e-01    1.544587e+00   2.818685e-02
  7.327663e-01    1.553495e+00   2.831022e-02
  7.349767e-01    1.566638e+00   2.844607e-02
  7.371872e-01    1.548939e+00   2.827382e-02
  7.393976e-01    1.588812e+00   2.862111e-02
  7.416081e-01    1.553816e+00   2.828809e-02
  7.438186e-01    1.549797e+00   2.810828e-02
  7.460290e-01    1.595417e+00   2.822281e-02
  7.482395e-01    1.570621e+00   2.783169e-02
  7.504499e-01    1.546247e+00   2.747986e-02
  7.526604e-01    1.567526e+00   2.755198e-02
  7.548708e-01    1.588472e+00   2.764567e-02
  7.570813e-01    1.556096e+00   2.731180e-02
  7.592918e-01    1.600943e+00   2.766709e-02
  7.615022e-01    1.573026e+00   2.739104e-02
  7.637127e-01    1.539418e+00   2.706444e-02
  7.659231e-01    1.547889e+00   2.710706e-02
  7.681336e-01    1.566527e+00   2.723826e-02
  7.703440e-01    1.575841e+00   2.728787e-02
  7.725545e-01    1.604083e+00   2.750015e-02
  7.747650e-01    1.590287e+00   2.734325e-02
  7.769754e-01    1.597005e+00   2.734788e-02
  7.791859e-01    1.578366e+00   2.713428e-02
  7.813963e-01    1.586269e+00   2.714942e-02
  7.836068e-01    1.565413e+00   2.691866e-02
  7.858172e-01    1.606850e+00   2.722161e-02
  7.880277e-01    1.574089e+00   2.689145e-02
  7.902381e-01    1.577018e+00   2.686753e-02
  7.924486e-01    1.582597e+00   2.686517e-02
  7.946591e-01    1.631272e+00   2.722640e-02
  7.968695e-01    1.644917e+00   2.729114e-02
  7.990800e-01    1.607442e+00   2.693026e-02
  8.012904e-01    1.579805e+00   2.665155e-02
  8.035009e-01    1.624274e+00   2.697596e-02
  8.057113e-01    1.606441e+00   2.678109e-02
  8.079218e-01    1.639050e+00   2.700483e-02
  8.101323e-01    1.650073e+00   2.704949e-02
  8.123427e-01    1.643686e+00   2.695106e-02
  8.145532e-01    1.618360e+00   2.669688e-02
  8.167636e-01    1.615601e+00   2.662924e-02
  8.189741e-01    1.591612e+00   2.638676e-02
  8.211845e-01    1.612956e+00   2.651856e-02
  8.233950e-01    1.618960e+00   2.652466e-02
  8.256054e-01    1.644745e+00   2.669076e-02
  8.278159e-01    1.666853e+00   2.682519e-02
  8.300264e-01    1.643387e+00   2.659255e-02
  8.322368e-01    1.611776e+00   2.629278e-02
  8.344473e-01    1.641170e+00   2.648803e-02
  8.366577e-01    1.662124e+00   2.661371e-02
  8.388682e-01    1.640996e+00   2.640178e-02
  8.410786e-01    1.639969e+00   2.635140e-02
  8.432891e-01    1.660431e+00   2.647320e-02
  8.454996e-01    1.630208e+00   2.618964e-02
  8.477100e-01    1.667518e+00   2.644558e-02
  8.499205e-01    1.701165e+00   2.666913e-02
  8.521309e-01    1.674365e+00   2.641697e-02
  8.543414e-01    1.655855e+00   2.622957e-02
  8.565518e-01    1.625217e+00   2.594531e-02
  8.587623e-01    1.599032e+00   2.569538e-02
  8.609727e-01    1.594368e+00   2.561810e-02
  8.631832e-01    1.610327e+00   2.570628e-02
  8.653937e-01    1.642703e+00   2.592352e-02
  8.676041e-01    1.643672e+00   2.589204e-02
  8.698146e-01    1.627954e+00   2.572857e-02
  8.720250e-01    1.607814e+00   2.552994e-02
  8.742355e-01    1.622395e+00   2.560641e-02
  8.764459e-01    1.595482e+00   2.535441e-02
  8.786564e-01    1.592393e+00   2.529209e-02
  8.808669e-01    1.599200e+00   2.530765e-02
  8.830773e-01    1.613875e+00   2.538523e-02
  8.852878e-01    1.632819e+00   2.549550e-02
  8.874982e-01    1.611877e+00   2.529472e-02
  8.897087e-01    1.623757e+00   2.534981e-02
  8.919191e-01    1.641483e+00   2.544956e-02
  8.941296e-01    1.634015e+00   2.535395e-02
  8.963401e-01    1.611368e+00   2.514106e-02
  8.985505e-01    1.612194e+00   2.511042e-02
  9.007610e-01    1.580747e+00   2.482779e-02
  9.029714e-01    1.595746e+00   2.490949e-02
  9.051819e-01    1.614152e+00   2.501538e-02
  9.073923e-01    1.583859e+00   2.474312e-02
  9.096028e-01    1.608306e+00   2.489835e-02
  9.118132e-01    1.621446e+00   2.496340e-02
  9.140237e-01    1.600527e+00   2.476522e-02
  9.162342e-01    1.593681e+00   2.467769e-02
  9.184446e-01    1.604496e+00   2.472549e-02
  9.206551e-01    1.590881e+00   2.458486e-02
  9.228655e-01    1.599611e+00   2.461698e-02
  9.250760e-01    1.597193e+00   2.456308e-02
  9.272864e-01    1.576445e+00   2.436903e-02
  9.294969e-01    1.595011e+00   2.447639e-02
  9.317074e-01    1.598238e+00   2.446651e-02
  9.339178e-01    1.609244e+00   2.451707e-02
  9.361283e-01    1.621152e+00   2.457136e-02
  9.383387e-01    1.624094e+00   2.456017e-02
  9.405492e-01    1.643947e+00   2.467533e-02
  9.427596e-01    1.670021e+00   2.483444e-02
  9.449701e-01    1.613732e+00   2.437917e-02
  9.471805e-01    1.636526e+00   2.451593e-02
  9.493910e-01    1.660828e+00   2.466342e-02
  9.516015e-01    1.663244e+00   2.464688e-02
  9.538119e-01    1.692511e+00   2.482872e-02
  9.560224e-01    1.687857e+00   2.475966e-02
  9.582328e-01    1.692425e+00   2.475988e-02
  9.604433e-01    1.705461e+00   2.481987e-02
  9.626537e-01    1.731584e+00   2.497559e-02
  9.648642e-01    1.763831e+00   2.517255e-02
  9.670747e-01    1.797660e+00   2.537775e-02
  9.692851e-01    1.818915e+00   2.549343e-02
  9.714956e-01    1.841326e+00   2.561381e-02
  9.737060e-01    1.867765e+00   2.576317e-02
  9.759165e-01    1.876826e+00   2.578917e-02
  9.781269e-01    1.858943e+00   2.563245e-02
  9.803374e-01    1.840690e+00   2.547101e-02
  9.825478e-01    1.838809e+00   2.542441e-02
  9.847583e-01    1.825350e+00   2.529680e-02
  9.869688e-01    1.798131e+00   2.507387e-02
  9.891792e-01    1.786222e+00   2.495749e-02
  9.913897e-01    1.771051e+00   2.481774e-02
  9.936001e-01    1.742871e+00   2.458728e-02
  9.958106e-01    1.688525e+00   2.416803e-02
  9.980210e-01    1.659906e+00   2.393121e-02
  1.000231e+00    1.651858e+00   2.400392e-02
  1.002442e+00    1.623800e+00   2.392563e-02
  1.004652e+00    1.630612e+00   2.404265e-02
  1.006863e+00    1.612485e+00   2.395825e-02
  1.009073e+00    1.605010e+00   2.393924e-02
  1.011284e+00    1.599864e+00   2.393279e-02
  1.013494e+00    1.595871e+00   2.392660e-02
  1.015705e+00    1.613608e+00   2.408193e-02
  1.017915e+00    1.593402e+00   2.394719e-02
  1.020126e+00    1.595252e+00   2.397726e-02
  1.022336e+00    1.595929e+00   2.399416e-02
  1.024547e+00    1.602050e+00   2.405154e-02
  1.026757e+00    1.622033e+00   2.420964e-02
  1.028967e+00    1.603892e+00   2.408171e-02
  1.031178e+00    1.554701e+00   2.371576e-02
  1.033388e+00    1.555422e+00   2.372632e-02
  1.035599e+00    1.628446e+00   2.428044e-02
  1.037809e+00    1.623033e+00   2.424341e-02
  1.040020e+00    1.623563e+00   2.424868e-02
  1.042230e+00    1.662183e+00   2.453740e-02
  1.044441e+00    1.659229e+00   2.451539e-02
  1.046651e+00    1.614900e+00   2.418586e-02
  1.048862e+00    1.603865e+00   2.410226e-02
  1.051072e+00    1.663554e+00   2.454415e-02
  1.053282e+00    1.751519e+00   2.518370e-02
  1.055493e+00    1.748526e+00   2.515754e-02
  1.057703e+00    1.674454e+00   2.461732e-02
  1.059914e+00    1.600859e+00   2.406581e-02
  1.062124e+00    1.621638e+00   2.421726e-02
  1.064335e+00    1.663967e+00   2.452764e-02
  1.066545e+00    1.689566e+00   2.470919e-02
  1.068756e+00    1.681652e+00   2.464731e-02
  1.070966e+00    1.655630e+00   2.444891e-02
  1.073177e+00    1.730306e+00   2.498764e-02
  1.075387e+00    1.669434e+00   2.453865e-02
  1.077597e+00    1.526741e+00   2.345913e-02
  1.079808e+00    1.450947e+00   2.273725e-02
  1.082018e+00    1.431340e+00   2.239606e-02
  1.084229e+00    1.451670e+00   2.244483e-02
  1.086439e+00    1.443415e+00   2.229385e-02
  1.088650e+00    1.450701e+00   2.227447e-02
  1.090860e+00    1.450379e+00   2.220447e-02
  1.093071e+00    1.468675e+00   2.228150e-02
  1.095281e+00    1.464451e+00   2.219183e-02
  1.097492e+00    1.416922e+00   2.177439e-02
  1.099702e+00    1.401661e+00   2.160608e-02
  1.101912e+00    1.426124e+00   2.174520e-02
  1.104123e+00    1.418402e+00   2.163833e-02
  1.106333e+00    1.390234e+00   2.137863e-02
  1.108544e+00    1.389821e+00   2.133182e-02
  1.110754e+00    1.428985e+00   2.158722e-02
  1.112965e+00    1.408989e+00   2.139532e-02
  1.115175e+00    1.388324e+00   2.119714e-02
  1.117386e+00    1.401106e+00   2.125540e-02
  1.119596e+00    1.396901e+00   2.118583e-02
  1.121807e+00    1.391940e+00   2.110960e-02
  1.124017e+00    1.386438e+00   2.103145e-02
  1.126228e+00    1.397170e+00   2.107703e-02
  1.128438e+00    1.377138e+00   2.088897e-02
  1.130648e+00    1.341783e+00   2.058545e-02
  1.132859e+00    1.385079e+00   2.088071e-02
  1.135069e+00    1.380275e+00   2.080991e-02
  1.137280e+00    1.362683e+00   2.064418e-02
  1.139490e+00    1.376479e+00   2.071550e-02
  1.141701e+00    1.350936e+00   2.048968e-02
  1.143911e+00    1.372310e+00   2.061940e-02
  1.146122e+00    1.336810e+00   2.031945e-02
  1.148332e+00    1.356409e+00   2.043625e-02
  1.150543e+00    1.363920e+00   2.046208e-02
  1.152753e+00    1.374288e+00   2.050887e-02
  1.154963e+00    1.363162e+00   2.039477e-02
  1.157174e+00    1.365096e+00   2.037916e-02
  1.159384e+00    1.373818e+00   2.041428e-02
  1.161595e+00    1.376834e+00   2.040678e-02
  1.163805e+00    1.379534e+00   2.039738e-02
  1.166016e+00    1.378688e+00   2.036161e-02
  1.168226e+00    1.359388e+00   2.018969e-02
  1.170437e+00    1.368628e+00   2.022953e-02
  1.172647e+00    1.365708e+00   2.017906e-02
  1.174858e+00    1.350061e+00   2.003518e-02
  1.177068e+00    1.360618e+00   2.008511e-02
  1.179278e+00    1.379986e+00   2.019881e-02
  1.181489e+00    1.356591e+00   1.999988e-02
  1.183699e+00    1.374930e+00   2.010686e-02
  1.185910e+00    1.371939e+00   2.005707e-02
  1.188120e+00    1.405682e+00   2.027507e-02
  1.190331e+00    1.342380e+00   1.978666e-02
  1.192541e+00    1.336062e+00   1.971283e-02
  1.194752e+00    1.348815e+00   1.977967e-02
  1.196962e+00    1.359796e+00   1.983421e-02
  1.199173e+00    1.356904e+00   1.978656e-02
  1.201383e+00    1.326093e+00   1.953369e-02
  1.203593e+00    1.342019e+00   1.962588e-02
  1.205804e+00    1.348651e+00   1.964844e-02
  1.208014e+00    1.353505e+00   1.965685e-02
  1.210225e+00    1.347460e+00   1.958762e-02
  1.212435e+00    1.331985e+00   1.945020e-02
  1.214646e+00    1.356382e+00   1.960132e-02
  1.216856e+00    1.344910e+00   1.949287e-02
  1.219067e+00    1.332362e+00   1.937739e-02
  1.221277e+00    1.348165e+00   1.946696e-02
  1.223488e+00    1.350313e+00   1.945672e-02
  1.225698e+00    1.344942e+00   1.939112e-02
  1.227909e+00    1.350261e+00   1.939927e-02
  1.230119e+00    1.318223e+00   1.913626e-02
  1.232329e+00    1.322852e+00   1.913942e-02
  1.234540e+00    1.345971e+00   1.927570e-02
  1.236750e+00    1.334282e+00   1.916173e-02
  1.238961e+00    1.340329e+00   1.917822e-02
  1.241171e+00    1.343224e+00   1.917481e-02
  1.243382e+00    1.324041e+00   1.901411e-02
  1.245592e+00    1.338429e+00   1.909314e-02
  1.247803e+00    1.351396e+00   1.916174e-02
  1.250013e+00    1.362101e+00   1.921383e-02
  1.252224e+00    1.369036e+00   1.923929e-02
  1.254434e+00    1.331571e+00   1.895063e-02
  1.256644e+00    1.344623e+00   1.902011e-02
  1.258855e+00    1.351383e+00   1.904458e-02
  1.261065e+00    1.357201e+00   1.906210e-02
  1.263276e+00    1.372916e+00   1.914900e-02
  1.265486e+00    1.361915e+00   1.904917e-02
  1.267697e+00    1.348446e+00   1.893172e-02
  1.269907e+00    1.352255e+00   1.893572e-02
  1.272118e+00    1.343171e+00   1.884952e-02
  1.274328e+00    1.316083e+00   1.863601e-02
  1.276539e+00    1.317331e+00   1.862233e-02
  1.278749e+00    1.344707e+00   1.879260e-02
  1.280959e+00    1.343347e+00   1.876061e-02
  1.283170e+00    1.333123e+00   1.866681e-02
  1.285380e+00    1.327775e+00   1.860705e-02
  1.287591e+00    1.326877e+00   1.857892e-02
  1.289801e+00    1.345466e+00   1.868740e-02
  1.292012e+00    1.367695e+00   1.882396e-02
  1.294222e+00    1.335058e+00   1.858186e-02
  1.296433e+00    1.348191e+00   1.865742e-02
  1.298643e+00    1.361500e+00   1.873276e-02
  1.300854e+00    1.345245e+00   1.860421e-02
  1.303064e+00    1.332417e+00   1.849620e-02
  1.305274e+00    1.339625e+00   1.852480e-02
  1.307485e+00    1.360081e+00   1.864406e-02
  1.309695e+00    1.353154e+00   1.857429e-02
  1.311906e+00    1.348973e+00   1.852384e-02
  1.314116e+00    1.361767e+00   1.859061e-02
  1.316327e+00    1.360312e+00   1.855890e-02
  1.318537e+00    1.353663e+00   1.849158e-02
  1.320748e+00    1.334869e+00   1.834135e-02
  1.322958e+00    1.330688e+00   1.829220e-02
  1.325169e+00    1.342192e+00   1.835015e-02
  1.327379e+00    1.366540e+00   1.849389e-02
  1.329589e+00    1.373446e+00   1.851933e-02
  1.331800e+00    1.363671e+00   1.843249e-02
  1.334010e+00    1.385653e+00   1.855955e-02
  1.336221e+00    1.348152e+00   1.828495e-02
  1.338431e+00    1.329277e+00   1.813578e-02
  1.340642e+00    1.355134e+00   1.837560e-02
  1.342852e+00    1.358192e+00   1.849731e-02
  1.345063e+00    1.354601e+00   1.852240e-02
  1.347273e+00    1.324920e+00   1.835329e-02
  1.349484e+00    1.305956e+00   1.824867e-02
  1.351694e+00    1.328726e+00   1.842960e-02
  1.353905e+00    1.318440e+00   1.837591e-02
  1.356115e+00    1.350516e+00   1.861314e-02
  1.358325e+00    1.339546e+00   1.855068e-02
  1.360536e+00    1.332413e+00   1.851276e-02
  1.362746e+00    1.337359e+00   1.855660e-02
  1.364957e+00    1.306969e+00   1.835212e-02
  1.367167e+00    1.319628e+00   1.844782e-02
  1.369378e+00    1.317617e+00   1.843974e-02
  1.371588e+00    1.315938e+00   1.843306e-02
  1.373799e+00    1.288904e+00   1.824636e-02
  1.376009e+00    1.288967e+00   1.825010e-02
  1.378220e+00    1.311354e+00   1.841042e-02
  1.380430e+00    1.295630e+00   1.830239e-02
  1.382640e+00    1.295039e+00   1.829911e-02
  1.384851e+00    1.266342e+00   1.809610e-02
  1.387061e+00    1.260087e+00   1.805161e-02
  1.389272e+00    1.283937e+00   1.822187e-02
  1.391482e+00    1.269759e+00   1.812031e-02
  1.393693e+00    1.286049e+00   1.823530e-02
  1.395903e+00    1.291541e+00   1.827269e-02
  1.398114e+00    1.295139e+00   1.829675e-02
  1.400324e+00    1.278106e+00   1.817390e-02
  1.402535e+00    1.282003e+00   1.819928e-02
  1.404745e+00    1.249794e+00   1.796687e-02
  1.406955e+00    1.239643e+00   1.789108e-02
  1.409166e+00    1.233525e+00   1.784362e-02
  1.411376e+00    1.255876e+00   1.800144e-02
  1.413587e+00    1.285929e+00   1.821173e-02
  1.415797e+00    1.289392e+00   1.823269e-02
  1.418008e+00    1.244429e+00   1.787052e-02
  1.420218e+00    1.263148e+00   1.785508e-02
  1.422429e+00    1.247767e+00   1.766149e-02
  1.424639e+00    1.247491e+00   1.759541e-02
  1.426850e+00    1.257167e+00   1.760910e-02
  1.429060e+00    1.276862e+00   1.769738e-02
  1.431270e+00    1.296190e+00   1.778605e-02
  1.433481e+00    1.256231e+00   1.746904e-02
  1.435691e+00    1.249017e+00   1.738068e-02
  1.437902e+00    1.275996e+00   1.753082e-02
  1.440112e+00    1.280564e+00   1.752672e-02
  1.442323e+00    1.257569e+00   1.733574e-02
  1.444533e+00    1.273550e+00   1.741294e-02
  1.446744e+00    1.279791e+00   1.742432e-02
  1.448954e+00    1.259620e+00   1.725640e-02
  1.451165e+00    1.237520e+00   1.707496e-02
  1.453375e+00    1.266081e+00   1.724286e-02
  1.455586e+00    1.274997e+00   1.727526e-02
  1.457796e+00    1.285040e+00   1.731549e-02
  1.460006e+00    1.287663e+00   1.730572e-02
  1.462217e+00    1.280949e+00   1.723420e-02
  1.464427e+00    1.280215e+00   1.720354e-02
  1.466638e+00    1.284878e+00   1.720938e-02
  1.468848e+00    1.282614e+00   1.716873e-02
  1.471059e+00    1.293120e+00   1.721360e-02
  1.473269e+00    1.264308e+00   1.699642e-02
  1.475480e+00    1.235437e+00   1.677778e-02
  1.477690e+00    1.246150e+00   1.682674e-02
  1.479901e+00    1.247440e+00   1.681179e-02
  1.482111e+00    1.242974e+00   1.675858e-02
  1.484321e+00    1.269966e+00   1.691641e-02
  1.486532e+00    1.262435e+00   1.684390e-02
  1.488742e+00    1.262446e+00   1.682132e-02
  1.490953e+00    1.260692e+00   1.678709e-02
  1.493163e+00    1.248493e+00   1.668350e-02
  1.495374e+00    1.250656e+00   1.667657e-02
  1.497584e+00    1.265770e+00   1.675535e-02
  1.499795e+00    1.253255e+00   1.665072e-02
  1.502005e+00    1.259839e+00   1.667272e-02
  1.504216e+00    1.244990e+00   1.655326e-02
  1.506426e+00    1.237949e+00   1.648573e-02
  1.508636e+00    1.236066e+00   1.645291e-02
  1.510847e+00    1.238129e+00   1.644499e-02
  1.513057e+00    1.242196e+00   1.644702e-02
  1.515268e+00    1.276046e+00   1.664365e-02
  1.517478e+00    1.291872e+00   1.672104e-02
  1.519689e+00    1.294408e+00   1.671207e-02
  1.521899e+00    1.314465e+00   1.681740e-02
  1.524110e+00    1.311266e+00   1.677612e-02
  1.526320e+00    1.279701e+00   1.655319e-02
  1.528531e+00    1.291125e+00   1.660680e-02
  1.530741e+00    1.283983e+00   1.654144e-02
  1.532951e+00    1.254418e+00   1.633024e-02
  1.535162e+00    1.253691e+00   1.641226e-02
  1.537372e+00    1.229810e+00   1.632157e-02
  1.539583e+00    1.228116e+00   1.634429e-02
  1.541793e+00    1.231928e+00   1.637653e-02
  1.544004e+00    1.253181e+00   1.651744e-02
  1.546214e+00    1.248880e+00   1.648759e-02
  1.548425e+00    1.220147e+00   1.629706e-02
  1.550635e+00    1.227590e+00   1.635631e-02
  1.552846e+00    1.238285e+00   1.643703e-02
  1.555056e+00    1.240810e+00   1.641237e-02
  1.557266e+00    1.228258e+00   1.621942e-02
  1.559477e+00    1.233111e+00   1.619257e-02
  1.561687e+00    1.250928e+00   1.627839e-02
  1.563898e+00    1.247196e+00   1.623692e-02
  1.566108e+00    1.223722e+00   1.606756e-02
  1.568319e+00    1.242443e+00   1.617439e-02
  1.570529e+00    1.220639e+00   1.600695e-02
  1.572740e+00    1.235362e+00   1.607567e-02
  1.574950e+00    1.236133e+00   1.605447e-02
  1.577161e+00    1.231491e+00   1.599896e-02
  1.579371e+00    1.229255e+00   1.596089e-02
  1.581582e+00    1.252316e+00   1.609009e-02
  1.583792e+00    1.230603e+00   1.593208e-02
  1.586002e+00    1.233146e+00   1.593098e-02
  1.588213e+00    1.249508e+00   1.601904e-02
  1.590423e+00    1.243107e+00   1.595791e-02
  1.592634e+00    1.223742e+00   1.581168e-02
  1.594844e+00    1.224511e+00   1.579539e-02
  1.597055e+00    1.214583e+00   1.571100e-02
  1.599265e+00    1.213872e+00   1.568588e-02
  1.601476e+00    1.219303e+00   1.570082e-02
  1.603686e+00    1.195838e+00   1.552960e-02
  1.605897e+00    1.216504e+00   1.564321e-02
  1.608107e+00    1.215588e+00   1.561797e-02
  1.610317e+00    1.224507e+00   1.565592e-02
  1.612528e+00    1.227795e+00   1.565784e-02
  1.614738e+00    1.233768e+00   1.567689e-02
  1.616949e+00    1.201585e+00   1.545231e-02
  1.619159e+00    1.194442e+00   1.538780e-02
  1.621370e+00    1.173090e+00   1.523154e-02
  1.623580e+00    1.180964e+00   1.526448e-02
  1.625791e+00    1.177812e+00   1.522607e-02
  1.628001e+00    1.186767e+00   1.526571e-02
  1.630212e+00    1.175757e+00   1.517710e-02
  1.632422e+00    1.189638e+00   1.524852e-02
  1.634632e+00    1.125562e+00   1.481530e-02
  1.636843e+00    1.116840e+00   1.474068e-02
  1.639053e+00    1.136204e+00   1.485090e-02
  1.641264e+00    1.162897e+00   1.500730e-02
  1.643474e+00    1.190961e+00   1.516970e-02
  1.645685e+00    1.196545e+00   1.518830e-02
  1.647895e+00    1.169387e+00   1.499825e-02
  1.650106e+00    1.145795e+00   1.482922e-02
  1.652316e+00    1.110776e+00   1.458463e-02
  1.654527e+00    1.129056e+00   1.468757e-02
  1.656737e+00    1.113008e+00   1.456644e-02
  1.658947e+00    1.135767e+00   1.469829e-02
  1.661158e+00    1.131859e+00   1.465669e-02
  1.663368e+00    1.151366e+00   1.476622e-02
  1.665579e+00    1.140727e+00   1.468155e-02
  1.667789e+00    1.124548e+00   1.456077e-02
  1.670000e+00    1.095116e+00   1.435358e-02
  1.672210e+00    1.105697e+00   1.440691e-02
  1.674421e+00    1.094756e+00   1.432019e-02
  1.676631e+00    1.097662e+00   1.432335e-02
  1.678842e+00    1.101876e+00   1.433502e-02
  1.681052e+00    1.095859e+00   1.428043e-02
  1.683263e+00    1.083992e+00   1.418781e-02
  1.685473e+00    1.080493e+00   1.414977e-02
  1.687683e+00    1.059787e+00   1.399828e-02
  1.689894e+00    1.062832e+00   1.400273e-02
  1.692104e+00    1.061503e+00   1.397916e-02
  1.694315e+00    1.065777e+00   1.399280e-02
  1.696525e+00    1.071313e+00   1.401395e-02
  1.698736e+00    1.060936e+00   1.393112e-02
  1.700946e+00    1.047590e+00   1.382817e-02
  1.703157e+00    1.040295e+00   1.376542e-02
  1.705367e+00    1.041376e+00   1.375815e-02
  1.707578e+00    1.037901e+00   1.372067e-02
  1.709788e+00    1.047413e+00   1.376928e-02
  1.711998e+00    1.022999e+00   1.359299e-02
  1.714209e+00    1.035099e+00   1.365874e-02
  1.716419e+00    1.029164e+00   1.360528e-02
  1.718630e+00    1.017861e+00   1.351621e-02
  1.720840e+00    1.002841e+00   1.340210e-02
  1.723051e+00    1.003373e+00   1.339192e-02
  1.725261e+00    1.014163e+00   1.344911e-02
  1.727472e+00    1.003013e+00   1.336093e-02
  1.729682e+00    1.002104e+00   1.334147e-02
  1.731893e+00    1.014641e+00   1.341075e-02
  1.734103e+00    9.974123e-01   1.328271e-02
  1.736313e+00    9.711921e-01   1.309318e-02
  1.738524e+00    9.777345e-01   1.312354e-02
  1.740734e+00    9.911478e-01   1.319962e-02
  1.742945e+00    9.801619e-01   1.311291e-02
  1.745155e+00    9.781100e-01   1.308583e-02
  1.747366e+00    9.744789e-01   1.304781e-02
  1.749576e+00    9.825615e-01   1.308816e-02
  1.751787e+00    9.665788e-01   1.296804e-02
  1.753997e+00    9.735242e-01   1.300121e-02
  1.756208e+00    9.604313e-01   1.290039e-02
  1.758418e+00    9.462125e-01   1.279160e-02
  1.760628e+00    9.424133e-01   1.275273e-02
  1.762839e+00    9.374199e-01   1.270586e-02
  1.765049e+00    9.515489e-01   1.278821e-02
  1.767260e+00    9.533247e-01   1.278738e-02
  1.769470e+00    9.355127e-01   1.265451e-02
  1.771681e+00    9.163260e-01   1.251118e-02
  1.773891e+00    9.193609e-01   1.251903e-02
  1.776102e+00    9.224205e-01   1.252715e-02
  1.778312e+00    9.381892e-01   1.262108e-02
  1.780523e+00    9.222105e-01   1.250054e-02
  1.782733e+00    9.183953e-01   1.246213e-02
  1.784944e+00    9.036229e-01   1.234881e-02
  1.787154e+00    9.237965e-01   1.247341e-02
  1.789364e+00    9.481617e-01   1.262425e-02
  1.791575e+00    9.726685e-01   1.277350e-02
  1.793785e+00    9.844149e-01   1.283761e-02
  1.795996e+00    9.586860e-01   1.265596e-02
  1.798206e+00    9.743057e-01   1.274574e-02
  1.800417e+00    1.080863e+00   1.341083e-02
  1.802627e+00    1.146350e+00   1.379780e-02
  1.804838e+00    1.105262e+00   1.353498e-02
  1.807048e+00    1.004961e+00   1.289275e-02
  1.809259e+00    9.361084e-01   1.242942e-02
  1.811469e+00    9.272733e-01   1.235545e-02
  1.813679e+00    9.017105e-01   1.216901e-02
  1.815890e+00    8.951188e-01   1.210968e-02
  1.818100e+00    9.066147e-01   1.217204e-02
  1.820311e+00    8.736535e-01   1.193411e-02
  1.822521e+00    8.908966e-01   1.203644e-02
  1.824732e+00    8.828823e-01   1.196745e-02
  1.826942e+00    8.793063e-01   1.193091e-02
  1.829153e+00    8.570939e-01   1.176773e-02
  1.831363e+00    8.585609e-01   1.176595e-02
  1.833574e+00    8.602654e-01   1.176607e-02
  1.835784e+00    8.707542e-01   1.182622e-02
  1.837994e+00    8.604431e-01   1.174439e-02
  1.840205e+00    8.777287e-01   1.185057e-02
  1.842415e+00    8.767054e-01   1.183188e-02
  1.844626e+00    8.698820e-01   1.177419e-02
  1.846836e+00    8.744028e-01   1.179327e-02
  1.849047e+00    8.808360e-01   1.182486e-02
  1.851257e+00    8.888976e-01   1.186915e-02
  1.853468e+00    8.704687e-01   1.173662e-02
  1.855678e+00    8.967838e-01   1.190363e-02
  1.857889e+00    8.638303e-01   1.167439e-02
  1.860099e+00    8.483062e-01   1.156038e-02
  1.862309e+00    8.798351e-01   1.176464e-02
  1.864520e+00    8.673231e-01   1.167206e-02
  1.866730e+00    8.617523e-01   1.162509e-02
  1.868941e+00    8.648617e-01   1.163502e-02
  1.871151e+00    8.776472e-01   1.170913e-02
  1.873362e+00    9.626402e-01   1.225089e-02
  1.875572e+00    1.013133e+00   1.255623e-02
  1.877783e+00    8.849301e-01   1.172325e-02
  1.879993e+00    8.477389e-01   1.146306e-02
  1.882204e+00    8.543757e-01   1.149688e-02
  1.884414e+00    8.672853e-01   1.157219e-02
  1.886624e+00    8.632056e-01   1.153375e-02
  1.888835e+00    8.436633e-01   1.139147e-02
  1.891045e+00    8.255900e-01   1.125799e-02
  1.893256e+00    8.496752e-01   1.140985e-02
  1.895466e+00    8.424464e-01   1.135003e-02
  1.897677e+00    8.113426e-01   1.112777e-02
  1.899887e+00    8.045404e-01   1.107023e-02
  1.902098e+00    8.320482e-01   1.124704e-02
  1.904308e+00    8.281416e-01   1.121006e-02
  1.906519e+00    7.934305e-01   1.096201e-02
  1.908729e+00    8.104146e-01   1.106820e-02
  1.910940e+00    8.081450e-01   1.104173e-02
  1.913150e+00    8.087404e-01   1.103529e-02
  1.915360e+00    8.244928e-01   1.113164e-02
  1.917571e+00    8.082103e-01   1.101039e-02
  1.919781e+00    8.139853e-01   1.103903e-02
  1.921992e+00    8.079587e-01   1.098755e-02
  1.924202e+00    8.036859e-01   1.094779e-02
  1.926413e+00    7.787428e-01   1.076649e-02
  1.928623e+00    7.977883e-01   1.088692e-02
  1.930834e+00    8.161403e-01   1.100097e-02
  1.933044e+00    7.968022e-01   1.085932e-02
  1.935255e+00    7.949479e-01   1.083640e-02
  1.937465e+00    8.115597e-01   1.093865e-02
  1.939675e+00    8.066227e-01   1.089447e-02
  1.941886e+00    8.034894e-01   1.086301e-02
  1.944096e+00    8.142948e-01   1.092557e-02
  1.946307e+00    7.955740e-01   1.078894e-02
  1.948517e+00    7.881000e-01   1.072779e-02
  1.950728e+00    7.777913e-01   1.064727e-02
  1.952938e+00    7.877487e-01   1.070518e-02
  1.955149e+00    7.951905e-01   1.074542e-02
  1.957359e+00    7.743524e-01   1.059378e-02
  1.959570e+00    7.737343e-01   1.057882e-02
  1.961780e+00    7.742512e-01   1.057255e-02
  1.963990e+00    7.698590e-01   1.053256e-02
  1.966201e+00    7.650124e-01   1.048944e-02
  1.968411e+00    7.825968e-01   1.059921e-02
  1.970622e+00    7.718031e-01   1.051588e-02
  1.972832e+00    7.748181e-01   1.052651e-02
  1.975043e+00    7.599761e-01   1.041532e-02
  1.977253e+00    7.780732e-01   1.052868e-02
  1.979464e+00    7.895605e-01   1.059606e-02
  1.981674e+00    7.899464e-01   1.058835e-02
  1.983885e+00    7.821282e-01   1.052580e-02
  1.986095e+00    7.577822e-01   1.035110e-02
  1.988305e+00    7.798477e-01   1.049083e-02
  1.990516e+00    7.681941e-01   1.040232e-02
  1.992726e+00    7.574433e-01   1.031972e-02
  1.994937e+00    7.598896e-01   1.032635e-02
  1.997147e+00    7.783532e-01   1.044130e-02
  1.999358e+00    7.664375e-01   1.035128e-02
  2.001568e+00    7.693443e-01   1.036010e-02
  2.003779e+00    7.825669e-01   1.043676e-02
  2.005989e+00    7.613141e-01   1.028213e-02
  2.008200e+00    7.767702e-01   1.037439e-02
  2.010410e+00    7.748749e-01   1.034995e-02
  2.012621e+00    7.658620e-01   1.027789e-02
  2.014831e+00    7.760876e-01   1.033474e-02
  2.017041e+00    7.637690e-01   1.024204e-02
  2.019252e+00    7.397230e-01   1.006973e-02
  2.021462e+00    7.524249e-01   1.014638e-02
  2.023673e+00    7.675895e-01   1.023871e-02
  2.025883e+00    7.786508e-01   1.030261e-02
  2.028094e+00    7.585726e-01   1.015929e-02
  2.030304e+00    7.535233e-01   1.011595e-02
  2.032515e+00    7.532011e-01   1.010451e-02
  2.034725e+00    7.554229e-01   1.011000e-02
  2.036936e+00    7.485766e-01   1.005481e-02
  2.039146e+00    7.475176e-01   1.003816e-02
  2.041356e+00    7.544236e-01   1.007481e-02
  2.043567e+00    7.538277e-01   1.006153e-02
  2.045777e+00    7.684036e-01   1.014900e-02
  2.047988e+00    7.684639e-01   1.013998e-02
  2.050198e+00    7.452294e-01   9.977093e-03
  2.052409e+00    7.511845e-01   1.000925e-02
  2.054619e+00    7.354707e-01   9.896708e-03
  2.056830e+00    7.411506e-01   9.927711e-03
  2.059040e+00    7.490709e-01   9.973120e-03
  2.061251e+00    7.570034e-01   1.001851e-02
  2.063461e+00    7.533381e-01   9.986616e-03
  2.065671e+00    7.402213e-01   9.890605e-03
  2.067882e+00    7.607243e-01   1.001758e-02
  2.070092e+00    7.618445e-01   1.001567e-02
  2.072303e+00    7.726560e-01   1.007719e-02
  2.074513e+00    7.679293e-01   1.003686e-02
  2.076724e+00    7.780417e-01   1.009305e-02
  2.078934e+00    7.601318e-01   9.967118e-03
  2.081145e+00    7.512432e-01   9.899521e-03
  2.083355e+00    7.576938e-01   9.932660e-03
  2.085566e+00    7.397960e-01   9.805758e-03
  2.087776e+00    7.246323e-01   9.695332e-03
  2.089986e+00    7.270123e-01   9.702504e-03
  2.092197e+00    7.630152e-01   9.930733e-03
  2.094407e+00    7.650381e-01   9.934495e-03
  2.096618e+00    7.660494e-01   9.931978e-03
  2.098828e+00    7.353793e-01   9.721828e-03
  2.101039e+00    7.292406e-01   9.672179e-03
  2.103249e+00    7.268394e-01   9.647617e-03
  2.105460e+00    7.027065e-01   9.477254e-03
  2.107670e+00    7.321426e-01   9.664934e-03
  2.109881e+00    7.263712e-01   9.617649e-03
  2.112091e+00    7.195145e-01   9.563169e-03
  2.114301e+00    7.186465e-01   9.548671e-03
  2.116512e+00    7.152213e-01   9.517137e-03
  2.118722e+00    7.064552e-01   9.449903e-03
  2.120933e+00    6.958721e-01   9.370154e-03
  2.123143e+00    7.049754e-01   9.422407e-03
  2.125354e+00    7.137203e-01   9.472159e-03
  2.127564e+00    7.061523e-01   9.413159e-03
  2.129775e+00    7.127935e-01   9.448585e-03
  2.131985e+00    7.231402e-01   9.507822e-03
  2.134196e+00    6.983166e-01   9.334702e-03
  2.136406e+00    7.084106e-01   9.393201e-03
  2.138617e+00    6.942513e-01   9.290501e-03
  2.140827e+00    7.033357e-01   9.367087e-03
  2.143037e+00    6.933467e-01   9.345349e-03
  2.145248e+00    7.073884e-01   9.461540e-03
  2.147458e+00    7.057316e-01   9.465606e-03
  2.149669e+00    7.177693e-01   9.557973e-03
  2.151879e+00    6.821014e-01   9.326576e-03
  2.154090e+00    6.859564e-01   9.360086e-03
  2.156300e+00    6.918386e-01   9.406719e-03
  2.158511e+00    6.976259e-01   9.451276e-03
  2.160721e+00    7.077258e-01   9.524280e-03
  2.162932e+00    7.215478e-01   9.620662e-03
  2.165142e+00    6.928676e-01   9.430536e-03
  2.167352e+00    6.983203e-01   9.470465e-03
  2.169563e+00    7.059761e-01   9.524226e-03
  2.171773e+00    6.966638e-01   9.463646e-03
  2.173984e+00    6.776503e-01   9.335019e-03
  2.176194e+00    6.726593e-01   9.301743e-03
  2.178405e+00    6.879343e-01   9.407454e-03
  2.180615e+00    6.995440e-01   9.487201e-03
  2.182826e+00    7.000548e-01   9.491340e-03
  2.185036e+00    6.920730e-01   9.437141e-03
  2.187247e+00    6.911196e-01   9.430585e-03
  2.189457e+00    6.731174e-01   9.306555e-03
  2.191667e+00    6.866741e-01   9.399602e-03
  2.193878e+00    6.841897e-01   9.382037e-03
  2.196088e+00    6.800289e-01   9.352789e-03
  2.198299e+00    6.770885e-01   9.331449e-03
  2.200509e+00    6.990976e-01   9.480830e-03
  2.202720e+00    6.966147e-01   9.462825e-03
  2.204930e+00    6.829877e-01   9.368577e-03
  2.207141e+00    6.832245e-01   9.369068e-03
  2.209351e+00    6.790074e-01   9.338240e-03
  2.211562e+00    6.833077e-01   9.366131e-03
  2.213772e+00    6.872721e-01   9.337351e-03
  2.215982e+00    6.751049e-01   9.210153e-03
  2.218193e+00    6.814553e-01   9.223606e-03
  2.220403e+00    6.708346e-01   9.126951e-03
  2.222614e+00    6.638518e-01   9.058508e-03
  2.224824e+00    6.627340e-01   9.031659e-03
  2.227035e+00    6.783196e-01   9.119720e-03
  2.229245e+00    6.744025e-01   9.076357e-03
  2.231456e+00    6.832365e-01   9.119847e-03
  2.233666e+00    6.731752e-01   9.037341e-03
  2.235877e+00    6.727742e-01   9.020350e-03
  2.238087e+00    6.796055e-01   9.052456e-03
  2.240298e+00    6.631585e-01   8.928549e-03
  2.242508e+00    6.727580e-01   8.977744e-03
  2.244718e+00    6.998968e-01   9.140871e-03
  2.246929e+00    6.946563e-01   9.091886e-03
  2.249139e+00    6.815639e-01   8.993317e-03
  2.251350e+00    6.413074e-01   8.712173e-03
  2.253560e+00    6.511623e-01   8.767429e-03
  2.255771e+00    6.578783e-01   8.801174e-03
  2.257981e+00    6.559090e-01   8.776906e-03
  2.260192e+00    6.554089e-01   8.762515e-03
  2.262402e+00    6.482129e-01   8.703575e-03
  2.264613e+00    6.361666e-01   8.611700e-03
  2.266823e+00    6.538391e-01   8.720159e-03
  2.269033e+00    6.739755e-01   8.842967e-03
  2.271244e+00    6.660839e-01   8.780623e-03
  2.273454e+00    6.834906e-01   8.884171e-03
  2.275665e+00    7.053443e-01   9.014483e-03
  2.277875e+00    6.797090e-01   8.839072e-03
  2.280086e+00    6.833482e-01   8.852481e-03
  2.282296e+00    6.705423e-01   8.759671e-03
  2.284507e+00    6.818224e-01   8.822718e-03
  2.286717e+00    6.590268e-01   8.664520e-03
  2.288928e+00    6.490465e-01   8.588850e-03
  2.291138e+00    6.602990e-01   8.653528e-03
  2.293348e+00    6.540865e-01   8.603198e-03
  2.295559e+00    6.612914e-01   8.641090e-03
  2.297769e+00    6.605006e-01   8.626644e-03
  2.299980e+00    6.454142e-01   8.518272e-03
  2.302190e+00    6.492511e-01   8.534461e-03
  2.304401e+00    6.497369e-01   8.528341e-03
  2.306611e+00    6.504253e-01   8.523680e-03
  2.308822e+00    6.327310e-01   8.398672e-03
  2.311032e+00    6.544601e-01   8.535182e-03
  2.313243e+00    6.651115e-01   8.598033e-03
  2.315453e+00    6.632059e-01   8.578043e-03
  2.317663e+00    6.367856e-01   8.396405e-03
  2.319874e+00    6.423815e-01   8.424504e-03
  2.322084e+00    6.542489e-01   8.492933e-03
  2.324295e+00    6.428729e-01   8.410593e-03
  2.326505e+00    6.372845e-01   8.364918e-03
  2.328716e+00    6.358689e-01   8.347159e-03
  2.330926e+00    6.432037e-01   8.386335e-03
  2.333137e+00    6.490617e-01   8.416031e-03
  2.335347e+00    6.463866e-01   8.389767e-03
  2.337558e+00    6.551912e-01   8.438375e-03
  2.339768e+00    6.604169e-01   8.463273e-03
  2.341979e+00    6.507214e-01   8.392463e-03
  2.344189e+00    6.309565e-01   8.255693e-03
  2.346399e+00    6.177240e-01   8.160274e-03
  2.348610e+00    6.276320e-01   8.217046e-03
  2.350820e+00    6.365395e-01   8.266961e-03
  2.353031e+00    6.440732e-01   8.307403e-03
  2.355241e+00    6.315765e-01   8.218374e-03
  2.357452e+00    6.223395e-01   8.149683e-03
  2.359662e+00    6.328627e-01   8.210074e-03
  2.361873e+00    6.164444e-01   8.094756e-03
  2.364083e+00    6.059968e-01   8.017996e-03
  2.366294e+00    6.194949e-01   8.098754e-03
  2.368504e+00    6.427684e-01   8.241308e-03
  2.370714e+00    6.219327e-01   8.098606e-03
  2.372925e+00    6.255953e-01   8.114352e-03
  2.375135e+00    6.289283e-01   8.127860e-03
  2.377346e+00    6.186919e-01   8.053537e-03
  2.379556e+00    6.244862e-01   8.083237e-03
  2.381767e+00    6.134415e-01   8.003643e-03
  2.383977e+00    6.109859e-01   7.979725e-03
  2.386188e+00    6.141139e-01   7.992247e-03
  2.388398e+00    6.130144e-01   7.977172e-03
  2.390609e+00    6.199613e-01   8.014489e-03
  2.392819e+00    6.225200e-01   8.023206e-03
  2.395029e+00    6.327770e-01   8.081264e-03
  2.397240e+00    6.163772e-01   7.967987e-03
  2.399450e+00    6.177800e-01   7.969204e-03
  2.401661e+00    6.223302e-01   7.990749e-03
  2.403871e+00    6.223075e-01   7.982788e-03
  2.406082e+00    6.121625e-01   7.910003e-03
  2.408292e+00    6.029044e-01   7.842204e-03
  2.410503e+00    6.014877e-01   7.825536e-03
  2.412713e+00    6.099111e-01   7.872338e-03
  2.414924e+00    5.922388e-01   7.750039e-03
  2.417134e+00    5.954385e-01   7.763379e-03
  2.419344e+00    5.970078e-01   7.766215e-03
  2.421555e+00    6.067340e-01   7.821701e-03
  2.423765e+00    5.776158e-01   7.624445e-03
  2.425976e+00    5.840424e-01   7.659022e-03
  2.428186e+00    5.863543e-01   7.667033e-03
  2.430397e+00    5.895657e-01   7.680561e-03
  2.432607e+00    5.881108e-01   7.663855e-03
  2.434818e+00    5.903060e-01   7.670628e-03
  2.437028e+00    5.975222e-01   7.710208e-03
  2.439239e+00    5.907042e-01   7.658452e-03
  2.441449e+00    5.900671e-01   7.647143e-03
  2.443659e+00    5.749981e-01   7.541619e-03
  2.445870e+00    5.713711e-01   7.529844e-03
  2.448080e+00    5.775160e-01   7.604866e-03
  2.450291e+00    5.777486e-01   7.623026e-03
  2.452501e+00    5.673413e-01   7.565109e-03
  2.454712e+00    5.726978e-01   7.609189e-03
  2.456922e+00    5.549808e-01   7.497076e-03
  2.459133e+00    5.544150e-01   7.498631e-03
  2.461343e+00    5.636793e-01   7.565352e-03
  2.463554e+00    5.612336e-01   7.552385e-03
  2.465764e+00    5.789887e-01   7.674100e-03
  2.467975e+00    5.588753e-01   7.541922e-03
  2.470185e+00    5.402218e-01   7.417212e-03
  2.472395e+00    5.354223e-01   7.385367e-03
  2.474606e+00    5.483648e-01   7.475649e-03
  2.476816e+00    5.386903e-01   7.410165e-03
  2.479027e+00    5.343547e-01   7.381089e-03
  2.481237e+00    5.552701e-01   7.524443e-03
  2.483448e+00    5.461730e-01   7.462868e-03
  2.485658e+00    5.494369e-01   7.484979e-03
  2.487869e+00    5.363697e-01   7.395479e-03
  2.490079e+00    5.491431e-01   7.482492e-03
  2.492290e+00    5.575067e-01   7.538815e-03
  2.494500e+00    5.478739e-01   7.472678e-03
  2.496710e+00    5.439207e-01   7.444963e-03
  2.498921e+00    5.292556e-01   7.342929e-03
  2.501131e+00    5.281661e-01   7.334417e-03
  2.503342e+00    5.328248e-01   7.365426e-03
  2.505552e+00    5.275614e-01   7.327833e-03
  2.507763e+00    5.352732e-01   7.379764e-03
  2.509973e+00    5.298597e-01   7.340975e-03
  2.512184e+00    5.281121e-01   7.327227e-03
  2.514394e+00    5.391660e-01   7.394050e-03
  2.516605e+00    5.300950e-01   7.284372e-03
  2.518815e+00    5.294281e-01   7.251356e-03
  2.521025e+00    5.393388e-01   7.297690e-03
  2.523236e+00    5.271600e-01   7.196796e-03
  2.525446e+00    5.487724e-01   7.326900e-03
  2.527657e+00    5.415921e-01   7.263998e-03
  2.529867e+00    5.355275e-01   7.208886e-03
  2.532078e+00    5.193474e-01   7.084188e-03
  2.534288e+00    5.321131e-01   7.156731e-03
  2.536499e+00    5.330774e-01   7.151198e-03
  2.538709e+00    5.094981e-01   6.980413e-03
  2.540920e+00    5.093044e-01   6.968583e-03
  2.543130e+00    5.187715e-01   7.022733e-03
  2.545340e+00    5.199813e-01   7.020907e-03
  2.547551e+00    5.227160e-01   7.029390e-03
  2.549761e+00    5.247911e-01   7.033731e-03
  2.551972e+00    5.152977e-01   6.960528e-03
  2.554182e+00    5.120639e-01   6.929548e-03
  2.556393e+00    5.246007e-01   7.004752e-03
  2.558603e+00    5.067071e-01   6.875285e-03
  2.560814e+00    5.309601e-01   7.029113e-03
  2.563024e+00    5.238588e-01   6.973338e-03
  2.565235e+00    5.115768e-01   6.881656e-03
  2.567445e+00    5.314664e-01   7.004497e-03
  2.569656e+00    5.054358e-01   6.821202e-03
  2.571866e+00    5.018346e-01   6.787615e-03
  2.574076e+00    5.123975e-01   6.849454e-03
  2.576287e+00    5.152560e-01   6.860224e-03
  2.578497e+00    5.004382e-01   6.753135e-03
  2.580708e+00    5.143914e-01   6.838547e-03
  2.582918e+00    5.116006e-01   6.812236e-03
  2.585129e+00    5.163273e-01   6.835882e-03
  2.587339e+00    5.124181e-01   6.802266e-03
  2.589550e+00    5.229453e-01   6.864170e-03
  2.591760e+00    5.228247e-01   6.855568e-03
  2.593971e+00    5.133576e-01   6.785676e-03
  2.596181e+00    5.099671e-01   6.757006e-03
  2.598391e+00    5.136564e-01   6.776204e-03
  2.600602e+00    5.196326e-01   6.809547e-03
  2.602812e+00    5.096767e-01   6.736453e-03
  2.605023e+00    5.096432e-01   6.729055e-03
  2.607233e+00    4.939876e-01   6.617867e-03
  2.609444e+00    4.921525e-01   6.598428e-03
  2.611654e+00    5.013895e-01   6.652779e-03
  2.613865e+00    4.992961e-01   6.631894e-03
  2.616075e+00    5.134596e-01   6.718095e-03
  2.618286e+00    5.062561e-01   6.663828e-03
  2.620496e+00    5.080647e-01   6.668989e-03
  2.622706e+00    5.112068e-01   6.683802e-03
  2.624917e+00    5.013428e-01   6.613176e-03
  2.627127e+00    4.925480e-01   6.549247e-03
  2.629338e+00    4.992577e-01   6.587737e-03
  2.631548e+00    5.109909e-01   6.658484e-03
  2.633759e+00    5.044969e-01   6.608884e-03
  2.635969e+00    5.032940e-01   6.594302e-03
  2.638180e+00    5.006371e-01   6.569898e-03
  2.640390e+00    4.903859e-01   6.495754e-03
  2.642601e+00    5.025143e-01   6.568894e-03
  2.644811e+00    5.047334e-01   6.576309e-03
  2.647021e+00    5.124724e-01   6.619859e-03
  2.649232e+00    5.040435e-01   6.558468e-03
  2.651442e+00    5.068038e-01   6.569835e-03
  2.653653e+00    5.107197e-01   6.588289e-03
  2.655863e+00    5.049695e-01   6.544393e-03
  2.658074e+00    4.906230e-01   6.444189e-03
  2.660284e+00    4.877410e-01   6.418923e-03
  2.662495e+00    5.039241e-01   6.517748e-03
  2.664705e+00    5.129858e-01   6.569421e-03
  2.666916e+00    4.987120e-01   6.470914e-03
  2.669126e+00    4.889750e-01   6.401007e-03
  2.671337e+00    5.038257e-01   6.490848e-03
  2.673547e+00    4.964053e-01   6.436486e-03
  2.675757e+00    4.832774e-01   6.344439e-03
  2.677968e+00    5.051273e-01   6.479653e-03
  2.680178e+00    4.886557e-01   6.366798e-03
  2.682389e+00    4.853591e-01   6.338925e-03
  2.684599e+00    4.871096e-01   6.344199e-03
  2.686810e+00    4.752302e-01   6.259867e-03
  2.689020e+00    4.991076e-01   6.408853e-03
  2.691231e+00    5.035779e-01   6.431129e-03
  2.693441e+00    4.935596e-01   6.360675e-03
  2.695652e+00    4.866989e-01   6.309830e-03
  2.697862e+00    4.768096e-01   6.239119e-03
  2.700072e+00    4.915882e-01   6.328983e-03
  2.702283e+00    4.976150e-01   6.361396e-03
  2.704493e+00    4.941082e-01   6.332610e-03
  2.706704e+00    4.943824e-01   6.327939e-03
  2.708914e+00    4.923665e-01   6.309032e-03
  2.711125e+00    4.890173e-01   6.281272e-03
  2.713335e+00    4.901633e-01   6.282527e-03
  2.715546e+00    4.880662e-01   6.262604e-03
  2.717756e+00    4.957175e-01   6.305556e-03
  2.719967e+00    4.881736e-01   6.251176e-03
  2.722177e+00    4.879238e-01   6.243433e-03
  2.724387e+00    4.839169e-01   6.211647e-03
  2.726598e+00    4.850196e-01   6.212666e-03
  2.728808e+00    4.785742e-01   6.165141e-03
  2.731019e+00    4.831154e-01   6.188197e-03
  2.733229e+00    4.944645e-01   6.254607e-03
  2.735440e+00    4.811549e-01   6.163600e-03
  2.737650e+00    4.864670e-01   6.191504e-03
  2.739861e+00    4.799908e-01   6.144100e-03
  2.742071e+00    4.789748e-01   6.131871e-03
  2.744282e+00    4.910105e-01   6.202129e-03
  2.746492e+00    4.920719e-01   6.202747e-03
  2.748702e+00    4.756706e-01   6.092629e-03
  2.750913e+00    4.792356e-01   6.109633e-03
  2.753123e+00    4.781992e-01   6.096932e-03
  2.755334e+00    4.831701e-01   6.122440e-03
  2.757544e+00    4.808512e-01   6.102005e-03
  2.759755e+00    4.745345e-01   6.055939e-03
  2.761965e+00    4.754840e-01   6.056042e-03
  2.764176e+00    4.778204e-01   6.064927e-03
  2.766386e+00    4.722288e-01   6.023596e-03
  2.768597e+00    4.747460e-01   6.033791e-03
  2.770807e+00    4.767115e-01   6.040406e-03
  2.773017e+00    4.808928e-01   6.060852e-03
  2.775228e+00    4.879530e-01   6.099353e-03
  2.777438e+00    4.737400e-01   6.004104e-03
  2.779649e+00    4.609004e-01   5.916370e-03
  2.781859e+00    4.790314e-01   6.025844e-03
  2.784070e+00    4.871924e-01   6.071047e-03
  2.786280e+00    4.763559e-01   5.997394e-03
  2.788491e+00    4.732575e-01   5.972026e-03
  2.790701e+00    4.748486e-01   5.976436e-03
  2.792912e+00    4.709496e-01   5.945903e-03
  2.795122e+00    4.711193e-01   5.941289e-03
  2.797333e+00    4.696405e-01   5.926404e-03
  2.799543e+00    4.841986e-01   6.011662e-03
  2.801753e+00    4.818161e-01   5.990958e-03
  2.803964e+00    4.779571e-01   5.961242e-03
  2.806174e+00    4.610993e-01   5.849113e-03
  2.808385e+00    4.713922e-01   5.907262e-03
  2.810595e+00    4.703642e-01   5.893979e-03
  2.812806e+00    4.730724e-01   5.904330e-03
  2.815016e+00    4.747413e-01   5.909981e-03
  2.817227e+00    4.794043e-01   5.965015e-03
  2.819437e+00    4.763860e-01   5.957327e-03
  2.821648e+00    4.596195e-01   5.853795e-03
  2.823858e+00    4.692870e-01   5.920367e-03
  2.826068e+00    4.699510e-01   5.929503e-03
  2.828279e+00    4.758596e-01   5.970717e-03
  2.830489e+00    4.752803e-01   5.970430e-03
  2.832700e+00    4.782248e-01   5.991477e-03
  2.834910e+00    4.750528e-01   5.973643e-03
  2.837121e+00    4.737040e-01   5.966871e-03
  2.839331e+00    4.735084e-01   5.966882e-03
  2.841542e+00    4.658756e-01   5.919596e-03
  2.843752e+00    4.618530e-01   5.894756e-03
  2.845963e+00    4.715852e-01   5.956938e-03
  2.848173e+00    4.802304e-01   6.011374e-03
  2.850383e+00    4.786043e-01   6.001507e-03
  2.852594e+00    4.592195e-01   5.878633e-03
  2.854804e+00    4.481767e-01   5.807015e-03
  2.857015e+00    4.592703e-01   5.878008e-03
  2.859225e+00    4.656322e-01   5.918339e-03
  2.861436e+00    4.641905e-01   5.908513e-03
  2.863646e+00    4.585148e-01   5.872332e-03
  2.865857e+00    4.631014e-01   5.901953e-03
  2.868067e+00    4.597829e-01   5.880998e-03
  2.870278e+00    4.669962e-01   5.926590e-03
  2.872488e+00    4.671622e-01   5.926474e-03
  2.874698e+00    4.647417e-01   5.910073e-03
  2.876909e+00    4.557456e-01   5.851274e-03
  2.879119e+00    4.503199e-01   5.814724e-03
  2.881330e+00    4.578982e-01   5.861976e-03
  2.883540e+00    4.666868e-01   5.916595e-03
  2.885751e+00    4.436935e-01   5.767385e-03
  2.887961e+00    4.648218e-01   5.901198e-03
  2.890172e+00    4.779146e-01   5.982102e-03
  2.892382e+00    4.747296e-01   5.960329e-03
  2.894593e+00    4.581898e-01   5.853765e-03
  2.896803e+00    4.548788e-01   5.830579e-03
  2.899014e+00    4.593630e-01   5.857363e-03
  2.901224e+00    4.483196e-01   5.784552e-03
  2.903434e+00    4.617945e-01   5.868895e-03
  2.905645e+00    4.569803e-01   5.836003e-03
  2.907855e+00    4.549691e-01   5.821059e-03
  2.910066e+00    4.524990e-01   5.803172e-03
  2.912276e+00    4.486636e-01   5.776430e-03
  2.914487e+00    4.631950e-01   5.866752e-03
  2.916697e+00    4.635772e-01   5.866940e-03
  2.918908e+00    4.680140e-01   5.892919e-03
  2.921118e+00    4.698350e-01   5.901664e-03
  2.923329e+00    4.359239e-01   5.682434e-03
  2.925539e+00    4.583299e-01   5.824320e-03
  2.927749e+00    4.567279e-01   5.811859e-03
  2.929960e+00    4.516709e-01   5.776822e-03
  2.932170e+00    4.398097e-01   5.698189e-03
  2.934381e+00    4.506454e-01   5.765511e-03
  2.936591e+00    4.506425e-01   5.762943e-03
  2.938802e+00    4.643281e-01   5.847058e-03
  2.941012e+00    4.658224e-01   5.854100e-03
  2.943223e+00    4.546962e-01   5.781080e-03
  2.945433e+00    4.535720e-01   5.770192e-03
  2.947644e+00    4.682550e-01   5.858649e-03
  2.949854e+00    4.572493e-01   5.785126e-03
  2.952064e+00    4.542966e-01   5.762188e-03
  2.954275e+00    4.487034e-01   5.722223e-03
  2.956485e+00    4.546758e-01   5.756007e-03
  2.958696e+00    4.600279e-01   5.785369e-03
  2.960906e+00    4.568723e-01   5.761323e-03
  2.963117e+00    4.415475e-01   5.659441e-03
  2.965327e+00    4.539059e-01   5.734195e-03
  2.967538e+00    4.490518e-01   5.700552e-03
  2.969748e+00    4.574349e-01   5.750697e-03
  2.971959e+00    4.572816e-01   5.746590e-03
  2.974169e+00    4.637719e-01   5.784607e-03
  2.976379e+00    4.508621e-01   5.700642e-03
  2.978590e+00    4.519269e-01   5.704225e-03
  2.980800e+00    4.543088e-01   5.716439e-03
  2.983011e+00    4.570973e-01   5.731152e-03
  2.985221e+00    4.533043e-01   5.704175e-03
  2.987432e+00    4.492533e-01   5.675533e-03
  2.989642e+00    4.483580e-01   5.667261e-03
  2.991853e+00    4.632210e-01   5.757109e-03
  2.994063e+00    4.579704e-01   5.721495e-03
  2.996274e+00    4.481294e-01   5.656505e-03
  2.998484e+00    4.530818e-01   5.684980e-03
  3.000694e+00    4.473275e-01   5.645348e-03
  3.002905e+00    4.473732e-01   5.642700e-03
  3.005115e+00    4.537070e-01   5.679524e-03
  3.007326e+00    4.481544e-01   5.641535e-03
  3.009536e+00    4.603989e-01   5.714796e-03
  3.011747e+00    4.410507e-01   5.590580e-03
  3.013957e+00    4.393689e-01   5.576745e-03
  3.016168e+00    4.489134e-01   5.633757e-03
  3.018378e+00    4.592036e-01   5.694896e-03
  3.020589e+00    4.493203e-01   5.630089e-03
  3.022799e+00    4.321849e-01   5.518598e-03
  3.025010e+00    4.490170e-01   5.621796e-03
  3.027220e+00    4.429484e-01   5.580616e-03
  3.029430e+00    4.418468e-01   5.570462e-03
  3.031641e+00    4.402089e-01   5.557020e-03
  3.033851e+00    4.429117e-01   5.570577e-03
  3.036062e+00    4.476565e-01   5.597564e-03
  3.038272e+00    4.471165e-01   5.590634e-03
  3.040483e+00    4.327000e-01   5.496608e-03
  3.042693e+00    4.447270e-01   5.569227e-03
  3.044904e+00    4.390549e-01   5.529649e-03
  3.047114e+00    4.293493e-01   5.463484e-03
  3.049325e+00    4.439630e-01   5.551321e-03
  3.051535e+00    4.425351e-01   5.538038e-03
  3.053745e+00    4.602819e-01   5.643188e-03
  3.055956e+00    4.482468e-01   5.564384e-03
  3.058166e+00    4.326336e-01   5.462421e-03
  3.060377e+00    4.357230e-01   5.477196e-03
  3.062587e+00    4.384447e-01   5.489713e-03
  3.064798e+00    4.447762e-01   5.524974e-03
  3.067008e+00    4.510154e-01   5.558844e-03
  3.069219e+00    4.582969e-01   5.599004e-03
  3.071429e+00    4.539816e-01   5.569042e-03
  3.073640e+00    4.463366e-01   5.518639e-03
  3.075850e+00    4.383485e-01   5.465487e-03
  3.078060e+00    4.537831e-01   5.557745e-03
  3.080271e+00    4.542279e-01   5.556986e-03
  3.082481e+00    4.487484e-01   5.519915e-03
  3.084692e+00    4.427055e-01   5.479262e-03
  3.086902e+00    4.585520e-01   5.573197e-03
  3.089113e+00    4.475490e-01   5.502348e-03
  3.091323e+00    4.591160e-01   5.569580e-03
  3.093534e+00    4.602959e-01   5.573334e-03
  3.095744e+00    4.407067e-01   5.450082e-03
  3.097955e+00    4.413997e-01   5.450853e-03
  3.100165e+00    4.388516e-01   5.431780e-03
  3.102375e+00    4.521145e-01   5.509814e-03
  3.104586e+00    4.514630e-01   5.502339e-03
  3.106796e+00    4.511746e-01   5.497030e-03
  3.109007e+00    4.596305e-01   5.545050e-03
  3.111217e+00    4.448616e-01   5.451547e-03
  3.113428e+00    4.581508e-01   5.528909e-03
  3.115638e+00    4.367535e-01   5.395078e-03
  3.117849e+00    4.356945e-01   5.384811e-03
  3.120059e+00    4.384707e-01   5.398521e-03
  3.122270e+00    4.521295e-01   5.478659e-03
  3.124480e+00    4.552583e-01   5.493878e-03
  3.126691e+00    4.477488e-01   5.444790e-03
  3.128901e+00    4.427439e-01   5.411170e-03
  3.131111e+00    4.412607e-01   5.398259e-03
  3.133322e+00    4.444250e-01   5.414140e-03
  3.135532e+00    4.503207e-01   5.446503e-03
  3.137743e+00    4.452595e-01   5.412334e-03
  3.139953e+00    4.367212e-01   5.356533e-03
  3.142164e+00    4.465627e-01   5.428604e-03
  3.144374e+00    4.442234e-01   5.442841e-03
  3.146585e+00    4.477310e-01   5.478942e-03
  3.148795e+00    4.385029e-01   5.432906e-03
  3.151006e+00    4.356222e-01   5.423532e-03
  3.153216e+00    4.295670e-01   5.392721e-03
  3.155426e+00    4.437841e-01   5.487573e-03
  3.157637e+00    4.425031e-01   5.485177e-03
  3.159847e+00    4.457546e-01   5.510211e-03
  3.162058e+00    4.382146e-01   5.467822e-03
  3.164268e+00    4.287361e-01   5.412379e-03
  3.166479e+00    4.345895e-01   5.452823e-03
  3.168689e+00    4.383286e-01   5.479603e-03
  3.170900e+00    4.224134e-01   5.382306e-03
  3.173110e+00    4.362035e-01   5.472314e-03
  3.175321e+00    4.385442e-01   5.489481e-03
  3.177531e+00    4.344282e-01   5.466394e-03
  3.179741e+00    4.353497e-01   5.474233e-03
  3.181952e+00    4.466283e-01   5.546838e-03
  3.184162e+00    4.469249e-01   5.550888e-03
  3.186373e+00    4.424153e-01   5.524429e-03
  3.188583e+00    4.375196e-01   5.495562e-03
  3.190794e+00    4.369923e-01   5.494013e-03
  3.193004e+00    4.337883e-01   5.475063e-03
  3.195215e+00    4.393884e-01   5.511801e-03
  3.197425e+00    4.303650e-01   5.456125e-03
  3.199636e+00    4.378795e-01   5.502764e-03
  3.201846e+00    4.392975e-01   5.511065e-03
  3.204056e+00    4.400239e-01   5.516525e-03
  3.206267e+00    4.329725e-01   5.472986e-03
  3.208477e+00    4.343564e-01   5.482644e-03
  3.210688e+00    4.345170e-01   5.484501e-03
  3.212898e+00    4.393073e-01   5.515250e-03
  3.215109e+00    4.234512e-01   5.415537e-03
  3.217319e+00    4.315609e-01   5.467781e-03
  3.219530e+00    4.395742e-01   5.518703e-03
  3.221740e+00    4.251771e-01   5.428140e-03
  3.223951e+00    4.246514e-01   5.425262e-03
  3.226161e+00    4.166107e-01   5.373814e-03
  3.228372e+00    4.310578e-01   5.466750e-03
  3.230582e+00    4.192050e-01   5.391188e-03
  3.232792e+00    4.266493e-01   5.439075e-03
  3.235003e+00    4.233428e-01   5.418197e-03
  3.237213e+00    4.331994e-01   5.481016e-03
  3.239424e+00    4.379258e-01   5.510822e-03
  3.241634e+00    4.339907e-01   5.486157e-03
  3.243845e+00    4.300263e-01   5.461097e-03
  3.246055e+00    4.411944e-01   5.531270e-03
  3.248266e+00    4.520617e-01   5.599203e-03
  3.250476e+00    4.198753e-01   5.395900e-03
  3.252687e+00    4.352434e-01   5.493664e-03
  3.254897e+00    4.243479e-01   5.424355e-03
  3.257107e+00    4.271199e-01   5.441730e-03
  3.259318e+00    4.374545e-01   5.506927e-03
  3.261528e+00    4.311994e-01   5.467278e-03
  3.263739e+00    4.314258e-01   5.468147e-03
  3.265949e+00    4.187779e-01   5.387296e-03
  3.268160e+00    4.152944e-01   5.364404e-03
  3.270370e+00    4.212674e-01   5.402341e-03
  3.272581e+00    4.350672e-01   5.489846e-03
  3.274791e+00    4.215187e-01   5.403159e-03
  3.277002e+00    4.206508e-01   5.397025e-03
  3.279212e+00    4.274154e-01   5.439871e-03
  3.281422e+00    4.362082e-01   5.494952e-03
  3.283633e+00    4.363944e-01   5.495442e-03
  3.285843e+00    4.254743e-01   5.425913e-03
  3.288054e+00    4.167137e-01   5.368841e-03
  3.290264e+00    4.119594e-01   5.337795e-03
  3.292475e+00    4.250375e-01   5.421039e-03
  3.294685e+00    4.232431e-01   5.408938e-03
  3.296896e+00    4.153289e-01   5.357403e-03
  3.299106e+00    4.199089e-01   5.386277e-03
  3.301317e+00    4.242074e-01   5.412770e-03
  3.303527e+00    4.162875e-01   5.361536e-03
  3.305737e+00    4.217090e-01   5.395280e-03
  3.307948e+00    4.346605e-01   5.476838e-03
  3.310158e+00    4.198289e-01   5.381745e-03
  3.312369e+00    4.166876e-01   5.360682e-03
  3.314579e+00    4.287473e-01   5.436786e-03
  3.316790e+00    4.283462e-01   5.433543e-03
  3.319000e+00    4.185587e-01   5.369933e-03
  3.321211e+00    4.166817e-01   5.357261e-03
  3.323421e+00    4.182291e-01   5.366001e-03
  3.325632e+00    4.183389e-01   5.365820e-03
  3.327842e+00    4.204008e-01   5.378132e-03
  3.330052e+00    4.151433e-01   5.343325e-03
  3.332263e+00    4.196976e-01   5.371532e-03
  3.334473e+00    4.263489e-01   5.413022e-03
  3.336684e+00    4.155844e-01   5.342999e-03
  3.338894e+00    4.209017e-01   5.376220e-03
  3.341105e+00    4.110627e-01   5.311809e-03
  3.343315e+00    4.256281e-01   5.403959e-03
  3.345526e+00    4.330947e-01   5.450238e-03
  3.347736e+00    4.286295e-01   5.420671e-03
  3.349947e+00    4.258969e-01   5.402396e-03
  3.352157e+00    4.239040e-01   5.388574e-03
  3.354368e+00    4.139345e-01   5.323555e-03
  3.356578e+00    4.246989e-01   5.391272e-03
  3.358788e+00    4.305027e-01   5.426670e-03
  3.360999e+00    4.224123e-01   5.374177e-03
  3.363209e+00    4.244317e-01   5.385979e-03
  3.365420e+00    4.128292e-01   5.310351e-03
  3.367630e+00    4.138087e-01   5.315626e-03
  3.369841e+00    4.120288e-01   5.302771e-03
  3.372051e+00    4.170257e-01   5.332854e-03
  3.374262e+00    4.194392e-01   5.345810e-03
  3.376472e+00    4.220491e-01   5.359964e-03
  3.378683e+00    4.178505e-01   5.330707e-03
  3.380893e+00    4.202169e-01   5.343447e-03
  3.383103e+00    4.206982e-01   5.343764e-03
  3.385314e+00    4.321266e-01   5.413605e-03
  3.387524e+00    4.240119e-01   5.359774e-03
  3.389735e+00    4.282634e-01   5.383910e-03
  3.391945e+00    4.050396e-01   5.232239e-03
  3.394156e+00    4.087671e-01   5.252074e-03
  3.396366e+00    4.029986e-01   5.211507e-03
  3.398577e+00    4.123558e-01   5.268601e-03
  3.400787e+00    4.192702e-01   5.324636e-03
  3.402998e+00    4.176590e-01   5.352819e-03
  3.405208e+00    3.982124e-01   5.247199e-03
  3.407418e+00    3.925563e-01   5.225393e-03
  3.409629e+00    4.044282e-01   5.317847e-03
  3.411839e+00    4.000601e-01   5.300839e-03
  3.414050e+00    4.000929e-01   5.312084e-03
  3.416260e+00    3.904056e-01   5.256996e-03
  3.418471e+00    3.837279e-01   5.221121e-03
  3.420681e+00    3.847558e-01   5.236527e-03
  3.422892e+00    3.894397e-01   5.276278e-03
  3.425102e+00    3.964692e-01   5.331595e-03
  3.427313e+00    3.807385e-01   5.231845e-03
  3.429523e+00    3.807869e-01   5.239203e-03
  3.431733e+00    3.721004e-01   5.185624e-03
  3.433944e+00    3.732101e-01   5.199752e-03
  3.436154e+00    3.887445e-01   5.313145e-03
  3.438365e+00    3.911781e-01   5.335750e-03
  3.440575e+00    3.821307e-01   5.279648e-03
  3.442786e+00    3.795811e-01   5.267594e-03
  3.444996e+00    3.786185e-01   5.266426e-03
  3.447207e+00    3.723036e-01   5.227621e-03
  3.449417e+00    3.564787e-01   5.155245e-03
  3.451628e+00    3.691509e-01   5.275560e-03
  3.453838e+00    3.682221e-01   5.290091e-03
  3.456049e+00    3.717987e-01   5.339778e-03
  3.458259e+00    3.786522e-01   5.411061e-03
  3.460469e+00    3.722431e-01   5.385021e-03
  3.462680e+00    3.656447e-01   5.356119e-03
  3.464890e+00    3.670870e-01   5.384488e-03
  3.467101e+00    3.658726e-01   5.392995e-03
  3.469311e+00    3.749404e-01   5.476084e-03
  3.471522e+00    3.819396e-01   5.543500e-03
  3.473732e+00    3.893053e-01   5.612856e-03
  3.475943e+00    4.022473e-01   5.721495e-03
  3.478153e+00    4.085366e-01   5.781902e-03
  3.480364e+00    4.066192e-01   5.783730e-03
  3.482574e+00    4.119384e-01   5.836901e-03
  3.484784e+00    4.393589e-01   6.043438e-03
  3.486995e+00    4.415227e-01   6.073870e-03
  3.489205e+00    4.485353e-01   6.136995e-03
  3.491416e+00    4.478693e-01   6.147721e-03
  3.493626e+00    4.597706e-01   6.243864e-03
  3.495837e+00    4.772850e-01   6.377063e-03
  3.498047e+00    4.477562e-01   6.191148e-03
  3.500258e+00    4.757834e-01   6.396957e-03
  3.502468e+00    4.659547e-01   6.345174e-03
  3.504679e+00    4.539286e-01   6.277083e-03
  3.506889e+00    4.826927e-01   6.487605e-03
  3.509099e+00    5.009468e-01   6.623989e-03
  3.511310e+00    4.801963e-01   6.499853e-03
  3.513520e+00    4.998210e-01   6.646010e-03
  3.515731e+00    4.892674e-01   6.589928e-03
  3.517941e+00    4.957778e-01   6.648041e-03
  3.520152e+00    5.136509e-01   6.781378e-03
  3.522362e+00    5.311752e-01   6.911060e-03
  3.524573e+00    5.103908e-01   6.788829e-03
  3.526783e+00    5.218240e-01   6.877915e-03
  3.528994e+00    5.212255e-01   6.886285e-03
  3.531204e+00    5.421810e-01   7.036039e-03
  3.533414e+00    5.461593e-01   7.074133e-03
  3.535625e+00    5.394639e-01   7.043140e-03
  3.537835e+00    5.353327e-01   7.028262e-03
  3.540046e+00    5.413423e-01   7.076583e-03
  3.542256e+00    5.411027e-01   7.082598e-03
  3.544467e+00    5.360360e-01   7.056980e-03
  3.546677e+00    5.447628e-01   7.121817e-03
  3.548888e+00    5.401348e-01   7.099021e-03
  3.551098e+00    5.548924e-01   7.202788e-03
  3.553309e+00    5.520492e-01   7.192584e-03
  3.555519e+00    5.379286e-01   7.111334e-03
  3.557729e+00    5.484035e-01   7.192057e-03
  3.559940e+00    5.589435e-01   7.272682e-03
  3.562150e+00    5.431136e-01   7.180721e-03
  3.564361e+00    5.495023e-01   7.236299e-03
  3.566571e+00    5.503510e-01   7.255921e-03
  3.568782e+00    5.513197e-01   7.276646e-03
  3.570992e+00    5.370170e-01   7.195355e-03
  3.573203e+00    5.430700e-01   7.250051e-03
  3.575413e+00    5.570772e-01   7.357009e-03
  3.577624e+00    5.490888e-01   7.318371e-03
  3.579834e+00    5.348221e-01   7.236518e-03
  3.582045e+00    5.293347e-01   7.213250e-03
  3.584255e+00    5.542524e-01   7.395348e-03
  3.586465e+00    5.563527e-01   7.423566e-03
  3.588676e+00    5.366268e-01   7.304979e-03
  3.590886e+00    5.431786e-01   7.363225e-03
  3.593097e+00    5.385489e-01   7.346333e-03
  3.595307e+00    5.190246e-01   7.225639e-03
  3.597518e+00    5.174355e-01   7.228512e-03
  3.599728e+00    5.175563e-01   7.243251e-03
  3.601939e+00    5.202433e-01   7.275862e-03
  3.604149e+00    5.396505e-01   7.424794e-03
  3.606360e+00    5.537946e-01   7.535864e-03
  3.608570e+00    5.531931e-01   7.546169e-03
  3.610780e+00    5.200235e-01   7.327364e-03
  3.612991e+00    5.316211e-01   7.418544e-03
  3.615201e+00    5.398462e-01   7.485592e-03
  3.617412e+00    5.517257e-01   7.574882e-03
  3.619622e+00    5.286869e-01   7.420993e-03
  3.621833e+00    5.218132e-01   7.379184e-03
  3.624043e+00    5.385073e-01   7.505847e-03
  3.626254e+00    5.588012e-01   7.655880e-03
  3.628464e+00    5.452629e-01   7.573701e-03
  3.630675e+00    5.411921e-01   7.559570e-03
  3.632885e+00    5.452238e-01   7.602265e-03
  3.635095e+00    5.331351e-01   7.531931e-03
  3.637306e+00    5.436081e-01   7.620016e-03
  3.639516e+00    5.562810e-01   7.723208e-03
  3.641727e+00    5.352574e-01   7.590435e-03
  3.643937e+00    5.460593e-01   7.681340e-03
  3.646148e+00    5.530493e-01   7.745267e-03
  3.648358e+00    5.357430e-01   7.638007e-03
  3.650569e+00    5.348956e-01   7.646713e-03
  3.652779e+00    5.381217e-01   7.684600e-03
  3.654990e+00    5.406325e-01   7.717479e-03
  3.657200e+00    5.425615e-01   7.746312e-03
  3.659410e+00    5.163093e-01   7.571301e-03
  3.661621e+00    5.256982e-01   7.654865e-03
  3.663831e+00    5.137072e-01   7.581906e-03
  3.666042e+00    5.215096e-01   7.654274e-03
  3.668252e+00    5.296166e-01   7.728756e-03
  3.670463e+00    5.357886e-01   7.788984e-03
  3.672673e+00    5.220037e-01   7.703417e-03
  3.674884e+00    5.350751e-01   7.814700e-03
  3.677094e+00    5.399299e-01   7.865750e-03
  3.679305e+00    5.285695e-01   7.798121e-03
  3.681515e+00    5.328680e-01   7.845368e-03
  3.683726e+00    5.448437e-01   7.949084e-03
  3.685936e+00    5.315725e-01   7.867441e-03
  3.688146e+00    5.249720e-01   7.834186e-03
  3.690357e+00    5.058909e-01   7.706065e-03
  3.692567e+00    5.304064e-01   7.906719e-03
  3.694778e+00    5.218906e-01   7.859040e-03
  3.696988e+00    5.264863e-01   7.909534e-03
  3.699199e+00    5.244631e-01   7.910545e-03
  3.701409e+00    5.219968e-01   7.908220e-03
  3.703620e+00    5.286672e-01   7.975002e-03
  3.705830e+00    5.093930e-01   7.844434e-03
  3.708041e+00    5.093261e-01   7.860253e-03
  3.710251e+00    5.179814e-01   7.943362e-03
  3.712461e+00    5.255292e-01   8.017856e-03
  3.714672e+00    5.204557e-01   7.995748e-03
  3.716882e+00    5.130964e-01   7.955658e-03
  3.719093e+00    4.997711e-01   7.868401e-03
  3.721303e+00    5.066527e-01   7.939145e-03
  3.723514e+00    5.054858e-01   7.947069e-03
  3.725724e+00    4.914321e-01   7.852493e-03
  3.727935e+00    5.162048e-01   8.065378e-03
  3.730145e+00    5.251054e-01   8.152113e-03
  3.732356e+00    5.292526e-01   8.201998e-03
  3.734566e+00    5.226018e-01   8.167948e-03
  3.736776e+00    5.243046e-01   8.199209e-03
  3.738987e+00    5.225354e-01   8.203181e-03
  3.741197e+00    5.239444e-01   8.232486e-03
  3.743408e+00    4.930290e-01   8.003582e-03
  3.745618e+00    5.179722e-01   8.221899e-03
  3.747829e+00    5.290743e-01   8.328015e-03
  3.750039e+00    5.192331e-01   8.268694e-03
  3.752250e+00    5.036821e-01   8.162270e-03
  3.754460e+00    4.932160e-01   8.095234e-03
  3.756671e+00    5.065225e-01   8.222464e-03
  3.758881e+00    5.329742e-01   8.453494e-03
  3.761091e+00    5.159876e-01   8.337004e-03
  3.763302e+00    5.180057e-01   8.372522e-03
  3.765512e+00    5.104902e-01   8.330894e-03
  3.767723e+00    5.034498e-01   8.292534e-03
  3.769933e+00    4.984112e-01   8.270072e-03
  3.772144e+00    5.177917e-01   8.449150e-03
  3.774354e+00    4.895101e-01   8.234775e-03
  3.776565e+00    4.812375e-01   8.184144e-03
  3.778775e+00    5.197440e-01   8.525582e-03
  3.780986e+00    5.133821e-01   8.493722e-03
  3.783196e+00    5.124676e-01   8.506631e-03
  3.785407e+00    4.823686e-01   8.273001e-03
  3.787617e+00    5.148643e-01   8.568084e-03
  3.789827e+00    5.420613e-01   8.812821e-03
  3.792038e+00    5.211160e-01   8.662172e-03
  3.794248e+00    5.064642e-01   8.560742e-03
  3.796459e+00    4.981791e-01   8.511768e-03
  3.798669e+00    5.086403e-01   8.622139e-03
  3.800880e+00    5.024282e-01   8.590923e-03
  3.803090e+00    4.954386e-01   8.552606e-03
  3.805301e+00    4.874370e-01   8.505083e-03
  3.807511e+00    4.942751e-01   8.586392e-03
  3.809722e+00    5.032970e-01   8.686703e-03
  3.811932e+00    5.111282e-01   8.776503e-03
  3.814142e+00    5.246799e-01   8.915558e-03
  3.816353e+00    5.221538e-01   8.917434e-03
  3.818563e+00    5.002301e-01   8.751363e-03
  3.820774e+00    5.306198e-01   9.037119e-03
  3.822984e+00    5.321386e-01   9.074275e-03
  3.825195e+00    5.129414e-01   8.933180e-03
  3.827405e+00    5.009946e-01   8.852452e-03
  3.829616e+00    5.056367e-01   8.917658e-03
  3.831826e+00    5.085305e-01   8.967591e-03
  3.834037e+00    4.733764e-01   8.675968e-03
  3.836247e+00    4.956219e-01   8.902129e-03
  3.838457e+00    5.069922e-01   9.028961e-03
  3.840668e+00    5.336717e-01   9.289623e-03
  3.842878e+00    4.977894e-01   8.997471e-03
  3.845089e+00    4.990524e-01   9.034481e-03
  3.847299e+00    5.158122e-01   9.211282e-03
  3.849510e+00    4.981509e-01   9.078164e-03
  3.851720e+00    4.791082e-01   8.923993e-03
  3.853931e+00    5.089659e-01   9.217138e-03
  3.856141e+00    4.877562e-01   9.041926e-03
  3.858352e+00    5.035917e-01   9.206960e-03
  3.860562e+00    4.928204e-01   9.127231e-03
  3.862772e+00    4.807676e-01   9.034291e-03
  3.864983e+00    5.021587e-01   9.252829e-03
  3.867193e+00    4.918781e-01   9.177450e-03
  3.869404e+00    4.916833e-01   9.195399e-03
  3.871614e+00    4.953657e-01   9.249782e-03
  3.873825e+00    4.693855e-01   9.023772e-03
  3.876035e+00    4.887476e-01   9.228519e-03
  3.878246e+00    4.817661e-01   9.187813e-03
  3.880456e+00    4.703978e-01   9.107101e-03
  3.882667e+00    5.067701e-01   9.482417e-03
  3.884877e+00    4.973152e-01   9.423492e-03
  3.887087e+00    4.991153e-01   9.470643e-03
  3.889298e+00    4.989316e-01   9.499549e-03
  3.891508e+00    4.929750e-01   9.473233e-03
  3.893719e+00    4.936453e-01   9.510785e-03
  3.895929e+00    4.750474e-01   9.360861e-03
  3.898140e+00    4.931047e-01   9.568807e-03
  3.900350e+00    4.939798e-01   9.609571e-03
  3.902561e+00    5.198867e-01   9.891703e-03
  3.904771e+00    4.942069e-01   9.677249e-03
  3.906982e+00    5.126546e-01   9.890107e-03
  3.909192e+00    4.962634e-01   9.764482e-03
  3.911403e+00    5.122439e-01   9.955288e-03
  3.913613e+00    4.998139e-01   9.868340e-03
  3.915823e+00    4.881138e-01   9.787036e-03
  3.918034e+00    4.775793e-01   9.715653e-03
  3.920244e+00    4.905181e-01   9.882188e-03
  3.922455e+00    5.017505e-01   1.003130e-02
  3.924665e+00    5.010903e-01   1.006164e-02
  3.926876e+00    4.614058e-01   9.691041e-03
  3.929086e+00    5.041469e-01   1.016795e-02
  3.931297e+00    4.919768e-01   1.007942e-02
  3.933507e+00    4.733769e-01   9.915579e-03
  3.935718e+00    4.980820e-01   1.020012e-02
  3.937928e+00    4.666409e-01   9.901783e-03
  3.940138e+00    4.950922e-01   1.022860e-02
  3.942349e+00    5.131105e-01   1.044379e-02
  3.944559e+00    4.922718e-01   1.025974e-02
  3.946770e+00    5.068861e-01   1.044163e-02
  3.948980e+00    4.779916e-01   1.017014e-02
  3.951191e+00    4.630725e-01   1.004035e-02
  3.953401e+00    4.737687e-01   1.018641e-02
  3.955612e+00    4.961840e-01   1.045667e-02
  3.957822e+00    4.966047e-01   1.049312e-02
  3.960033e+00    4.838048e-01   1.038956e-02
  3.962243e+00    4.754065e-01   1.033146e-02
  3.964453e+00    4.769389e-01   1.038094e-02
  3.966664e+00    5.027094e-01   1.069161e-02
  3.968874e+00    5.067658e-01   1.076379e-02
  3.971085e+00    4.968939e-01   1.068047e-02
  3.973295e+00    5.200557e-01   1.094891e-02
  3.975506e+00    5.050578e-01   1.081188e-02
  3.977716e+00    5.078521e-01   1.086425e-02
  3.979927e+00    4.784478e-01   1.056699e-02
  3.982137e+00    4.801954e-01   1.060844e-02
  3.984348e+00    4.960716e-01   1.080523e-02
  3.986558e+00    4.933477e-01   1.079799e-02
  3.988768e+00    4.814399e-01   1.068981e-02
  3.990979e+00    4.889262e-01   1.079547e-02
  3.993189e+00    5.006911e-01   1.094798e-02
  3.995400e+00    4.798667e-01   1.074132e-02
  3.997610e+00    4.869963e-01   1.085069e-02
  3.999821e+00    4.921134e-01   1.094532e-02
  4.002031e+00    5.049651e-01   1.112658e-02
  4.004242e+00    5.298619e-01   1.143775e-02
  4.006452e+00    4.960354e-01   1.110654e-02
  4.008663e+00    4.729583e-01   1.088458e-02
  4.010873e+00    4.728466e-01   1.092279e-02
  4.013084e+00    5.267296e-01   1.157097e-02
  4.015294e+00    4.636976e-01   1.089684e-02
  4.017504e+00    4.598955e-01   1.089270e-02
  4.019715e+00    4.470952e-01   1.078091e-02
  4.021925e+00    4.675973e-01   1.106763e-02
  4.024136e+00    5.020267e-01   1.151224e-02
  4.026346e+00    5.029836e-01   1.156828e-02
  4.028557e+00    4.656464e-01   1.117417e-02
  4.030767e+00    4.422308e-01   1.093314e-02
  4.032978e+00    4.921943e-01   1.158097e-02
  4.035188e+00    4.825734e-01   1.151329e-02
  4.037399e+00    4.917234e-01   1.167000e-02
  4.039609e+00    4.654905e-01   1.140129e-02
  4.041819e+00    4.480327e-01   1.123233e-02
  4.044030e+00    4.737579e-01   1.159972e-02
  4.046240e+00    4.475148e-01   1.132193e-02
  4.048451e+00    4.406763e-01   1.128362e-02
  4.050661e+00    4.940616e-01   1.199960e-02
  4.052872e+00    4.930981e-01   1.204122e-02
  4.055082e+00    5.395654e-01   1.265252e-02
  4.057293e+00    4.709522e-01   1.187370e-02
  4.059503e+00    4.377396e-01   1.149951e-02
  4.061714e+00    4.705203e-01   1.197797e-02
  4.063924e+00    4.757116e-01   1.210026e-02
  4.066134e+00    5.293027e-01   1.282378e-02
  4.068345e+00    5.037836e-01   1.257118e-02
  4.070555e+00    4.973118e-01   1.255038e-02
  4.072766e+00    4.870476e-01   1.248135e-02
  4.074976e+00    4.669332e-01   1.228189e-02
  4.077187e+00    4.795747e-01   1.250889e-02
  4.079397e+00    4.796535e-01   1.257363e-02
  4.081608e+00    4.916475e-01   1.279628e-02
  4.083818e+00    4.738699e-01   1.262799e-02
  4.086029e+00    4.827017e-01   1.281244e-02
  4.088239e+00    5.033348e-01   1.315383e-02
  4.090449e+00    5.111847e-01   1.332792e-02
  4.092660e+00    4.916332e-01   1.314244e-02
  4.094870e+00    4.449613e-01   1.257252e-02
  4.097081e+00    4.945821e-01   1.332780e-02
  4.099291e+00    4.653397e-01   1.298118e-02
  4.101502e+00    4.912163e-01   1.338697e-02
  4.103712e+00    5.282568e-01   1.393425e-02
  4.105923e+00    4.841603e-01   1.339170e-02
  4.108133e+00    4.507508e-01   1.297119e-02
  4.110344e+00    4.690434e-01   1.328242e-02
  4.112554e+00    5.175105e-01   1.400682e-02
  4.114764e+00    5.429932e-01   1.440521e-02
  4.116975e+00    4.928253e-01   1.377781e-02
  4.119185e+00    4.922321e-01   1.382549e-02
  4.121396e+00    5.100384e-01   1.413106e-02
  4.123606e+00    4.942267e-01   1.396782e-02
  4.125817e+00    4.979626e-01   1.407901e-02
  4.128027e+00    5.063673e-01   1.425717e-02
  4.130238e+00    4.947281e-01   1.415287e-02
  4.132448e+00    4.532122e-01   1.360489e-02
  4.134659e+00    4.836258e-01   1.411414e-02
  4.136869e+00    5.133759e-01   1.460687e-02
  4.139080e+00    4.693383e-01   1.402924e-02
  4.141290e+00    5.257816e-01   1.491465e-02
  4.143500e+00    5.139380e-01   1.481358e-02
  4.145711e+00    5.352336e-01   1.518823e-02
  4.147921e+00    4.709116e-01   1.431166e-02
  4.150132e+00    5.251142e-01   1.518492e-02
  4.152342e+00    5.376551e-01   1.543970e-02
  4.154553e+00    4.910754e-01   1.482590e-02
  4.156763e+00    5.011475e-01   1.505138e-02
  4.158974e+00    4.539471e-01   1.439687e-02
  4.161184e+00    5.022506e-01   1.521880e-02
  4.163395e+00    5.497865e-01   1.600363e-02
  4.165605e+00    4.930803e-01   1.523521e-02
  4.167815e+00    4.939868e-01   1.532838e-02
  4.170026e+00    5.577155e-01   1.637303e-02
  4.172236e+00    5.357891e-01   1.613482e-02
  4.174447e+00    4.906396e-01   1.552396e-02
  4.176657e+00    5.238099e-01   1.612784e-02
  4.178868e+00    5.151953e-01   1.608523e-02
  4.181078e+00    5.044245e-01   1.600570e-02
  4.183289e+00    4.952796e-01   1.595100e-02
  4.185499e+00    5.086444e-01   1.626001e-02
  4.187710e+00    4.652036e-01   1.564137e-02
  4.189920e+00    4.451437e-01   1.539259e-02
  4.192130e+00    4.780485e-01   1.604864e-02
  4.194341e+00    4.363510e-01   1.542686e-02
  4.196551e+00    4.331172e-01   1.546683e-02
  4.198762e+00    4.327652e-01   1.555885e-02
  4.200972e+00    4.085325e-01   1.521485e-02
  4.203183e+00    4.135436e-01   1.540852e-02
  4.205393e+00    5.445281e-01   1.779888e-02
  4.207604e+00    5.157850e-01   1.744109e-02
  4.209814e+00    5.229120e-01   1.768151e-02
  4.212025e+00    4.974227e-01   1.736750e-02
  4.214235e+00    5.111125e-01   1.772973e-02
  4.216445e+00    4.673070e-01   1.707549e-02
  4.218656e+00    4.276215e-01   1.645667e-02
  4.220866e+00    5.328948e-01   1.850722e-02
  4.223077e+00    4.533336e-01   1.720099e-02
  4.225287e+00    4.504272e-01   1.728057e-02
  4.227498e+00    4.799496e-01   1.797784e-02
  4.229708e+00    4.967424e-01   1.843832e-02
  4.231919e+00    4.587201e-01   1.786560e-02
  4.234129e+00    4.902512e-01   1.862358e-02
  4.236340e+00    5.225536e-01   1.939260e-02
  4.238550e+00    4.351991e-01   1.785344e-02
  4.240761e+00    4.604144e-01   1.852581e-02
  4.242971e+00    5.063874e-01   1.960653e-02
  4.245181e+00    4.638649e-01   1.894154e-02
  4.247392e+00    4.965692e-01   1.978113e-02
  4.249602e+00    5.140538e-01   2.032592e-02
  4.251813e+00    5.413237e-01   2.106432e-02
  4.254023e+00    4.542246e-01   1.948953e-02
  4.256234e+00    5.207415e-01   2.109070e-02
  4.258444e+00    4.473127e-01   1.975217e-02
  4.260655e+00    4.986537e-01   2.108401e-02
  4.262865e+00    4.138696e-01   1.942576e-02
  4.265076e+00    5.004256e-01   2.160388e-02
  4.267286e+00    4.933584e-01   2.170512e-02
  4.269496e+00    5.655757e-01   2.352284e-02
  4.271707e+00    5.392631e-01   2.325330e-02
  4.273917e+00    4.721102e-01   2.203863e-02
  4.276128e+00    4.613899e-01   2.207636e-02
  4.278338e+00    4.552776e-01   2.222238e-02
  4.280549e+00    4.271229e-01   2.183336e-02
  4.282759e+00    4.162806e-01   2.186389e-02
  4.284970e+00    4.970970e-01   2.424533e-02
  4.287180e+00    5.624909e-01   2.610051e-02
  4.289391e+00    4.745040e-01   2.415230e-02
  4.291601e+00    4.230071e-01   2.298632e-02
  4.293811e+00    3.947483e-01   2.237823e-02
  4.296022e+00    5.452061e-01   2.651111e-02
  4.298232e+00    4.742973e-01   2.493410e-02
  4.300443e+00    5.127892e-01   2.614046e-02
  4.302653e+00    4.365534e-01   2.432750e-02
  4.304864e+00    5.065590e-01   2.643292e-02
  4.307074e+00    4.429173e-01   2.493918e-02
  4.309285e+00    4.300073e-01   2.479585e-02
  4.311495e+00    4.700449e-01   2.616760e-02
  4.313706e+00    4.158300e-01   2.484255e-02
  4.315916e+00    4.415978e-01   2.585319e-02
  4.318126e+00    4.551465e-01   2.650676e-02
  4.320337e+00    4.530171e-01   2.671159e-02
  4.322547e+00    4.729658e-01   2.758345e-02
  4.324758e+00    4.195101e-01   2.624762e-02
  4.326968e+00    5.158955e-01   2.943503e-02
  4.329179e+00    4.806408e-01   2.872458e-02
  4.331389e+00    4.513633e-01   2.815659e-02
  4.333600e+00    5.098450e-01   3.028285e-02
  4.335810e+00    4.580590e-01   2.904554e-02
  4.338021e+00    5.315084e-01   3.168749e-02
  4.340231e+00    4.249628e-01   2.869093e-02
  4.342442e+00    3.855206e-01   2.769232e-02
  4.344652e+00    3.317854e-01   2.603920e-02
  4.346862e+00    4.531629e-01   3.085721e-02
  4.349073e+00    4.650562e-01   3.171498e-02
  4.351283e+00    3.785741e-01   2.904194e-02
  4.353494e+00    4.665140e-01   3.273750e-02
  4.355704e+00    4.885182e-01   3.403942e-02
  4.357915e+00    3.872620e-01   3.081233e-02
  4.360125e+00    4.315867e-01   3.308146e-02
  4.362336e+00    4.992249e-01   3.622957e-02
  4.364546e+00    4.612439e-01   3.545848e-02
  4.366757e+00    3.980694e-01   3.359588e-02
  4.368967e+00    3.095118e-01   3.021571e-02
  4.371177e+00    3.770138e-01   3.405546e-02
  4.373388e+00    4.502333e-01   3.804854e-02
  4.375598e+00    4.698997e-01   3.975556e-02
  4.377809e+00    4.806994e-01   4.123016e-02
  4.380019e+00    4.259252e-01   3.978612e-02
  4.382230e+00    3.998003e-01   3.961973e-02
  4.384440e+00    3.673784e-01   3.907531e-02
  4.386651e+00    4.434688e-01   4.425364e-02
  4.388861e+00    3.227439e-01   3.901818e-02
  4.391072e+00    4.025503e-01   4.510828e-02
  4.393282e+00    5.542899e-01   5.497783e-02
  4.395492e+00    4.444711e-01   5.127830e-02
  4.397703e+00    2.944346e-01   4.364405e-02
  4.399913e+00    5.729118e-01   6.396002e-02
  4.402124e+00    3.299460e-01   5.128632e-02
  4.404334e+00    4.125033e-01   6.095941e-02
  4.406545e+00    2.607314e-01   5.207681e-02
  4.408755e+00    3.334217e-01   6.386359e-02
  4.410966e+00    3.666769e-01   7.412188e-02
  4.413176e+00    3.315953e-01   7.979442e-02
  4.415387e+00   -6.372584e-01            nan
  4.417597e+00   -1.848834e+00            nan
  4.419807e+00    1.431295e-01   1.358686e-01
