# == pyFAI calibration ==
# Distance Sample to Detector: 0.216 m
# PONI: 1.166e-01, 1.308e-01 m
# Rotations: 0.000000 0.000000 0.000000 rad
# 
# == Fit2d calibration ==
# Distance Sample-beamCenter: 216.000 mm
# Center: x=1744.293, y=1555.000 pix
# Tilt: 0.000 deg  TiltPlanRot: 0.000 deg
# 
# Detector Eiger 9M	 PixelSize= 7.500e-05, 7.500e-05 m
#    Detector has a mask: True 
#    Detector has a dark current: False 
#    detector has a flat field: False 
# 
# Wavelength: 9.8e-11 m
# Mask applied: from detector
# Dark current applied: False
# Flat field applied: False
# Polarization factor: None
# Normalization factor: 1.0
# 
# Headers of the input frame:
# {
# "_array_data.header_convention": "SLS_1.0",
# "_array_data.header_contents": "# Detector: Dectris Eiger 9M, S/N E-18-0102\r\n# Pixel_size 75e-6 m x 75e-6 m\r\n# Silicon sensor, thickness 0.000450 m\r\n# Exposure_time 0.024997 s\r\n# Exposure_period 0.025000 s\r\n# Count_cutoff 62318 counts\r\n# Wavelength 0.980106 A\r\n# Detector_distance 0.215992 m\r\n# Beam_xy (1555, 1744) pixels\r\n# Start_angle 0.000000 deg.\r\n# Angle_increment 0.000000 deg.",
# "Content-Type": "application/octet-stream;",
# "conversions": "x-CBF_BYTE_OFFSET",
# "Content-Transfer-Encoding": "BINARY",
# "X-Binary-Size": "10166600",
# "X-Binary-ID": "1",
# "X-Binary-Element-Type": "signed 32-bit integer",
# "X-Binary-Element-Byte-Order": "LITTLE_ENDIAN",
# "Content-MD5": "YoAm1uO4X7bs4MugvVg0Gg==",
# "X-Binary-Number-of-Elements": "10166590",
# "X-Binary-Size-Fastest-Dimension": "3110",
# "X-Binary-Size-Second-Dimension": "3269",
# "X-Binary-Size-Padding": "4095"
# }
# --> H:/Proxima2a_2019-04-05/RAW_DATA/C5_gel17_position5/C5_mesh_1_data.cbf/C5_mesh_1_data.cbf000044.dat
#        q_A^-1              I           sigma 
  1.105228e-03    1.414766e+00   6.436197e-01
  3.315685e-03    1.765011e+00   4.370379e-01
  5.526141e-03    1.747244e+00   3.362397e-01
  7.736597e-03    1.206053e+00   2.359953e-01
  9.947054e-03    1.163999e+00   2.043868e-01
  1.215751e-02    1.651612e+00   2.201520e-01
  1.436797e-02    1.547095e+00   1.959902e-01
  1.657842e-02    1.365097e+00   1.713666e-01
  1.878888e-02    1.161448e+00   1.484784e-01
  2.099934e-02    1.166059e+00   1.407545e-01
  2.320979e-02    1.322102e+00   1.425494e-01
  2.542025e-02    1.496875e+00   1.449447e-01
  2.763070e-02    1.422858e+00   1.355412e-01
  2.984116e-02    1.385057e+00   1.286798e-01
  3.205162e-02    1.446805e+00   1.269087e-01
  3.426207e-02    1.315784e+00   1.170489e-01
  3.647253e-02    1.444598e+00   1.188675e-01
  3.868299e-02    1.585252e+00   1.209191e-01
  4.089344e-02    1.528943e+00   1.154985e-01
  4.310390e-02    1.432425e+00   1.088829e-01
  4.531436e-02    1.463675e+00   1.073466e-01
  4.752481e-02    1.518540e+00   1.067658e-01
  4.973527e-02    1.626180e+00   1.080031e-01
  5.194572e-02    1.504677e+00   1.016540e-01
  5.415618e-02    1.511526e+00   9.978071e-02
  5.636664e-02    1.428196e+00   9.507342e-02
  5.857709e-02    1.486415e+00   9.514470e-02
  6.078755e-02    1.486356e+00   9.339394e-02
  6.299801e-02    1.385981e+00   8.858805e-02
  6.520846e-02    1.350152e+00   8.594133e-02
  6.741892e-02    1.306391e+00   8.313548e-02
  6.962938e-02    1.471878e+00   8.683646e-02
  7.183983e-02    1.508393e+00   8.654246e-02
  7.405029e-02    1.458664e+00   8.382217e-02
  7.626074e-02    1.373099e+00   8.013853e-02
  7.847120e-02    1.433746e+00   8.072536e-02
  8.068166e-02    1.484038e+00   8.099550e-02
  8.289211e-02    1.438385e+00   7.866912e-02
  8.510257e-02    1.470476e+00   7.850158e-02
  8.731303e-02    1.486792e+00   7.792732e-02
  8.952348e-02    1.534866e+00   7.819570e-02
  9.173394e-02    1.456840e+00   7.525577e-02
  9.394439e-02    1.458170e+00   7.439665e-02
  9.615485e-02    1.530088e+00   7.532652e-02
  9.836531e-02    1.451888e+00   7.254527e-02
  1.005758e-01    1.401027e+00   7.047623e-02
  1.027862e-01    1.465245e+00   7.129237e-02
  1.049967e-01    1.504816e+00   7.148281e-02
  1.072071e-01    1.542450e+00   7.162033e-02
  1.094176e-01    1.526005e+00   7.051317e-02
  1.116280e-01    1.541399e+00   7.016123e-02
  1.138385e-01    1.569814e+00   7.011282e-02
  1.160490e-01    1.550355e+00   6.900930e-02
  1.182594e-01    1.514474e+00   6.756414e-02
  1.204699e-01    1.487980e+00   6.635278e-02
  1.226803e-01    1.607089e+00   6.833046e-02
  1.248908e-01    1.608686e+00   6.775592e-02
  1.271012e-01    1.574371e+00   6.644262e-02
  1.293117e-01    1.615641e+00   6.672926e-02
  1.315222e-01    1.531249e+00   6.441338e-02
  1.337326e-01    1.532250e+00   6.389846e-02
  1.359431e-01    1.559859e+00   6.450931e-02
  1.381535e-01    1.508249e+00   6.428463e-02
  1.403640e-01    1.565030e+00   6.576625e-02
  1.425744e-01    1.599587e+00   6.659456e-02
  1.447849e-01    1.600741e+00   6.663395e-02
  1.469953e-01    1.622659e+00   6.704655e-02
  1.492058e-01    1.654866e+00   6.762999e-02
  1.514163e-01    1.647726e+00   6.737187e-02
  1.536267e-01    1.572959e+00   6.569709e-02
  1.558372e-01    1.609141e+00   6.630167e-02
  1.580476e-01    1.582137e+00   6.558349e-02
  1.602581e-01    1.616212e+00   6.611758e-02
  1.624685e-01    1.710674e+00   6.783611e-02
  1.646790e-01    1.655170e+00   6.653494e-02
  1.668895e-01    1.726313e+00   6.775357e-02
  1.690999e-01    1.713906e+00   6.730692e-02
  1.713104e-01    1.744707e+00   6.769829e-02
  1.735208e-01    1.755601e+00   6.769812e-02
  1.757313e-01    1.867599e+00   6.960531e-02
  1.779417e-01    1.783039e+00   6.778949e-02
  1.801522e-01    1.860438e+00   6.902462e-02
  1.823626e-01    1.881689e+00   6.918663e-02
  1.845731e-01    1.941849e+00   7.005625e-02
  1.867836e-01    1.882032e+00   6.873604e-02
  1.889940e-01    1.932767e+00   6.942874e-02
  1.912045e-01    2.046285e+00   7.119998e-02
  1.934149e-01    2.046489e+00   7.096525e-02
  1.956254e-01    2.016816e+00   7.021651e-02
  1.978358e-01    2.080623e+00   7.107420e-02
  2.000463e-01    2.071446e+00   7.068229e-02
  2.022568e-01    1.975909e+00   6.880648e-02
  2.044672e-01    2.086956e+00   7.047130e-02
  2.066777e-01    1.939610e+00   6.771252e-02
  2.088881e-01    1.981560e+00   6.821690e-02
  2.110986e-01    2.071524e+00   6.950909e-02
  2.133090e-01    1.974488e+00   6.764098e-02
  2.155195e-01    2.001337e+00   6.787340e-02
  2.177300e-01    2.029896e+00   6.781897e-02
  2.199404e-01    1.980161e+00   6.521799e-02
  2.221509e-01    1.964701e+00   6.389619e-02
  2.243613e-01    1.953585e+00   6.290743e-02
  2.265718e-01    2.008912e+00   6.308888e-02
  2.287822e-01    2.019984e+00   6.263633e-02
  2.309927e-01    2.137162e+00   6.384055e-02
  2.332031e-01    2.210381e+00   6.436924e-02
  2.354136e-01    2.226929e+00   6.408609e-02
  2.376241e-01    2.229854e+00   6.363042e-02
  2.398345e-01    2.153147e+00   6.206365e-02
  2.420450e-01    2.193000e+00   6.218774e-02
  2.442554e-01    2.235790e+00   6.235895e-02
  2.464659e-01    2.186999e+00   6.126070e-02
  2.486763e-01    2.169680e+00   6.061657e-02
  2.508868e-01    2.183101e+00   6.042019e-02
  2.530973e-01    2.087524e+00   5.871649e-02
  2.553077e-01    2.176004e+00   5.958427e-02
  2.575182e-01    2.121450e+00   5.848458e-02
  2.597286e-01    2.076249e+00   5.752179e-02
  2.619391e-01    2.093059e+00   5.742171e-02
  2.641495e-01    2.054225e+00   5.657165e-02
  2.663600e-01    2.082472e+00   5.664605e-02
  2.685704e-01    2.072223e+00   5.620019e-02
  2.707809e-01    2.005225e+00   5.499075e-02
  2.729914e-01    2.091656e+00   5.587068e-02
  2.752018e-01    2.038848e+00   5.487381e-02
  2.774123e-01    2.041319e+00   5.462657e-02
  2.796227e-01    2.086748e+00   5.495787e-02
  2.818332e-01    2.012098e+00   5.369670e-02
  2.840436e-01    2.016648e+00   5.349679e-02
  2.862541e-01    1.988502e+00   5.286680e-02
  2.884646e-01    1.984944e+00   5.256881e-02
  2.906750e-01    1.978904e+00   5.223988e-02
  2.928855e-01    2.015374e+00   5.247479e-02
  2.950959e-01    1.970420e+00   5.164791e-02
  2.973064e-01    1.981994e+00   5.156656e-02
  2.995168e-01    1.930757e+00   5.066517e-02
  3.017273e-01    1.945220e+00   5.063036e-02
  3.039377e-01    1.979125e+00   5.084607e-02
  3.061482e-01    2.025370e+00   5.121418e-02
  3.083587e-01    1.986927e+00   5.050623e-02
  3.105691e-01    1.931272e+00   4.958118e-02
  3.127796e-01    1.871095e+00   4.859744e-02
  3.149900e-01    1.883695e+00   4.855761e-02
  3.172005e-01    1.891911e+00   4.846441e-02
  3.194109e-01    1.887186e+00   4.820404e-02
  3.216214e-01    1.862117e+00   4.768742e-02
  3.238319e-01    1.894236e+00   4.790637e-02
  3.260423e-01    1.918358e+00   4.801842e-02
  3.282528e-01    1.880644e+00   4.735480e-02
  3.304632e-01    1.860152e+00   4.691363e-02
  3.326737e-01    1.902010e+00   4.725344e-02
  3.348841e-01    1.884639e+00   4.685476e-02
  3.370946e-01    1.891229e+00   4.676002e-02
  3.393050e-01    1.850606e+00   4.607989e-02
  3.415155e-01    1.865562e+00   4.609175e-02
  3.437260e-01    1.828460e+00   4.546201e-02
  3.459364e-01    1.807189e+00   4.502958e-02
  3.481469e-01    1.856960e+00   4.547884e-02
  3.503573e-01    1.822448e+00   4.489010e-02
  3.525678e-01    1.840923e+00   4.495629e-02
  3.547782e-01    1.821929e+00   4.456212e-02
  3.569887e-01    1.824332e+00   4.443350e-02
  3.591992e-01    1.834567e+00   4.440030e-02
  3.614096e-01    1.806830e+00   4.391062e-02
  3.636201e-01    1.757165e+00   4.315072e-02
  3.658305e-01    1.834350e+00   4.393788e-02
  3.680410e-01    1.797034e+00   4.333907e-02
  3.702514e-01    1.831890e+00   4.361023e-02
  3.724619e-01    1.833909e+00   4.348567e-02
  3.746724e-01    1.811663e+00   4.307690e-02
  3.768828e-01    1.794417e+00   4.272712e-02
  3.790933e-01    1.811726e+00   4.279280e-02
  3.813037e-01    1.828271e+00   4.284709e-02
  3.835142e-01    1.816497e+00   4.256866e-02
  3.857246e-01    1.794384e+00   4.217182e-02
  3.879351e-01    1.784370e+00   4.191786e-02
  3.901455e-01    1.799228e+00   4.195802e-02
  3.923560e-01    1.781492e+00   4.161801e-02
  3.945665e-01    1.760370e+00   4.123936e-02
  3.967769e-01    1.758955e+00   4.109368e-02
  3.989874e-01    1.815437e+00   4.161788e-02
  4.011978e-01    1.841805e+00   4.179013e-02
  4.034083e-01    1.860806e+00   4.187620e-02
  4.056187e-01    1.846270e+00   4.158382e-02
  4.078292e-01    1.809889e+00   4.104747e-02
  4.100397e-01    1.866372e+00   4.155577e-02
  4.122501e-01    1.844283e+00   4.118558e-02
  4.144606e-01    1.758566e+00   4.009781e-02
  4.166710e-01    1.828507e+00   4.076583e-02
  4.188815e-01    1.806727e+00   4.040262e-02
  4.210919e-01    1.863504e+00   4.091229e-02
  4.233024e-01    1.798531e+00   4.007452e-02
  4.255128e-01    1.813856e+00   4.012856e-02
  4.277233e-01    1.809776e+00   3.996823e-02
  4.299338e-01    1.821603e+00   3.998325e-02
  4.321442e-01    1.819355e+00   3.984423e-02
  4.343547e-01    1.759389e+00   3.907131e-02
  4.365651e-01    1.793608e+00   3.933733e-02
  4.387756e-01    1.769996e+00   3.896813e-02
  4.409860e-01    1.792779e+00   3.910946e-02
  4.431965e-01    1.833645e+00   3.944334e-02
  4.454070e-01    1.735487e+00   3.826634e-02
  4.476174e-01    1.740016e+00   3.821101e-02
  4.498279e-01    1.710439e+00   3.778179e-02
  4.520383e-01    1.726504e+00   3.785463e-02
  4.542488e-01    1.758288e+00   3.809847e-02
  4.564592e-01    1.761504e+00   3.803102e-02
  4.586697e-01    1.742710e+00   3.772718e-02
  4.608801e-01    1.762758e+00   3.784192e-02
  4.630906e-01    1.789694e+00   3.802899e-02
  4.653011e-01    1.795030e+00   3.798550e-02
  4.675115e-01    1.720716e+00   3.709294e-02
  4.697220e-01    1.731143e+00   3.710774e-02
  4.719324e-01    1.725402e+00   3.695033e-02
  4.741429e-01    1.760319e+00   3.722616e-02
  4.763533e-01    1.748591e+00   3.700685e-02
  4.785638e-01    1.685825e+00   3.624273e-02
  4.807743e-01    1.670820e+00   3.598930e-02
  4.829847e-01    1.701712e+00   3.622873e-02
  4.851952e-01    1.692825e+00   3.604258e-02
  4.874056e-01    1.686690e+00   3.588647e-02
  4.896161e-01    1.758865e+00   3.655536e-02
  4.918265e-01    1.745470e+00   3.632549e-02
  4.940370e-01    1.704207e+00   3.580494e-02
  4.962475e-01    1.693316e+00   3.560219e-02
  4.984579e-01    1.721379e+00   3.580754e-02
  5.006684e-01    1.693668e+00   3.543153e-02
  5.028788e-01    1.759114e+00   3.602212e-02
  5.050893e-01    1.762603e+00   3.597013e-02
  5.072997e-01    1.720761e+00   3.545481e-02
  5.095102e-01    1.717902e+00   3.534048e-02
  5.117206e-01    1.674155e+00   3.480464e-02
  5.139311e-01    1.668731e+00   3.466598e-02
  5.161416e-01    1.662005e+00   3.451429e-02
  5.183520e-01    1.662015e+00   3.443237e-02
  5.205625e-01    1.657461e+00   3.430462e-02
  5.227729e-01    1.685623e+00   3.451414e-02
  5.249834e-01    1.653950e+00   3.410897e-02
  5.271938e-01    1.684647e+00   3.434371e-02
  5.294043e-01    1.775276e+00   3.517404e-02
  5.316148e-01    1.784964e+00   3.518911e-02
  5.338252e-01    1.815784e+00   3.541051e-02
  5.360357e-01    1.759035e+00   3.477342e-02
  5.382461e-01    1.743537e+00   3.454163e-02
  5.404566e-01    1.804626e+00   3.506158e-02
  5.426670e-01    1.768308e+00   3.462877e-02
  5.448775e-01    1.783512e+00   3.469963e-02
  5.470879e-01    1.776873e+00   3.455775e-02
  5.492984e-01    1.750149e+00   3.422064e-02
  5.515089e-01    1.765696e+00   3.429604e-02
  5.537193e-01    1.790621e+00   3.446118e-02
  5.559298e-01    1.836500e+00   3.482331e-02
  5.581402e-01    1.803931e+00   3.443775e-02
  5.603507e-01    1.764003e+00   3.398038e-02
  5.625611e-01    1.765826e+00   3.392415e-02
  5.647716e-01    1.786150e+00   3.404473e-02
  5.669821e-01    1.812802e+00   3.422385e-02
  5.691925e-01    1.827847e+00   3.429182e-02
  5.714030e-01    1.776425e+00   3.373393e-02
  5.736134e-01    1.761330e+00   3.351887e-02
  5.758239e-01    1.714311e+00   3.299787e-02
  5.780343e-01    1.710443e+00   3.289089e-02
  5.802448e-01    1.697421e+00   3.269686e-02
  5.824552e-01    1.661601e+00   3.228215e-02
  5.846657e-01    1.655607e+00   3.215669e-02
  5.868762e-01    1.671027e+00   3.223884e-02
  5.890866e-01    1.642710e+00   3.189819e-02
  5.912971e-01    1.676347e+00   3.215639e-02
  5.935075e-01    1.693614e+00   3.225481e-02
  5.957180e-01    1.687722e+00   3.213258e-02
  5.979284e-01    1.651872e+00   3.172459e-02
  6.001389e-01    1.661266e+00   3.174987e-02
  6.023494e-01    1.663836e+00   3.170990e-02
  6.045598e-01    1.706836e+00   3.205166e-02
  6.067703e-01    1.660579e+00   3.155078e-02
  6.089807e-01    1.681838e+00   3.168826e-02
  6.111912e-01    1.672686e+00   3.153883e-02
  6.134016e-01    1.675673e+00   3.150401e-02
  6.156121e-01    1.728720e+00   3.193517e-02
  6.178226e-01    1.707049e+00   3.167158e-02
  6.200330e-01    1.671885e+00   3.128182e-02
  6.222435e-01    1.686104e+00   3.135233e-02
  6.244539e-01    1.690012e+00   3.132719e-02
  6.266644e-01    1.683383e+00   3.120469e-02
  6.288748e-01    1.702624e+00   3.132145e-02
  6.310853e-01    1.686990e+00   3.111678e-02
  6.332957e-01    1.677260e+00   3.096700e-02
  6.355062e-01    1.743295e+00   3.150938e-02
  6.377167e-01    1.762112e+00   3.161820e-02
  6.399271e-01    1.746349e+00   3.141616e-02
  6.421376e-01    1.760720e+00   3.148494e-02
  6.443480e-01    1.760798e+00   3.142576e-02
  6.465585e-01    1.710586e+00   3.091575e-02
  6.487689e-01    1.650127e+00   3.030716e-02
  6.509794e-01    1.695869e+00   3.066637e-02
  6.531899e-01    1.701831e+00   3.066250e-02
  6.554003e-01    1.639243e+00   3.003679e-02
  6.576108e-01    1.609390e+00   2.970662e-02
  6.598212e-01    1.563143e+00   2.922229e-02
  6.620317e-01    1.602142e+00   2.952972e-02
  6.642421e-01    1.605026e+00   2.950162e-02
  6.664526e-01    1.621661e+00   2.959945e-02
  6.686630e-01    1.632002e+00   2.963882e-02
  6.708735e-01    1.602302e+00   2.931398e-02
  6.730840e-01    1.662480e+00   2.980496e-02
  6.752944e-01    1.609184e+00   2.927001e-02
  6.775049e-01    1.620125e+00   2.931599e-02
  6.797153e-01    1.665678e+00   2.967146e-02
  6.819258e-01    1.600916e+00   2.903647e-02
  6.841362e-01    1.619528e+00   2.915224e-02
  6.863467e-01    1.627095e+00   2.916794e-02
  6.885572e-01    1.603959e+00   2.890793e-02
  6.907676e-01    1.575831e+00   2.860199e-02
  6.929781e-01    1.620971e+00   2.895719e-02
  6.951885e-01    1.586756e+00   2.859920e-02
  6.973990e-01    1.615538e+00   2.880639e-02
  6.996094e-01    1.632000e+00   2.890185e-02
  7.018199e-01    1.606092e+00   2.862122e-02
  7.040303e-01    1.600343e+00   2.851974e-02
  7.062408e-01    1.605055e+00   2.851168e-02
  7.084513e-01    1.584887e+00   2.828270e-02
  7.106617e-01    1.582990e+00   2.821666e-02
  7.128722e-01    1.572805e+00   2.807706e-02
  7.150826e-01    1.579354e+00   2.808699e-02
  7.172931e-01    1.578124e+00   2.802762e-02
  7.195035e-01    1.599146e+00   2.816519e-02
  7.217140e-01    1.579566e+00   2.804176e-02
  7.239245e-01    1.597663e+00   2.843032e-02
  7.261349e-01    1.609304e+00   2.864351e-02
  7.283454e-01    1.573242e+00   2.839315e-02
  7.305558e-01    1.557598e+00   2.830531e-02
  7.327663e-01    1.568714e+00   2.844855e-02
  7.349767e-01    1.556263e+00   2.835172e-02
  7.371872e-01    1.563474e+00   2.840618e-02
  7.393976e-01    1.564833e+00   2.840430e-02
  7.416081e-01    1.549345e+00   2.824735e-02
  7.438186e-01    1.582780e+00   2.840581e-02
  7.460290e-01    1.560519e+00   2.791244e-02
  7.482395e-01    1.574644e+00   2.786729e-02
  7.504499e-01    1.568556e+00   2.767739e-02
  7.526604e-01    1.568640e+00   2.756177e-02
  7.548708e-01    1.571554e+00   2.749806e-02
  7.570813e-01    1.579511e+00   2.751652e-02
  7.592918e-01    1.555862e+00   2.727479e-02
  7.615022e-01    1.583424e+00   2.748141e-02
  7.637127e-01    1.585245e+00   2.746432e-02
  7.659231e-01    1.569873e+00   2.729889e-02
  7.681336e-01    1.607412e+00   2.759140e-02
  7.703440e-01    1.628335e+00   2.773867e-02
  7.725545e-01    1.613426e+00   2.758011e-02
  7.747650e-01    1.638446e+00   2.775419e-02
  7.769754e-01    1.605529e+00   2.742077e-02
  7.791859e-01    1.581453e+00   2.716080e-02
  7.813963e-01    1.613392e+00   2.738053e-02
  7.836068e-01    1.620804e+00   2.739077e-02
  7.858172e-01    1.622314e+00   2.735229e-02
  7.880277e-01    1.599408e+00   2.710686e-02
  7.902381e-01    1.590577e+00   2.698279e-02
  7.924486e-01    1.588503e+00   2.691524e-02
  7.946591e-01    1.626064e+00   2.718290e-02
  7.968695e-01    1.643937e+00   2.728301e-02
  7.990800e-01    1.634247e+00   2.715384e-02
  8.012904e-01    1.881049e+00   2.908166e-02
  8.035009e-01    2.255020e+00   3.178499e-02
  8.057113e-01    2.125975e+00   3.080890e-02
  8.079218e-01    1.741385e+00   2.783517e-02
  8.101323e-01    1.649604e+00   2.704564e-02
  8.123427e-01    1.719422e+00   2.756497e-02
  8.145532e-01    1.749259e+00   2.775554e-02
  8.167636e-01    1.710920e+00   2.740356e-02
  8.189741e-01    1.656007e+00   2.691526e-02
  8.211845e-01    1.639295e+00   2.673421e-02
  8.233950e-01    1.664071e+00   2.689167e-02
  8.256054e-01    1.638231e+00   2.663787e-02
  8.278159e-01    1.632100e+00   2.654407e-02
  8.300264e-01    1.633216e+00   2.651013e-02
  8.322368e-01    1.698057e+00   2.698733e-02
  8.344473e-01    1.692373e+00   2.689807e-02
  8.366577e-01    1.691913e+00   2.685114e-02
  8.388682e-01    1.695817e+00   2.683915e-02
  8.410786e-01    1.653541e+00   2.646023e-02
  8.432891e-01    1.687111e+00   2.668503e-02
  8.454996e-01    1.674850e+00   2.654582e-02
  8.477100e-01    1.634264e+00   2.618059e-02
  8.499205e-01    1.663273e+00   2.637044e-02
  8.521309e-01    1.667519e+00   2.636291e-02
  8.543414e-01    1.640283e+00   2.610593e-02
  8.565518e-01    1.612511e+00   2.584370e-02
  8.587623e-01    1.657882e+00   2.616394e-02
  8.609727e-01    1.670483e+00   2.622247e-02
  8.631832e-01    1.643531e+00   2.596997e-02
  8.653937e-01    1.644688e+00   2.593919e-02
  8.676041e-01    1.640451e+00   2.586667e-02
  8.698146e-01    1.608921e+00   2.557771e-02
  8.720250e-01    1.632116e+00   2.572217e-02
  8.742355e-01    1.638042e+00   2.572958e-02
  8.764459e-01    1.635149e+00   2.566766e-02
  8.786564e-01    1.593447e+00   2.530044e-02
  8.808669e-01    1.604585e+00   2.535024e-02
  8.830773e-01    1.591928e+00   2.521204e-02
  8.852878e-01    1.604032e+00   2.526975e-02
  8.874982e-01    1.611392e+00   2.529091e-02
  8.897087e-01    1.596028e+00   2.513244e-02
  8.919191e-01    1.572411e+00   2.490836e-02
  8.941296e-01    1.574430e+00   2.488738e-02
  8.963401e-01    1.584442e+00   2.493012e-02
  8.985505e-01    1.576971e+00   2.483460e-02
  9.007610e-01    1.593673e+00   2.492907e-02
  9.029714e-01    1.622954e+00   2.512096e-02
  9.051819e-01    1.588164e+00   2.481319e-02
  9.073923e-01    1.584447e+00   2.474771e-02
  9.096028e-01    1.623989e+00   2.501945e-02
  9.118132e-01    1.642362e+00   2.512388e-02
  9.140237e-01    1.634162e+00   2.502408e-02
  9.162342e-01    1.605232e+00   2.476697e-02
  9.184446e-01    1.618122e+00   2.483024e-02
  9.206551e-01    1.621291e+00   2.481872e-02
  9.228655e-01    1.623863e+00   2.480290e-02
  9.250760e-01    1.627941e+00   2.479838e-02
  9.272864e-01    1.624629e+00   2.473865e-02
  9.294969e-01    1.634248e+00   2.477561e-02
  9.317074e-01    1.628276e+00   2.469537e-02
  9.339178e-01    1.621981e+00   2.461390e-02
  9.361283e-01    1.638578e+00   2.470306e-02
  9.383387e-01    1.652479e+00   2.477387e-02
  9.405492e-01    1.660069e+00   2.479604e-02
  9.427596e-01    1.636348e+00   2.458280e-02
  9.449701e-01    1.658145e+00   2.471235e-02
  9.471805e-01    1.710514e+00   2.506402e-02
  9.493910e-01    1.699903e+00   2.495187e-02
  9.516015e-01    1.698402e+00   2.490602e-02
  9.538119e-01    1.699739e+00   2.488168e-02
  9.560224e-01    1.758946e+00   2.527569e-02
  9.582328e-01    1.729440e+00   2.502919e-02
  9.604433e-01    1.776158e+00   2.532906e-02
  9.626537e-01    1.779701e+00   2.532022e-02
  9.648642e-01    1.823192e+00   2.559265e-02
  9.670747e-01    1.766829e+00   2.515921e-02
  9.692851e-01    1.765557e+00   2.511670e-02
  9.714956e-01    1.856269e+00   2.571752e-02
  9.737060e-01    1.857090e+00   2.568947e-02
  9.759165e-01    1.864316e+00   2.570305e-02
  9.781269e-01    1.916636e+00   2.602717e-02
  9.803374e-01    1.827515e+00   2.537970e-02
  9.825478e-01    1.808882e+00   2.521667e-02
  9.847583e-01    1.798064e+00   2.510701e-02
  9.869688e-01    1.803750e+00   2.511302e-02
  9.891792e-01    1.790460e+00   2.498707e-02
  9.913897e-01    1.772578e+00   2.482844e-02
  9.936001e-01    1.741908e+00   2.458048e-02
  9.958106e-01    1.704403e+00   2.428139e-02
  9.980210e-01    1.659529e+00   2.392850e-02
  1.000231e+00    1.667097e+00   2.411438e-02
  1.002442e+00    1.658893e+00   2.418278e-02
  1.004652e+00    1.655322e+00   2.422414e-02
  1.006863e+00    1.619092e+00   2.400728e-02
  1.009073e+00    1.609782e+00   2.397480e-02
  1.011284e+00    1.591130e+00   2.386737e-02
  1.013494e+00    1.588560e+00   2.387173e-02
  1.015705e+00    1.596767e+00   2.395593e-02
  1.017915e+00    1.594736e+00   2.395719e-02
  1.020126e+00    1.576179e+00   2.383349e-02
  1.022336e+00    1.570797e+00   2.380451e-02
  1.024547e+00    1.555764e+00   2.370154e-02
  1.026757e+00    1.548360e+00   2.365346e-02
  1.028967e+00    1.539732e+00   2.359512e-02
  1.031178e+00    1.547506e+00   2.366081e-02
  1.033388e+00    1.505099e+00   2.333939e-02
  1.035599e+00    1.509659e+00   2.337809e-02
  1.037809e+00    1.524072e+00   2.349269e-02
  1.040020e+00    1.531015e+00   2.354741e-02
  1.042230e+00    1.583092e+00   2.394651e-02
  1.044441e+00    1.595043e+00   2.403653e-02
  1.046651e+00    1.577685e+00   2.390556e-02
  1.048862e+00    1.552482e+00   2.371304e-02
  1.051072e+00    1.541239e+00   2.362463e-02
  1.053282e+00    1.548830e+00   2.368178e-02
  1.055493e+00    1.539719e+00   2.360763e-02
  1.057703e+00    1.564930e+00   2.379859e-02
  1.059914e+00    1.541995e+00   2.361920e-02
  1.062124e+00    1.574363e+00   2.386164e-02
  1.064335e+00    1.544652e+00   2.363193e-02
  1.066545e+00    1.563921e+00   2.377268e-02
  1.068756e+00    1.566835e+00   2.379100e-02
  1.070966e+00    1.568369e+00   2.379589e-02
  1.073177e+00    1.664936e+00   2.451107e-02
  1.075387e+00    1.694163e+00   2.471969e-02
  1.077597e+00    1.648425e+00   2.437605e-02
  1.079808e+00    1.616079e+00   2.399626e-02
  1.082018e+00    1.512769e+00   2.302434e-02
  1.084229e+00    1.468597e+00   2.257532e-02
  1.086439e+00    1.445829e+00   2.231248e-02
  1.088650e+00    1.484391e+00   2.253162e-02
  1.090860e+00    1.490476e+00   2.250932e-02
  1.093071e+00    1.478375e+00   2.235496e-02
  1.095281e+00    1.458047e+00   2.214327e-02
  1.097492e+00    1.439396e+00   2.194636e-02
  1.099702e+00    1.433141e+00   2.184739e-02
  1.101912e+00    1.441998e+00   2.186588e-02
  1.104123e+00    1.437223e+00   2.178140e-02
  1.106333e+00    1.438307e+00   2.174512e-02
  1.108544e+00    1.443404e+00   2.173915e-02
  1.110754e+00    1.426357e+00   2.156738e-02
  1.112965e+00    1.439297e+00   2.162420e-02
  1.115175e+00    1.426403e+00   2.148586e-02
  1.117386e+00    1.417013e+00   2.137573e-02
  1.119596e+00    1.389371e+00   2.112865e-02
  1.121807e+00    1.398836e+00   2.116181e-02
  1.124017e+00    1.408471e+00   2.119791e-02
  1.126228e+00    1.424011e+00   2.127852e-02
  1.128438e+00    1.427639e+00   2.126851e-02
  1.130648e+00    1.391303e+00   2.096189e-02
  1.132859e+00    1.391382e+00   2.092817e-02
  1.135069e+00    1.383746e+00   2.083606e-02
  1.137280e+00    1.386876e+00   2.082663e-02
  1.139490e+00    1.400012e+00   2.089184e-02
  1.141701e+00    1.382086e+00   2.072456e-02
  1.143911e+00    1.384172e+00   2.070832e-02
  1.146122e+00    1.371766e+00   2.058342e-02
  1.148332e+00    1.363306e+00   2.048814e-02
  1.150543e+00    1.382562e+00   2.060142e-02
  1.152753e+00    1.390257e+00   2.062772e-02
  1.154963e+00    1.345853e+00   2.026487e-02
  1.157174e+00    1.353333e+00   2.029116e-02
  1.159384e+00    1.403738e+00   2.063538e-02
  1.161595e+00    1.425215e+00   2.076222e-02
  1.163805e+00    1.398139e+00   2.053447e-02
  1.166016e+00    1.446259e+00   2.085458e-02
  1.168226e+00    1.431439e+00   2.071785e-02
  1.170437e+00    1.417474e+00   2.058736e-02
  1.172647e+00    1.426471e+00   2.062307e-02
  1.174858e+00    1.461600e+00   2.084636e-02
  1.177068e+00    1.491092e+00   2.102609e-02
  1.179278e+00    1.562428e+00   2.149253e-02
  1.181489e+00    1.613876e+00   2.181414e-02
  1.183699e+00    1.531206e+00   2.121884e-02
  1.185910e+00    1.436261e+00   2.052188e-02
  1.188120e+00    1.394455e+00   2.019393e-02
  1.190331e+00    1.383969e+00   2.009082e-02
  1.192541e+00    1.366549e+00   1.993648e-02
  1.194752e+00    1.350522e+00   1.979220e-02
  1.196962e+00    1.359497e+00   1.983203e-02
  1.199173e+00    1.378124e+00   1.994066e-02
  1.201383e+00    1.426802e+00   2.026183e-02
  1.203593e+00    1.442591e+00   2.034802e-02
  1.205804e+00    1.392238e+00   1.996341e-02
  1.208014e+00    1.371488e+00   1.978702e-02
  1.210225e+00    1.372131e+00   1.976612e-02
  1.212435e+00    1.383430e+00   1.982224e-02
  1.214646e+00    1.381027e+00   1.977861e-02
  1.216856e+00    1.365560e+00   1.964192e-02
  1.219067e+00    1.362326e+00   1.959408e-02
  1.221277e+00    1.359050e+00   1.954539e-02
  1.223488e+00    1.352914e+00   1.947545e-02
  1.225698e+00    1.370823e+00   1.957681e-02
  1.227909e+00    1.368245e+00   1.952802e-02
  1.230119e+00    1.396553e+00   1.969660e-02
  1.232329e+00    1.386296e+00   1.959301e-02
  1.234540e+00    1.380836e+00   1.952376e-02
  1.236750e+00    1.353929e+00   1.930230e-02
  1.238961e+00    1.336664e+00   1.915199e-02
  1.241171e+00    1.337965e+00   1.913724e-02
  1.243382e+00    1.337292e+00   1.910901e-02
  1.245592e+00    1.359309e+00   1.924150e-02
  1.247803e+00    1.365623e+00   1.926235e-02
  1.250013e+00    1.373748e+00   1.929581e-02
  1.252224e+00    1.365547e+00   1.921475e-02
  1.254434e+00    1.358142e+00   1.913876e-02
  1.256644e+00    1.366881e+00   1.917689e-02
  1.258855e+00    1.372730e+00   1.919441e-02
  1.261065e+00    1.361866e+00   1.909484e-02
  1.263276e+00    1.345133e+00   1.895427e-02
  1.265486e+00    1.349265e+00   1.896048e-02
  1.267697e+00    1.346981e+00   1.892143e-02
  1.269907e+00    1.353603e+00   1.894516e-02
  1.272118e+00    1.358921e+00   1.895969e-02
  1.274328e+00    1.362713e+00   1.896328e-02
  1.276539e+00    1.352973e+00   1.887259e-02
  1.278749e+00    1.345342e+00   1.879703e-02
  1.280959e+00    1.338376e+00   1.872588e-02
  1.283170e+00    1.336043e+00   1.868723e-02
  1.285380e+00    1.336982e+00   1.867145e-02
  1.287591e+00    1.346695e+00   1.871715e-02
  1.289801e+00    1.350531e+00   1.872256e-02
  1.292012e+00    1.351376e+00   1.871131e-02
  1.294222e+00    1.360282e+00   1.875657e-02
  1.296433e+00    1.356622e+00   1.871568e-02
  1.298643e+00    1.344664e+00   1.861657e-02
  1.300854e+00    1.361824e+00   1.871849e-02
  1.303064e+00    1.365553e+00   1.872479e-02
  1.305274e+00    1.357786e+00   1.864994e-02
  1.307485e+00    1.336212e+00   1.847976e-02
  1.309695e+00    1.351655e+00   1.856398e-02
  1.311906e+00    1.356908e+00   1.857826e-02
  1.314116e+00    1.345247e+00   1.847749e-02
  1.316327e+00    1.363374e+00   1.857978e-02
  1.318537e+00    1.359137e+00   1.852891e-02
  1.320748e+00    1.397913e+00   1.876944e-02
  1.322958e+00    1.406486e+00   1.880598e-02
  1.325169e+00    1.369067e+00   1.853294e-02
  1.327379e+00    1.389684e+00   1.864985e-02
  1.329589e+00    1.369595e+00   1.849335e-02
  1.331800e+00    1.375019e+00   1.850903e-02
  1.334010e+00    1.366862e+00   1.843328e-02
  1.336221e+00    1.379618e+00   1.849708e-02
  1.338431e+00    1.375332e+00   1.844729e-02
  1.340642e+00    1.360564e+00   1.841238e-02
  1.342852e+00    1.350307e+00   1.844354e-02
  1.345063e+00    1.358290e+00   1.854760e-02
  1.347273e+00    1.360330e+00   1.859691e-02
  1.349484e+00    1.344492e+00   1.851595e-02
  1.351694e+00    1.376300e+00   1.875661e-02
  1.353905e+00    1.393325e+00   1.889057e-02
  1.356115e+00    1.407976e+00   1.900497e-02
  1.358325e+00    1.415167e+00   1.906710e-02
  1.360536e+00    1.412509e+00   1.906107e-02
  1.362746e+00    1.367218e+00   1.876263e-02
  1.364957e+00    1.324963e+00   1.847802e-02
  1.367167e+00    1.313918e+00   1.840788e-02
  1.369378e+00    1.315380e+00   1.842407e-02
  1.371588e+00    1.309530e+00   1.838812e-02
  1.373799e+00    1.339487e+00   1.860091e-02
  1.376009e+00    1.334656e+00   1.857077e-02
  1.378220e+00    1.314976e+00   1.843582e-02
  1.380430e+00    1.329250e+00   1.853833e-02
  1.382640e+00    1.310920e+00   1.841097e-02
  1.384851e+00    1.311839e+00   1.841829e-02
  1.387061e+00    1.297722e+00   1.831921e-02
  1.389272e+00    1.278959e+00   1.818651e-02
  1.391482e+00    1.287224e+00   1.824450e-02
  1.393693e+00    1.286105e+00   1.823571e-02
  1.395903e+00    1.288823e+00   1.825345e-02
  1.398114e+00    1.283036e+00   1.821106e-02
  1.400324e+00    1.276961e+00   1.816576e-02
  1.402535e+00    1.297508e+00   1.830898e-02
  1.404745e+00    1.295532e+00   1.829267e-02
  1.406955e+00    1.288926e+00   1.824326e-02
  1.409166e+00    1.293607e+00   1.827300e-02
  1.411376e+00    1.298798e+00   1.830650e-02
  1.413587e+00    1.299583e+00   1.830816e-02
  1.415797e+00    1.269040e+00   1.808823e-02
  1.418008e+00    1.254928e+00   1.794574e-02
  1.420218e+00    1.234659e+00   1.765259e-02
  1.422429e+00    1.235265e+00   1.757278e-02
  1.424639e+00    1.249444e+00   1.760918e-02
  1.426850e+00    1.264538e+00   1.766064e-02
  1.429060e+00    1.280532e+00   1.772280e-02
  1.431270e+00    1.264717e+00   1.756880e-02
  1.433481e+00    1.275377e+00   1.760164e-02
  1.435691e+00    1.264691e+00   1.748941e-02
  1.437902e+00    1.264636e+00   1.745261e-02
  1.440112e+00    1.270243e+00   1.745594e-02
  1.442323e+00    1.245766e+00   1.725420e-02
  1.444533e+00    1.260337e+00   1.732238e-02
  1.446744e+00    1.290094e+00   1.749431e-02
  1.448954e+00    1.267343e+00   1.730923e-02
  1.451165e+00    1.239489e+00   1.708854e-02
  1.453375e+00    1.252990e+00   1.715350e-02
  1.455586e+00    1.266129e+00   1.721507e-02
  1.457796e+00    1.262159e+00   1.716067e-02
  1.460006e+00    1.259001e+00   1.711200e-02
  1.462217e+00    1.289832e+00   1.729387e-02
  1.464427e+00    1.265439e+00   1.710400e-02
  1.466638e+00    1.252780e+00   1.699305e-02
  1.468848e+00    1.283447e+00   1.717431e-02
  1.471059e+00    1.289391e+00   1.718875e-02
  1.473269e+00    1.276131e+00   1.707570e-02
  1.475480e+00    1.234386e+00   1.677065e-02
  1.477690e+00    1.222711e+00   1.666774e-02
  1.479901e+00    1.230860e+00   1.669969e-02
  1.482111e+00    1.262496e+00   1.688967e-02
  1.484321e+00    1.261508e+00   1.686000e-02
  1.486532e+00    1.277578e+00   1.694459e-02
  1.488742e+00    1.271920e+00   1.688435e-02
  1.490953e+00    1.289702e+00   1.697910e-02
  1.493163e+00    1.329717e+00   1.721764e-02
  1.495374e+00    1.381406e+00   1.752662e-02
  1.497584e+00    1.388921e+00   1.755152e-02
  1.499795e+00    1.375268e+00   1.744245e-02
  1.502005e+00    1.297809e+00   1.692213e-02
  1.504216e+00    1.286572e+00   1.682741e-02
  1.506426e+00    1.288759e+00   1.682065e-02
  1.508636e+00    1.298571e+00   1.686378e-02
  1.510847e+00    1.287456e+00   1.676937e-02
  1.513057e+00    1.298923e+00   1.681837e-02
  1.515268e+00    1.294058e+00   1.676073e-02
  1.517478e+00    1.278990e+00   1.663746e-02
  1.519689e+00    1.295421e+00   1.671862e-02
  1.521899e+00    1.266106e+00   1.650516e-02
  1.524110e+00    1.260350e+00   1.644719e-02
  1.526320e+00    1.272829e+00   1.650867e-02
  1.528531e+00    1.269026e+00   1.646408e-02
  1.530741e+00    1.259258e+00   1.638138e-02
  1.532951e+00    1.239303e+00   1.623156e-02
  1.535162e+00    1.255723e+00   1.642556e-02
  1.537372e+00    1.252596e+00   1.647208e-02
  1.539583e+00    1.246558e+00   1.646656e-02
  1.541793e+00    1.232294e+00   1.637895e-02
  1.544004e+00    1.261753e+00   1.657384e-02
  1.546214e+00    1.259254e+00   1.655592e-02
  1.548425e+00    1.233551e+00   1.638635e-02
  1.550635e+00    1.240724e+00   1.644356e-02
  1.552846e+00    1.250815e+00   1.651999e-02
  1.555056e+00    1.231898e+00   1.635334e-02
  1.557266e+00    1.225924e+00   1.620399e-02
  1.559477e+00    1.219359e+00   1.610204e-02
  1.561687e+00    1.257435e+00   1.632065e-02
  1.563898e+00    1.258582e+00   1.631087e-02
  1.566108e+00    1.247997e+00   1.622613e-02
  1.568319e+00    1.275764e+00   1.638984e-02
  1.570529e+00    1.257623e+00   1.624765e-02
  1.572740e+00    1.249506e+00   1.616743e-02
  1.574950e+00    1.271185e+00   1.628050e-02
  1.577161e+00    1.258696e+00   1.617471e-02
  1.579371e+00    1.255053e+00   1.612752e-02
  1.581582e+00    1.246378e+00   1.605190e-02
  1.583792e+00    1.233809e+00   1.595281e-02
  1.586002e+00    1.240678e+00   1.597956e-02
  1.588213e+00    1.237405e+00   1.594128e-02
  1.590423e+00    1.243926e+00   1.596315e-02
  1.592634e+00    1.242255e+00   1.593083e-02
  1.594844e+00    1.238594e+00   1.588598e-02
  1.597055e+00    1.229581e+00   1.580767e-02
  1.599265e+00    1.253111e+00   1.593739e-02
  1.601476e+00    1.262246e+00   1.597490e-02
  1.603686e+00    1.259062e+00   1.593484e-02
  1.605897e+00    1.241117e+00   1.580069e-02
  1.608107e+00    1.234071e+00   1.573623e-02
  1.610317e+00    1.236405e+00   1.573183e-02
  1.612528e+00    1.221133e+00   1.561528e-02
  1.614738e+00    1.223998e+00   1.561471e-02
  1.616949e+00    1.227919e+00   1.562069e-02
  1.619159e+00    1.224489e+00   1.558016e-02
  1.621370e+00    1.188166e+00   1.532909e-02
  1.623580e+00    1.197186e+00   1.536896e-02
  1.625791e+00    1.209699e+00   1.543081e-02
  1.628001e+00    1.167654e+00   1.514229e-02
  1.630212e+00    1.170342e+00   1.514211e-02
  1.632422e+00    1.163419e+00   1.507955e-02
  1.634632e+00    1.172670e+00   1.512212e-02
  1.636843e+00    1.160385e+00   1.502532e-02
  1.639053e+00    1.161570e+00   1.501576e-02
  1.641264e+00    1.160242e+00   1.499017e-02
  1.643474e+00    1.158638e+00   1.496243e-02
  1.645685e+00    1.138101e+00   1.481273e-02
  1.647895e+00    1.125789e+00   1.471599e-02
  1.650106e+00    1.140584e+00   1.479546e-02
  1.652316e+00    1.129503e+00   1.470705e-02
  1.654527e+00    1.127648e+00   1.467842e-02
  1.656737e+00    1.117682e+00   1.459700e-02
  1.658947e+00    1.102277e+00   1.447998e-02
  1.661158e+00    1.114259e+00   1.454228e-02
  1.663368e+00    1.092544e+00   1.438410e-02
  1.665579e+00    1.095438e+00   1.438713e-02
  1.667789e+00    1.110743e+00   1.447111e-02
  1.670000e+00    1.105236e+00   1.441976e-02
  1.672210e+00    1.084211e+00   1.426624e-02
  1.674421e+00    1.080693e+00   1.422793e-02
  1.676631e+00    1.104744e+00   1.436948e-02
  1.678842e+00    1.061158e+00   1.406768e-02
  1.681052e+00    1.094355e+00   1.427060e-02
  1.683263e+00    1.097670e+00   1.427703e-02
  1.685473e+00    1.080049e+00   1.414687e-02
  1.687683e+00    1.081863e+00   1.414332e-02
  1.689894e+00    1.072615e+00   1.406704e-02
  1.692104e+00    1.047042e+00   1.388360e-02
  1.694315e+00    1.100876e+00   1.422135e-02
  1.696525e+00    1.113603e+00   1.428787e-02
  1.698736e+00    1.109780e+00   1.424819e-02
  1.700946e+00    1.075591e+00   1.401177e-02
  1.703157e+00    1.037898e+00   1.374955e-02
  1.705367e+00    1.051439e+00   1.382444e-02
  1.707578e+00    1.067002e+00   1.391171e-02
  1.709788e+00    1.056079e+00   1.382613e-02
  1.711998e+00    1.026388e+00   1.361550e-02
  1.714209e+00    9.999225e-01   1.342465e-02
  1.716419e+00    9.942353e-01   1.337241e-02
  1.718630e+00    1.015093e+00   1.349780e-02
  1.720840e+00    9.892753e-01   1.331115e-02
  1.723051e+00    9.858412e-01   1.327441e-02
  1.725261e+00    9.855130e-01   1.325777e-02
  1.727472e+00    1.010264e+00   1.340911e-02
  1.729682e+00    1.001468e+00   1.333725e-02
  1.731893e+00    1.001143e+00   1.332124e-02
  1.734103e+00    1.007538e+00   1.334994e-02
  1.736313e+00    1.076200e+00   1.378282e-02
  1.738524e+00    1.088335e+00   1.384594e-02
  1.740734e+00    1.057174e+00   1.363220e-02
  1.742945e+00    1.025877e+00   1.341524e-02
  1.745155e+00    1.018408e+00   1.335267e-02
  1.747366e+00    1.007354e+00   1.326606e-02
  1.749576e+00    1.031204e+00   1.340821e-02
  1.751787e+00    9.944759e-01   1.315387e-02
  1.753997e+00    9.483705e-01   1.283215e-02
  1.756208e+00    9.707217e-01   1.296930e-02
  1.758418e+00    9.957222e-01   1.312198e-02
  1.760628e+00    9.808159e-01   1.300997e-02
  1.762839e+00    9.697646e-01   1.292321e-02
  1.765049e+00    9.665744e-01   1.288879e-02
  1.767260e+00    9.436015e-01   1.272201e-02
  1.769470e+00    9.443434e-01   1.271409e-02
  1.771681e+00    9.563558e-01   1.278153e-02
  1.773891e+00    9.489866e-01   1.271914e-02
  1.776102e+00    9.646730e-01   1.281085e-02
  1.778312e+00    9.477319e-01   1.268512e-02
  1.780523e+00    9.436246e-01   1.264484e-02
  1.782733e+00    9.651411e-01   1.277532e-02
  1.784944e+00    9.763100e-01   1.283589e-02
  1.787154e+00    9.581237e-01   1.270306e-02
  1.789364e+00    9.608495e-01   1.270844e-02
  1.791575e+00    9.796263e-01   1.281911e-02
  1.793785e+00    1.012897e+00   1.302198e-02
  1.795996e+00    1.058200e+00   1.329659e-02
  1.798206e+00    1.077111e+00   1.340134e-02
  1.800417e+00    1.020061e+00   1.302826e-02
  1.802627e+00    9.617862e-01   1.263837e-02
  1.804838e+00    9.589012e-01   1.260698e-02
  1.807048e+00    9.791068e-01   1.272578e-02
  1.809259e+00    9.821128e-01   1.273115e-02
  1.811469e+00    9.804787e-01   1.270500e-02
  1.813679e+00    9.383648e-01   1.241387e-02
  1.815890e+00    9.162127e-01   1.225156e-02
  1.818100e+00    9.243373e-01   1.229042e-02
  1.820311e+00    8.863494e-01   1.202053e-02
  1.822521e+00    8.650814e-01   1.186080e-02
  1.824732e+00    8.567845e-01   1.178922e-02
  1.826942e+00    8.722062e-01   1.188263e-02
  1.829153e+00    8.817897e-01   1.193606e-02
  1.831363e+00    8.930550e-01   1.199998e-02
  1.833574e+00    8.882274e-01   1.195576e-02
  1.835784e+00    8.848559e-01   1.192161e-02
  1.837994e+00    8.714881e-01   1.181954e-02
  1.840205e+00    8.663388e-01   1.177344e-02
  1.842415e+00    8.728833e-01   1.180606e-02
  1.844626e+00    8.720056e-01   1.178855e-02
  1.846836e+00    8.904414e-01   1.190094e-02
  1.849047e+00    8.621437e-01   1.169874e-02
  1.851257e+00    8.628737e-01   1.169411e-02
  1.853468e+00    8.593372e-01   1.166134e-02
  1.855678e+00    8.611370e-01   1.166465e-02
  1.857889e+00    8.611603e-01   1.165631e-02
  1.860099e+00    8.560776e-01   1.161323e-02
  1.862309e+00    8.562622e-01   1.160597e-02
  1.864520e+00    8.421767e-01   1.150162e-02
  1.866730e+00    8.450470e-01   1.151185e-02
  1.868941e+00    8.496720e-01   1.153240e-02
  1.871151e+00    8.573305e-01   1.157281e-02
  1.873362e+00    8.716829e-01   1.165781e-02
  1.875572e+00    8.683776e-01   1.162463e-02
  1.877783e+00    8.710498e-01   1.163090e-02
  1.879993e+00    9.036090e-01   1.183476e-02
  1.882204e+00    9.032003e-01   1.182084e-02
  1.884414e+00    8.794304e-01   1.165295e-02
  1.886624e+00    8.766094e-01   1.162296e-02
  1.888835e+00    8.661441e-01   1.154224e-02
  1.891045e+00    8.402378e-01   1.135743e-02
  1.893256e+00    8.124703e-01   1.115727e-02
  1.895466e+00    8.339589e-01   1.129269e-02
  1.897677e+00    8.322284e-01   1.127008e-02
  1.899887e+00    8.283153e-01   1.123260e-02
  1.902098e+00    8.133487e-01   1.111996e-02
  1.904308e+00    8.219173e-01   1.116782e-02
  1.906519e+00    8.377020e-01   1.126368e-02
  1.908729e+00    8.520045e-01   1.134867e-02
  1.910940e+00    8.333822e-01   1.121281e-02
  1.913150e+00    8.132552e-01   1.106606e-02
  1.915360e+00    8.293871e-01   1.116462e-02
  1.917571e+00    8.377344e-01   1.120970e-02
  1.919781e+00    8.692185e-01   1.140738e-02
  1.921992e+00    8.758536e-01   1.143991e-02
  1.924202e+00    8.538533e-01   1.128430e-02
  1.926413e+00    8.252284e-01   1.108319e-02
  1.928623e+00    8.498957e-01   1.123681e-02
  1.930834e+00    8.764796e-01   1.140038e-02
  1.933044e+00    8.396400e-01   1.114742e-02
  1.935255e+00    7.932198e-01   1.082463e-02
  1.937465e+00    8.057366e-01   1.089932e-02
  1.939675e+00    7.993858e-01   1.084549e-02
  1.941886e+00    7.812070e-01   1.071134e-02
  1.944096e+00    7.780500e-01   1.067964e-02
  1.946307e+00    7.941886e-01   1.077954e-02
  1.948517e+00    7.975420e-01   1.079186e-02
  1.950728e+00    7.962615e-01   1.077294e-02
  1.952938e+00    8.217688e-01   1.093391e-02
  1.955149e+00    8.002563e-01   1.077959e-02
  1.957359e+00    8.103894e-01   1.083747e-02
  1.959570e+00    8.008338e-01   1.076250e-02
  1.961780e+00    7.669776e-01   1.052278e-02
  1.963990e+00    7.712783e-01   1.054225e-02
  1.966201e+00    7.826793e-01   1.060988e-02
  1.968411e+00    7.811801e-01   1.058961e-02
  1.970622e+00    7.774324e-01   1.055416e-02
  1.972832e+00    8.149922e-01   1.079594e-02
  1.975043e+00    8.009602e-01   1.069248e-02
  1.977253e+00    7.882428e-01   1.059728e-02
  1.979464e+00    7.947644e-01   1.063091e-02
  1.981674e+00    7.848904e-01   1.055441e-02
  1.983885e+00    7.972198e-01   1.062684e-02
  1.986095e+00    8.037291e-01   1.066032e-02
  1.988305e+00    7.804698e-01   1.049502e-02
  1.990516e+00    7.836072e-01   1.050615e-02
  1.992726e+00    7.800687e-01   1.047271e-02
  1.994937e+00    7.738153e-01   1.042054e-02
  1.997147e+00    7.947712e-01   1.055084e-02
  1.999358e+00    7.904185e-01   1.051199e-02
  2.001568e+00    7.972463e-01   1.054628e-02
  2.003779e+00    7.814143e-01   1.042908e-02
  2.005989e+00    7.748682e-01   1.037325e-02
  2.008200e+00    7.643377e-01   1.029104e-02
  2.010410e+00    7.722593e-01   1.033246e-02
  2.012621e+00    7.769761e-01   1.035220e-02
  2.014831e+00    7.640171e-01   1.025406e-02
  2.017041e+00    7.781157e-01   1.033777e-02
  2.019252e+00    7.739526e-01   1.030008e-02
  2.021462e+00    7.590395e-01   1.019089e-02
  2.023673e+00    7.621834e-01   1.020259e-02
  2.025883e+00    7.738656e-01   1.027090e-02
  2.028094e+00    7.674066e-01   1.021828e-02
  2.030304e+00    7.627710e-01   1.017782e-02
  2.032515e+00    7.733787e-01   1.023896e-02
  2.034725e+00    7.769644e-01   1.025313e-02
  2.036936e+00    7.712356e-01   1.020585e-02
  2.039146e+00    7.480326e-01   1.004163e-02
  2.041356e+00    7.545391e-01   1.007557e-02
  2.043567e+00    7.663209e-01   1.014456e-02
  2.045777e+00    7.576510e-01   1.007777e-02
  2.047988e+00    7.543439e-01   1.004637e-02
  2.050198e+00    7.370542e-01   9.922236e-03
  2.052409e+00    7.534073e-01   1.002404e-02
  2.054619e+00    7.461567e-01   9.968342e-03
  2.056830e+00    7.447240e-01   9.951636e-03
  2.059040e+00    7.549055e-01   1.001187e-02
  2.061251e+00    7.591999e-01   1.003304e-02
  2.063461e+00    7.471263e-01   9.945356e-03
  2.065671e+00    7.507498e-01   9.960700e-03
  2.067882e+00    7.540970e-01   9.973845e-03
  2.070092e+00    7.562746e-01   9.978987e-03
  2.072303e+00    7.478698e-01   9.914250e-03
  2.074513e+00    7.496060e-01   9.916376e-03
  2.076724e+00    7.621667e-01   9.989557e-03
  2.078934e+00    7.273704e-01   9.749962e-03
  2.081145e+00    7.199575e-01   9.691197e-03
  2.083355e+00    7.470374e-01   9.862554e-03
  2.085566e+00    7.459877e-01   9.846708e-03
  2.087776e+00    7.329935e-01   9.751105e-03
  2.089986e+00    7.311392e-01   9.730007e-03
  2.092197e+00    7.327200e-01   9.731607e-03
  2.094407e+00    7.255832e-01   9.674934e-03
  2.096618e+00    7.169633e-01   9.608506e-03
  2.098828e+00    7.178400e-01   9.605164e-03
  2.101039e+00    7.267330e-01   9.655546e-03
  2.103249e+00    7.125213e-01   9.552118e-03
  2.105460e+00    7.136202e-01   9.550551e-03
  2.107670e+00    7.436167e-01   9.740392e-03
  2.109881e+00    7.269248e-01   9.621292e-03
  2.112091e+00    7.322305e-01   9.647321e-03
  2.114301e+00    7.198515e-01   9.556669e-03
  2.116512e+00    7.176799e-01   9.533472e-03
  2.118722e+00    7.329545e-01   9.625503e-03
  2.120933e+00    7.296371e-01   9.594775e-03
  2.123143e+00    7.465873e-01   9.696512e-03
  2.125354e+00    7.266064e-01   9.557302e-03
  2.127564e+00    7.125027e-01   9.455381e-03
  2.129775e+00    7.130677e-01   9.450411e-03
  2.131985e+00    7.171717e-01   9.468500e-03
  2.134196e+00    7.092122e-01   9.407236e-03
  2.136406e+00    7.066675e-01   9.381647e-03
  2.138617e+00    7.221646e-01   9.475413e-03
  2.140827e+00    7.331656e-01   9.563658e-03
  2.143037e+00    7.132782e-01   9.478749e-03
  2.145248e+00    7.090566e-01   9.472684e-03
  2.147458e+00    7.110650e-01   9.501305e-03
  2.149669e+00    7.091975e-01   9.500735e-03
  2.151879e+00    6.950883e-01   9.414936e-03
  2.154090e+00    6.916525e-01   9.398865e-03
  2.156300e+00    7.161059e-01   9.570280e-03
  2.158511e+00    6.864017e-01   9.374943e-03
  2.160721e+00    6.861889e-01   9.378260e-03
  2.162932e+00    6.750575e-01   9.305559e-03
  2.165142e+00    6.880349e-01   9.397567e-03
  2.167352e+00    6.957887e-01   9.453293e-03
  2.169563e+00    6.971121e-01   9.464242e-03
  2.171773e+00    6.936187e-01   9.442934e-03
  2.173984e+00    7.120895e-01   9.569280e-03
  2.176194e+00    6.969171e-01   9.467981e-03
  2.178405e+00    7.033779e-01   9.512480e-03
  2.180615e+00    6.935469e-01   9.446442e-03
  2.182826e+00    6.915429e-01   9.433466e-03
  2.185036e+00    6.944557e-01   9.453372e-03
  2.187247e+00    6.810154e-01   9.361385e-03
  2.189457e+00    7.033389e-01   9.513157e-03
  2.191667e+00    7.009189e-01   9.496628e-03
  2.193878e+00    6.745008e-01   9.315374e-03
  2.196088e+00    6.729055e-01   9.303667e-03
  2.198299e+00    6.841876e-01   9.380243e-03
  2.200509e+00    6.921213e-01   9.433407e-03
  2.202720e+00    6.881199e-01   9.404957e-03
  2.204930e+00    6.812940e-01   9.356943e-03
  2.207141e+00    6.798795e-01   9.346113e-03
  2.209351e+00    6.775979e-01   9.328539e-03
  2.211562e+00    6.779463e-01   9.329310e-03
  2.213772e+00    6.875367e-01   9.339156e-03
  2.215982e+00    6.794752e-01   9.239919e-03
  2.218193e+00    6.738146e-01   9.171752e-03
  2.220403e+00    6.716772e-01   9.132668e-03
  2.222614e+00    6.795145e-01   9.164751e-03
  2.224824e+00    6.656291e-01   9.051370e-03
  2.227035e+00    6.734110e-01   9.086661e-03
  2.229245e+00    6.833484e-01   9.136355e-03
  2.231456e+00    6.623085e-01   8.979104e-03
  2.233666e+00    6.746129e-01   9.046966e-03
  2.235877e+00    6.842468e-01   9.096941e-03
  2.238087e+00    6.622836e-01   8.936359e-03
  2.240298e+00    6.673384e-01   8.956627e-03
  2.242508e+00    6.586234e-01   8.882954e-03
  2.244718e+00    6.551878e-01   8.844102e-03
  2.246929e+00    6.715649e-01   8.939477e-03
  2.249139e+00    6.825874e-01   9.000052e-03
  2.251350e+00    6.597934e-01   8.836855e-03
  2.253560e+00    6.725418e-01   8.910174e-03
  2.255771e+00    7.013561e-01   9.087346e-03
  2.257981e+00    7.197356e-01   9.194016e-03
  2.260192e+00    7.235029e-01   9.206468e-03
  2.262402e+00    7.336280e-01   9.259257e-03
  2.264613e+00    7.483624e-01   9.340256e-03
  2.266823e+00    7.347574e-01   9.244055e-03
  2.269033e+00    7.179916e-01   9.127167e-03
  2.271244e+00    7.188237e-01   9.121608e-03
  2.273454e+00    7.538677e-01   9.330366e-03
  2.275665e+00    7.972905e-01   9.583991e-03
  2.277875e+00    7.901713e-01   9.530315e-03
  2.280086e+00    7.209415e-01   9.092755e-03
  2.282296e+00    6.831648e-01   8.841745e-03
  2.284507e+00    6.527139e-01   8.632351e-03
  2.286717e+00    6.618476e-01   8.683023e-03
  2.288928e+00    6.543409e-01   8.623816e-03
  2.291138e+00    6.544628e-01   8.615199e-03
  2.293348e+00    6.548555e-01   8.608259e-03
  2.295559e+00    6.581911e-01   8.620800e-03
  2.297769e+00    6.592296e-01   8.618345e-03
  2.299980e+00    6.618182e-01   8.625844e-03
  2.302190e+00    6.593390e-01   8.600503e-03
  2.304401e+00    6.355001e-01   8.434405e-03
  2.306611e+00    6.433464e-01   8.477161e-03
  2.308822e+00    6.450498e-01   8.480034e-03
  2.311032e+00    6.325071e-01   8.390826e-03
  2.313243e+00    6.478891e-01   8.485969e-03
  2.315453e+00    6.581438e-01   8.545247e-03
  2.317663e+00    6.353127e-01   8.386686e-03
  2.319874e+00    6.441880e-01   8.436333e-03
  2.322084e+00    6.447673e-01   8.431192e-03
  2.324295e+00    6.425050e-01   8.408152e-03
  2.326505e+00    6.592140e-01   8.507635e-03
  2.328716e+00    6.573991e-01   8.487288e-03
  2.330926e+00    6.575853e-01   8.479591e-03
  2.333137e+00    6.471576e-01   8.403674e-03
  2.335347e+00    6.412026e-01   8.356070e-03
  2.337558e+00    6.340551e-01   8.301154e-03
  2.339768e+00    6.543884e-01   8.424537e-03
  2.341979e+00    6.404352e-01   8.325884e-03
  2.344189e+00    6.212192e-01   8.191735e-03
  2.346399e+00    6.290279e-01   8.234587e-03
  2.348610e+00    6.349906e-01   8.265095e-03
  2.350820e+00    6.368298e-01   8.268847e-03
  2.353031e+00    6.294531e-01   8.212568e-03
  2.355241e+00    6.414075e-01   8.282070e-03
  2.357452e+00    6.472861e-01   8.311437e-03
  2.359662e+00    6.236317e-01   8.149986e-03
  2.361873e+00    6.297421e-01   8.181569e-03
  2.364083e+00    6.382927e-01   8.228893e-03
  2.366294e+00    6.411527e-01   8.239103e-03
  2.368504e+00    6.435482e-01   8.246315e-03
  2.370714e+00    6.307815e-01   8.156014e-03
  2.372925e+00    6.351784e-01   8.176270e-03
  2.375135e+00    6.262366e-01   8.110448e-03
  2.377346e+00    6.314175e-01   8.135936e-03
  2.379556e+00    6.207383e-01   8.058947e-03
  2.381767e+00    6.311867e-01   8.118572e-03
  2.383977e+00    6.288400e-01   8.095480e-03
  2.386188e+00    6.302666e-01   8.096677e-03
  2.388398e+00    6.299845e-01   8.086822e-03
  2.390609e+00    6.183927e-01   8.004360e-03
  2.392819e+00    6.250914e-01   8.039759e-03
  2.395029e+00    6.059920e-01   7.908392e-03
  2.397240e+00    6.171949e-01   7.973249e-03
  2.399450e+00    6.287721e-01   8.039799e-03
  2.401661e+00    6.109145e-01   7.917133e-03
  2.403871e+00    6.034499e-01   7.860904e-03
  2.406082e+00    5.942704e-01   7.793538e-03
  2.408292e+00    6.159339e-01   7.926479e-03
  2.410503e+00    6.186606e-01   7.936479e-03
  2.412713e+00    6.146871e-01   7.903091e-03
  2.414924e+00    5.937830e-01   7.760154e-03
  2.417134e+00    5.912802e-01   7.736202e-03
  2.419344e+00    6.184157e-01   7.904239e-03
  2.421555e+00    6.082906e-01   7.831729e-03
  2.423765e+00    6.035377e-01   7.793636e-03
  2.425976e+00    6.028411e-01   7.781323e-03
  2.428186e+00    5.859296e-01   7.664260e-03
  2.430397e+00    5.820596e-01   7.631518e-03
  2.432607e+00    5.986647e-01   7.732298e-03
  2.434818e+00    5.949826e-01   7.700972e-03
  2.437028e+00    5.840966e-01   7.623093e-03
  2.439239e+00    6.005993e-01   7.722330e-03
  2.441449e+00    6.003682e-01   7.713603e-03
  2.443659e+00    5.830105e-01   7.593985e-03
  2.445870e+00    5.715826e-01   7.531239e-03
  2.448080e+00    5.792778e-01   7.616457e-03
  2.450291e+00    5.731596e-01   7.592687e-03
  2.452501e+00    5.751365e-01   7.616912e-03
  2.454712e+00    5.759248e-01   7.630586e-03
  2.456922e+00    5.650125e-01   7.564540e-03
  2.459133e+00    5.595610e-01   7.533346e-03
  2.461343e+00    5.673628e-01   7.590028e-03
  2.463554e+00    5.687274e-01   7.602644e-03
  2.465764e+00    5.787795e-01   7.672704e-03
  2.467975e+00    5.690442e-01   7.610227e-03
  2.470185e+00    5.528691e-01   7.503528e-03
  2.472395e+00    5.483981e-01   7.474327e-03
  2.474606e+00    5.628379e-01   7.573665e-03
  2.476816e+00    5.612810e-01   7.563930e-03
  2.479027e+00    5.596216e-01   7.553592e-03
  2.481237e+00    5.534303e-01   7.511978e-03
  2.483448e+00    5.552436e-01   7.524579e-03
  2.485658e+00    5.506691e-01   7.493361e-03
  2.487869e+00    5.479918e-01   7.475186e-03
  2.490079e+00    5.520909e-01   7.502539e-03
  2.492290e+00    5.584552e-01   7.545233e-03
  2.494500e+00    5.533991e-01   7.510254e-03
  2.496710e+00    5.677244e-01   7.606121e-03
  2.498921e+00    5.487739e-01   7.477107e-03
  2.501131e+00    5.376690e-01   7.400113e-03
  2.503342e+00    5.301504e-01   7.346917e-03
  2.505552e+00    5.317361e-01   7.356769e-03
  2.507763e+00    5.293531e-01   7.338853e-03
  2.509973e+00    5.110196e-01   7.209288e-03
  2.512184e+00    5.361067e-01   7.382455e-03
  2.514394e+00    5.461192e-01   7.441585e-03
  2.516605e+00    5.485160e-01   7.409838e-03
  2.518815e+00    5.474942e-01   7.374065e-03
  2.521025e+00    5.352809e-01   7.270177e-03
  2.523236e+00    5.441109e-01   7.311593e-03
  2.525446e+00    5.429975e-01   7.288259e-03
  2.527657e+00    5.237888e-01   7.143596e-03
  2.529867e+00    5.291921e-01   7.166119e-03
  2.532078e+00    5.231429e-01   7.110021e-03
  2.534288e+00    5.266601e-01   7.119982e-03
  2.536499e+00    5.209037e-01   7.069064e-03
  2.538709e+00    5.299019e-01   7.118801e-03
  2.540920e+00    5.348897e-01   7.141475e-03
  2.543130e+00    5.358819e-01   7.137611e-03
  2.545340e+00    5.307534e-01   7.093259e-03
  2.547551e+00    5.340993e-01   7.105517e-03
  2.549761e+00    5.401405e-01   7.135850e-03
  2.551972e+00    5.328001e-01   7.077756e-03
  2.554182e+00    5.129938e-01   6.935854e-03
  2.556393e+00    5.091789e-01   6.901006e-03
  2.558603e+00    5.254518e-01   7.001309e-03
  2.560814e+00    5.154331e-01   6.925580e-03
  2.563024e+00    5.110292e-01   6.887413e-03
  2.565235e+00    5.163848e-01   6.913922e-03
  2.567445e+00    5.201944e-01   6.929825e-03
  2.569656e+00    5.089166e-01   6.844622e-03
  2.571866e+00    5.142235e-01   6.870904e-03
  2.574076e+00    4.975832e-01   6.749727e-03
  2.576287e+00    5.165979e-01   6.869124e-03
  2.578497e+00    5.259357e-01   6.923040e-03
  2.580708e+00    5.141410e-01   6.836893e-03
  2.582918e+00    5.165856e-01   6.845351e-03
  2.585129e+00    5.077252e-01   6.778684e-03
  2.587339e+00    5.142164e-01   6.814199e-03
  2.589550e+00    5.145519e-01   6.808877e-03
  2.591760e+00    5.006173e-01   6.708377e-03
  2.593971e+00    5.192292e-01   6.824362e-03
  2.596181e+00    5.172943e-01   6.805383e-03
  2.598391e+00    5.126763e-01   6.769740e-03
  2.600602e+00    5.011598e-01   6.687414e-03
  2.602812e+00    5.157511e-01   6.776467e-03
  2.605023e+00    5.055279e-01   6.701841e-03
  2.607233e+00    5.105138e-01   6.727634e-03
  2.609444e+00    5.263954e-01   6.824123e-03
  2.611654e+00    5.135762e-01   6.733154e-03
  2.613865e+00    5.087765e-01   6.694573e-03
  2.616075e+00    4.913589e-01   6.571932e-03
  2.618286e+00    5.047004e-01   6.653564e-03
  2.620496e+00    5.154302e-01   6.717150e-03
  2.622706e+00    5.137762e-01   6.700587e-03
  2.624917e+00    5.041026e-01   6.631353e-03
  2.627127e+00    5.017980e-01   6.610449e-03
  2.629338e+00    5.100638e-01   6.658654e-03
  2.631548e+00    5.142280e-01   6.679536e-03
  2.633759e+00    5.205013e-01   6.712898e-03
  2.635969e+00    5.206695e-01   6.707167e-03
  2.638180e+00    5.143664e-01   6.659362e-03
  2.640390e+00    5.114023e-01   6.633491e-03
  2.642601e+00    5.036049e-01   6.576039e-03
  2.644811e+00    5.082396e-01   6.599092e-03
  2.647021e+00    5.182397e-01   6.657012e-03
  2.649232e+00    5.101132e-01   6.597845e-03
  2.651442e+00    4.891250e-01   6.454237e-03
  2.653653e+00    4.900539e-01   6.453630e-03
  2.655863e+00    4.955660e-01   6.483141e-03
  2.658074e+00    5.081037e-01   6.557988e-03
  2.660284e+00    4.944599e-01   6.462987e-03
  2.662495e+00    5.097004e-01   6.555003e-03
  2.664705e+00    5.112591e-01   6.558356e-03
  2.666916e+00    5.153121e-01   6.577721e-03
  2.669126e+00    5.040146e-01   6.498704e-03
  2.671337e+00    4.950431e-01   6.434029e-03
  2.673547e+00    4.935384e-01   6.417876e-03
  2.675757e+00    4.916889e-01   6.399400e-03
  2.677968e+00    5.009658e-01   6.452922e-03
  2.680178e+00    4.984703e-01   6.430412e-03
  2.682389e+00    4.895166e-01   6.366013e-03
  2.684599e+00    4.925626e-01   6.379610e-03
  2.686810e+00    4.865380e-01   6.333912e-03
  2.689020e+00    4.946386e-01   6.380087e-03
  2.691231e+00    5.120992e-01   6.485314e-03
  2.693441e+00    4.984709e-01   6.392247e-03
  2.695652e+00    4.929814e-01   6.350416e-03
  2.697862e+00    4.974455e-01   6.372701e-03
  2.700072e+00    4.939148e-01   6.343953e-03
  2.702283e+00    4.930656e-01   6.332245e-03
  2.704493e+00    4.890730e-01   6.300272e-03
  2.706704e+00    4.930893e-01   6.319648e-03
  2.708914e+00    4.944648e-01   6.322463e-03
  2.711125e+00    4.785540e-01   6.213719e-03
  2.713335e+00    4.716719e-01   6.162891e-03
  2.715546e+00    4.699741e-01   6.145421e-03
  2.717756e+00    4.896159e-01   6.266625e-03
  2.719967e+00    4.890587e-01   6.256836e-03
  2.722177e+00    4.823148e-01   6.207441e-03
  2.724387e+00    4.966939e-01   6.293117e-03
  2.726598e+00    4.919197e-01   6.256705e-03
  2.728808e+00    4.877873e-01   6.224198e-03
  2.731019e+00    4.884282e-01   6.222138e-03
  2.733229e+00    4.751722e-01   6.131389e-03
  2.735440e+00    4.790757e-01   6.150247e-03
  2.737650e+00    4.950064e-01   6.245606e-03
  2.739861e+00    4.954355e-01   6.242164e-03
  2.742071e+00    4.925697e-01   6.218291e-03
  2.744282e+00    4.955487e-01   6.230722e-03
  2.746492e+00    5.048877e-01   6.282998e-03
  2.748702e+00    4.837039e-01   6.143868e-03
  2.750913e+00    4.831276e-01   6.134393e-03
  2.753123e+00    4.797486e-01   6.106804e-03
  2.755334e+00    4.715985e-01   6.048688e-03
  2.757544e+00    4.909180e-01   6.165527e-03
  2.759755e+00    4.980891e-01   6.204422e-03
  2.761965e+00    4.966525e-01   6.189377e-03
  2.764176e+00    4.848904e-01   6.109642e-03
  2.766386e+00    4.872935e-01   6.118911e-03
  2.768597e+00    4.870153e-01   6.111269e-03
  2.770807e+00    4.858889e-01   6.098271e-03
  2.773017e+00    4.832216e-01   6.075522e-03
  2.775228e+00    4.889080e-01   6.105305e-03
  2.777438e+00    4.863264e-01   6.083331e-03
  2.779649e+00    4.921721e-01   6.113790e-03
  2.781859e+00    4.816524e-01   6.042317e-03
  2.784070e+00    4.868096e-01   6.068658e-03
  2.786280e+00    4.850717e-01   6.052003e-03
  2.788491e+00    4.828633e-01   6.032340e-03
  2.790701e+00    4.766485e-01   5.987743e-03
  2.792912e+00    4.784075e-01   5.992804e-03
  2.795122e+00    4.856446e-01   6.032167e-03
  2.797333e+00    4.806571e-01   5.995538e-03
  2.799543e+00    4.664562e-01   5.900490e-03
  2.801753e+00    4.724007e-01   5.932131e-03
  2.803964e+00    4.749134e-01   5.942219e-03
  2.806174e+00    4.821296e-01   5.981013e-03
  2.808385e+00    4.775202e-01   5.945536e-03
  2.810595e+00    4.856094e-01   5.988732e-03
  2.812806e+00    4.711315e-01   5.892214e-03
  2.815016e+00    4.720793e-01   5.893394e-03
  2.817227e+00    4.716350e-01   5.916477e-03
  2.819437e+00    4.651780e-01   5.886832e-03
  2.821648e+00    4.668679e-01   5.899770e-03
  2.823858e+00    4.805620e-01   5.991056e-03
  2.826068e+00    4.868837e-01   6.035378e-03
  2.828279e+00    4.787084e-01   5.988582e-03
  2.830489e+00    4.680903e-01   5.925103e-03
  2.832700e+00    4.570607e-01   5.857401e-03
  2.834910e+00    4.586627e-01   5.869678e-03
  2.837121e+00    4.777172e-01   5.992091e-03
  2.839331e+00    4.807032e-01   6.012032e-03
  2.841542e+00    4.896064e-01   6.068486e-03
  2.843752e+00    4.766095e-01   5.988197e-03
  2.845963e+00    4.763232e-01   5.986786e-03
  2.848173e+00    4.773796e-01   5.993518e-03
  2.850383e+00    4.669270e-01   5.927833e-03
  2.852594e+00    4.729663e-01   5.965960e-03
  2.854804e+00    4.730289e-01   5.965837e-03
  2.857015e+00    4.806553e-01   6.013324e-03
  2.859225e+00    4.705289e-01   5.949373e-03
  2.861436e+00    4.723515e-01   5.960229e-03
  2.863646e+00    4.687765e-01   5.937678e-03
  2.865857e+00    4.618052e-01   5.893695e-03
  2.868067e+00    4.588801e-01   5.875210e-03
  2.870278e+00    4.657588e-01   5.918747e-03
  2.872488e+00    4.611011e-01   5.887899e-03
  2.874698e+00    4.667930e-01   5.923099e-03
  2.876909e+00    4.737125e-01   5.965475e-03
  2.879119e+00    4.731736e-01   5.960455e-03
  2.881330e+00    4.715077e-01   5.948478e-03
  2.883540e+00    4.580455e-01   5.861542e-03
  2.885751e+00    4.649355e-01   5.903835e-03
  2.887961e+00    4.655633e-01   5.905904e-03
  2.890172e+00    4.568564e-01   5.848836e-03
  2.892382e+00    4.638501e-01   5.891619e-03
  2.894593e+00    4.742256e-01   5.955296e-03
  2.896803e+00    4.666612e-01   5.905648e-03
  2.899014e+00    4.508815e-01   5.803023e-03
  2.901224e+00    4.633406e-01   5.880657e-03
  2.903434e+00    4.734872e-01   5.942726e-03
  2.905645e+00    4.644366e-01   5.883428e-03
  2.907855e+00    4.646882e-01   5.882905e-03
  2.910066e+00    4.670066e-01   5.895465e-03
  2.912276e+00    4.428261e-01   5.738741e-03
  2.914487e+00    4.545613e-01   5.811810e-03
  2.916697e+00    4.616947e-01   5.855012e-03
  2.918908e+00    4.822882e-01   5.982111e-03
  2.921118e+00    4.748866e-01   5.933299e-03
  2.923329e+00    4.604126e-01   5.839854e-03
  2.925539e+00    4.685690e-01   5.889033e-03
  2.927749e+00    4.928285e-01   6.037145e-03
  2.929960e+00    5.297258e-01   6.256090e-03
  2.932170e+00    5.012302e-01   6.083094e-03
  2.934381e+00    4.729670e-01   5.906589e-03
  2.936591e+00    4.688458e-01   5.878188e-03
  2.938802e+00    4.484623e-01   5.746304e-03
  2.941012e+00    4.544345e-01   5.782098e-03
  2.943223e+00    4.591083e-01   5.809053e-03
  2.945433e+00    4.730981e-01   5.893080e-03
  2.947644e+00    4.585024e-01   5.797338e-03
  2.949854e+00    4.439099e-01   5.700101e-03
  2.952064e+00    4.496919e-01   5.732922e-03
  2.954275e+00    4.559258e-01   5.768095e-03
  2.956485e+00    4.614492e-01   5.798700e-03
  2.958696e+00    4.690686e-01   5.841959e-03
  2.960906e+00    4.571105e-01   5.762815e-03
  2.963117e+00    4.446624e-01   5.679375e-03
  2.965327e+00    4.444006e-01   5.673841e-03
  2.967538e+00    4.569195e-01   5.750266e-03
  2.969748e+00    4.670972e-01   5.811119e-03
  2.971959e+00    4.589311e-01   5.756943e-03
  2.974169e+00    4.633219e-01   5.781798e-03
  2.976379e+00    4.662239e-01   5.796942e-03
  2.978590e+00    4.532110e-01   5.712319e-03
  2.980800e+00    4.619299e-01   5.764181e-03
  2.983011e+00    4.542145e-01   5.713068e-03
  2.985221e+00    4.486669e-01   5.674909e-03
  2.987432e+00    4.563928e-01   5.720449e-03
  2.989642e+00    4.606978e-01   5.744721e-03
  2.991853e+00    4.518296e-01   5.685898e-03
  2.994063e+00    4.539898e-01   5.696557e-03
  2.996274e+00    4.533036e-01   5.689079e-03
  2.998484e+00    4.593426e-01   5.724110e-03
  3.000694e+00    4.487105e-01   5.654068e-03
  3.002905e+00    4.578707e-01   5.708522e-03
  3.005115e+00    4.534034e-01   5.677635e-03
  3.007326e+00    4.496563e-01   5.650971e-03
  3.009536e+00    4.612425e-01   5.720036e-03
  3.011747e+00    4.625852e-01   5.725408e-03
  3.013957e+00    4.538669e-01   5.668027e-03
  3.016168e+00    4.479499e-01   5.627709e-03
  3.018378e+00    4.581720e-01   5.688493e-03
  3.020589e+00    4.613840e-01   5.705161e-03
  3.022799e+00    4.598736e-01   5.692631e-03
  3.025010e+00    4.542787e-01   5.654645e-03
  3.027220e+00    4.631723e-01   5.706583e-03
  3.029430e+00    4.649111e-01   5.713993e-03
  3.031641e+00    4.604936e-01   5.683621e-03
  3.033851e+00    4.632847e-01   5.697255e-03
  3.036062e+00    4.494267e-01   5.608631e-03
  3.038272e+00    4.497492e-01   5.607058e-03
  3.040483e+00    4.664651e-01   5.707028e-03
  3.042693e+00    4.659527e-01   5.700592e-03
  3.044904e+00    4.635511e-01   5.681811e-03
  3.047114e+00    4.521467e-01   5.606660e-03
  3.049325e+00    4.560037e-01   5.626092e-03
  3.051535e+00    4.534027e-01   5.605639e-03
  3.053745e+00    4.491588e-01   5.574586e-03
  3.055956e+00    4.642704e-01   5.662946e-03
  3.058166e+00    4.471293e-01   5.553191e-03
  3.060377e+00    4.499919e-01   5.566155e-03
  3.062587e+00    4.447952e-01   5.529327e-03
  3.064798e+00    4.429362e-01   5.513535e-03
  3.067008e+00    4.522917e-01   5.566704e-03
  3.069219e+00    4.642045e-01   5.634974e-03
  3.071429e+00    4.574158e-01   5.590067e-03
  3.073640e+00    4.444618e-01   5.507034e-03
  3.075850e+00    4.495498e-01   5.534874e-03
  3.078060e+00    4.510032e-01   5.540711e-03
  3.080271e+00    4.455291e-01   5.503515e-03
  3.082481e+00    4.432553e-01   5.486025e-03
  3.084692e+00    4.498571e-01   5.523347e-03
  3.086902e+00    4.490893e-01   5.515384e-03
  3.089113e+00    4.603054e-01   5.580202e-03
  3.091323e+00    4.653867e-01   5.607501e-03
  3.093534e+00    4.591252e-01   5.566224e-03
  3.095744e+00    4.655083e-01   5.601335e-03
  3.097955e+00    4.543510e-01   5.530258e-03
  3.100165e+00    4.420375e-01   5.451460e-03
  3.102375e+00    4.575015e-01   5.542540e-03
  3.104586e+00    4.431760e-01   5.451606e-03
  3.106796e+00    4.465347e-01   5.468703e-03
  3.109007e+00    4.537271e-01   5.509315e-03
  3.111217e+00    4.496656e-01   5.480908e-03
  3.113428e+00    4.399832e-01   5.418177e-03
  3.115638e+00    4.439117e-01   5.439092e-03
  3.117849e+00    4.478921e-01   5.459675e-03
  3.120059e+00    4.606844e-01   5.533570e-03
  3.122270e+00    4.534864e-01   5.486897e-03
  3.124480e+00    4.437263e-01   5.423844e-03
  3.126691e+00    4.446847e-01   5.426127e-03
  3.128901e+00    4.507103e-01   5.459636e-03
  3.131111e+00    4.379412e-01   5.377916e-03
  3.133322e+00    4.614872e-01   5.517075e-03
  3.135532e+00    4.582923e-01   5.494514e-03
  3.137743e+00    4.635970e-01   5.522654e-03
  3.139953e+00    4.626350e-01   5.513160e-03
  3.142164e+00    4.555836e-01   5.483174e-03
  3.144374e+00    4.546375e-01   5.506264e-03
  3.146585e+00    4.430037e-01   5.449950e-03
  3.148795e+00    4.385591e-01   5.433246e-03
  3.151006e+00    4.527662e-01   5.529216e-03
  3.153216e+00    4.495606e-01   5.516803e-03
  3.155426e+00    4.485341e-01   5.516869e-03
  3.157637e+00    4.372104e-01   5.452268e-03
  3.159847e+00    4.548419e-01   5.566086e-03
  3.162058e+00    4.580769e-01   5.590358e-03
  3.164268e+00    4.612386e-01   5.613791e-03
  3.166479e+00    4.561929e-01   5.586705e-03
  3.168689e+00    4.548992e-01   5.582220e-03
  3.170900e+00    4.405854e-01   5.496869e-03
  3.173110e+00    4.367371e-01   5.475660e-03
  3.175321e+00    4.403560e-01   5.500813e-03
  3.177531e+00    4.446857e-01   5.530546e-03
  3.179741e+00    4.337766e-01   5.464354e-03
  3.181952e+00    4.360385e-01   5.480677e-03
  3.184162e+00    4.378872e-01   5.494478e-03
  3.186373e+00    4.343732e-01   5.473985e-03
  3.188583e+00    4.357871e-01   5.484668e-03
  3.190794e+00    4.354077e-01   5.484043e-03
  3.193004e+00    4.277267e-01   5.436671e-03
  3.195215e+00    4.384052e-01   5.505641e-03
  3.197425e+00    4.406483e-01   5.520913e-03
  3.199636e+00    4.440662e-01   5.541516e-03
  3.201846e+00    4.396718e-01   5.513406e-03
  3.204056e+00    4.402490e-01   5.517937e-03
  3.206267e+00    4.220006e-01   5.403196e-03
  3.208477e+00    4.376121e-01   5.503152e-03
  3.210688e+00    4.374062e-01   5.502714e-03
  3.212898e+00    4.378630e-01   5.506155e-03
  3.215109e+00    4.424947e-01   5.535968e-03
  3.217319e+00    4.376561e-01   5.506272e-03
  3.219530e+00    4.373144e-01   5.504502e-03
  3.221740e+00    4.262187e-01   5.434793e-03
  3.223951e+00    4.338639e-01   5.483774e-03
  3.226161e+00    4.439920e-01   5.547609e-03
  3.228372e+00    4.382694e-01   5.512279e-03
  3.230582e+00    4.366291e-01   5.502093e-03
  3.232792e+00    4.351738e-01   5.493154e-03
  3.235003e+00    4.347201e-01   5.490515e-03
  3.237213e+00    4.362058e-01   5.500013e-03
  3.239424e+00    4.248829e-01   5.428145e-03
  3.241634e+00    4.324239e-01   5.476224e-03
  3.243845e+00    4.298362e-01   5.459904e-03
  3.246055e+00    4.236013e-01   5.419883e-03
  3.248266e+00    4.281523e-01   5.449106e-03
  3.250476e+00    4.276907e-01   5.445883e-03
  3.252687e+00    4.346293e-01   5.489775e-03
  3.254897e+00    4.435900e-01   5.545974e-03
  3.257107e+00    4.393946e-01   5.519368e-03
  3.259318e+00    4.389791e-01   5.516528e-03
  3.261528e+00    4.214858e-01   5.405362e-03
  3.263739e+00    4.175586e-01   5.379536e-03
  3.265949e+00    4.261038e-01   5.434200e-03
  3.268160e+00    4.252685e-01   5.428451e-03
  3.270370e+00    4.254017e-01   5.428791e-03
  3.272581e+00    4.208199e-01   5.399214e-03
  3.274791e+00    4.067749e-01   5.307807e-03
  3.277002e+00    4.399258e-01   5.519282e-03
  3.279212e+00    4.349930e-01   5.487897e-03
  3.281422e+00    4.196790e-01   5.389843e-03
  3.283633e+00    4.334798e-01   5.477047e-03
  3.285843e+00    4.433680e-01   5.538824e-03
  3.288054e+00    4.403820e-01   5.519204e-03
  3.290264e+00    4.329124e-01   5.471864e-03
  3.292475e+00    4.250104e-01   5.420872e-03
  3.294685e+00    4.231001e-01   5.408022e-03
  3.296896e+00    4.346723e-01   5.480727e-03
  3.299106e+00    4.267721e-01   5.430127e-03
  3.301317e+00    4.431254e-01   5.532144e-03
  3.303527e+00    4.348851e-01   5.479990e-03
  3.305737e+00    4.262451e-01   5.424227e-03
  3.307948e+00    4.450823e-01   5.542103e-03
  3.310158e+00    4.407536e-01   5.514228e-03
  3.312369e+00    4.384449e-01   5.498858e-03
  3.314579e+00    4.281349e-01   5.432921e-03
  3.316790e+00    4.260795e-01   5.419131e-03
  3.319000e+00    4.270428e-01   5.424074e-03
  3.321211e+00    4.403214e-01   5.507137e-03
  3.323421e+00    4.201922e-01   5.378580e-03
  3.325632e+00    4.301797e-01   5.441241e-03
  3.327842e+00    4.213239e-01   5.384024e-03
  3.330052e+00    4.244854e-01   5.403098e-03
  3.332263e+00    4.461315e-01   5.538114e-03
  3.334473e+00    4.337360e-01   5.459721e-03
  3.336684e+00    4.267709e-01   5.414429e-03
  3.338894e+00    4.224004e-01   5.385788e-03
  3.341105e+00    4.175701e-01   5.353694e-03
  3.343315e+00    4.268955e-01   5.411999e-03
  3.345526e+00    4.311160e-01   5.437769e-03
  3.347736e+00    4.329443e-01   5.447881e-03
  3.349947e+00    4.175776e-01   5.349381e-03
  3.352157e+00    4.211129e-01   5.370809e-03
  3.354368e+00    4.316508e-01   5.436265e-03
  3.356578e+00    4.227382e-01   5.378844e-03
  3.358788e+00    4.227284e-01   5.377430e-03
  3.360999e+00    4.130885e-01   5.314526e-03
  3.363209e+00    4.282967e-01   5.410460e-03
  3.365420e+00    4.232883e-01   5.377187e-03
  3.367630e+00    4.216881e-01   5.366008e-03
  3.369841e+00    4.173547e-01   5.336917e-03
  3.372051e+00    4.242396e-01   5.378782e-03
  3.374262e+00    4.144321e-01   5.313805e-03
  3.376472e+00    4.192085e-01   5.341897e-03
  3.378683e+00    4.142968e-01   5.307989e-03
  3.380893e+00    4.184724e-01   5.332338e-03
  3.383103e+00    4.214087e-01   5.348299e-03
  3.385314e+00    4.212366e-01   5.344965e-03
  3.387524e+00    4.022579e-01   5.220456e-03
  3.389735e+00    4.122868e-01   5.282531e-03
  3.391945e+00    4.131589e-01   5.284429e-03
  3.394156e+00    4.137869e-01   5.284205e-03
  3.396366e+00    4.156764e-01   5.292846e-03
  3.398577e+00    4.380889e-01   5.430520e-03
  3.400787e+00    4.147739e-01   5.296025e-03
  3.402998e+00    4.051848e-01   5.272267e-03
  3.405208e+00    4.053675e-01   5.294107e-03
  3.407418e+00    4.058383e-01   5.313074e-03
  3.409629e+00    4.011479e-01   5.296231e-03
  3.411839e+00    4.026222e-01   5.317794e-03
  3.414050e+00    4.089270e-01   5.370405e-03
  3.416260e+00    4.082527e-01   5.375814e-03
  3.418471e+00    4.030886e-01   5.351216e-03
  3.420681e+00    3.825582e-01   5.221566e-03
  3.422892e+00    3.772742e-01   5.193223e-03
  3.425102e+00    4.001192e-01   5.356038e-03
  3.427313e+00    3.878746e-01   5.280665e-03
  3.429523e+00    3.961392e-01   5.343763e-03
  3.431733e+00    3.818663e-01   5.253254e-03
  3.433944e+00    3.864995e-01   5.291501e-03
  3.436154e+00    3.909678e-01   5.328324e-03
  3.438365e+00    3.857450e-01   5.298583e-03
  3.440575e+00    3.788125e-01   5.256662e-03
  3.442786e+00    3.749098e-01   5.235085e-03
  3.444996e+00    3.639187e-01   5.163202e-03
  3.447207e+00    3.472902e-01   5.048940e-03
  3.449417e+00    3.616720e-01   5.192666e-03
  3.451628e+00    3.604470e-01   5.213002e-03
  3.453838e+00    3.762016e-01   5.347080e-03
  3.456049e+00    3.608456e-01   5.260546e-03
  3.458259e+00    3.726888e-01   5.368270e-03
  3.460469e+00    3.808781e-01   5.447126e-03
  3.462680e+00    3.687592e-01   5.378889e-03
  3.464890e+00    3.686784e-01   5.396144e-03
  3.467101e+00    3.843495e-01   5.527479e-03
  3.469311e+00    3.878896e-01   5.569852e-03
  3.471522e+00    3.890254e-01   5.594684e-03
  3.473732e+00    3.980842e-01   5.675767e-03
  3.475943e+00    4.142923e-01   5.806574e-03
  3.478153e+00    4.024771e-01   5.738852e-03
  3.480364e+00    4.124008e-01   5.824673e-03
  3.482574e+00    4.246259e-01   5.926133e-03
  3.484784e+00    4.289081e-01   5.971137e-03
  3.486995e+00    4.296449e-01   5.991599e-03
  3.489205e+00    4.325772e-01   6.026850e-03
  3.491416e+00    4.465384e-01   6.138579e-03
  3.493626e+00    4.358137e-01   6.079023e-03
  3.495837e+00    4.466621e-01   6.169068e-03
  3.498047e+00    4.630322e-01   6.295884e-03
  3.500258e+00    4.634913e-01   6.313806e-03
  3.502468e+00    4.505401e-01   6.239301e-03
  3.504679e+00    4.682135e-01   6.375077e-03
  3.506889e+00    4.844394e-01   6.499367e-03
  3.509099e+00    4.910532e-01   6.558240e-03
  3.511310e+00    4.786329e-01   6.489252e-03
  3.513520e+00    5.027862e-01   6.665701e-03
  3.515731e+00    4.873704e-01   6.577128e-03
  3.517941e+00    4.874387e-01   6.591901e-03
  3.520152e+00    4.991951e-01   6.685318e-03
  3.522362e+00    5.124471e-01   6.788089e-03
  3.524573e+00    5.153334e-01   6.821608e-03
  3.526783e+00    5.108061e-01   6.804942e-03
  3.528994e+00    5.292917e-01   6.939352e-03
  3.531204e+00    5.264575e-01   6.933277e-03
  3.533414e+00    5.355791e-01   7.005282e-03
  3.535625e+00    5.278614e-01   6.966995e-03
  3.537835e+00    5.394319e-01   7.055088e-03
  3.540046e+00    5.522413e-01   7.147468e-03
  3.542256e+00    5.545031e-01   7.169774e-03
  3.544467e+00    5.320364e-01   7.030588e-03
  3.546677e+00    5.392423e-01   7.085657e-03
  3.548888e+00    5.468473e-01   7.142996e-03
  3.551098e+00    5.515583e-01   7.181111e-03
  3.553309e+00    5.424679e-01   7.129894e-03
  3.555519e+00    5.509965e-01   7.197193e-03
  3.557729e+00    5.447162e-01   7.167861e-03
  3.559940e+00    5.527864e-01   7.232477e-03
  3.562150e+00    5.434858e-01   7.183195e-03
  3.564361e+00    5.505810e-01   7.243410e-03
  3.566571e+00    5.540998e-01   7.280599e-03
  3.568782e+00    5.347315e-01   7.166295e-03
  3.570992e+00    5.511422e-01   7.289414e-03
  3.573203e+00    5.308422e-01   7.167976e-03
  3.575413e+00    5.297477e-01   7.174262e-03
  3.577624e+00    5.448073e-01   7.289765e-03
  3.579834e+00    5.362017e-01   7.245859e-03
  3.582045e+00    5.232230e-01   7.171472e-03
  3.584255e+00    5.306883e-01   7.236461e-03
  3.586465e+00    5.292246e-01   7.240296e-03
  3.588676e+00    5.436934e-01   7.352933e-03
  3.590886e+00    5.244510e-01   7.235155e-03
  3.593097e+00    5.295091e-01   7.284415e-03
  3.595307e+00    5.161327e-01   7.205464e-03
  3.597518e+00    5.272108e-01   7.296510e-03
  3.599728e+00    5.425918e-01   7.416322e-03
  3.601939e+00    5.358075e-01   7.383918e-03
  3.604149e+00    5.449855e-01   7.461421e-03
  3.606360e+00    5.261557e-01   7.345409e-03
  3.608570e+00    5.494495e-01   7.520580e-03
  3.610780e+00    5.322704e-01   7.413125e-03
  3.612991e+00    5.465544e-01   7.522046e-03
  3.615201e+00    5.217643e-01   7.359179e-03
  3.617412e+00    5.212911e-01   7.362982e-03
  3.619622e+00    5.322119e-01   7.445674e-03
  3.621833e+00    5.430872e-01   7.528120e-03
  3.624043e+00    5.406351e-01   7.520657e-03
  3.626254e+00    5.514249e-01   7.605217e-03
  3.628464e+00    5.341437e-01   7.496046e-03
  3.630675e+00    5.348471e-01   7.515133e-03
  3.632885e+00    5.430794e-01   7.587285e-03
  3.635095e+00    5.450411e-01   7.615572e-03
  3.637306e+00    5.532422e-01   7.687235e-03
  3.639516e+00    5.488961e-01   7.671776e-03
  3.641727e+00    5.489464e-01   7.686856e-03
  3.643937e+00    5.578056e-01   7.763551e-03
  3.646148e+00    5.398912e-01   7.652589e-03
  3.648358e+00    5.393554e-01   7.663695e-03
  3.650569e+00    5.351015e-01   7.648192e-03
  3.652779e+00    5.468020e-01   7.746308e-03
  3.654990e+00    5.236725e-01   7.595504e-03
  3.657200e+00    5.431970e-01   7.750812e-03
  3.659410e+00    5.525990e-01   7.832862e-03
  3.661621e+00    5.462016e-01   7.802724e-03
  3.663831e+00    5.426331e-01   7.792424e-03
  3.666042e+00    5.446731e-01   7.822433e-03
  3.668252e+00    5.267512e-01   7.707859e-03
  3.670463e+00    5.377721e-01   7.803332e-03
  3.672673e+00    5.390334e-01   7.828087e-03
  3.674884e+00    5.226011e-01   7.723107e-03
  3.677094e+00    5.424322e-01   7.883936e-03
  3.679305e+00    5.405593e-01   7.886045e-03
  3.681515e+00    5.376948e-01   7.880853e-03
  3.683726e+00    5.325742e-01   7.859079e-03
  3.685936e+00    5.333579e-01   7.880604e-03
  3.688146e+00    5.280023e-01   7.856752e-03
  3.690357e+00    5.183618e-01   7.800495e-03
  3.692567e+00    5.258651e-01   7.872831e-03
  3.694778e+00    5.307639e-01   7.925537e-03
  3.696988e+00    5.059763e-01   7.753956e-03
  3.699199e+00    5.264831e-01   7.925726e-03
  3.701409e+00    5.427388e-01   8.063838e-03
  3.703620e+00    5.202355e-01   7.911141e-03
  3.705830e+00    5.328242e-01   8.022775e-03
  3.708041e+00    5.478697e-01   8.152267e-03
  3.710251e+00    5.332553e-01   8.059640e-03
  3.712461e+00    5.442457e-01   8.159393e-03
  3.714672e+00    5.140786e-01   7.946637e-03
  3.716882e+00    5.195980e-01   8.005848e-03
  3.719093e+00    5.093681e-01   7.943615e-03
  3.721303e+00    5.225551e-01   8.062783e-03
  3.723514e+00    5.269205e-01   8.113778e-03
  3.725724e+00    5.353315e-01   8.195721e-03
  3.727935e+00    5.194573e-01   8.090817e-03
  3.730145e+00    5.045944e-01   7.991293e-03
  3.732356e+00    5.135004e-01   8.079022e-03
  3.734566e+00    5.192413e-01   8.141637e-03
  3.736776e+00    5.075870e-01   8.067421e-03
  3.738987e+00    5.249352e-01   8.222007e-03
  3.741197e+00    5.126262e-01   8.143071e-03
  3.743408e+00    5.161369e-01   8.188980e-03
  3.745618e+00    5.289518e-01   8.308628e-03
  3.747829e+00    5.193797e-01   8.251351e-03
  3.750039e+00    5.060552e-01   8.163083e-03
  3.752250e+00    5.108019e-01   8.219729e-03
  3.754460e+00    5.046700e-01   8.188702e-03
  3.756671e+00    5.098592e-01   8.249511e-03
  3.758881e+00    5.060921e-01   8.237555e-03
  3.761091e+00    5.100485e-01   8.288869e-03
  3.763302e+00    5.275783e-01   8.449565e-03
  3.765512e+00    5.044408e-01   8.281365e-03
  3.767723e+00    5.224231e-01   8.447318e-03
  3.769933e+00    5.364476e-01   8.579839e-03
  3.772144e+00    5.167558e-01   8.440748e-03
  3.774354e+00    5.095067e-01   8.401209e-03
  3.776565e+00    5.224559e-01   8.527499e-03
  3.778775e+00    4.985566e-01   8.349991e-03
  3.780986e+00    4.969054e-01   8.356314e-03
  3.783196e+00    5.083433e-01   8.472317e-03
  3.785407e+00    5.087578e-01   8.496257e-03
  3.787617e+00    5.158203e-01   8.576081e-03
  3.789827e+00    4.942250e-01   8.415050e-03
  3.792038e+00    4.923467e-01   8.419592e-03
  3.794248e+00    5.064283e-01   8.560451e-03
  3.796459e+00    5.065618e-01   8.583034e-03
  3.798669e+00    5.190806e-01   8.710208e-03
  3.800880e+00    5.110009e-01   8.663895e-03
  3.803090e+00    5.020622e-01   8.609572e-03
  3.805301e+00    4.883197e-01   8.512785e-03
  3.807511e+00    4.926332e-01   8.572118e-03
  3.809722e+00    4.957724e-01   8.621538e-03
  3.811932e+00    4.806483e-01   8.510850e-03
  3.814142e+00    5.021994e-01   8.722414e-03
  3.816353e+00    4.802223e-01   8.551897e-03
  3.818563e+00    5.033444e-01   8.778536e-03
  3.820774e+00    5.007076e-01   8.778762e-03
  3.822984e+00    5.115232e-01   8.896705e-03
  3.825195e+00    5.219631e-01   9.011339e-03
  3.827405e+00    5.146837e-01   8.972661e-03
  3.829616e+00    5.055110e-01   8.916530e-03
  3.831826e+00    5.058059e-01   8.943513e-03
  3.834037e+00    5.126262e-01   9.028471e-03
  3.836247e+00    5.259795e-01   9.170759e-03
  3.838457e+00    4.955406e-01   8.926438e-03
  3.840668e+00    4.974013e-01   8.968352e-03
  3.842878e+00    4.997132e-01   9.014815e-03
  3.845089e+00    4.824392e-01   8.882902e-03
  3.847299e+00    4.976813e-01   9.047896e-03
  3.849510e+00    4.977482e-01   9.074477e-03
  3.851720e+00    5.009426e-01   9.125121e-03
  3.853931e+00    5.091425e-01   9.218688e-03
  3.856141e+00    4.991905e-01   9.147334e-03
  3.858352e+00    5.050814e-01   9.220508e-03
  3.860562e+00    5.164147e-01   9.343205e-03
  3.862772e+00    4.899232e-01   9.119881e-03
  3.864983e+00    4.993286e-01   9.226773e-03
  3.867193e+00    5.120624e-01   9.363870e-03
  3.869404e+00    4.989791e-01   9.263352e-03
  3.871614e+00    4.960776e-01   9.256387e-03
  3.873825e+00    4.930088e-01   9.248073e-03
  3.876035e+00    5.033734e-01   9.365541e-03
  3.878246e+00    4.963067e-01   9.325454e-03
  3.880456e+00    4.954208e-01   9.346258e-03
  3.882667e+00    4.788801e-01   9.217791e-03
  3.884877e+00    5.035403e-01   9.482215e-03
  3.887087e+00    5.251845e-01   9.714887e-03
  3.889298e+00    4.859037e-01   9.374684e-03
  3.891508e+00    4.819237e-01   9.366522e-03
  3.893719e+00    4.950207e-01   9.523948e-03
  3.895929e+00    4.859892e-01   9.468016e-03
  3.898140e+00    5.048152e-01   9.681824e-03
  3.900350e+00    4.964347e-01   9.633397e-03
  3.902561e+00    4.812326e-01   9.516919e-03
  3.904771e+00    4.811192e-01   9.548172e-03
  3.906982e+00    4.899254e-01   9.668447e-03
  3.909192e+00    5.088013e-01   9.887004e-03
  3.911403e+00    4.868834e-01   9.705755e-03
  3.913613e+00    4.821966e-01   9.692886e-03
  3.915823e+00    4.901783e-01   9.807637e-03
  3.918034e+00    4.794849e-01   9.735066e-03
  3.920244e+00    4.670444e-01   9.642803e-03
  3.922455e+00    5.023306e-01   1.003712e-02
  3.924665e+00    5.138981e-01   1.018936e-02
  3.926876e+00    5.230065e-01   1.031767e-02
  3.929086e+00    4.904133e-01   1.002853e-02
  3.931297e+00    5.065253e-01   1.022738e-02
  3.933507e+00    5.229283e-01   1.042159e-02
  3.935718e+00    5.287797e-01   1.050976e-02
  3.937928e+00    5.218779e-01   1.047142e-02
  3.940138e+00    4.943830e-01   1.022136e-02
  3.942349e+00    4.930064e-01   1.023713e-02
  3.944559e+00    4.931446e-01   1.026878e-02
  3.946770e+00    5.180508e-01   1.055603e-02
  3.948980e+00    5.351502e-01   1.076102e-02
  3.951191e+00    5.003579e-01   1.043669e-02
  3.953401e+00    4.898860e-01   1.035835e-02
  3.955612e+00    4.857396e-01   1.034601e-02
  3.957822e+00    4.774123e-01   1.028837e-02
  3.960033e+00    5.023465e-01   1.058675e-02
  3.962243e+00    4.723529e-01   1.029830e-02
  3.964453e+00    4.820724e-01   1.043657e-02
  3.966664e+00    5.026877e-01   1.069142e-02
  3.968874e+00    5.112265e-01   1.081097e-02
  3.971085e+00    5.277206e-01   1.100690e-02
  3.973295e+00    4.853465e-01   1.057718e-02
  3.975506e+00    5.056369e-01   1.081807e-02
  3.977716e+00    5.021001e-01   1.080257e-02
  3.979927e+00    4.806116e-01   1.059084e-02
  3.982137e+00    5.012656e-01   1.083867e-02
  3.984348e+00    5.171840e-01   1.103275e-02
  3.986558e+00    4.995842e-01   1.086602e-02
  3.988768e+00    5.037715e-01   1.093494e-02
  3.990979e+00    5.184996e-01   1.111711e-02
  3.993189e+00    5.120358e-01   1.107147e-02
  3.995400e+00    4.598202e-01   1.051451e-02
  3.997610e+00    5.010759e-01   1.100639e-02
  3.999821e+00    5.045058e-01   1.108234e-02
  4.002031e+00    5.228512e-01   1.132185e-02
  4.004242e+00    4.780229e-01   1.086392e-02
  4.006452e+00    4.740510e-01   1.085755e-02
  4.008663e+00    4.993737e-01   1.118441e-02
  4.010873e+00    4.826546e-01   1.103545e-02
  4.013084e+00    5.068235e-01   1.135028e-02
  4.015294e+00    5.024428e-01   1.134278e-02
  4.017504e+00    5.031649e-01   1.139372e-02
  4.019715e+00    5.064430e-01   1.147416e-02
  4.021925e+00    5.019301e-01   1.146675e-02
  4.024136e+00    4.810703e-01   1.126940e-02
  4.026346e+00    4.967966e-01   1.149693e-02
  4.028557e+00    4.648677e-01   1.116474e-02
  4.030767e+00    4.876830e-01   1.148122e-02
  4.032978e+00    4.917861e-01   1.157621e-02
  4.035188e+00    4.605524e-01   1.124763e-02
  4.037399e+00    4.810824e-01   1.154302e-02
  4.039609e+00    4.774522e-01   1.154672e-02
  4.041819e+00    4.891701e-01   1.173676e-02
  4.044030e+00    4.862832e-01   1.175198e-02
  4.046240e+00    4.656030e-01   1.154840e-02
  4.048451e+00    4.983396e-01   1.199928e-02
  4.050661e+00    4.540797e-01   1.150395e-02
  4.052872e+00    4.783807e-01   1.186016e-02
  4.055082e+00    4.850754e-01   1.199655e-02
  4.057293e+00    4.879754e-01   1.208633e-02
  4.059503e+00    4.708551e-01   1.192648e-02
  4.061714e+00    4.672206e-01   1.193596e-02
  4.063924e+00    5.031886e-01   1.244476e-02
  4.066134e+00    5.585460e-01   1.317328e-02
  4.068345e+00    4.742049e-01   1.219664e-02
  4.070555e+00    5.013724e-01   1.260147e-02
  4.072766e+00    5.030112e-01   1.268424e-02
  4.074976e+00    4.941584e-01   1.263479e-02
  4.077187e+00    4.809718e-01   1.252714e-02
  4.079397e+00    4.636056e-01   1.236163e-02
  4.081608e+00    4.701107e-01   1.251281e-02
  4.083818e+00    4.759797e-01   1.265623e-02
  4.086029e+00    4.697242e-01   1.263889e-02
  4.088239e+00    4.854113e-01   1.291763e-02
  4.090449e+00    4.916956e-01   1.307129e-02
  4.092660e+00    5.187415e-01   1.349982e-02
  4.094870e+00    5.125899e-01   1.349430e-02
  4.097081e+00    4.839164e-01   1.318328e-02
  4.099291e+00    4.929897e-01   1.336124e-02
  4.101502e+00    4.770276e-01   1.319233e-02
  4.103712e+00    4.726430e-01   1.318034e-02
  4.105923e+00    4.579090e-01   1.302365e-02
  4.108133e+00    4.812967e-01   1.340326e-02
  4.110344e+00    4.851838e-01   1.350917e-02
  4.112554e+00    4.848502e-01   1.355758e-02
  4.114764e+00    5.160480e-01   1.404328e-02
  4.116975e+00    4.956951e-01   1.381782e-02
  4.119185e+00    4.751843e-01   1.358393e-02
  4.121396e+00    4.932326e-01   1.389644e-02
  4.123606e+00    5.158086e-01   1.426940e-02
  4.125817e+00    4.888933e-01   1.395019e-02
  4.128027e+00    4.921702e-01   1.405603e-02
  4.130238e+00    4.836250e-01   1.399296e-02
  4.132448e+00    5.055428e-01   1.436876e-02
  4.134659e+00    4.999114e-01   1.435004e-02
  4.136869e+00    5.092765e-01   1.454836e-02
  4.139080e+00    4.901488e-01   1.433687e-02
  4.141290e+00    5.126291e-01   1.472692e-02
  4.143500e+00    4.881042e-01   1.443651e-02
  4.145711e+00    4.527261e-01   1.396879e-02
  4.147921e+00    4.490947e-01   1.397605e-02
  4.150132e+00    4.792864e-01   1.450720e-02
  4.152342e+00    4.774674e-01   1.454975e-02
  4.154553e+00    4.634847e-01   1.440354e-02
  4.156763e+00    4.673134e-01   1.453438e-02
  4.158974e+00    4.896025e-01   1.495143e-02
  4.161184e+00    5.107736e-01   1.534730e-02
  4.163395e+00    5.079675e-01   1.538324e-02
  4.165605e+00    5.303679e-01   1.580065e-02
  4.167815e+00    4.514952e-01   1.465432e-02
  4.170026e+00    5.052615e-01   1.558402e-02
  4.172236e+00    5.328792e-01   1.609087e-02
  4.174447e+00    4.871721e-01   1.546901e-02
  4.176657e+00    4.886255e-01   1.557695e-02
  4.178868e+00    4.522129e-01   1.506983e-02
  4.181078e+00    5.215329e-01   1.627488e-02
  4.183289e+00    5.129224e-01   1.623256e-02
  4.185499e+00    5.081555e-01   1.625226e-02
  4.187710e+00    4.603447e-01   1.555941e-02
  4.189920e+00    4.016308e-01   1.462084e-02
  4.192130e+00    4.851287e-01   1.616703e-02
  4.194341e+00    4.263434e-01   1.524903e-02
  4.196551e+00    5.184829e-01   1.692249e-02
  4.198762e+00    5.253875e-01   1.714294e-02
  4.200972e+00    5.028847e-01   1.688068e-02
  4.203183e+00    4.609228e-01   1.626748e-02
  4.205393e+00    4.898203e-01   1.688123e-02
  4.207604e+00    4.850800e-01   1.691387e-02
  4.209814e+00    5.139897e-01   1.753017e-02
  4.212025e+00    4.560184e-01   1.662897e-02
  4.214235e+00    5.121159e-01   1.774679e-02
  4.216445e+00    4.986424e-01   1.763876e-02
  4.218656e+00    4.687945e-01   1.723071e-02
  4.220866e+00    5.233561e-01   1.834076e-02
  4.223077e+00    5.597189e-01   1.911302e-02
  4.225287e+00    5.450462e-01   1.900922e-02
  4.227498e+00    4.736646e-01   1.785966e-02
  4.229708e+00    5.039057e-01   1.857090e-02
  4.231919e+00    4.712086e-01   1.810671e-02
  4.234129e+00    5.280158e-01   1.932804e-02
  4.236340e+00    4.611609e-01   1.821743e-02
  4.238550e+00    5.493800e-01   2.005916e-02
  4.240761e+00    4.337600e-01   1.798180e-02
  4.242971e+00    4.808573e-01   1.910599e-02
  4.245181e+00    4.896979e-01   1.946173e-02
  4.247392e+00    5.439800e-01   2.070372e-02
  4.249602e+00    4.918705e-01   1.988286e-02
  4.251813e+00    4.910584e-01   2.006220e-02
  4.254023e+00    4.718190e-01   1.986356e-02
  4.256234e+00    4.909558e-01   2.047876e-02
  4.258444e+00    4.410137e-01   1.961238e-02
  4.260655e+00    4.613949e-01   2.028095e-02
  4.262865e+00    4.210671e-01   1.959392e-02
  4.265076e+00    4.077567e-01   1.950126e-02
  4.267286e+00    5.473892e-01   2.286270e-02
  4.269496e+00    4.192574e-01   2.025364e-02
  4.271707e+00    3.968351e-01   1.994721e-02
  4.273917e+00    4.896016e-01   2.244283e-02
  4.276128e+00    4.899783e-01   2.275057e-02
  4.278338e+00    4.116738e-01   2.113088e-02
  4.280549e+00    5.127738e-01   2.392250e-02
  4.282759e+00    4.267325e-01   2.213675e-02
  4.284970e+00    5.120707e-01   2.460783e-02
  4.287180e+00    5.631577e-01   2.611558e-02
  4.289391e+00    5.282550e-01   2.548398e-02
  4.291601e+00    4.589643e-01   2.394309e-02
  4.293811e+00    4.833181e-01   2.476230e-02
  4.296022e+00    5.119461e-01   2.568934e-02
  4.298232e+00    5.404721e-01   2.661706e-02
  4.300443e+00    4.982025e-01   2.576623e-02
  4.302653e+00    4.430203e-01   2.450727e-02
  4.304864e+00    5.057914e-01   2.641239e-02
  4.307074e+00    4.989433e-01   2.646947e-02
  4.309285e+00    5.636159e-01   2.838788e-02
  4.311495e+00    4.612927e-01   2.592255e-02
  4.313706e+00    4.181310e-01   2.491199e-02
  4.315916e+00    5.062029e-01   2.767994e-02
  4.318126e+00    3.739254e-01   2.402597e-02
  4.320337e+00    4.160210e-01   2.559730e-02
  4.322547e+00    4.944920e-01   2.820380e-02
  4.324758e+00    4.288756e-01   2.653930e-02
  4.326968e+00    5.099732e-01   2.926565e-02
  4.329179e+00    5.692697e-01   3.126091e-02
  4.331389e+00    3.435324e-01   2.456469e-02
  4.333600e+00    4.132171e-01   2.726250e-02
  4.335810e+00    4.158117e-01   2.767276e-02
  4.338021e+00    4.878953e-01   3.035952e-02
  4.340231e+00    4.436164e-01   2.931288e-02
  4.342442e+00    4.609807e-01   3.028155e-02
  4.344652e+00    4.426168e-01   3.007547e-02
  4.346862e+00    3.958937e-01   2.884166e-02
  4.349073e+00    4.992261e-01   3.286018e-02
  4.351283e+00    4.571806e-01   3.191383e-02
  4.353494e+00    5.155035e-01   3.441428e-02
  4.355704e+00    4.433571e-01   3.242788e-02
  4.357915e+00    3.924131e-01   3.101691e-02
  4.360125e+00    4.017604e-01   3.191793e-02
  4.362336e+00    5.971465e-01   3.962364e-02
  4.364546e+00    5.289859e-01   3.797242e-02
  4.366757e+00    5.283179e-01   3.870429e-02
  4.368967e+00    5.240960e-01   3.931671e-02
  4.371177e+00    4.602600e-01   3.762816e-02
  4.373388e+00    5.289759e-01   4.124277e-02
  4.375598e+00    4.098750e-01   3.712982e-02
  4.377809e+00    5.094661e-01   4.244574e-02
  4.380019e+00    4.347905e-01   4.019720e-02
  4.382230e+00    2.468662e-01   3.113435e-02
  4.384440e+00    3.680955e-01   3.911130e-02
  4.386651e+00    4.533201e-01   4.474344e-02
  4.388861e+00    3.291346e-01   3.940650e-02
  4.391072e+00    3.943099e-01   4.464198e-02
  4.393282e+00    3.966739e-01   4.651082e-02
  4.395492e+00    3.586122e-01   4.605830e-02
  4.397703e+00    3.123630e-01   4.495391e-02
  4.399913e+00    3.222821e-01   4.796662e-02
  4.402124e+00    4.025487e-01   5.665512e-02
  4.404334e+00    5.629650e-01   7.121442e-02
  4.406545e+00    2.748666e-01   5.346604e-02
  4.408755e+00    4.852315e-01   7.704368e-02
  4.410966e+00    5.480055e-01   9.061398e-02
  4.413176e+00    6.116425e-01   1.083665e-01
  4.415387e+00   -7.662928e-01            nan
  4.417597e+00   -2.031091e+00            nan
  4.419807e+00    2.807437e-01   1.902519e-01
