# == pyFAI calibration ==
# Distance Sample to Detector: 0.216 m
# PONI: 1.166e-01, 1.308e-01 m
# Rotations: 0.000000 0.000000 0.000000 rad
# 
# == Fit2d calibration ==
# Distance Sample-beamCenter: 216.000 mm
# Center: x=1744.293, y=1555.000 pix
# Tilt: 0.000 deg  TiltPlanRot: 0.000 deg
# 
# Detector Eiger 9M	 PixelSize= 7.500e-05, 7.500e-05 m
#    Detector has a mask: True 
#    Detector has a dark current: False 
#    detector has a flat field: False 
# 
# Wavelength: 9.8e-11 m
# Mask applied: from detector
# Dark current applied: False
# Flat field applied: False
# Polarization factor: None
# Normalization factor: 1.0
# 
# Headers of the input frame:
# {
# "_array_data.header_convention": "SLS_1.0",
# "_array_data.header_contents": "# Detector: Dectris Eiger 9M, S/N E-18-0102\r\n# Pixel_size 75e-6 m x 75e-6 m\r\n# Silicon sensor, thickness 0.000450 m\r\n# Exposure_time 0.024997 s\r\n# Exposure_period 0.025000 s\r\n# Count_cutoff 62318 counts\r\n# Wavelength 0.980106 A\r\n# Detector_distance 0.215992 m\r\n# Beam_xy (1555, 1744) pixels\r\n# Start_angle 0.000000 deg.\r\n# Angle_increment 0.000000 deg.",
# "Content-Type": "application/octet-stream;",
# "conversions": "x-CBF_BYTE_OFFSET",
# "Content-Transfer-Encoding": "BINARY",
# "X-Binary-Size": "10166640",
# "X-Binary-ID": "1",
# "X-Binary-Element-Type": "signed 32-bit integer",
# "X-Binary-Element-Byte-Order": "LITTLE_ENDIAN",
# "Content-MD5": "6je8Axgeyp6rTPsIP7RZbQ==",
# "X-Binary-Number-of-Elements": "10166590",
# "X-Binary-Size-Fastest-Dimension": "3110",
# "X-Binary-Size-Second-Dimension": "3269",
# "X-Binary-Size-Padding": "4095"
# }
# --> H:/Proxima2a_2019-04-05/RAW_DATA/C5_gel17_position5/C5_mesh_1_data.cbf/C5_mesh_1_data.cbf000090.dat
#        q_A^-1              I           sigma 
  1.105228e-03    1.018953e+00   5.462155e-01
  3.315685e-03    1.275094e+00   3.714639e-01
  5.526141e-03    1.431282e+00   3.043230e-01
  7.736597e-03    1.587693e+00   2.707718e-01
  9.947054e-03    1.408220e+00   2.248081e-01
  1.215751e-02    1.657499e+00   2.205440e-01
  1.436797e-02    1.535596e+00   1.952604e-01
  1.657842e-02    1.697605e+00   1.911009e-01
  1.878888e-02    1.517721e+00   1.697304e-01
  2.099934e-02    1.202590e+00   1.429424e-01
  2.320979e-02    1.292840e+00   1.409630e-01
  2.542025e-02    1.449260e+00   1.426207e-01
  2.763070e-02    1.408525e+00   1.348567e-01
  2.984116e-02    1.489663e+00   1.334506e-01
  3.205162e-02    1.429166e+00   1.261326e-01
  3.426207e-02    1.559689e+00   1.274365e-01
  3.647253e-02    1.492717e+00   1.208310e-01
  3.868299e-02    1.433442e+00   1.149835e-01
  4.089344e-02    1.403803e+00   1.106710e-01
  4.310390e-02    1.385822e+00   1.070971e-01
  4.531436e-02    1.587558e+00   1.117971e-01
  4.752481e-02    1.422073e+00   1.033190e-01
  4.973527e-02    1.368205e+00   9.906662e-02
  5.194572e-02    1.510316e+00   1.018443e-01
  5.415618e-02    1.466907e+00   9.829695e-02
  5.636664e-02    1.482813e+00   9.687425e-02
  5.857709e-02    1.535718e+00   9.670975e-02
  6.078755e-02    1.458399e+00   9.251146e-02
  6.299801e-02    1.414882e+00   8.950692e-02
  6.520846e-02    1.453530e+00   8.917081e-02
  6.741892e-02    1.439104e+00   8.725612e-02
  6.962938e-02    1.434363e+00   8.572271e-02
  7.183983e-02    1.505462e+00   8.645834e-02
  7.405029e-02    1.492445e+00   8.478721e-02
  7.626074e-02    1.504291e+00   8.387958e-02
  7.847120e-02    1.422041e+00   8.039519e-02
  8.068166e-02    1.442159e+00   7.984448e-02
  8.289211e-02    1.429249e+00   7.841890e-02
  8.510257e-02    1.536520e+00   8.024511e-02
  8.731303e-02    1.476570e+00   7.765897e-02
  8.952348e-02    1.458861e+00   7.623506e-02
  9.173394e-02    1.418948e+00   7.427064e-02
  9.394439e-02    1.479218e+00   7.493166e-02
  9.615485e-02    1.525097e+00   7.520355e-02
  9.836531e-02    1.496677e+00   7.365571e-02
  1.005758e-01    1.444068e+00   7.155061e-02
  1.027862e-01    1.450132e+00   7.092374e-02
  1.049967e-01    1.585781e+00   7.338064e-02
  1.072071e-01    1.579924e+00   7.248515e-02
  1.094176e-01    1.575206e+00   7.164090e-02
  1.116280e-01    1.626295e+00   7.206748e-02
  1.138385e-01    1.577781e+00   7.029052e-02
  1.160490e-01    1.568792e+00   6.941842e-02
  1.182594e-01    1.545569e+00   6.825422e-02
  1.204699e-01    1.520148e+00   6.706619e-02
  1.226803e-01    1.477218e+00   6.551138e-02
  1.248908e-01    1.546516e+00   6.643374e-02
  1.271012e-01    1.654735e+00   6.811730e-02
  1.293117e-01    1.591792e+00   6.623492e-02
  1.315222e-01    1.585840e+00   6.555154e-02
  1.337326e-01    1.575659e+00   6.479728e-02
  1.359431e-01    1.545593e+00   6.421366e-02
  1.381535e-01    1.546063e+00   6.508549e-02
  1.403640e-01    1.604874e+00   6.659815e-02
  1.425744e-01    1.571959e+00   6.601696e-02
  1.447849e-01    1.614059e+00   6.691056e-02
  1.469953e-01    1.583054e+00   6.622328e-02
  1.492058e-01    1.703618e+00   6.861892e-02
  1.514163e-01    1.652168e+00   6.746263e-02
  1.536267e-01    1.673963e+00   6.777355e-02
  1.558372e-01    1.700875e+00   6.816535e-02
  1.580476e-01    1.611860e+00   6.619669e-02
  1.602581e-01    1.597449e+00   6.573267e-02
  1.624685e-01    1.786121e+00   6.931587e-02
  1.646790e-01    1.795698e+00   6.930192e-02
  1.668895e-01    1.777549e+00   6.875165e-02
  1.690999e-01    1.740893e+00   6.783478e-02
  1.713104e-01    1.733606e+00   6.748255e-02
  1.735208e-01    1.844131e+00   6.938404e-02
  1.757313e-01    1.912682e+00   7.044041e-02
  1.779417e-01    1.918246e+00   7.031275e-02
  1.801522e-01    1.976632e+00   7.114745e-02
  1.823626e-01    1.951971e+00   7.046688e-02
  1.845731e-01    1.876017e+00   6.885850e-02
  1.867836e-01    1.878356e+00   6.866889e-02
  1.889940e-01    1.933377e+00   6.943969e-02
  1.912045e-01    2.039305e+00   7.107845e-02
  1.934149e-01    1.939331e+00   6.908232e-02
  1.956254e-01    2.006570e+00   7.003791e-02
  1.978358e-01    1.986126e+00   6.944145e-02
  2.000463e-01    1.990864e+00   6.929383e-02
  2.022568e-01    1.958879e+00   6.850935e-02
  2.044672e-01    1.913541e+00   6.747989e-02
  2.066777e-01    2.002101e+00   6.879465e-02
  2.088881e-01    2.050410e+00   6.939193e-02
  2.110986e-01    1.983486e+00   6.801603e-02
  2.133090e-01    2.016618e+00   6.835878e-02
  2.155195e-01    1.970362e+00   6.734613e-02
  2.177300e-01    1.939345e+00   6.628904e-02
  2.199404e-01    1.906936e+00   6.400077e-02
  2.221509e-01    1.966717e+00   6.392894e-02
  2.243613e-01    2.056011e+00   6.453548e-02
  2.265718e-01    1.983545e+00   6.268930e-02
  2.287822e-01    2.125794e+00   6.425588e-02
  2.309927e-01    2.115377e+00   6.351436e-02
  2.332031e-01    2.131979e+00   6.321735e-02
  2.354136e-01    2.161395e+00   6.313609e-02
  2.376241e-01    2.129098e+00   6.217625e-02
  2.398345e-01    2.104977e+00   6.136546e-02
  2.420450e-01    2.177462e+00   6.196705e-02
  2.442554e-01    2.176145e+00   6.152155e-02
  2.464659e-01    2.147898e+00   6.071060e-02
  2.486763e-01    2.120563e+00   5.992652e-02
  2.508868e-01    2.126665e+00   5.963410e-02
  2.530973e-01    2.182198e+00   6.003317e-02
  2.553077e-01    2.071440e+00   5.813506e-02
  2.575182e-01    2.189634e+00   5.941695e-02
  2.597286e-01    2.158687e+00   5.865267e-02
  2.619391e-01    2.052529e+00   5.686302e-02
  2.641495e-01    2.114150e+00   5.739086e-02
  2.663600e-01    2.054498e+00   5.626431e-02
  2.685704e-01    2.042044e+00   5.578943e-02
  2.707809e-01    2.062379e+00   5.576894e-02
  2.729914e-01    2.076457e+00   5.566732e-02
  2.752018e-01    2.085223e+00   5.549437e-02
  2.774123e-01    1.968487e+00   5.364322e-02
  2.796227e-01    1.951606e+00   5.314849e-02
  2.818332e-01    1.972106e+00   5.316037e-02
  2.840436e-01    2.044947e+00   5.387083e-02
  2.862541e-01    1.930971e+00   5.209642e-02
  2.884646e-01    1.986524e+00   5.258972e-02
  2.906750e-01    2.012862e+00   5.268619e-02
  2.928855e-01    1.984834e+00   5.207568e-02
  2.950959e-01    1.992040e+00   5.193047e-02
  2.973064e-01    2.049465e+00   5.243694e-02
  2.995168e-01    1.976332e+00   5.125964e-02
  3.017273e-01    1.974507e+00   5.101008e-02
  3.039377e-01    1.999813e+00   5.111112e-02
  3.061482e-01    1.973191e+00   5.055016e-02
  3.083587e-01    2.000427e+00   5.067753e-02
  3.105691e-01    1.937276e+00   4.965820e-02
  3.127796e-01    1.941520e+00   4.950354e-02
  3.149900e-01    1.930323e+00   4.915494e-02
  3.172005e-01    1.937332e+00   4.904272e-02
  3.194109e-01    1.977511e+00   4.934413e-02
  3.216214e-01    1.944472e+00   4.873056e-02
  3.238319e-01    1.889640e+00   4.784821e-02
  3.260423e-01    1.927175e+00   4.812866e-02
  3.282528e-01    1.881216e+00   4.736199e-02
  3.304632e-01    1.865654e+00   4.698297e-02
  3.326737e-01    1.860804e+00   4.673878e-02
  3.348841e-01    1.854434e+00   4.647779e-02
  3.370946e-01    1.905186e+00   4.693224e-02
  3.393050e-01    1.851531e+00   4.609140e-02
  3.415155e-01    1.847344e+00   4.586614e-02
  3.437260e-01    1.856302e+00   4.580681e-02
  3.459364e-01    1.835079e+00   4.537573e-02
  3.481469e-01    1.829807e+00   4.514511e-02
  3.503573e-01    1.841000e+00   4.511803e-02
  3.525678e-01    1.766223e+00   4.403473e-02
  3.547782e-01    1.806499e+00   4.437301e-02
  3.569887e-01    1.781352e+00   4.390696e-02
  3.591992e-01    1.758683e+00   4.347233e-02
  3.614096e-01    1.801770e+00   4.384907e-02
  3.636201e-01    1.789372e+00   4.354440e-02
  3.658305e-01    1.785111e+00   4.334413e-02
  3.680410e-01    1.858095e+00   4.406925e-02
  3.702514e-01    1.827659e+00   4.355985e-02
  3.724619e-01    1.820616e+00   4.332777e-02
  3.746724e-01    1.826551e+00   4.325354e-02
  3.768828e-01    1.839792e+00   4.326396e-02
  3.790933e-01    1.784919e+00   4.247504e-02
  3.813037e-01    1.843626e+00   4.302664e-02
  3.835142e-01    1.845210e+00   4.290377e-02
  3.857246e-01    1.793341e+00   4.215956e-02
  3.879351e-01    1.821226e+00   4.234855e-02
  3.901455e-01    1.811566e+00   4.210164e-02
  3.923560e-01    1.852949e+00   4.244445e-02
  3.945665e-01    1.852482e+00   4.230454e-02
  3.967769e-01    1.836772e+00   4.199284e-02
  3.989874e-01    1.811969e+00   4.157814e-02
  4.011978e-01    1.740389e+00   4.062328e-02
  4.034083e-01    1.824339e+00   4.146381e-02
  4.056187e-01    1.824457e+00   4.133745e-02
  4.078292e-01    1.760806e+00   4.048706e-02
  4.100397e-01    1.760946e+00   4.036503e-02
  4.122501e-01    1.818713e+00   4.089904e-02
  4.144606e-01    1.796514e+00   4.052814e-02
  4.166710e-01    1.742547e+00   3.979608e-02
  4.188815e-01    1.822641e+00   4.058016e-02
  4.210919e-01    1.805478e+00   4.027030e-02
  4.233024e-01    1.793522e+00   4.001868e-02
  4.255128e-01    1.857570e+00   4.060921e-02
  4.277233e-01    1.816712e+00   4.004477e-02
  4.299338e-01    1.748680e+00   3.917475e-02
  4.321442e-01    1.774446e+00   3.934939e-02
  4.343547e-01    1.743711e+00   3.889681e-02
  4.365651e-01    1.794468e+00   3.934676e-02
  4.387756e-01    1.762345e+00   3.888382e-02
  4.409860e-01    1.770816e+00   3.886916e-02
  4.431965e-01    1.807785e+00   3.916420e-02
  4.454070e-01    1.801024e+00   3.898217e-02
  4.476174e-01    1.738328e+00   3.819247e-02
  4.498279e-01    1.764076e+00   3.836961e-02
  4.520383e-01    1.733918e+00   3.793583e-02
  4.542488e-01    1.730262e+00   3.779363e-02
  4.564592e-01    1.755083e+00   3.796162e-02
  4.586697e-01    1.731522e+00   3.760589e-02
  4.608801e-01    1.724113e+00   3.742482e-02
  4.630906e-01    1.714600e+00   3.722260e-02
  4.653011e-01    1.737743e+00   3.737444e-02
  4.675115e-01    1.762762e+00   3.754337e-02
  4.697220e-01    1.722744e+00   3.701762e-02
  4.719324e-01    1.740712e+00   3.711390e-02
  4.741429e-01    1.725732e+00   3.685864e-02
  4.763533e-01    1.675480e+00   3.622494e-02
  4.785638e-01    1.729804e+00   3.671239e-02
  4.807743e-01    1.744375e+00   3.677297e-02
  4.829847e-01    1.699991e+00   3.621041e-02
  4.851952e-01    1.718917e+00   3.631927e-02
  4.874056e-01    1.726810e+00   3.631079e-02
  4.896161e-01    1.692649e+00   3.586067e-02
  4.918265e-01    1.740029e+00   3.626883e-02
  4.940370e-01    1.692080e+00   3.567730e-02
  4.962475e-01    1.720137e+00   3.588305e-02
  4.984579e-01    1.698464e+00   3.556840e-02
  5.006684e-01    1.689651e+00   3.538951e-02
  5.028788e-01    1.708978e+00   3.550508e-02
  5.050893e-01    1.690809e+00   3.522996e-02
  5.072997e-01    1.672791e+00   3.495710e-02
  5.095102e-01    1.691644e+00   3.506934e-02
  5.117206e-01    1.672383e+00   3.478623e-02
  5.139311e-01    1.670833e+00   3.468778e-02
  5.161416e-01    1.721740e+00   3.512906e-02
  5.183520e-01    1.706359e+00   3.488868e-02
  5.205625e-01    1.715104e+00   3.489603e-02
  5.227729e-01    1.711012e+00   3.477309e-02
  5.249834e-01    1.678396e+00   3.436011e-02
  5.271938e-01    1.738490e+00   3.488822e-02
  5.294043e-01    1.750502e+00   3.492777e-02
  5.316148e-01    1.759609e+00   3.493829e-02
  5.338252e-01    1.789459e+00   3.515287e-02
  5.360357e-01    1.793045e+00   3.510797e-02
  5.382461e-01    1.729188e+00   3.439922e-02
  5.404566e-01    1.726474e+00   3.429397e-02
  5.426670e-01    1.772331e+00   3.466814e-02
  5.448775e-01    1.767144e+00   3.454006e-02
  5.470879e-01    1.704504e+00   3.384668e-02
  5.492984e-01    1.787706e+00   3.458584e-02
  5.515089e-01    1.790468e+00   3.453580e-02
  5.537193e-01    1.804931e+00   3.459860e-02
  5.559298e-01    1.822102e+00   3.468655e-02
  5.581402e-01    1.794318e+00   3.434585e-02
  5.603507e-01    1.815918e+00   3.447678e-02
  5.625611e-01    1.767621e+00   3.394139e-02
  5.647716e-01    1.788304e+00   3.406526e-02
  5.669821e-01    1.798738e+00   3.409084e-02
  5.691925e-01    1.785234e+00   3.388974e-02
  5.714030e-01    1.790602e+00   3.386828e-02
  5.736134e-01    1.771209e+00   3.361274e-02
  5.758239e-01    1.752890e+00   3.336709e-02
  5.780343e-01    1.734858e+00   3.312481e-02
  5.802448e-01    1.716837e+00   3.288332e-02
  5.824552e-01    1.740478e+00   3.303950e-02
  5.846657e-01    1.674724e+00   3.234182e-02
  5.868762e-01    1.683453e+00   3.235848e-02
  5.890866e-01    1.683793e+00   3.229461e-02
  5.912971e-01    1.646801e+00   3.187177e-02
  5.935075e-01    1.678966e+00   3.211501e-02
  5.957180e-01    1.644510e+00   3.171856e-02
  5.979284e-01    1.664777e+00   3.184826e-02
  6.001389e-01    1.622724e+00   3.137941e-02
  6.023494e-01    1.642381e+00   3.150480e-02
  6.045598e-01    1.661002e+00   3.161836e-02
  6.067703e-01    1.700885e+00   3.193140e-02
  6.089807e-01    1.669604e+00   3.157279e-02
  6.111912e-01    1.699513e+00   3.179074e-02
  6.134016e-01    1.697835e+00   3.171164e-02
  6.156121e-01    1.719851e+00   3.185317e-02
  6.178226e-01    1.705803e+00   3.165999e-02
  6.200330e-01    1.709309e+00   3.163000e-02
  6.222435e-01    1.708303e+00   3.155804e-02
  6.244539e-01    1.758860e+00   3.195893e-02
  6.266644e-01    1.727915e+00   3.161474e-02
  6.288748e-01    1.767127e+00   3.190923e-02
  6.310853e-01    1.737276e+00   3.157714e-02
  6.332957e-01    1.708094e+00   3.125036e-02
  6.355062e-01    1.687306e+00   3.099927e-02
  6.377167e-01    1.711119e+00   3.115735e-02
  6.399271e-01    1.702618e+00   3.102030e-02
  6.421376e-01    1.734575e+00   3.125029e-02
  6.443480e-01    1.720956e+00   3.106819e-02
  6.465585e-01    1.695726e+00   3.078117e-02
  6.487689e-01    1.669011e+00   3.048009e-02
  6.509794e-01    1.652302e+00   3.026992e-02
  6.531899e-01    1.680751e+00   3.047198e-02
  6.554003e-01    1.687011e+00   3.047128e-02
  6.576108e-01    1.657055e+00   3.014332e-02
  6.598212e-01    1.613698e+00   2.969108e-02
  6.620317e-01    1.619038e+00   2.968504e-02
  6.642421e-01    1.623011e+00   2.966643e-02
  6.664526e-01    1.671988e+00   3.005526e-02
  6.686630e-01    1.630183e+00   2.962229e-02
  6.708735e-01    1.623586e+00   2.950804e-02
  6.730840e-01    1.634520e+00   2.955327e-02
  6.752944e-01    1.608316e+00   2.926210e-02
  6.775049e-01    1.617971e+00   2.929651e-02
  6.797153e-01    1.582404e+00   2.892026e-02
  6.819258e-01    1.570546e+00   2.875973e-02
  6.841362e-01    1.622377e+00   2.917786e-02
  6.863467e-01    1.637274e+00   2.925903e-02
  6.885572e-01    1.647536e+00   2.929797e-02
  6.907676e-01    1.660381e+00   2.935929e-02
  6.929781e-01    1.630601e+00   2.904307e-02
  6.951885e-01    1.655178e+00   2.920931e-02
  6.973990e-01    1.624015e+00   2.888189e-02
  6.996094e-01    1.595336e+00   2.857537e-02
  7.018199e-01    1.616066e+00   2.870993e-02
  7.040303e-01    1.658415e+00   2.903259e-02
  7.062408e-01    1.614760e+00   2.859775e-02
  7.084513e-01    1.621753e+00   2.860976e-02
  7.106617e-01    1.608019e+00   2.843884e-02
  7.128722e-01    1.608049e+00   2.838992e-02
  7.150826e-01    1.594103e+00   2.821783e-02
  7.172931e-01    1.605021e+00   2.826544e-02
  7.195035e-01    1.608986e+00   2.825172e-02
  7.217140e-01    1.602372e+00   2.824347e-02
  7.239245e-01    1.590413e+00   2.836573e-02
  7.261349e-01    1.555865e+00   2.816395e-02
  7.283454e-01    1.521512e+00   2.792243e-02
  7.305558e-01    1.584165e+00   2.854567e-02
  7.327663e-01    1.572243e+00   2.848055e-02
  7.349767e-01    1.592720e+00   2.868186e-02
  7.371872e-01    1.577619e+00   2.853439e-02
  7.393976e-01    1.570892e+00   2.845924e-02
  7.416081e-01    1.588585e+00   2.860281e-02
  7.438186e-01    1.583261e+00   2.841014e-02
  7.460290e-01    1.559657e+00   2.790472e-02
  7.482395e-01    1.628386e+00   2.833886e-02
  7.504499e-01    1.593898e+00   2.790008e-02
  7.526604e-01    1.576497e+00   2.763073e-02
  7.548708e-01    1.576622e+00   2.754235e-02
  7.570813e-01    1.591780e+00   2.762319e-02
  7.592918e-01    1.591057e+00   2.758155e-02
  7.615022e-01    1.570977e+00   2.737319e-02
  7.637127e-01    1.597640e+00   2.757149e-02
  7.659231e-01    1.565289e+00   2.725900e-02
  7.681336e-01    1.600074e+00   2.752835e-02
  7.703440e-01    1.605705e+00   2.754524e-02
  7.725545e-01    1.596075e+00   2.743140e-02
  7.747650e-01    1.681268e+00   2.811452e-02
  7.769754e-01    1.620417e+00   2.754763e-02
  7.791859e-01    1.581969e+00   2.716524e-02
  7.813963e-01    1.610696e+00   2.735765e-02
  7.836068e-01    1.598637e+00   2.720282e-02
  7.858172e-01    1.610632e+00   2.725363e-02
  7.880277e-01    1.611105e+00   2.720578e-02
  7.902381e-01    1.618982e+00   2.722266e-02
  7.924486e-01    1.618531e+00   2.716845e-02
  7.946591e-01    1.623999e+00   2.716563e-02
  7.968695e-01    1.612046e+00   2.701709e-02
  7.990800e-01    1.598697e+00   2.685688e-02
  8.012904e-01    1.665471e+00   2.736460e-02
  8.035009e-01    1.684755e+00   2.747361e-02
  8.057113e-01    1.643973e+00   2.709214e-02
  8.079218e-01    1.651149e+00   2.710432e-02
  8.101323e-01    1.655219e+00   2.709166e-02
  8.123427e-01    1.609218e+00   2.666698e-02
  8.145532e-01    1.628775e+00   2.678264e-02
  8.167636e-01    1.638885e+00   2.682044e-02
  8.189741e-01    1.665004e+00   2.698827e-02
  8.211845e-01    1.660414e+00   2.690586e-02
  8.233950e-01    1.672965e+00   2.696345e-02
  8.256054e-01    1.637319e+00   2.663044e-02
  8.278159e-01    1.656675e+00   2.674317e-02
  8.300264e-01    1.635563e+00   2.652917e-02
  8.322368e-01    1.651157e+00   2.661204e-02
  8.344473e-01    1.655455e+00   2.660307e-02
  8.366577e-01    1.669771e+00   2.667486e-02
  8.388682e-01    1.680664e+00   2.671896e-02
  8.410786e-01    1.658781e+00   2.650213e-02
  8.432891e-01    1.661987e+00   2.648560e-02
  8.454996e-01    1.686786e+00   2.664023e-02
  8.477100e-01    1.695054e+00   2.666306e-02
  8.499205e-01    1.662367e+00   2.636327e-02
  8.521309e-01    1.686016e+00   2.650871e-02
  8.543414e-01    1.702061e+00   2.659300e-02
  8.565518e-01    1.698934e+00   2.652720e-02
  8.587623e-01    1.653634e+00   2.613042e-02
  8.609727e-01    1.624399e+00   2.585823e-02
  8.631832e-01    1.613806e+00   2.573406e-02
  8.653937e-01    1.604955e+00   2.562392e-02
  8.676041e-01    1.629694e+00   2.578172e-02
  8.698146e-01    1.620801e+00   2.567198e-02
  8.720250e-01    1.628298e+00   2.569206e-02
  8.742355e-01    1.617148e+00   2.556497e-02
  8.764459e-01    1.586823e+00   2.528552e-02
  8.786564e-01    1.553925e+00   2.498471e-02
  8.808669e-01    1.617726e+00   2.545381e-02
  8.830773e-01    1.607638e+00   2.533615e-02
  8.852878e-01    1.608947e+00   2.530844e-02
  8.874982e-01    1.619594e+00   2.535519e-02
  8.897087e-01    1.617165e+00   2.529831e-02
  8.919191e-01    1.623834e+00   2.531238e-02
  8.941296e-01    1.585858e+00   2.497752e-02
  8.963401e-01    1.620637e+00   2.521327e-02
  8.985505e-01    1.635971e+00   2.529489e-02
  9.007610e-01    1.610195e+00   2.505800e-02
  9.029714e-01    1.582893e+00   2.480897e-02
  9.051819e-01    1.626264e+00   2.510904e-02
  9.073923e-01    1.586797e+00   2.476608e-02
  9.096028e-01    1.571606e+00   2.461263e-02
  9.118132e-01    1.593812e+00   2.474975e-02
  9.140237e-01    1.603424e+00   2.478761e-02
  9.162342e-01    1.602190e+00   2.474350e-02
  9.184446e-01    1.614286e+00   2.480078e-02
  9.206551e-01    1.624782e+00   2.484544e-02
  9.228655e-01    1.611245e+00   2.470634e-02
  9.250760e-01    1.603676e+00   2.461288e-02
  9.272864e-01    1.602238e+00   2.456757e-02
  9.294969e-01    1.646371e+00   2.486733e-02
  9.317074e-01    1.643887e+00   2.481346e-02
  9.339178e-01    1.630683e+00   2.467985e-02
  9.361283e-01    1.624267e+00   2.459494e-02
  9.383387e-01    1.627960e+00   2.458940e-02
  9.405492e-01    1.630583e+00   2.457482e-02
  9.427596e-01    1.662965e+00   2.478192e-02
  9.449701e-01    1.658161e+00   2.471248e-02
  9.471805e-01    1.674637e+00   2.479976e-02
  9.493910e-01    1.676251e+00   2.477767e-02
  9.516015e-01    1.695334e+00   2.488351e-02
  9.538119e-01    1.728053e+00   2.508806e-02
  9.560224e-01    1.774616e+00   2.538802e-02
  9.582328e-01    1.784857e+00   2.542703e-02
  9.604433e-01    1.807398e+00   2.555085e-02
  9.626537e-01    1.790676e+00   2.539819e-02
  9.648642e-01    1.801770e+00   2.544183e-02
  9.670747e-01    1.852295e+00   2.576051e-02
  9.692851e-01    1.938600e+00   2.631878e-02
  9.714956e-01    1.981258e+00   2.656926e-02
  9.737060e-01    1.960167e+00   2.639278e-02
  9.759165e-01    1.876612e+00   2.578773e-02
  9.781269e-01    1.798293e+00   2.521084e-02
  9.803374e-01    1.792894e+00   2.513814e-02
  9.825478e-01    1.801151e+00   2.516272e-02
  9.847583e-01    1.806095e+00   2.516302e-02
  9.869688e-01    1.798968e+00   2.507970e-02
  9.891792e-01    1.822962e+00   2.521284e-02
  9.913897e-01    1.814446e+00   2.511996e-02
  9.936001e-01    1.768521e+00   2.476755e-02
  9.958106e-01    1.737037e+00   2.451273e-02
  9.980210e-01    1.715682e+00   2.432996e-02
  1.000231e+00    1.661269e+00   2.407221e-02
  1.002442e+00    1.631060e+00   2.397906e-02
  1.004652e+00    1.622729e+00   2.398447e-02
  1.006863e+00    1.603546e+00   2.389175e-02
  1.009073e+00    1.561331e+00   2.361125e-02
  1.011284e+00    1.582149e+00   2.379990e-02
  1.013494e+00    1.606909e+00   2.400920e-02
  1.015705e+00    1.584772e+00   2.386580e-02
  1.017915e+00    1.529475e+00   2.346189e-02
  1.020126e+00    1.497468e+00   2.323078e-02
  1.022336e+00    1.526292e+00   2.346484e-02
  1.024547e+00    1.530930e+00   2.351162e-02
  1.026757e+00    1.528920e+00   2.350449e-02
  1.028967e+00    1.538813e+00   2.358809e-02
  1.031178e+00    1.502077e+00   2.331093e-02
  1.033388e+00    1.505969e+00   2.334611e-02
  1.035599e+00    1.517456e+00   2.343841e-02
  1.037809e+00    1.469462e+00   2.306797e-02
  1.040020e+00    1.471198e+00   2.308283e-02
  1.042230e+00    1.491937e+00   2.324688e-02
  1.044441e+00    1.500130e+00   2.331041e-02
  1.046651e+00    1.469862e+00   2.307424e-02
  1.048862e+00    1.442529e+00   2.285788e-02
  1.051072e+00    1.474659e+00   2.310871e-02
  1.053282e+00    1.487660e+00   2.320941e-02
  1.055493e+00    1.484787e+00   2.318271e-02
  1.057703e+00    1.476833e+00   2.311900e-02
  1.059914e+00    1.486455e+00   2.318997e-02
  1.062124e+00    1.472317e+00   2.307536e-02
  1.064335e+00    1.505089e+00   2.332730e-02
  1.066545e+00    1.491333e+00   2.321446e-02
  1.068756e+00    1.493155e+00   2.322488e-02
  1.070966e+00    1.525224e+00   2.346630e-02
  1.073177e+00    1.505402e+00   2.330722e-02
  1.075387e+00    1.486629e+00   2.315617e-02
  1.077597e+00    1.501719e+00   2.326605e-02
  1.079808e+00    1.570754e+00   2.365733e-02
  1.082018e+00    1.541278e+00   2.324026e-02
  1.084229e+00    1.732086e+00   2.451685e-02
  1.086439e+00    2.579923e+00   2.980506e-02
  1.088650e+00    2.769696e+00   3.077768e-02
  1.090860e+00    2.276611e+00   2.781931e-02
  1.093071e+00    1.777994e+00   2.451596e-02
  1.095281e+00    1.515505e+00   2.257538e-02
  1.097492e+00    1.454447e+00   2.206082e-02
  1.099702e+00    1.463981e+00   2.208118e-02
  1.101912e+00    1.439898e+00   2.184997e-02
  1.104123e+00    1.442826e+00   2.182382e-02
  1.106333e+00    1.440247e+00   2.175978e-02
  1.108544e+00    1.442093e+00   2.172927e-02
  1.110754e+00    1.450809e+00   2.175145e-02
  1.112965e+00    1.448513e+00   2.169333e-02
  1.115175e+00    1.417669e+00   2.141999e-02
  1.117386e+00    1.382099e+00   2.111075e-02
  1.119596e+00    1.410936e+00   2.129197e-02
  1.121807e+00    1.386882e+00   2.107122e-02
  1.124017e+00    1.361704e+00   2.084301e-02
  1.126228e+00    1.376040e+00   2.091704e-02
  1.128438e+00    1.413738e+00   2.116470e-02
  1.130648e+00    1.398236e+00   2.101405e-02
  1.132859e+00    1.378943e+00   2.083442e-02
  1.135069e+00    1.401684e+00   2.097068e-02
  1.137280e+00    1.370558e+00   2.070376e-02
  1.139490e+00    1.386038e+00   2.078730e-02
  1.141701e+00    1.395816e+00   2.082725e-02
  1.143911e+00    1.361150e+00   2.053540e-02
  1.146122e+00    1.344245e+00   2.037588e-02
  1.148332e+00    1.352280e+00   2.040512e-02
  1.150543e+00    1.363605e+00   2.045972e-02
  1.152753e+00    1.362085e+00   2.041760e-02
  1.154963e+00    1.412440e+00   2.076012e-02
  1.157174e+00    1.381672e+00   2.050253e-02
  1.159384e+00    1.386537e+00   2.050858e-02
  1.161595e+00    1.383923e+00   2.045925e-02
  1.163805e+00    1.339677e+00   2.010058e-02
  1.166016e+00    1.363770e+00   2.025113e-02
  1.168226e+00    1.386147e+00   2.038743e-02
  1.170437e+00    1.388652e+00   2.037699e-02
  1.172647e+00    1.404658e+00   2.046477e-02
  1.174858e+00    1.413141e+00   2.049790e-02
  1.177068e+00    1.388464e+00   2.028961e-02
  1.179278e+00    1.383443e+00   2.022409e-02
  1.181489e+00    1.348521e+00   1.994031e-02
  1.183699e+00    1.336376e+00   1.982295e-02
  1.185910e+00    1.354498e+00   1.992917e-02
  1.188120e+00    1.345037e+00   1.983288e-02
  1.190331e+00    1.339391e+00   1.976460e-02
  1.192541e+00    1.322335e+00   1.961131e-02
  1.194752e+00    1.317667e+00   1.954995e-02
  1.196962e+00    1.373255e+00   1.993211e-02
  1.199173e+00    1.374197e+00   1.991224e-02
  1.201383e+00    1.365488e+00   1.982172e-02
  1.203593e+00    1.356485e+00   1.973139e-02
  1.205804e+00    1.355124e+00   1.969552e-02
  1.208014e+00    1.351919e+00   1.964534e-02
  1.210225e+00    1.366702e+00   1.972698e-02
  1.212435e+00    1.345757e+00   1.955050e-02
  1.214646e+00    1.327647e+00   1.939260e-02
  1.216856e+00    1.351418e+00   1.953995e-02
  1.219067e+00    1.351932e+00   1.951918e-02
  1.221277e+00    1.337678e+00   1.939110e-02
  1.223488e+00    1.329843e+00   1.930868e-02
  1.225698e+00    1.336823e+00   1.933250e-02
  1.227909e+00    1.342139e+00   1.934083e-02
  1.230119e+00    1.356186e+00   1.940985e-02
  1.232329e+00    1.342404e+00   1.928034e-02
  1.234540e+00    1.358862e+00   1.936778e-02
  1.236750e+00    1.441730e+00   1.991827e-02
  1.238961e+00    1.624706e+00   2.111489e-02
  1.241171e+00    1.703616e+00   2.159451e-02
  1.243382e+00    1.540530e+00   2.050979e-02
  1.245592e+00    1.439026e+00   1.979771e-02
  1.247803e+00    1.384421e+00   1.939447e-02
  1.250013e+00    1.373972e+00   1.929739e-02
  1.252224e+00    1.363578e+00   1.920090e-02
  1.254434e+00    1.338882e+00   1.900257e-02
  1.256644e+00    1.361442e+00   1.913869e-02
  1.258855e+00    1.346974e+00   1.901349e-02
  1.261065e+00    1.338354e+00   1.892929e-02
  1.263276e+00    1.332971e+00   1.886838e-02
  1.265486e+00    1.344595e+00   1.892763e-02
  1.267697e+00    1.361762e+00   1.902497e-02
  1.269907e+00    1.364027e+00   1.901797e-02
  1.272118e+00    1.365083e+00   1.900263e-02
  1.274328e+00    1.361251e+00   1.895311e-02
  1.276539e+00    1.377301e+00   1.904150e-02
  1.278749e+00    1.343670e+00   1.878536e-02
  1.280959e+00    1.335614e+00   1.870653e-02
  1.283170e+00    1.350935e+00   1.879110e-02
  1.285380e+00    1.345852e+00   1.873328e-02
  1.287591e+00    1.326350e+00   1.857523e-02
  1.289801e+00    1.341057e+00   1.865678e-02
  1.292012e+00    1.345591e+00   1.867121e-02
  1.294222e+00    1.350771e+00   1.869090e-02
  1.296433e+00    1.309200e+00   1.838566e-02
  1.298643e+00    1.323468e+00   1.846926e-02
  1.300854e+00    1.329224e+00   1.849310e-02
  1.303064e+00    1.336842e+00   1.852688e-02
  1.305274e+00    1.360793e+00   1.867058e-02
  1.307485e+00    1.372376e+00   1.872816e-02
  1.309695e+00    1.347373e+00   1.853456e-02
  1.311906e+00    1.371684e+00   1.867912e-02
  1.314116e+00    1.374216e+00   1.867540e-02
  1.316327e+00    1.365959e+00   1.859738e-02
  1.318537e+00    1.345745e+00   1.843743e-02
  1.320748e+00    1.330591e+00   1.831191e-02
  1.322958e+00    1.363424e+00   1.851583e-02
  1.325169e+00    1.366851e+00   1.851795e-02
  1.327379e+00    1.349879e+00   1.838081e-02
  1.329589e+00    1.379009e+00   1.855678e-02
  1.331800e+00    1.350906e+00   1.834604e-02
  1.334010e+00    1.342833e+00   1.827052e-02
  1.336221e+00    1.361416e+00   1.837466e-02
  1.338431e+00    1.369382e+00   1.840734e-02
  1.340642e+00    1.353609e+00   1.836527e-02
  1.342852e+00    1.359112e+00   1.850357e-02
  1.345063e+00    1.358263e+00   1.854743e-02
  1.347273e+00    1.348328e+00   1.851470e-02
  1.349484e+00    1.329764e+00   1.841426e-02
  1.351694e+00    1.336191e+00   1.848130e-02
  1.353905e+00    1.344863e+00   1.855913e-02
  1.356115e+00    1.331725e+00   1.848322e-02
  1.358325e+00    1.324799e+00   1.844827e-02
  1.360536e+00    1.328335e+00   1.848440e-02
  1.362746e+00    1.328950e+00   1.849818e-02
  1.364957e+00    1.305910e+00   1.834468e-02
  1.367167e+00    1.313971e+00   1.840824e-02
  1.369378e+00    1.341917e+00   1.860899e-02
  1.371588e+00    1.325548e+00   1.850025e-02
  1.373799e+00    1.340511e+00   1.860804e-02
  1.376009e+00    1.327873e+00   1.852352e-02
  1.378220e+00    1.308726e+00   1.839196e-02
  1.380430e+00    1.321078e+00   1.848124e-02
  1.382640e+00    1.322932e+00   1.849514e-02
  1.384851e+00    1.309366e+00   1.840092e-02
  1.387061e+00    1.306994e+00   1.838455e-02
  1.389272e+00    1.307532e+00   1.838854e-02
  1.391482e+00    1.282578e+00   1.821155e-02
  1.393693e+00    1.294748e+00   1.829686e-02
  1.395903e+00    1.300168e+00   1.833363e-02
  1.398114e+00    1.283046e+00   1.821112e-02
  1.400324e+00    1.313948e+00   1.842697e-02
  1.402535e+00    1.281412e+00   1.819508e-02
  1.404745e+00    1.297277e+00   1.830498e-02
  1.406955e+00    1.265850e+00   1.807921e-02
  1.409166e+00    1.242902e+00   1.791133e-02
  1.411376e+00    1.261106e+00   1.803889e-02
  1.413587e+00    1.276629e+00   1.814578e-02
  1.415797e+00    1.251957e+00   1.796606e-02
  1.418008e+00    1.260457e+00   1.798521e-02
  1.420218e+00    1.262531e+00   1.785074e-02
  1.422429e+00    1.241603e+00   1.761780e-02
  1.424639e+00    1.276536e+00   1.779906e-02
  1.426850e+00    1.265596e+00   1.766805e-02
  1.429060e+00    1.282832e+00   1.773869e-02
  1.431270e+00    1.297555e+00   1.779542e-02
  1.433481e+00    1.290774e+00   1.770757e-02
  1.435691e+00    1.269989e+00   1.752599e-02
  1.437902e+00    1.289642e+00   1.762433e-02
  1.440112e+00    1.278099e+00   1.750985e-02
  1.442323e+00    1.264190e+00   1.738130e-02
  1.444533e+00    1.272707e+00   1.740720e-02
  1.446744e+00    1.240883e+00   1.715741e-02
  1.448954e+00    1.238113e+00   1.710843e-02
  1.451165e+00    1.254413e+00   1.719110e-02
  1.453375e+00    1.278102e+00   1.732453e-02
  1.455586e+00    1.280114e+00   1.730990e-02
  1.457796e+00    1.264044e+00   1.717346e-02
  1.460006e+00    1.280543e+00   1.725779e-02
  1.462217e+00    1.290649e+00   1.729934e-02
  1.464427e+00    1.274575e+00   1.716562e-02
  1.466638e+00    1.298402e+00   1.729969e-02
  1.468848e+00    1.290666e+00   1.722256e-02
  1.471059e+00    1.271591e+00   1.706970e-02
  1.473269e+00    1.267920e+00   1.702068e-02
  1.475480e+00    1.260063e+00   1.694416e-02
  1.477690e+00    1.279747e+00   1.705205e-02
  1.479901e+00    1.278286e+00   1.701839e-02
  1.482111e+00    1.269039e+00   1.693339e-02
  1.484321e+00    1.249576e+00   1.678007e-02
  1.486532e+00    1.243945e+00   1.672008e-02
  1.488742e+00    1.251736e+00   1.674982e-02
  1.490953e+00    1.266046e+00   1.682268e-02
  1.493163e+00    1.281851e+00   1.690493e-02
  1.495374e+00    1.263409e+00   1.676139e-02
  1.497584e+00    1.258567e+00   1.670760e-02
  1.499795e+00    1.255641e+00   1.666656e-02
  1.502005e+00    1.280292e+00   1.680751e-02
  1.504216e+00    1.248768e+00   1.657837e-02
  1.506426e+00    1.243966e+00   1.652574e-02
  1.508636e+00    1.233759e+00   1.643756e-02
  1.510847e+00    1.263897e+00   1.661522e-02
  1.513057e+00    1.243017e+00   1.645247e-02
  1.515268e+00    1.243671e+00   1.643116e-02
  1.517478e+00    1.258310e+00   1.650242e-02
  1.519689e+00    1.241678e+00   1.636814e-02
  1.521899e+00    1.256225e+00   1.644061e-02
  1.524110e+00    1.262311e+00   1.645998e-02
  1.526320e+00    1.258585e+00   1.641604e-02
  1.528531e+00    1.248623e+00   1.633118e-02
  1.530741e+00    1.261263e+00   1.639443e-02
  1.532951e+00    1.229534e+00   1.616746e-02
  1.535162e+00    1.252128e+00   1.640201e-02
  1.537372e+00    1.238170e+00   1.637696e-02
  1.539583e+00    1.232100e+00   1.637078e-02
  1.541793e+00    1.228938e+00   1.635664e-02
  1.544004e+00    1.234311e+00   1.639262e-02
  1.546214e+00    1.232232e+00   1.637731e-02
  1.548425e+00    1.235549e+00   1.639960e-02
  1.550635e+00    1.228512e+00   1.636245e-02
  1.552846e+00    1.223676e+00   1.633979e-02
  1.555056e+00    1.237855e+00   1.639280e-02
  1.557266e+00    1.249052e+00   1.635614e-02
  1.559477e+00    1.213219e+00   1.606145e-02
  1.561687e+00    1.242475e+00   1.622328e-02
  1.563898e+00    1.250350e+00   1.625744e-02
  1.566108e+00    1.266356e+00   1.634505e-02
  1.568319e+00    1.252640e+00   1.624063e-02
  1.570529e+00    1.234021e+00   1.609445e-02
  1.572740e+00    1.220009e+00   1.597548e-02
  1.574950e+00    1.230584e+00   1.601838e-02
  1.577161e+00    1.255001e+00   1.615094e-02
  1.579371e+00    1.275174e+00   1.625629e-02
  1.581582e+00    1.264607e+00   1.616886e-02
  1.583792e+00    1.254552e+00   1.608636e-02
  1.586002e+00    1.255846e+00   1.607695e-02
  1.588213e+00    1.258801e+00   1.607851e-02
  1.590423e+00    1.241207e+00   1.594571e-02
  1.592634e+00    1.263133e+00   1.606412e-02
  1.594844e+00    1.259064e+00   1.601672e-02
  1.597055e+00    1.244435e+00   1.590287e-02
  1.599265e+00    1.249402e+00   1.591380e-02
  1.601476e+00    1.240586e+00   1.583724e-02
  1.603686e+00    1.236632e+00   1.579226e-02
  1.605897e+00    1.248424e+00   1.584712e-02
  1.608107e+00    1.237036e+00   1.575514e-02
  1.610317e+00    1.233378e+00   1.571255e-02
  1.612528e+00    1.206166e+00   1.551930e-02
  1.614738e+00    1.231203e+00   1.566058e-02
  1.616949e+00    1.216493e+00   1.554788e-02
  1.619159e+00    1.218891e+00   1.554446e-02
  1.621370e+00    1.203225e+00   1.542595e-02
  1.623580e+00    1.194857e+00   1.535400e-02
  1.625791e+00    1.181384e+00   1.524915e-02
  1.628001e+00    1.170993e+00   1.516391e-02
  1.630212e+00    1.168429e+00   1.512974e-02
  1.632422e+00    1.171442e+00   1.513144e-02
  1.634632e+00    1.149429e+00   1.497154e-02
  1.636843e+00    1.158861e+00   1.501543e-02
  1.639053e+00    1.180201e+00   1.513571e-02
  1.641264e+00    1.173688e+00   1.507678e-02
  1.643474e+00    1.149252e+00   1.490172e-02
  1.645685e+00    1.151243e+00   1.489799e-02
  1.647895e+00    1.158129e+00   1.492587e-02
  1.650106e+00    1.136153e+00   1.476670e-02
  1.652316e+00    1.122968e+00   1.466446e-02
  1.654527e+00    1.101120e+00   1.450474e-02
  1.656737e+00    1.115678e+00   1.458388e-02
  1.658947e+00    1.114041e+00   1.455705e-02
  1.661158e+00    1.088442e+00   1.437283e-02
  1.663368e+00    1.104238e+00   1.446087e-02
  1.665579e+00    1.082930e+00   1.430477e-02
  1.667789e+00    1.104708e+00   1.443173e-02
  1.670000e+00    1.094260e+00   1.434798e-02
  1.672210e+00    1.092809e+00   1.432270e-02
  1.674421e+00    1.112980e+00   1.443889e-02
  1.676631e+00    1.105701e+00   1.437570e-02
  1.678842e+00    1.102302e+00   1.433780e-02
  1.681052e+00    1.083523e+00   1.419982e-02
  1.683263e+00    1.061043e+00   1.403682e-02
  1.685473e+00    1.087282e+00   1.419413e-02
  1.687683e+00    1.118573e+00   1.438127e-02
  1.689894e+00    1.131165e+00   1.444586e-02
  1.692104e+00    1.129040e+00   1.441702e-02
  1.694315e+00    1.143184e+00   1.449204e-02
  1.696525e+00    1.139049e+00   1.445019e-02
  1.698736e+00    1.082284e+00   1.407059e-02
  1.700946e+00    1.038753e+00   1.376972e-02
  1.703157e+00    1.039818e+00   1.376226e-02
  1.705367e+00    1.031071e+00   1.368989e-02
  1.707578e+00    1.039669e+00   1.373238e-02
  1.709788e+00    1.023765e+00   1.361294e-02
  1.711998e+00    1.057038e+00   1.381728e-02
  1.714209e+00    1.026754e+00   1.360358e-02
  1.716419e+00    9.915521e-01   1.335438e-02
  1.718630e+00    1.019168e+00   1.352484e-02
  1.720840e+00    1.037149e+00   1.362943e-02
  1.723051e+00    9.923223e-01   1.331798e-02
  1.725261e+00    1.015558e+00   1.345836e-02
  1.727472e+00    9.928250e-01   1.329289e-02
  1.729682e+00    1.001390e+00   1.333672e-02
  1.731893e+00    9.980664e-01   1.330077e-02
  1.734103e+00    9.934825e-01   1.325650e-02
  1.736313e+00    1.006487e+00   1.332896e-02
  1.738524e+00    1.016131e+00   1.337875e-02
  1.740734e+00    9.917439e-01   1.320360e-02
  1.742945e+00    9.782358e-01   1.310002e-02
  1.745155e+00    9.770204e-01   1.307854e-02
  1.747366e+00    9.654832e-01   1.298744e-02
  1.749576e+00    9.773799e-01   1.305360e-02
  1.751787e+00    9.733525e-01   1.301340e-02
  1.753997e+00    9.792576e-01   1.303943e-02
  1.756208e+00    9.759730e-01   1.300434e-02
  1.758418e+00    9.918776e-01   1.309661e-02
  1.760628e+00    1.000618e+00   1.314063e-02
  1.762839e+00    1.007171e+00   1.317009e-02
  1.765049e+00    9.861645e-01   1.301876e-02
  1.767260e+00    9.729340e-01   1.291822e-02
  1.769470e+00    1.003242e+00   1.310457e-02
  1.771681e+00    1.027819e+00   1.325046e-02
  1.773891e+00    1.006854e+00   1.310122e-02
  1.776102e+00    9.664706e-01   1.282279e-02
  1.778312e+00    9.523271e-01   1.271582e-02
  1.780523e+00    1.013680e+00   1.310579e-02
  1.782733e+00    1.012403e+00   1.308442e-02
  1.784944e+00    9.504921e-01   1.266505e-02
  1.787154e+00    9.394869e-01   1.257889e-02
  1.789364e+00    9.721357e-01   1.278285e-02
  1.791575e+00    9.911678e-01   1.289442e-02
  1.793785e+00    9.660129e-01   1.271706e-02
  1.795996e+00    9.490823e-01   1.259241e-02
  1.798206e+00    9.465111e-01   1.256263e-02
  1.800417e+00    9.286333e-01   1.243068e-02
  1.802627e+00    9.082427e-01   1.228153e-02
  1.804838e+00    9.080015e-01   1.226783e-02
  1.807048e+00    8.950669e-01   1.216739e-02
  1.809259e+00    8.935608e-01   1.214364e-02
  1.811469e+00    9.116157e-01   1.225070e-02
  1.813679e+00    8.946043e-01   1.212095e-02
  1.815890e+00    8.620533e-01   1.188393e-02
  1.818100e+00    8.761984e-01   1.196610e-02
  1.820311e+00    8.762375e-01   1.195175e-02
  1.822521e+00    8.685411e-01   1.188447e-02
  1.824732e+00    8.820403e-01   1.196171e-02
  1.826942e+00    9.310175e-01   1.227671e-02
  1.829153e+00    9.033735e-01   1.208128e-02
  1.831363e+00    8.742263e-01   1.187280e-02
  1.833574e+00    8.828098e-01   1.191925e-02
  1.835784e+00    8.579510e-01   1.173897e-02
  1.837994e+00    8.691894e-01   1.180391e-02
  1.840205e+00    8.830337e-01   1.188635e-02
  1.842415e+00    8.539125e-01   1.167707e-02
  1.844626e+00    8.527582e-01   1.165771e-02
  1.846836e+00    8.705705e-01   1.176740e-02
  1.849047e+00    8.649632e-01   1.171785e-02
  1.851257e+00    8.528217e-01   1.162580e-02
  1.853468e+00    8.589252e-01   1.165853e-02
  1.855678e+00    8.663041e-01   1.169961e-02
  1.857889e+00    8.640538e-01   1.167587e-02
  1.860099e+00    8.597548e-01   1.163814e-02
  1.862309e+00    8.521308e-01   1.157794e-02
  1.864520e+00    8.514613e-01   1.156483e-02
  1.866730e+00    8.573074e-01   1.159508e-02
  1.868941e+00    8.473765e-01   1.151681e-02
  1.871151e+00    8.589237e-01   1.158356e-02
  1.873362e+00    8.504377e-01   1.151488e-02
  1.875572e+00    8.465891e-01   1.147786e-02
  1.877783e+00    8.399038e-01   1.142109e-02
  1.879993e+00    8.304554e-01   1.134561e-02
  1.882204e+00    8.099688e-01   1.119413e-02
  1.884414e+00    8.269480e-01   1.129987e-02
  1.886624e+00    8.320966e-01   1.132401e-02
  1.888835e+00    8.177528e-01   1.121518e-02
  1.891045e+00    8.412771e-01   1.136443e-02
  1.893256e+00    8.308768e-01   1.128296e-02
  1.895466e+00    8.262679e-01   1.124051e-02
  1.897677e+00    8.150930e-01   1.115346e-02
  1.899887e+00    8.135294e-01   1.113189e-02
  1.902098e+00    8.388833e-01   1.129314e-02
  1.904308e+00    8.345361e-01   1.125324e-02
  1.906519e+00    8.492135e-01   1.134080e-02
  1.908729e+00    8.351601e-01   1.123595e-02
  1.910940e+00    8.025695e-01   1.100356e-02
  1.913150e+00    8.135448e-01   1.106803e-02
  1.915360e+00    8.190268e-01   1.109468e-02
  1.917571e+00    8.159537e-01   1.106301e-02
  1.919781e+00    8.313501e-01   1.115615e-02
  1.921992e+00    8.126859e-01   1.101965e-02
  1.924202e+00    8.015674e-01   1.093333e-02
  1.926413e+00    8.172313e-01   1.102933e-02
  1.928623e+00    8.290609e-01   1.109825e-02
  1.930834e+00    8.081263e-01   1.094685e-02
  1.933044e+00    7.951615e-01   1.084811e-02
  1.935255e+00    7.933455e-01   1.082549e-02
  1.937465e+00    7.981135e-01   1.084764e-02
  1.939675e+00    8.155736e-01   1.095474e-02
  1.941886e+00    8.053399e-01   1.087553e-02
  1.944096e+00    7.984602e-01   1.081881e-02
  1.946307e+00    8.222873e-01   1.096858e-02
  1.948517e+00    8.077549e-01   1.086074e-02
  1.950728e+00    7.977768e-01   1.078321e-02
  1.952938e+00    7.857890e-01   1.069186e-02
  1.955149e+00    8.065256e-01   1.082171e-02
  1.957359e+00    7.977037e-01   1.075233e-02
  1.959570e+00    8.065076e-01   1.080053e-02
  1.961780e+00    8.103197e-01   1.081602e-02
  1.963990e+00    8.008953e-01   1.074276e-02
  1.966201e+00    7.807088e-01   1.059652e-02
  1.968411e+00    7.882773e-01   1.063761e-02
  1.970622e+00    7.983032e-01   1.069488e-02
  1.972832e+00    7.770672e-01   1.054179e-02
  1.975043e+00    7.726071e-01   1.050152e-02
  1.977253e+00    7.627597e-01   1.042457e-02
  1.979464e+00    7.806506e-01   1.053609e-02
  1.981674e+00    7.899553e-01   1.058840e-02
  1.983885e+00    7.762983e-01   1.048649e-02
  1.986095e+00    7.702764e-01   1.043609e-02
  1.988305e+00    7.927758e-01   1.057744e-02
  1.990516e+00    7.783011e-01   1.047051e-02
  1.992726e+00    7.899035e-01   1.053853e-02
  1.994937e+00    7.767147e-01   1.044005e-02
  1.997147e+00    7.863109e-01   1.049455e-02
  1.999358e+00    7.774360e-01   1.042529e-02
  2.001568e+00    8.036522e-01   1.058857e-02
  2.003779e+00    7.912662e-01   1.049462e-02
  2.005989e+00    7.794243e-01   1.040371e-02
  2.008200e+00    7.782460e-01   1.038424e-02
  2.010410e+00    7.950836e-01   1.048404e-02
  2.012621e+00    7.732229e-01   1.032717e-02
  2.014831e+00    7.710603e-01   1.030121e-02
  2.017041e+00    7.649596e-01   1.025002e-02
  2.019252e+00    7.574151e-01   1.018943e-02
  2.021462e+00    7.661716e-01   1.023865e-02
  2.023673e+00    7.648780e-01   1.022062e-02
  2.025883e+00    7.638379e-01   1.020413e-02
  2.028094e+00    7.540213e-01   1.012877e-02
  2.030304e+00    7.567233e-01   1.013739e-02
  2.032515e+00    7.719176e-01   1.022930e-02
  2.034725e+00    7.524165e-01   1.008986e-02
  2.036936e+00    7.599029e-01   1.013058e-02
  2.039146e+00    7.495717e-01   1.005196e-02
  2.041356e+00    7.494311e-01   1.004141e-02
  2.043567e+00    7.545017e-01   1.006603e-02
  2.045777e+00    7.551343e-01   1.006100e-02
  2.047988e+00    7.686473e-01   1.014117e-02
  2.050198e+00    7.440067e-01   9.968920e-03
  2.052409e+00    7.474871e-01   9.984581e-03
  2.054619e+00    7.541460e-01   1.002156e-02
  2.056830e+00    7.510861e-01   9.994048e-03
  2.059040e+00    7.523068e-01   9.994633e-03
  2.061251e+00    7.544271e-01   1.000145e-02
  2.063461e+00    7.578356e-01   1.001636e-02
  2.065671e+00    7.476984e-01   9.940457e-03
  2.067882e+00    7.475702e-01   9.930588e-03
  2.070092e+00    7.416191e-01   9.881821e-03
  2.072303e+00    7.590726e-01   9.988223e-03
  2.074513e+00    7.681348e-01   1.003819e-02
  2.076724e+00    7.459548e-01   9.882758e-03
  2.078934e+00    7.396645e-01   9.831995e-03
  2.081145e+00    7.408797e-01   9.831009e-03
  2.083355e+00    7.503656e-01   9.884506e-03
  2.085566e+00    7.418548e-01   9.819397e-03
  2.087776e+00    7.383015e-01   9.786335e-03
  2.089986e+00    7.420319e-01   9.802232e-03
  2.092197e+00    7.487992e-01   9.837794e-03
  2.094407e+00    7.583135e-01   9.890729e-03
  2.096618e+00    7.571366e-01   9.874031e-03
  2.098828e+00    7.744917e-01   9.976976e-03
  2.101039e+00    8.008446e-01   1.013594e-02
  2.103249e+00    7.646964e-01   9.895660e-03
  2.105460e+00    7.451022e-01   9.758970e-03
  2.107670e+00    7.331268e-01   9.671451e-03
  2.109881e+00    7.264647e-01   9.618251e-03
  2.112091e+00    7.183905e-01   9.555702e-03
  2.114301e+00    7.448152e-01   9.720950e-03
  2.116512e+00    7.306951e-01   9.619547e-03
  2.118722e+00    7.225592e-01   9.557003e-03
  2.120933e+00    7.307271e-01   9.601940e-03
  2.123143e+00    7.175610e-01   9.506154e-03
  2.125354e+00    7.227857e-01   9.532139e-03
  2.127564e+00    7.178041e-01   9.490485e-03
  2.129775e+00    7.136993e-01   9.454602e-03
  2.131985e+00    6.984720e-01   9.344252e-03
  2.134196e+00    7.028736e-01   9.365098e-03
  2.136406e+00    6.937495e-01   9.295512e-03
  2.138617e+00    6.972927e-01   9.310823e-03
  2.140827e+00    6.948245e-01   9.310230e-03
  2.143037e+00    6.937243e-01   9.347904e-03
  2.145248e+00    7.016272e-01   9.422935e-03
  2.147458e+00    6.952317e-01   9.394929e-03
  2.149669e+00    6.924087e-01   9.387596e-03
  2.151879e+00    6.990697e-01   9.441850e-03
  2.154090e+00    7.079526e-01   9.508982e-03
  2.156300e+00    7.073323e-01   9.511481e-03
  2.158511e+00    7.001514e-01   9.468357e-03
  2.160721e+00    7.074735e-01   9.522604e-03
  2.162932e+00    7.070158e-01   9.523277e-03
  2.165142e+00    7.061210e-01   9.520300e-03
  2.167352e+00    7.003103e-01   9.483955e-03
  2.169563e+00    6.934842e-01   9.439592e-03
  2.171773e+00    6.783339e-01   9.338319e-03
  2.173984e+00    6.842940e-01   9.380646e-03
  2.176194e+00    6.982260e-01   9.476876e-03
  2.178405e+00    6.928113e-01   9.440747e-03
  2.180615e+00    6.856278e-01   9.392371e-03
  2.182826e+00    6.821038e-01   9.368866e-03
  2.185036e+00    6.774947e-01   9.337207e-03
  2.187247e+00    6.828536e-01   9.374012e-03
  2.189457e+00    6.942779e-01   9.451686e-03
  2.191667e+00    6.994131e-01   9.486407e-03
  2.193878e+00    7.010213e-01   9.496742e-03
  2.196088e+00    6.804479e-01   9.355674e-03
  2.198299e+00    6.852775e-01   9.387705e-03
  2.200509e+00    6.906658e-01   9.423495e-03
  2.202720e+00    6.896011e-01   9.415053e-03
  2.204930e+00    7.009956e-01   9.491269e-03
  2.207141e+00    6.912359e-01   9.423854e-03
  2.209351e+00    6.919759e-01   9.426990e-03
  2.211562e+00    6.777768e-01   9.328149e-03
  2.213772e+00    6.813005e-01   9.296703e-03
  2.215982e+00    6.773984e-01   9.225778e-03
  2.218193e+00    6.983897e-01   9.337503e-03
  2.220403e+00    6.707340e-01   9.126268e-03
  2.222614e+00    6.595553e-01   9.029157e-03
  2.224824e+00    6.621131e-01   9.027418e-03
  2.227035e+00    6.805176e-01   9.134488e-03
  2.229245e+00    6.748048e-01   9.079069e-03
  2.231456e+00    6.639542e-01   8.990245e-03
  2.233666e+00    6.639214e-01   8.974995e-03
  2.235877e+00    6.701576e-01   9.002799e-03
  2.238087e+00    6.637383e-01   8.946148e-03
  2.240298e+00    6.812968e-01   9.049823e-03
  2.242508e+00    6.731977e-01   8.980694e-03
  2.244718e+00    6.660898e-01   8.917383e-03
  2.246929e+00    6.694584e-01   8.925462e-03
  2.249139e+00    6.596501e-01   8.847537e-03
  2.251350e+00    6.680258e-01   8.891799e-03
  2.253560e+00    6.581279e-01   8.814213e-03
  2.255771e+00    6.469451e-01   8.727743e-03
  2.257981e+00    6.487570e-01   8.728912e-03
  2.260192e+00    6.527162e-01   8.744498e-03
  2.262402e+00    6.728621e-01   8.867489e-03
  2.264613e+00    6.632379e-01   8.793036e-03
  2.266823e+00    6.551205e-01   8.728717e-03
  2.269033e+00    6.551981e-01   8.718901e-03
  2.271244e+00    6.714587e-01   8.815964e-03
  2.273454e+00    6.761363e-01   8.836283e-03
  2.275665e+00    6.674732e-01   8.769123e-03
  2.277875e+00    6.536974e-01   8.668305e-03
  2.280086e+00    6.534577e-01   8.656696e-03
  2.282296e+00    6.577045e-01   8.675407e-03
  2.284507e+00    6.428992e-01   8.567201e-03
  2.286717e+00    6.660984e-01   8.710857e-03
  2.288928e+00    6.536874e-01   8.619518e-03
  2.291138e+00    6.361665e-01   8.493917e-03
  2.293348e+00    6.518198e-01   8.588282e-03
  2.295559e+00    6.622289e-01   8.647199e-03
  2.297769e+00    6.562543e-01   8.598884e-03
  2.299980e+00    6.462417e-01   8.523725e-03
  2.302190e+00    6.385530e-01   8.463858e-03
  2.304401e+00    6.532049e-01   8.551069e-03
  2.306611e+00    6.310465e-01   8.395752e-03
  2.308822e+00    6.374834e-01   8.430137e-03
  2.311032e+00    6.587102e-01   8.562862e-03
  2.313243e+00    6.453335e-01   8.469226e-03
  2.315453e+00    6.411808e-01   8.434413e-03
  2.317663e+00    6.373807e-01   8.400314e-03
  2.319874e+00    6.389627e-01   8.402054e-03
  2.322084e+00    6.417893e-01   8.411685e-03
  2.324295e+00    6.509120e-01   8.462994e-03
  2.326505e+00    6.524538e-01   8.463908e-03
  2.328716e+00    6.428182e-01   8.392630e-03
  2.330926e+00    6.608276e-01   8.500457e-03
  2.333137e+00    6.485227e-01   8.412549e-03
  2.335347e+00    6.338309e-01   8.307891e-03
  2.337558e+00    6.319932e-01   8.287650e-03
  2.339768e+00    6.254596e-01   8.236230e-03
  2.341979e+00    6.430111e-01   8.342588e-03
  2.344189e+00    6.377829e-01   8.300222e-03
  2.346399e+00    6.364282e-01   8.282890e-03
  2.348610e+00    6.410085e-01   8.304165e-03
  2.350820e+00    6.282174e-01   8.212756e-03
  2.353031e+00    6.281266e-01   8.203897e-03
  2.355241e+00    6.346071e-01   8.238073e-03
  2.357452e+00    6.339980e-01   8.225662e-03
  2.359662e+00    6.413140e-01   8.264709e-03
  2.361873e+00    6.274710e-01   8.166829e-03
  2.364083e+00    6.447120e-01   8.270159e-03
  2.366294e+00    6.356322e-01   8.203559e-03
  2.368504e+00    6.429108e-01   8.242228e-03
  2.370714e+00    6.282710e-01   8.139770e-03
  2.372925e+00    6.254936e-01   8.113701e-03
  2.375135e+00    6.218054e-01   8.081696e-03
  2.377346e+00    6.186745e-01   8.053424e-03
  2.379556e+00    6.209660e-01   8.060422e-03
  2.381767e+00    6.195241e-01   8.043235e-03
  2.383977e+00    6.092576e-01   7.968426e-03
  2.386188e+00    6.298432e-01   8.093948e-03
  2.388398e+00    6.106822e-01   7.961994e-03
  2.390609e+00    5.943632e-01   7.847299e-03
  2.392819e+00    5.984114e-01   7.866303e-03
  2.395029e+00    6.091439e-01   7.928925e-03
  2.397240e+00    6.299352e-01   8.055118e-03
  2.399450e+00    6.176764e-01   7.968555e-03
  2.401661e+00    6.051159e-01   7.879454e-03
  2.403871e+00    6.063069e-01   7.879497e-03
  2.406082e+00    5.981747e-01   7.819101e-03
  2.408292e+00    6.048710e-01   7.854975e-03
  2.410503e+00    5.844812e-01   7.714135e-03
  2.412713e+00    5.900967e-01   7.743389e-03
  2.414924e+00    5.987190e-01   7.792326e-03
  2.417134e+00    5.930855e-01   7.748024e-03
  2.419344e+00    5.904879e-01   7.723695e-03
  2.421555e+00    6.008016e-01   7.783363e-03
  2.423765e+00    5.977985e-01   7.756493e-03
  2.425976e+00    6.067694e-01   7.806626e-03
  2.428186e+00    6.040081e-01   7.781596e-03
  2.430397e+00    5.975146e-01   7.732176e-03
  2.432607e+00    5.891194e-01   7.670417e-03
  2.434818e+00    5.963724e-01   7.709947e-03
  2.437028e+00    6.035079e-01   7.748724e-03
  2.439239e+00    5.999507e-01   7.718162e-03
  2.441449e+00    5.933586e-01   7.668452e-03
  2.443659e+00    5.802943e-01   7.576264e-03
  2.445870e+00    5.759101e-01   7.559702e-03
  2.448080e+00    5.703533e-01   7.557558e-03
  2.450291e+00    5.762141e-01   7.612892e-03
  2.452501e+00    5.743937e-01   7.611985e-03
  2.454712e+00    5.814385e-01   7.667025e-03
  2.456922e+00    5.706487e-01   7.602180e-03
  2.459133e+00    5.620627e-01   7.550164e-03
  2.461343e+00    5.630690e-01   7.561266e-03
  2.463554e+00    5.628726e-01   7.563404e-03
  2.465764e+00    5.460757e-01   7.452802e-03
  2.467975e+00    5.485742e-01   7.472070e-03
  2.470185e+00    5.691310e-01   7.613068e-03
  2.472395e+00    5.542268e-01   7.513961e-03
  2.474606e+00    5.358667e-01   7.389979e-03
  2.476816e+00    5.484396e-01   7.476887e-03
  2.479027e+00    5.716347e-01   7.634229e-03
  2.481237e+00    5.584953e-01   7.546292e-03
  2.483448e+00    5.258509e-01   7.322717e-03
  2.485658e+00    5.315996e-01   7.362476e-03
  2.487869e+00    5.317473e-01   7.363535e-03
  2.490079e+00    5.293846e-01   7.346652e-03
  2.492290e+00    5.547630e-01   7.520239e-03
  2.494500e+00    5.375888e-01   7.402205e-03
  2.496710e+00    5.308397e-01   7.354894e-03
  2.498921e+00    5.226276e-01   7.296803e-03
  2.501131e+00    5.294168e-01   7.343087e-03
  2.503342e+00    5.372787e-01   7.396148e-03
  2.505552e+00    5.316558e-01   7.356222e-03
  2.507763e+00    5.251666e-01   7.309763e-03
  2.509973e+00    5.281776e-01   7.329304e-03
  2.512184e+00    5.171176e-01   7.250570e-03
  2.514394e+00    5.272633e-01   7.311974e-03
  2.516605e+00    5.225852e-01   7.232576e-03
  2.518815e+00    5.263025e-01   7.229932e-03
  2.521025e+00    5.442982e-01   7.331143e-03
  2.523236e+00    5.566038e-01   7.395070e-03
  2.525446e+00    5.413912e-01   7.277465e-03
  2.527657e+00    5.351518e-01   7.220671e-03
  2.529867e+00    5.346239e-01   7.202794e-03
  2.532078e+00    5.361764e-01   7.198056e-03
  2.534288e+00    5.262882e-01   7.117461e-03
  2.536499e+00    5.300662e-01   7.130961e-03
  2.538709e+00    5.437425e-01   7.211169e-03
  2.540920e+00    5.280606e-01   7.095752e-03
  2.543130e+00    5.231467e-01   7.052295e-03
  2.545340e+00    5.254335e-01   7.057606e-03
  2.547551e+00    5.262792e-01   7.053324e-03
  2.549761e+00    5.084113e-01   6.923093e-03
  2.551972e+00    5.128772e-01   6.944157e-03
  2.554182e+00    5.037502e-01   6.873077e-03
  2.556393e+00    5.138552e-01   6.932622e-03
  2.558603e+00    5.197124e-01   6.962956e-03
  2.560814e+00    5.429071e-01   7.107753e-03
  2.563024e+00    5.235156e-01   6.971053e-03
  2.565235e+00    5.244824e-01   6.967925e-03
  2.567445e+00    5.316844e-01   7.005934e-03
  2.569656e+00    5.097533e-01   6.850261e-03
  2.571866e+00    5.132015e-01   6.864063e-03
  2.574076e+00    5.175486e-01   6.883807e-03
  2.576287e+00    5.097215e-01   6.823268e-03
  2.578497e+00    5.272177e-01   6.931469e-03
  2.580708e+00    5.176623e-01   6.860260e-03
  2.582918e+00    5.083883e-01   6.790829e-03
  2.585129e+00    5.087639e-01   6.785616e-03
  2.587339e+00    5.075681e-01   6.770008e-03
  2.589550e+00    5.092867e-01   6.773937e-03
  2.591760e+00    5.269559e-01   6.882585e-03
  2.593971e+00    5.164424e-01   6.806039e-03
  2.596181e+00    5.031157e-01   6.711471e-03
  2.598391e+00    4.997494e-01   6.683838e-03
  2.600602e+00    5.004739e-01   6.682836e-03
  2.602812e+00    5.074623e-01   6.721796e-03
  2.605023e+00    5.029333e-01   6.684608e-03
  2.607233e+00    5.236637e-01   6.813727e-03
  2.609444e+00    5.147627e-01   6.748324e-03
  2.611654e+00    4.892228e-01   6.571565e-03
  2.613865e+00    5.098579e-01   6.701659e-03
  2.616075e+00    5.115591e-01   6.705665e-03
  2.618286e+00    5.085731e-01   6.679056e-03
  2.620496e+00    5.048158e-01   6.647624e-03
  2.622706e+00    5.115283e-01   6.685913e-03
  2.624917e+00    5.073734e-01   6.652826e-03
  2.627127e+00    5.078408e-01   6.650139e-03
  2.629338e+00    4.991944e-01   6.587327e-03
  2.631548e+00    5.054165e-01   6.622066e-03
  2.633759e+00    4.996750e-01   6.577224e-03
  2.635969e+00    5.034395e-01   6.595251e-03
  2.638180e+00    4.997160e-01   6.563859e-03
  2.640390e+00    5.047296e-01   6.590049e-03
  2.642601e+00    5.055668e-01   6.588833e-03
  2.644811e+00    5.090102e-01   6.604105e-03
  2.647021e+00    4.973796e-01   6.521667e-03
  2.649232e+00    4.904626e-01   6.469506e-03
  2.651442e+00    4.889761e-01   6.453241e-03
  2.653653e+00    4.970942e-01   6.499832e-03
  2.655863e+00    4.922627e-01   6.461500e-03
  2.658074e+00    4.943092e-01   6.468355e-03
  2.660284e+00    4.913257e-01   6.442474e-03
  2.662495e+00    4.886026e-01   6.417920e-03
  2.664705e+00    4.883755e-01   6.409885e-03
  2.666916e+00    5.002907e-01   6.481140e-03
  2.669126e+00    4.916438e-01   6.418447e-03
  2.671337e+00    5.105842e-01   6.534234e-03
  2.673547e+00    4.959089e-01   6.433277e-03
  2.675757e+00    4.967968e-01   6.432559e-03
  2.677968e+00    4.980246e-01   6.433954e-03
  2.680178e+00    4.802642e-01   6.311885e-03
  2.682389e+00    4.944014e-01   6.397691e-03
  2.684599e+00    4.818383e-01   6.309788e-03
  2.686810e+00    4.876099e-01   6.340870e-03
  2.689020e+00    4.913731e-01   6.359006e-03
  2.691231e+00    5.073173e-01   6.454952e-03
  2.693441e+00    5.031822e-01   6.422395e-03
  2.695652e+00    4.814817e-01   6.275897e-03
  2.697862e+00    5.064578e-01   6.430175e-03
  2.700072e+00    4.854466e-01   6.289346e-03
  2.702283e+00    4.869786e-01   6.293028e-03
  2.704493e+00    4.868903e-01   6.286199e-03
  2.706704e+00    4.914046e-01   6.308843e-03
  2.708914e+00    4.842847e-01   6.257043e-03
  2.711125e+00    4.750645e-01   6.191023e-03
  2.713335e+00    4.697381e-01   6.150228e-03
  2.715546e+00    4.862700e-01   6.251062e-03
  2.717756e+00    4.867986e-01   6.248576e-03
  2.719967e+00    5.075371e-01   6.373938e-03
  2.722177e+00    5.017883e-01   6.331517e-03
  2.724387e+00    4.946089e-01   6.279906e-03
  2.726598e+00    4.800636e-01   6.180841e-03
  2.728808e+00    4.841125e-01   6.200700e-03
  2.731019e+00    4.934845e-01   6.254265e-03
  2.733229e+00    4.886462e-01   6.217697e-03
  2.735440e+00    4.778477e-01   6.142383e-03
  2.737650e+00    4.817622e-01   6.161483e-03
  2.739861e+00    4.764391e-01   6.121331e-03
  2.742071e+00    4.797383e-01   6.136760e-03
  2.744282e+00    4.798909e-01   6.131500e-03
  2.746492e+00    4.894469e-01   6.186163e-03
  2.748702e+00    4.943708e-01   6.211240e-03
  2.750913e+00    4.790399e-01   6.108393e-03
  2.753123e+00    4.752952e-01   6.078393e-03
  2.755334e+00    4.776820e-01   6.087573e-03
  2.757544e+00    4.808732e-01   6.102142e-03
  2.759755e+00    4.781246e-01   6.078806e-03
  2.761965e+00    4.754642e-01   6.055918e-03
  2.764176e+00    4.663213e-01   5.991508e-03
  2.766386e+00    4.588514e-01   5.937662e-03
  2.768597e+00    4.714322e-01   6.012687e-03
  2.770807e+00    4.898356e-01   6.122994e-03
  2.773017e+00    4.729209e-01   6.010424e-03
  2.775228e+00    4.713030e-01   5.994382e-03
  2.777438e+00    4.778115e-01   6.029824e-03
  2.779649e+00    4.787654e-01   6.029951e-03
  2.781859e+00    4.759136e-01   6.006215e-03
  2.784070e+00    4.691036e-01   5.957274e-03
  2.786280e+00    4.828463e-01   6.038089e-03
  2.788491e+00    4.783758e-01   6.004252e-03
  2.790701e+00    4.750829e-01   5.977903e-03
  2.792912e+00    4.751705e-01   5.972488e-03
  2.795122e+00    4.884690e-01   6.049680e-03
  2.797333e+00    4.931858e-01   6.073165e-03
  2.799543e+00    4.851468e-01   6.017553e-03
  2.801753e+00    4.809941e-01   5.985836e-03
  2.803964e+00    4.880819e-01   6.024049e-03
  2.806174e+00    4.691434e-01   5.899918e-03
  2.808385e+00    4.725051e-01   5.914223e-03
  2.810595e+00    4.772983e-01   5.937277e-03
  2.812806e+00    4.660298e-01   5.860216e-03
  2.815016e+00    4.672080e-01   5.862909e-03
  2.817227e+00    4.783917e-01   5.958696e-03
  2.819437e+00    4.919097e-01   6.053604e-03
  2.821648e+00    4.649800e-01   5.887849e-03
  2.823858e+00    4.702822e-01   5.926635e-03
  2.826068e+00    4.648536e-01   5.897259e-03
  2.828279e+00    4.830274e-01   6.015510e-03
  2.830489e+00    4.866621e-01   6.041499e-03
  2.832700e+00    4.807495e-01   6.007285e-03
  2.834910e+00    4.706937e-01   5.946166e-03
  2.837121e+00    4.746871e-01   5.973057e-03
  2.839331e+00    4.687303e-01   5.936691e-03
  2.841542e+00    4.752654e-01   5.978962e-03
  2.843752e+00    4.706650e-01   5.950722e-03
  2.845963e+00    4.766098e-01   5.988605e-03
  2.848173e+00    4.730726e-01   5.966398e-03
  2.850383e+00    4.752363e-01   5.980360e-03
  2.852594e+00    4.517922e-01   5.830885e-03
  2.854804e+00    4.599583e-01   5.882843e-03
  2.857015e+00    4.631338e-01   5.902693e-03
  2.859225e+00    4.707602e-01   5.950826e-03
  2.861436e+00    4.663510e-01   5.922268e-03
  2.863646e+00    4.623141e-01   5.896590e-03
  2.865857e+00    4.740043e-01   5.971025e-03
  2.868067e+00    4.706326e-01   5.949980e-03
  2.870278e+00    4.667044e-01   5.924749e-03
  2.872488e+00    4.692312e-01   5.939581e-03
  2.874698e+00    4.583647e-01   5.869392e-03
  2.876909e+00    4.585051e-01   5.868935e-03
  2.879119e+00    4.679762e-01   5.927638e-03
  2.881330e+00    4.545277e-01   5.840373e-03
  2.883540e+00    4.597504e-01   5.872448e-03
  2.885751e+00    4.551165e-01   5.841153e-03
  2.887961e+00    4.524100e-01   5.821895e-03
  2.890172e+00    4.548528e-01   5.835970e-03
  2.892382e+00    4.826085e-01   6.009565e-03
  2.894593e+00    4.645407e-01   5.894207e-03
  2.896803e+00    4.405497e-01   5.738019e-03
  2.899014e+00    4.697920e-01   5.923463e-03
  2.901224e+00    4.642100e-01   5.886186e-03
  2.903434e+00    4.573894e-01   5.840827e-03
  2.905645e+00    4.714490e-01   5.927666e-03
  2.907855e+00    4.693857e-01   5.912565e-03
  2.910066e+00    4.564614e-01   5.828543e-03
  2.912276e+00    4.476447e-01   5.769859e-03
  2.914487e+00    4.668967e-01   5.890140e-03
  2.916697e+00    4.788485e-01   5.962801e-03
  2.918908e+00    4.604508e-01   5.845123e-03
  2.921118e+00    4.627007e-01   5.856665e-03
  2.923329e+00    4.613945e-01   5.846079e-03
  2.925539e+00    4.474809e-01   5.755001e-03
  2.927749e+00    4.507975e-01   5.773985e-03
  2.929960e+00    4.511093e-01   5.773228e-03
  2.932170e+00    4.533294e-01   5.785097e-03
  2.934381e+00    4.604548e-01   5.827938e-03
  2.936591e+00    4.441905e-01   5.721542e-03
  2.938802e+00    4.482448e-01   5.744899e-03
  2.941012e+00    4.482578e-01   5.742673e-03
  2.943223e+00    4.580746e-01   5.802507e-03
  2.945433e+00    4.543071e-01   5.774860e-03
  2.947644e+00    4.662571e-01   5.846141e-03
  2.949854e+00    4.616581e-01   5.812956e-03
  2.952064e+00    4.503177e-01   5.736896e-03
  2.954275e+00    4.456497e-01   5.702728e-03
  2.956485e+00    4.641430e-01   5.815605e-03
  2.958696e+00    4.566539e-01   5.764131e-03
  2.960906e+00    4.532902e-01   5.738670e-03
  2.963117e+00    4.556010e-01   5.748816e-03
  2.965327e+00    4.533546e-01   5.730704e-03
  2.967538e+00    4.620853e-01   5.782696e-03
  2.969748e+00    4.537694e-01   5.727613e-03
  2.971959e+00    4.638551e-01   5.787739e-03
  2.974169e+00    4.575432e-01   5.745646e-03
  2.976379e+00    4.550107e-01   5.726798e-03
  2.978590e+00    4.669528e-01   5.798271e-03
  2.980800e+00    4.558559e-01   5.726167e-03
  2.983011e+00    4.537858e-01   5.710359e-03
  2.985221e+00    4.499575e-01   5.683074e-03
  2.987432e+00    4.580097e-01   5.730565e-03
  2.989642e+00    4.551677e-01   5.710155e-03
  2.991853e+00    4.530717e-01   5.693685e-03
  2.994063e+00    4.602632e-01   5.735792e-03
  2.996274e+00    4.573475e-01   5.714391e-03
  2.998484e+00    4.523010e-01   5.680084e-03
  3.000694e+00    4.446973e-01   5.628718e-03
  3.002905e+00    4.459617e-01   5.633792e-03
  3.005115e+00    4.567348e-01   5.698452e-03
  3.007326e+00    4.552671e-01   5.686126e-03
  3.009536e+00    4.565711e-01   5.690994e-03
  3.011747e+00    4.485548e-01   5.637924e-03
  3.013957e+00    4.454359e-01   5.615124e-03
  3.016168e+00    4.550723e-01   5.672263e-03
  3.018378e+00    4.630647e-01   5.718792e-03
  3.020589e+00    4.558165e-01   5.670638e-03
  3.022799e+00    4.548512e-01   5.661463e-03
  3.025010e+00    4.509356e-01   5.633802e-03
  3.027220e+00    4.658984e-01   5.723340e-03
  3.029430e+00    4.651550e-01   5.715500e-03
  3.031641e+00    4.568086e-01   5.660829e-03
  3.033851e+00    4.582091e-01   5.665957e-03
  3.036062e+00    4.591333e-01   5.668870e-03
  3.038272e+00    4.644997e-01   5.698269e-03
  3.040483e+00    4.544470e-01   5.633050e-03
  3.042693e+00    4.424913e-01   5.555216e-03
  3.044904e+00    4.648704e-01   5.689872e-03
  3.047114e+00    4.579071e-01   5.642270e-03
  3.049325e+00    4.454524e-01   5.560631e-03
  3.051535e+00    4.522492e-01   5.598497e-03
  3.053745e+00    4.441062e-01   5.543137e-03
  3.055956e+00    4.749728e-01   5.727846e-03
  3.058166e+00    4.474004e-01   5.554877e-03
  3.060377e+00    4.502559e-01   5.567788e-03
  3.062587e+00    4.538947e-01   5.585590e-03
  3.064798e+00    4.467746e-01   5.537383e-03
  3.067008e+00    4.554641e-01   5.586199e-03
  3.069219e+00    4.523854e-01   5.562764e-03
  3.071429e+00    4.637372e-01   5.628566e-03
  3.073640e+00    4.416938e-01   5.489857e-03
  3.075850e+00    4.500052e-01   5.537670e-03
  3.078060e+00    4.481386e-01   5.523092e-03
  3.080271e+00    4.401933e-01   5.470459e-03
  3.082481e+00    4.572907e-01   5.572204e-03
  3.084692e+00    4.421621e-01   5.475905e-03
  3.086902e+00    4.474378e-01   5.505229e-03
  3.089113e+00    4.579581e-01   5.565964e-03
  3.091323e+00    4.539482e-01   5.538168e-03
  3.093534e+00    4.320671e-01   5.399717e-03
  3.095744e+00    4.391655e-01   5.440546e-03
  3.097955e+00    4.417185e-01   5.452815e-03
  3.100165e+00    4.407213e-01   5.443343e-03
  3.102375e+00    4.461976e-01   5.473640e-03
  3.104586e+00    4.507668e-01   5.498087e-03
  3.106796e+00    4.548506e-01   5.519389e-03
  3.109007e+00    4.478839e-01   5.473731e-03
  3.111217e+00    4.427638e-01   5.438679e-03
  3.113428e+00    4.499820e-01   5.479398e-03
  3.115638e+00    4.382651e-01   5.404387e-03
  3.117849e+00    4.490253e-01   5.466584e-03
  3.120059e+00    4.404988e-01   5.410982e-03
  3.122270e+00    4.377808e-01   5.391046e-03
  3.124480e+00    4.345538e-01   5.367483e-03
  3.126691e+00    4.455927e-01   5.431658e-03
  3.128901e+00    4.457824e-01   5.429703e-03
  3.131111e+00    4.511173e-01   5.458225e-03
  3.133322e+00    4.481387e-01   5.436709e-03
  3.135532e+00    4.514918e-01   5.453571e-03
  3.137743e+00    4.583581e-01   5.491371e-03
  3.139953e+00    4.574795e-01   5.482351e-03
  3.142164e+00    4.467669e-01   5.429861e-03
  3.144374e+00    4.438222e-01   5.440380e-03
  3.146585e+00    4.509833e-01   5.498795e-03
  3.148795e+00    4.362314e-01   5.418838e-03
  3.151006e+00    4.355312e-01   5.422939e-03
  3.153216e+00    4.473273e-01   5.503085e-03
  3.155426e+00    4.475170e-01   5.510604e-03
  3.157637e+00    4.460576e-01   5.507166e-03
  3.159847e+00    4.420127e-01   5.487027e-03
  3.162058e+00    4.329568e-01   5.434930e-03
  3.164268e+00    4.368489e-01   5.463339e-03
  3.166479e+00    4.459166e-01   5.523414e-03
  3.168689e+00    4.553868e-01   5.585213e-03
  3.170900e+00    4.409371e-01   5.499053e-03
  3.173110e+00    4.354779e-01   5.467775e-03
  3.175321e+00    4.436767e-01   5.521503e-03
  3.177531e+00    4.425535e-01   5.517264e-03
  3.179741e+00    4.467587e-01   5.545515e-03
  3.181952e+00    4.394621e-01   5.502162e-03
  3.184162e+00    4.279782e-01   5.431960e-03
  3.186373e+00    4.352698e-01   5.479627e-03
  3.188583e+00    4.359606e-01   5.485769e-03
  3.190794e+00    4.311239e-01   5.456989e-03
  3.193004e+00    4.313588e-01   5.459710e-03
  3.195215e+00    4.462320e-01   5.554552e-03
  3.197425e+00    4.471693e-01   5.561627e-03
  3.199636e+00    4.296610e-01   5.450891e-03
  3.201846e+00    4.478048e-01   5.564175e-03
  3.204056e+00    4.313340e-01   5.461780e-03
  3.206267e+00    4.272245e-01   5.436528e-03
  3.208477e+00    4.353328e-01   5.488801e-03
  3.210688e+00    4.439659e-01   5.543827e-03
  3.212898e+00    4.286413e-01   5.447875e-03
  3.215109e+00    4.232246e-01   5.414090e-03
  3.217319e+00    4.264507e-01   5.435317e-03
  3.219530e+00    4.231513e-01   5.414629e-03
  3.221740e+00    4.302568e-01   5.460471e-03
  3.223951e+00    4.359523e-01   5.496961e-03
  3.226161e+00    4.421117e-01   5.535840e-03
  3.228372e+00    4.244816e-01   5.424899e-03
  3.230582e+00    4.321336e-01   5.473681e-03
  3.232792e+00    4.347850e-01   5.490692e-03
  3.235003e+00    4.239289e-01   5.421956e-03
  3.237213e+00    4.265475e-01   5.438770e-03
  3.239424e+00    4.255390e-01   5.432331e-03
  3.241634e+00    4.318106e-01   5.472360e-03
  3.243845e+00    4.389275e-01   5.517309e-03
  3.246055e+00    4.409379e-01   5.529685e-03
  3.248266e+00    4.216096e-01   5.407339e-03
  3.250476e+00    4.204910e-01   5.399828e-03
  3.252687e+00    4.308497e-01   5.465874e-03
  3.254897e+00    4.314662e-01   5.469659e-03
  3.257107e+00    4.249793e-01   5.428076e-03
  3.259318e+00    4.331521e-01   5.479776e-03
  3.261528e+00    4.270016e-01   5.440616e-03
  3.263739e+00    4.225233e-01   5.411418e-03
  3.265949e+00    4.322695e-01   5.473378e-03
  3.268160e+00    4.353085e-01   5.492158e-03
  3.270370e+00    4.256500e-01   5.430387e-03
  3.272581e+00    4.210664e-01   5.400772e-03
  3.274791e+00    4.410813e-01   5.527100e-03
  3.277002e+00    4.307365e-01   5.461365e-03
  3.279212e+00    4.208942e-01   5.398209e-03
  3.281422e+00    4.285524e-01   5.446533e-03
  3.283633e+00    4.230548e-01   5.410796e-03
  3.285843e+00    4.366011e-01   5.496385e-03
  3.288054e+00    4.356543e-01   5.489503e-03
  3.290264e+00    4.153549e-01   5.359748e-03
  3.292475e+00    4.190626e-01   5.382805e-03
  3.294685e+00    4.260477e-01   5.426832e-03
  3.296896e+00    4.221056e-01   5.400918e-03
  3.299106e+00    4.182765e-01   5.375813e-03
  3.301317e+00    4.412497e-01   5.520392e-03
  3.303527e+00    4.301631e-01   5.450193e-03
  3.305737e+00    4.188983e-01   5.377269e-03
  3.307948e+00    4.167773e-01   5.363003e-03
  3.310158e+00    4.183669e-01   5.372354e-03
  3.312369e+00    4.202853e-01   5.383759e-03
  3.314579e+00    4.389746e-01   5.501266e-03
  3.316790e+00    4.167565e-01   5.359529e-03
  3.319000e+00    4.308806e-01   5.448386e-03
  3.321211e+00    4.216602e-01   5.389184e-03
  3.323421e+00    4.224436e-01   5.392964e-03
  3.325632e+00    4.155033e-01   5.347628e-03
  3.327842e+00    4.236256e-01   5.398696e-03
  3.330052e+00    4.169619e-01   5.355017e-03
  3.332263e+00    4.277011e-01   5.422513e-03
  3.334473e+00    4.168516e-01   5.352402e-03
  3.336684e+00    4.107485e-01   5.311819e-03
  3.338894e+00    4.082495e-01   5.294791e-03
  3.341105e+00    4.313493e-01   5.441299e-03
  3.343315e+00    4.258628e-01   5.405481e-03
  3.345526e+00    4.052027e-01   5.271812e-03
  3.347736e+00    4.147718e-01   5.332309e-03
  3.349947e+00    4.241723e-01   5.391443e-03
  3.352157e+00    4.092580e-01   5.294687e-03
  3.354368e+00    4.155270e-01   5.333757e-03
  3.356578e+00    4.414037e-01   5.496291e-03
  3.358788e+00    4.251947e-01   5.393115e-03
  3.360999e+00    4.259165e-01   5.396407e-03
  3.363209e+00    4.206848e-01   5.362160e-03
  3.365420e+00    4.128878e-01   5.310735e-03
  3.367630e+00    4.135076e-01   5.313687e-03
  3.369841e+00    4.231330e-01   5.373748e-03
  3.372051e+00    4.231930e-01   5.372149e-03
  3.374262e+00    4.125775e-01   5.301889e-03
  3.376472e+00    4.305608e-01   5.413731e-03
  3.378683e+00    4.188546e-01   5.337147e-03
  3.380893e+00    4.072197e-01   5.260136e-03
  3.383103e+00    4.107541e-01   5.280263e-03
  3.385314e+00    4.031636e-01   5.229025e-03
  3.387524e+00    4.171687e-01   5.316339e-03
  3.389735e+00    4.012009e-01   5.211030e-03
  3.391945e+00    4.102229e-01   5.265611e-03
  3.394156e+00    4.112414e-01   5.267934e-03
  3.396366e+00    4.003273e-01   5.194212e-03
  3.398577e+00    3.975665e-01   5.173280e-03
  3.400787e+00    3.951627e-01   5.169275e-03
  3.402998e+00    4.104869e-01   5.306641e-03
  3.405208e+00    4.077817e-01   5.309871e-03
  3.407418e+00    4.015592e-01   5.284971e-03
  3.409629e+00    3.969992e-01   5.268791e-03
  3.411839e+00    3.854269e-01   5.203003e-03
  3.414050e+00    3.837331e-01   5.202334e-03
  3.416260e+00    3.974669e-01   5.304309e-03
  3.418471e+00    3.846451e-01   5.227381e-03
  3.420681e+00    3.850567e-01   5.238549e-03
  3.422892e+00    3.969876e-01   5.327178e-03
  3.425102e+00    3.947856e-01   5.320253e-03
  3.427313e+00    3.681379e-01   5.144551e-03
  3.429523e+00    3.900664e-01   5.302643e-03
  3.431733e+00    3.922520e-01   5.324187e-03
  3.433944e+00    3.925608e-01   5.332858e-03
  3.436154e+00    3.786640e-01   5.243805e-03
  3.438365e+00    3.853943e-01   5.296172e-03
  3.440575e+00    3.892972e-01   5.328894e-03
  3.442786e+00    3.771726e-01   5.250876e-03
  3.444996e+00    3.739890e-01   5.234130e-03
  3.447207e+00    3.500811e-01   5.069200e-03
  3.449417e+00    3.721422e-01   5.267298e-03
  3.451628e+00    3.651139e-01   5.246625e-03
  3.453838e+00    3.632916e-01   5.254547e-03
  3.456049e+00    3.722405e-01   5.342952e-03
  3.458259e+00    3.706551e-01   5.353623e-03
  3.460469e+00    3.660411e-01   5.339975e-03
  3.462680e+00    3.661032e-01   5.359474e-03
  3.464890e+00    3.625567e-01   5.351145e-03
  3.467101e+00    3.833831e-01   5.520542e-03
  3.469311e+00    3.755827e-01   5.480769e-03
  3.471522e+00    3.992251e-01   5.667532e-03
  3.473732e+00    4.072601e-01   5.740857e-03
  3.475943e+00    3.947303e-01   5.667784e-03
  3.478153e+00    4.046175e-01   5.754110e-03
  3.480364e+00    4.188752e-01   5.870225e-03
  3.482574e+00    4.254751e-01   5.932045e-03
  3.484784e+00    4.223251e-01   5.925149e-03
  3.486995e+00    4.255522e-01   5.962994e-03
  3.489205e+00    4.384675e-01   6.067726e-03
  3.491416e+00    4.337578e-01   6.050102e-03
  3.493626e+00    4.409667e-01   6.114863e-03
  3.495837e+00    4.296544e-01   6.050468e-03
  3.498047e+00    4.527376e-01   6.225528e-03
  3.500258e+00    4.609032e-01   6.296105e-03
  3.502468e+00    4.598769e-01   6.303621e-03
  3.504679e+00    4.801027e-01   6.455541e-03
  3.506889e+00    4.747221e-01   6.433857e-03
  3.509099e+00    4.708541e-01   6.421919e-03
  3.511310e+00    4.811691e-01   6.506434e-03
  3.513520e+00    4.747178e-01   6.476982e-03
  3.515731e+00    4.853261e-01   6.563305e-03
  3.517941e+00    4.880896e-01   6.596310e-03
  3.520152e+00    4.873506e-01   6.605489e-03
  3.522362e+00    5.173334e-01   6.820402e-03
  3.524573e+00    5.262327e-01   6.893390e-03
  3.526783e+00    5.194574e-01   6.862300e-03
  3.528994e+00    5.301610e-01   6.945066e-03
  3.531204e+00    5.211866e-01   6.898472e-03
  3.533414e+00    5.304620e-01   6.971739e-03
  3.535625e+00    5.368123e-01   7.025791e-03
  3.537835e+00    5.474411e-01   7.107310e-03
  3.540046e+00    5.303302e-01   7.004248e-03
  3.542256e+00    5.301185e-01   7.010327e-03
  3.544467e+00    5.392395e-01   7.078039e-03
  3.546677e+00    5.291680e-01   7.019133e-03
  3.548888e+00    5.388287e-01   7.090454e-03
  3.551098e+00    5.310683e-01   7.046458e-03
  3.553309e+00    5.407174e-01   7.118368e-03
  3.555519e+00    5.336633e-01   7.083084e-03
  3.557729e+00    5.538670e-01   7.227802e-03
  3.559940e+00    5.333303e-01   7.104099e-03
  3.562150e+00    5.312284e-01   7.101694e-03
  3.564361e+00    5.381488e-01   7.161185e-03
  3.566571e+00    5.474421e-01   7.236718e-03
  3.568782e+00    5.423152e-01   7.216944e-03
  3.570992e+00    5.266160e-01   7.125368e-03
  3.573203e+00    5.301788e-01   7.163482e-03
  3.575413e+00    5.315123e-01   7.186219e-03
  3.577624e+00    5.439463e-01   7.284004e-03
  3.579834e+00    5.398005e-01   7.270110e-03
  3.582045e+00    5.385965e-01   7.276091e-03
  3.584255e+00    5.353136e-01   7.267924e-03
  3.586465e+00    5.366229e-01   7.290722e-03
  3.588676e+00    5.400558e-01   7.328300e-03
  3.590886e+00    5.371951e-01   7.322533e-03
  3.593097e+00    5.319739e-01   7.301351e-03
  3.595307e+00    5.214437e-01   7.242462e-03
  3.597518e+00    5.209965e-01   7.253338e-03
  3.599728e+00    5.344778e-01   7.360708e-03
  3.601939e+00    5.305846e-01   7.347832e-03
  3.604149e+00    5.512357e-01   7.504054e-03
  3.606360e+00    5.557722e-01   7.549318e-03
  3.608570e+00    5.314728e-01   7.396533e-03
  3.610780e+00    5.507298e-01   7.540576e-03
  3.612991e+00    5.368376e-01   7.454887e-03
  3.615201e+00    5.436509e-01   7.511903e-03
  3.617412e+00    5.517779e-01   7.575256e-03
  3.619622e+00    5.505512e-01   7.572833e-03
  3.621833e+00    5.580984e-01   7.631476e-03
  3.624043e+00    5.322396e-01   7.462066e-03
  3.626254e+00    5.394420e-01   7.522099e-03
  3.628464e+00    5.399693e-01   7.536829e-03
  3.630675e+00    5.320618e-01   7.495534e-03
  3.632885e+00    5.387660e-01   7.557107e-03
  3.635095e+00    5.340098e-01   7.538098e-03
  3.637306e+00    5.482108e-01   7.652215e-03
  3.639516e+00    5.444410e-01   7.640552e-03
  3.641727e+00    5.565284e-01   7.739769e-03
  3.643937e+00    5.430793e-01   7.660387e-03
  3.646148e+00    5.343551e-01   7.613251e-03
  3.648358e+00    5.395215e-01   7.664896e-03
  3.650569e+00    5.344974e-01   7.643846e-03
  3.652779e+00    5.451084e-01   7.734310e-03
  3.654990e+00    5.473853e-01   7.765548e-03
  3.657200e+00    5.278906e-01   7.640867e-03
  3.659410e+00    5.400525e-01   7.743409e-03
  3.661621e+00    5.631237e-01   7.922662e-03
  3.663831e+00    5.239019e-01   7.656794e-03
  3.666042e+00    5.368457e-01   7.766003e-03
  3.668252e+00    5.425044e-01   7.822224e-03
  3.670463e+00    5.367697e-01   7.796114e-03
  3.672673e+00    5.197887e-01   7.687062e-03
  3.674884e+00    5.295070e-01   7.773942e-03
  3.677094e+00    5.268250e-01   7.769724e-03
  3.679305e+00    5.380727e-01   7.867866e-03
  3.681515e+00    5.282101e-01   7.811040e-03
  3.683726e+00    5.218348e-01   7.779417e-03
  3.685936e+00    5.346476e-01   7.890144e-03
  3.688146e+00    5.383819e-01   7.933584e-03
  3.690357e+00    5.319523e-01   7.902102e-03
  3.692567e+00    5.251736e-01   7.867645e-03
  3.694778e+00    5.341427e-01   7.950733e-03
  3.696988e+00    5.220062e-01   7.875806e-03
  3.699199e+00    5.034373e-01   7.750358e-03
  3.701409e+00    5.225090e-01   7.912097e-03
  3.703620e+00    5.348030e-01   8.021132e-03
  3.705830e+00    4.997800e-01   7.770077e-03
  3.708041e+00    5.271941e-01   7.996933e-03
  3.710251e+00    5.248477e-01   7.995860e-03
  3.712461e+00    5.331212e-01   8.075556e-03
  3.714672e+00    5.335828e-01   8.095963e-03
  3.716882e+00    5.297176e-01   8.083451e-03
  3.719093e+00    5.358934e-01   8.147790e-03
  3.721303e+00    5.252516e-01   8.083599e-03
  3.723514e+00    4.948163e-01   7.862725e-03
  3.725724e+00    5.266597e-01   8.129065e-03
  3.727935e+00    5.080261e-01   8.001279e-03
  3.730145e+00    5.052752e-01   7.996686e-03
  3.732356e+00    5.245820e-01   8.165715e-03
  3.734566e+00    5.145596e-01   8.104900e-03
  3.736776e+00    5.174142e-01   8.145083e-03
  3.738987e+00    5.087596e-01   8.094376e-03
  3.741197e+00    5.366728e-01   8.331819e-03
  3.743408e+00    5.171013e-01   8.196676e-03
  3.745618e+00    4.938259e-01   8.028023e-03
  3.747829e+00    5.181665e-01   8.241675e-03
  3.750039e+00    5.125809e-01   8.215547e-03
  3.752250e+00    5.134078e-01   8.240684e-03
  3.754460e+00    5.217460e-01   8.326102e-03
  3.756671e+00    5.121610e-01   8.268106e-03
  3.758881e+00    5.214155e-01   8.361314e-03
  3.761091e+00    5.315785e-01   8.461994e-03
  3.763302e+00    4.946073e-01   8.181302e-03
  3.765512e+00    5.026550e-01   8.266677e-03
  3.767723e+00    4.998440e-01   8.262776e-03
  3.769933e+00    5.154076e-01   8.409932e-03
  3.772144e+00    5.208232e-01   8.473829e-03
  3.774354e+00    5.287084e-01   8.558076e-03
  3.776565e+00    5.064768e-01   8.396094e-03
  3.778775e+00    4.904855e-01   8.282116e-03
  3.780986e+00    5.016491e-01   8.396136e-03
  3.783196e+00    5.215300e-01   8.581454e-03
  3.785407e+00    5.179160e-01   8.572429e-03
  3.787617e+00    5.082064e-01   8.512544e-03
  3.789827e+00    4.864011e-01   8.348123e-03
  3.792038e+00    5.091320e-01   8.561970e-03
  3.794248e+00    4.952992e-01   8.465839e-03
  3.796459e+00    5.076115e-01   8.591975e-03
  3.798669e+00    4.885135e-01   8.449878e-03
  3.800880e+00    4.987692e-01   8.559517e-03
  3.803090e+00    5.158765e-01   8.727215e-03
  3.805301e+00    4.951976e-01   8.572522e-03
  3.807511e+00    4.976442e-01   8.615608e-03
  3.809722e+00    5.083206e-01   8.729976e-03
  3.811932e+00    5.090549e-01   8.758648e-03
  3.814142e+00    5.264634e-01   8.930730e-03
  3.816353e+00    5.016002e-01   8.740182e-03
  3.818563e+00    5.224085e-01   8.943189e-03
  3.820774e+00    5.316740e-01   9.046163e-03
  3.822984e+00    5.224684e-01   8.991417e-03
  3.825195e+00    5.137844e-01   8.940498e-03
  3.827405e+00    5.337564e-01   9.137318e-03
  3.829616e+00    5.057843e-01   8.919001e-03
  3.831826e+00    4.998273e-01   8.890474e-03
  3.834037e+00    4.933543e-01   8.857182e-03
  3.836247e+00    4.833666e-01   8.791402e-03
  3.838457e+00    5.004915e-01   8.970903e-03
  3.840668e+00    4.994214e-01   8.986548e-03
  3.842878e+00    5.110681e-01   9.116657e-03
  3.845089e+00    5.146155e-01   9.174305e-03
  3.847299e+00    5.069505e-01   9.131848e-03
  3.849510e+00    5.032942e-01   9.124841e-03
  3.851720e+00    4.938182e-01   9.059985e-03
  3.853931e+00    5.033923e-01   9.166501e-03
  3.856141e+00    5.037821e-01   9.189311e-03
  3.858352e+00    4.861414e-01   9.046012e-03
  3.860562e+00    5.088802e-01   9.274757e-03
  3.862772e+00    5.178655e-01   9.376338e-03
  3.864983e+00    4.973800e-01   9.208781e-03
  3.867193e+00    5.053377e-01   9.302125e-03
  3.869404e+00    4.990454e-01   9.263977e-03
  3.871614e+00    5.050845e-01   9.340076e-03
  3.873825e+00    4.825398e-01   9.149397e-03
  3.876035e+00    4.854307e-01   9.197097e-03
  3.878246e+00    4.954680e-01   9.317584e-03
  3.880456e+00    4.944155e-01   9.336703e-03
  3.882667e+00    4.803726e-01   9.232179e-03
  3.884877e+00    4.844030e-01   9.300330e-03
  3.887087e+00    4.998249e-01   9.477367e-03
  3.889298e+00    4.896566e-01   9.410847e-03
  3.891508e+00    4.864509e-01   9.410346e-03
  3.893719e+00    4.904147e-01   9.479580e-03
  3.895929e+00    5.034956e-01   9.637017e-03
  3.898140e+00    5.042642e-01   9.676580e-03
  3.900350e+00    5.136427e-01   9.798862e-03
  3.902561e+00    5.209431e-01   9.901804e-03
  3.904771e+00    4.900425e-01   9.636365e-03
  3.906982e+00    4.821749e-01   9.591650e-03
  3.909192e+00    4.997169e-01   9.798362e-03
  3.911403e+00    5.031066e-01   9.866055e-03
  3.913613e+00    4.950564e-01   9.821347e-03
  3.915823e+00    4.900382e-01   9.806256e-03
  3.918034e+00    4.827635e-01   9.768239e-03
  3.920244e+00    4.802837e-01   9.778578e-03
  3.922455e+00    4.784529e-01   9.795645e-03
  3.924665e+00    4.899732e-01   9.949301e-03
  3.926876e+00    5.208794e-01   1.029672e-02
  3.929086e+00    5.026749e-01   1.015312e-02
  3.931297e+00    4.913949e-01   1.007353e-02
  3.933507e+00    4.891436e-01   1.007928e-02
  3.935718e+00    5.052860e-01   1.027361e-02
  3.937928e+00    4.775944e-01   1.001732e-02
  3.940138e+00    4.536752e-01   9.791506e-03
  3.942349e+00    4.875498e-01   1.018026e-02
  3.944559e+00    5.084689e-01   1.042712e-02
  3.946770e+00    5.039091e-01   1.041098e-02
  3.948980e+00    4.999390e-01   1.040104e-02
  3.951191e+00    4.757964e-01   1.017727e-02
  3.953401e+00    4.985568e-01   1.044955e-02
  3.955612e+00    5.037726e-01   1.053629e-02
  3.957822e+00    4.937662e-01   1.046316e-02
  3.960033e+00    4.672438e-01   1.021013e-02
  3.962243e+00    4.837175e-01   1.042143e-02
  3.964453e+00    4.807030e-01   1.042178e-02
  3.966664e+00    4.916756e-01   1.057367e-02
  3.968874e+00    4.678598e-01   1.034230e-02
  3.971085e+00    5.057720e-01   1.077553e-02
  3.973295e+00    4.726571e-01   1.043803e-02
  3.975506e+00    4.886128e-01   1.063438e-02
  3.977716e+00    4.718652e-01   1.047223e-02
  3.979927e+00    4.796711e-01   1.058056e-02
  3.982137e+00    4.804291e-01   1.061095e-02
  3.984348e+00    4.743233e-01   1.056568e-02
  3.986558e+00    4.925185e-01   1.078891e-02
  3.988768e+00    4.916029e-01   1.080210e-02
  3.990979e+00    4.916879e-01   1.082592e-02
  3.993189e+00    4.930900e-01   1.086452e-02
  3.995400e+00    4.998272e-01   1.096247e-02
  3.997610e+00    5.099096e-01   1.110298e-02
  3.999821e+00    4.936726e-01   1.096276e-02
  4.002031e+00    4.702961e-01   1.073780e-02
  4.004242e+00    4.953291e-01   1.105875e-02
  4.006452e+00    4.883619e-01   1.102027e-02
  4.008663e+00    4.899609e-01   1.107848e-02
  4.010873e+00    5.033644e-01   1.126967e-02
  4.013084e+00    4.845907e-01   1.109862e-02
  4.015294e+00    4.692014e-01   1.096118e-02
  4.017504e+00    5.095564e-01   1.146577e-02
  4.019715e+00    4.820139e-01   1.119401e-02
  4.021925e+00    5.283612e-01   1.176471e-02
  4.024136e+00    5.005613e-01   1.149551e-02
  4.026346e+00    5.151316e-01   1.170713e-02
  4.028557e+00    4.762790e-01   1.130095e-02
  4.030767e+00    5.123654e-01   1.176831e-02
  4.032978e+00    4.801881e-01   1.143881e-02
  4.035188e+00    4.823238e-01   1.151032e-02
  4.037399e+00    4.671942e-01   1.137519e-02
  4.039609e+00    4.662260e-01   1.141026e-02
  4.041819e+00    4.576035e-01   1.135164e-02
  4.044030e+00    4.710603e-01   1.156670e-02
  4.046240e+00    4.804120e-01   1.173063e-02
  4.048451e+00    4.699956e-01   1.165293e-02
  4.050661e+00    4.934168e-01   1.199186e-02
  4.052872e+00    4.930423e-01   1.204063e-02
  4.055082e+00    4.663608e-01   1.176290e-02
  4.057293e+00    4.526953e-01   1.164120e-02
  4.059503e+00    4.778345e-01   1.201455e-02
  4.061714e+00    4.920103e-01   1.224849e-02
  4.063924e+00    4.960631e-01   1.235643e-02
  4.066134e+00    4.586495e-01   1.193729e-02
  4.068345e+00    4.918210e-01   1.242097e-02
  4.070555e+00    4.708223e-01   1.221160e-02
  4.072766e+00    4.832686e-01   1.243275e-02
  4.074976e+00    5.033177e-01   1.275136e-02
  4.077187e+00    4.684983e-01   1.236369e-02
  4.079397e+00    4.527183e-01   1.221555e-02
  4.081608e+00    4.767446e-01   1.260076e-02
  4.083818e+00    5.013009e-01   1.298837e-02
  4.086029e+00    5.094619e-01   1.316286e-02
  4.088239e+00    4.549569e-01   1.250572e-02
  4.090449e+00    5.142434e-01   1.336758e-02
  4.092660e+00    4.973686e-01   1.321888e-02
  4.094870e+00    4.609829e-01   1.279700e-02
  4.097081e+00    4.485988e-01   1.269304e-02
  4.099291e+00    4.675702e-01   1.301216e-02
  4.101502e+00    4.931178e-01   1.341286e-02
  4.103712e+00    5.215201e-01   1.384524e-02
  4.105923e+00    4.695221e-01   1.318761e-02
  4.108133e+00    4.665673e-01   1.319679e-02
  4.110344e+00    4.649101e-01   1.322378e-02
  4.112554e+00    4.589507e-01   1.319058e-02
  4.114764e+00    4.771863e-01   1.350412e-02
  4.116975e+00    4.547965e-01   1.323553e-02
  4.119185e+00    4.970074e-01   1.389218e-02
  4.121396e+00    4.834020e-01   1.375748e-02
  4.123606e+00    5.123836e-01   1.422169e-02
  4.125817e+00    5.104820e-01   1.425503e-02
  4.128027e+00    5.025399e-01   1.420334e-02
  4.130238e+00    4.172279e-01   1.299712e-02
  4.132448e+00    4.688546e-01   1.383748e-02
  4.134659e+00    4.594088e-01   1.375635e-02
  4.136869e+00    5.519334e-01   1.514523e-02
  4.139080e+00    4.794276e-01   1.417936e-02
  4.141290e+00    5.210696e-01   1.484755e-02
  4.143500e+00    4.652335e-01   1.409452e-02
  4.145711e+00    4.336100e-01   1.367023e-02
  4.147921e+00    4.986942e-01   1.472780e-02
  4.150132e+00    5.121306e-01   1.499612e-02
  4.152342e+00    4.691764e-01   1.442297e-02
  4.154553e+00    4.879553e-01   1.477871e-02
  4.156763e+00    5.145677e-01   1.525138e-02
  4.158974e+00    5.086631e-01   1.524007e-02
  4.161184e+00    4.674293e-01   1.468164e-02
  4.163395e+00    4.851866e-01   1.503425e-02
  4.165605e+00    4.631053e-01   1.476469e-02
  4.167815e+00    4.726849e-01   1.499429e-02
  4.170026e+00    4.552558e-01   1.479280e-02
  4.172236e+00    5.070885e-01   1.569667e-02
  4.174447e+00    4.844772e-01   1.542622e-02
  4.176657e+00    5.195481e-01   1.606201e-02
  4.178868e+00    4.843044e-01   1.559558e-02
  4.181078e+00    4.837155e-01   1.567381e-02
  4.183289e+00    4.859610e-01   1.580019e-02
  4.185499e+00    4.884976e-01   1.593478e-02
  4.187710e+00    4.495741e-01   1.537619e-02
  4.189920e+00    4.882893e-01   1.612127e-02
  4.192130e+00    5.316443e-01   1.692448e-02
  4.194341e+00    4.696610e-01   1.600487e-02
  4.196551e+00    4.988302e-01   1.659887e-02
  4.198762e+00    4.522149e-01   1.590451e-02
  4.200972e+00    4.696471e-01   1.631316e-02
  4.203183e+00    4.369915e-01   1.583939e-02
  4.205393e+00    4.510210e-01   1.619888e-02
  4.207604e+00    4.908929e-01   1.701495e-02
  4.209814e+00    4.904293e-01   1.712353e-02
  4.212025e+00    5.488939e-01   1.824374e-02
  4.214235e+00    4.946695e-01   1.744236e-02
  4.216445e+00    4.994923e-01   1.765337e-02
  4.218656e+00    4.870780e-01   1.756379e-02
  4.220866e+00    4.761736e-01   1.749436e-02
  4.223077e+00    5.176918e-01   1.838146e-02
  4.225287e+00    4.478697e-01   1.723159e-02
  4.227498e+00    4.648233e-01   1.769230e-02
  4.229708e+00    5.150510e-01   1.877491e-02
  4.231919e+00    4.578030e-01   1.784744e-02
  4.234129e+00    4.946415e-01   1.870713e-02
  4.236340e+00    4.462230e-01   1.792004e-02
  4.238550e+00    4.693310e-01   1.854060e-02
  4.240761e+00    4.943969e-01   1.919711e-02
  4.242971e+00    4.669516e-01   1.882785e-02
  4.245181e+00    4.321542e-01   1.828271e-02
  4.247392e+00    3.898669e-01   1.752725e-02
  4.249602e+00    4.937881e-01   1.992144e-02
  4.251813e+00    4.892453e-01   2.002518e-02
  4.254023e+00    4.357717e-01   1.908937e-02
  4.256234e+00    5.532692e-01   2.173978e-02
  4.258444e+00    4.892971e-01   2.065834e-02
  4.260655e+00    4.837978e-01   2.076725e-02
  4.262865e+00    5.268588e-01   2.191789e-02
  4.265076e+00    4.695563e-01   2.092707e-02
  4.267286e+00    4.522009e-01   2.078027e-02
  4.269496e+00    4.145319e-01   2.013833e-02
  4.271707e+00    5.171435e-01   2.277093e-02
  4.273917e+00    5.404928e-01   2.358062e-02
  4.276128e+00    4.497164e-01   2.179577e-02
  4.278338e+00    5.020491e-01   2.333541e-02
  4.280549e+00    4.903991e-01   2.339445e-02
  4.282759e+00    3.946511e-01   2.128907e-02
  4.284970e+00    5.862879e-01   2.633042e-02
  4.287180e+00    5.359448e-01   2.547710e-02
  4.289391e+00    5.331961e-01   2.560209e-02
  4.291601e+00    5.154104e-01   2.537319e-02
  4.293811e+00    5.745835e-01   2.699853e-02
  4.296022e+00    5.845973e-01   2.745263e-02
  4.298232e+00    5.971314e-01   2.797722e-02
  4.300443e+00    4.466326e-01   2.439630e-02
  4.302653e+00    4.077751e-01   2.351216e-02
  4.304864e+00    3.974850e-01   2.341474e-02
  4.307074e+00    4.950953e-01   2.636679e-02
  4.309285e+00    4.877762e-01   2.640869e-02
  4.311495e+00    6.340763e-01   3.039143e-02
  4.313706e+00    5.937334e-01   2.968603e-02
  4.315916e+00    4.086239e-01   2.486912e-02
  4.318126e+00    4.795130e-01   2.720699e-02
  4.320337e+00    4.140384e-01   2.553633e-02
  4.322547e+00    5.426476e-01   2.954565e-02
  4.324758e+00    4.498664e-01   2.718061e-02
  4.326968e+00    5.418299e-01   3.016586e-02
  4.329179e+00    5.727271e-01   3.135585e-02
  4.331389e+00    3.781752e-01   2.577436e-02
  4.333600e+00    4.154396e-01   2.733422e-02
  4.335810e+00    5.039951e-01   3.046706e-02
  4.338021e+00    5.123793e-01   3.111216e-02
  4.340231e+00    4.240944e-01   2.866086e-02
  4.342442e+00    4.923572e-01   3.129553e-02
  4.344652e+00    4.779723e-01   3.125337e-02
  4.346862e+00    4.923482e-01   3.216389e-02
  4.349073e+00    5.449151e-01   3.433047e-02
  4.351283e+00    4.804121e-01   3.271618e-02
  4.353494e+00    4.681307e-01   3.279381e-02
  4.355704e+00    5.216603e-01   3.517577e-02
  4.357915e+00    3.649962e-01   2.991366e-02
  4.360125e+00    3.653883e-01   3.043957e-02
  4.362336e+00    4.916368e-01   3.595287e-02
  4.364546e+00    4.729465e-01   3.590522e-02
  4.366757e+00    4.653789e-01   3.632408e-02
  4.368967e+00    4.137462e-01   3.493439e-02
  4.371177e+00    4.837767e-01   3.857785e-02
  4.373388e+00    5.207476e-01   4.092005e-02
  4.375598e+00    3.460079e-01   3.411642e-02
  4.377809e+00    3.134408e-01   3.329264e-02
  4.380019e+00    4.403809e-01   4.045287e-02
  4.382230e+00    5.930400e-01   4.825605e-02
  4.384440e+00    3.426781e-01   3.773742e-02
  4.386651e+00    3.745957e-01   4.067496e-02
  4.388861e+00    4.507842e-01   4.611209e-02
  4.391072e+00    3.826137e-01   4.397636e-02
  4.393282e+00    5.286313e-01   5.369139e-02
  4.395492e+00    4.453475e-01   5.133032e-02
  4.397703e+00    1.580815e-01   3.197887e-02
  4.399913e+00    3.384688e-01   4.915926e-02
  4.402124e+00    3.716989e-01   5.443970e-02
  4.404334e+00    2.697715e-01   4.929905e-02
  4.406545e+00    1.957769e-01   4.512480e-02
  4.408755e+00    3.639330e-01   6.671977e-02
  4.410966e+00    3.142457e-01   6.861802e-02
  4.413176e+00    3.091339e-01   7.703654e-02
  4.415387e+00   -2.968086e-01            nan
  4.417597e+00   -1.882846e+00            nan
  4.419807e+00   -3.766224e-01            nan
