# == pyFAI calibration ==
# Distance Sample to Detector: 0.216 m
# PONI: 1.166e-01, 1.308e-01 m
# Rotations: 0.000000 0.000000 0.000000 rad
# 
# == Fit2d calibration ==
# Distance Sample-beamCenter: 216.000 mm
# Center: x=1744.293, y=1555.000 pix
# Tilt: 0.000 deg  TiltPlanRot: 0.000 deg
# 
# Detector Eiger 9M	 PixelSize= 7.500e-05, 7.500e-05 m
#    Detector has a mask: True 
#    Detector has a dark current: False 
#    detector has a flat field: False 
# 
# Wavelength: 9.8e-11 m
# Mask applied: from detector
# Dark current applied: False
# Flat field applied: False
# Polarization factor: None
# Normalization factor: 1.0
# 
# Headers of the input frame:
# {
# "_array_data.header_convention": "SLS_1.0",
# "_array_data.header_contents": "# Detector: Dectris Eiger 9M, S/N E-18-0102\r\n# Pixel_size 75e-6 m x 75e-6 m\r\n# Silicon sensor, thickness 0.000450 m\r\n# Exposure_time 0.024997 s\r\n# Exposure_period 0.025000 s\r\n# Count_cutoff 62318 counts\r\n# Wavelength 0.980106 A\r\n# Detector_distance 0.215992 m\r\n# Beam_xy (1555, 1744) pixels\r\n# Start_angle 0.000000 deg.\r\n# Angle_increment 0.000000 deg.",
# "Content-Type": "application/octet-stream;",
# "conversions": "x-CBF_BYTE_OFFSET",
# "Content-Transfer-Encoding": "BINARY",
# "X-Binary-Size": "10166596",
# "X-Binary-ID": "1",
# "X-Binary-Element-Type": "signed 32-bit integer",
# "X-Binary-Element-Byte-Order": "LITTLE_ENDIAN",
# "Content-MD5": "zPu3/7yHtX+izHOMRE3E3Q==",
# "X-Binary-Number-of-Elements": "10166590",
# "X-Binary-Size-Fastest-Dimension": "3110",
# "X-Binary-Size-Second-Dimension": "3269",
# "X-Binary-Size-Padding": "4095"
# }
# --> H:/Proxima2a_2019-04-05/RAW_DATA/C5_gel17_position5/C5_mesh_1_data.cbf/C5_mesh_1_data.cbf000099.dat
#        q_A^-1              I           sigma 
  1.105228e-03    5.763816e-01   4.108109e-01
  3.315685e-03    1.270683e+00   3.708208e-01
  5.526141e-03    1.432371e+00   3.044387e-01
  7.736597e-03    1.490312e+00   2.623366e-01
  9.947054e-03    1.748065e+00   2.504697e-01
  1.215751e-02    1.730929e+00   2.253763e-01
  1.436797e-02    1.190482e+00   1.719243e-01
  1.657842e-02    1.349006e+00   1.703536e-01
  1.878888e-02    1.339249e+00   1.594388e-01
  2.099934e-02    1.536544e+00   1.615752e-01
  2.320979e-02    1.618433e+00   1.577176e-01
  2.542025e-02    1.702752e+00   1.545914e-01
  2.763070e-02    1.646615e+00   1.458097e-01
  2.984116e-02    1.482094e+00   1.331111e-01
  3.205162e-02    1.534244e+00   1.306873e-01
  3.426207e-02    1.475858e+00   1.239644e-01
  3.647253e-02    1.324762e+00   1.138305e-01
  3.868299e-02    1.431476e+00   1.149047e-01
  4.089344e-02    1.491882e+00   1.140901e-01
  4.310390e-02    1.559758e+00   1.136194e-01
  4.531436e-02    1.402495e+00   1.050791e-01
  4.752481e-02    1.364457e+00   1.012043e-01
  4.973527e-02    1.517390e+00   1.043279e-01
  5.194572e-02    1.549228e+00   1.031480e-01
  5.415618e-02    1.520264e+00   1.000687e-01
  5.636664e-02    1.341864e+00   9.215511e-02
  5.857709e-02    1.432599e+00   9.340643e-02
  6.078755e-02    1.574473e+00   9.612247e-02
  6.299801e-02    1.625194e+00   9.592882e-02
  6.520846e-02    1.521726e+00   9.123866e-02
  6.741892e-02    1.531071e+00   9.000105e-02
  6.962938e-02    1.448566e+00   8.614609e-02
  7.183983e-02    1.360892e+00   8.220229e-02
  7.405029e-02    1.392469e+00   8.189813e-02
  7.626074e-02    1.504449e+00   8.388396e-02
  7.847120e-02    1.503667e+00   8.267038e-02
  8.068166e-02    1.483352e+00   8.097677e-02
  8.289211e-02    1.491322e+00   8.010367e-02
  8.510257e-02    1.450054e+00   7.795455e-02
  8.731303e-02    1.501582e+00   7.831397e-02
  8.952348e-02    1.569146e+00   7.906408e-02
  9.173394e-02    1.518271e+00   7.682606e-02
  9.394439e-02    1.551946e+00   7.675163e-02
  9.615485e-02    1.583712e+00   7.663512e-02
  9.836531e-02    1.610256e+00   7.639939e-02
  1.005758e-01    1.617110e+00   7.571627e-02
  1.027862e-01    1.560356e+00   7.356983e-02
  1.049967e-01    1.504026e+00   7.146405e-02
  1.072071e-01    1.573361e+00   7.233440e-02
  1.094176e-01    1.607164e+00   7.236400e-02
  1.116280e-01    1.567950e+00   7.076295e-02
  1.138385e-01    1.485705e+00   6.820869e-02
  1.160490e-01    1.487355e+00   6.759262e-02
  1.182594e-01    1.527930e+00   6.786362e-02
  1.204699e-01    1.597590e+00   6.875325e-02
  1.226803e-01    1.545684e+00   6.701235e-02
  1.248908e-01    1.505928e+00   6.555618e-02
  1.271012e-01    1.574225e+00   6.643955e-02
  1.293117e-01    1.608210e+00   6.657561e-02
  1.315222e-01    1.625103e+00   6.635806e-02
  1.337326e-01    1.604830e+00   6.539433e-02
  1.359431e-01    1.601464e+00   6.536398e-02
  1.381535e-01    1.556354e+00   6.530173e-02
  1.403640e-01    1.584289e+00   6.616965e-02
  1.425744e-01    1.632331e+00   6.727273e-02
  1.447849e-01    1.632808e+00   6.729805e-02
  1.469953e-01    1.562380e+00   6.578946e-02
  1.492058e-01    1.568505e+00   6.584167e-02
  1.514163e-01    1.531779e+00   6.495823e-02
  1.536267e-01    1.622176e+00   6.671695e-02
  1.558372e-01    1.691545e+00   6.797813e-02
  1.580476e-01    1.659278e+00   6.716332e-02
  1.602581e-01    1.622573e+00   6.624758e-02
  1.624685e-01    1.631386e+00   6.624538e-02
  1.646790e-01    1.688776e+00   6.720698e-02
  1.668895e-01    1.683285e+00   6.690388e-02
  1.690999e-01    1.661852e+00   6.627693e-02
  1.713104e-01    1.698054e+00   6.678702e-02
  1.735208e-01    1.748670e+00   6.756438e-02
  1.757313e-01    1.790497e+00   6.815336e-02
  1.779417e-01    1.886616e+00   6.973065e-02
  1.801522e-01    1.885688e+00   6.949144e-02
  1.823626e-01    1.947024e+00   7.037752e-02
  1.845731e-01    1.909646e+00   6.947292e-02
  1.867836e-01    1.936184e+00   6.971791e-02
  1.889940e-01    2.048760e+00   7.148171e-02
  1.912045e-01    2.044598e+00   7.117065e-02
  1.934149e-01    1.972835e+00   6.967649e-02
  1.956254e-01    1.972314e+00   6.943753e-02
  1.978358e-01    1.985489e+00   6.943031e-02
  2.000463e-01    2.037528e+00   7.010122e-02
  2.022568e-01    1.957402e+00   6.848349e-02
  2.044672e-01    2.050274e+00   6.984922e-02
  2.066777e-01    1.977286e+00   6.836700e-02
  2.088881e-01    1.927362e+00   6.727754e-02
  2.110986e-01    1.992462e+00   6.816973e-02
  2.133090e-01    2.046534e+00   6.886396e-02
  2.155195e-01    2.028540e+00   6.833315e-02
  2.177300e-01    1.935440e+00   6.622229e-02
  2.199404e-01    2.012918e+00   6.575522e-02
  2.221509e-01    1.922289e+00   6.320275e-02
  2.243613e-01    2.001428e+00   6.367306e-02
  2.265718e-01    2.012420e+00   6.314395e-02
  2.287822e-01    2.046542e+00   6.304674e-02
  2.309927e-01    2.049471e+00   6.251711e-02
  2.332031e-01    2.069828e+00   6.228907e-02
  2.354136e-01    2.143421e+00   6.287303e-02
  2.376241e-01    2.181216e+00   6.293264e-02
  2.398345e-01    2.131293e+00   6.174788e-02
  2.420450e-01    2.166822e+00   6.181548e-02
  2.442554e-01    2.120736e+00   6.073325e-02
  2.464659e-01    2.143870e+00   6.065364e-02
  2.486763e-01    2.088680e+00   5.947432e-02
  2.508868e-01    2.021286e+00   5.813787e-02
  2.530973e-01    2.057495e+00   5.829261e-02
  2.553077e-01    2.073172e+00   5.815934e-02
  2.575182e-01    2.128823e+00   5.858608e-02
  2.597286e-01    2.133457e+00   5.830888e-02
  2.619391e-01    2.134952e+00   5.799351e-02
  2.641495e-01    2.029478e+00   5.622987e-02
  2.663600e-01    2.135397e+00   5.736135e-02
  2.685704e-01    2.090845e+00   5.645214e-02
  2.707809e-01    2.090768e+00   5.615144e-02
  2.729914e-01    2.142295e+00   5.654296e-02
  2.752018e-01    2.016639e+00   5.457411e-02
  2.774123e-01    2.036458e+00   5.456149e-02
  2.796227e-01    1.990519e+00   5.367574e-02
  2.818332e-01    1.968679e+00   5.311418e-02
  2.840436e-01    1.972456e+00   5.290738e-02
  2.862541e-01    1.964705e+00   5.254951e-02
  2.884646e-01    1.935377e+00   5.190829e-02
  2.906750e-01    1.924858e+00   5.152158e-02
  2.928855e-01    1.978242e+00   5.198913e-02
  2.950959e-01    1.948823e+00   5.136408e-02
  2.973064e-01    1.975581e+00   5.148306e-02
  2.995168e-01    1.986229e+00   5.138782e-02
  3.017273e-01    1.959977e+00   5.082205e-02
  3.039377e-01    1.921737e+00   5.010347e-02
  3.061482e-01    1.964735e+00   5.044171e-02
  3.083587e-01    1.935847e+00   4.985283e-02
  3.105691e-01    1.846813e+00   4.848490e-02
  3.127796e-01    1.934523e+00   4.941425e-02
  3.149900e-01    1.903434e+00   4.881139e-02
  3.172005e-01    1.911423e+00   4.871367e-02
  3.194109e-01    1.939013e+00   4.886147e-02
  3.216214e-01    1.893898e+00   4.809265e-02
  3.238319e-01    1.875630e+00   4.767052e-02
  3.260423e-01    1.910505e+00   4.792002e-02
  3.282528e-01    1.914622e+00   4.778067e-02
  3.304632e-01    1.893302e+00   4.732981e-02
  3.326737e-01    1.848620e+00   4.658552e-02
  3.348841e-01    1.905388e+00   4.711198e-02
  3.370946e-01    1.854079e+00   4.629848e-02
  3.393050e-01    1.882885e+00   4.648001e-02
  3.415155e-01    1.882173e+00   4.629649e-02
  3.437260e-01    1.863132e+00   4.589100e-02
  3.459364e-01    1.906528e+00   4.625063e-02
  3.481469e-01    1.884092e+00   4.580989e-02
  3.503573e-01    1.808720e+00   4.472072e-02
  3.525678e-01    1.854064e+00   4.511643e-02
  3.547782e-01    1.875639e+00   4.521419e-02
  3.569887e-01    1.844271e+00   4.467566e-02
  3.591992e-01    1.817399e+00   4.419206e-02
  3.614096e-01    1.808939e+00   4.393623e-02
  3.636201e-01    1.772592e+00   4.333973e-02
  3.658305e-01    1.790486e+00   4.340936e-02
  3.680410e-01    1.781053e+00   4.314595e-02
  3.702514e-01    1.764375e+00   4.279904e-02
  3.724619e-01    1.788563e+00   4.294468e-02
  3.746724e-01    1.778107e+00   4.267608e-02
  3.768828e-01    1.842205e+00   4.329233e-02
  3.790933e-01    1.826681e+00   4.296904e-02
  3.813037e-01    1.865879e+00   4.328556e-02
  3.835142e-01    1.843285e+00   4.288137e-02
  3.857246e-01    1.910159e+00   4.351103e-02
  3.879351e-01    1.850476e+00   4.268728e-02
  3.901455e-01    1.848626e+00   4.253011e-02
  3.923560e-01    1.800225e+00   4.183626e-02
  3.945665e-01    1.795889e+00   4.165333e-02
  3.967769e-01    1.779521e+00   4.133321e-02
  3.989874e-01    1.796223e+00   4.139708e-02
  4.011978e-01    1.755377e+00   4.079784e-02
  4.034083e-01    1.762075e+00   4.075010e-02
  4.056187e-01    1.809607e+00   4.116885e-02
  4.078292e-01    1.833616e+00   4.131565e-02
  4.100397e-01    1.833983e+00   4.119362e-02
  4.122501e-01    1.791145e+00   4.058790e-02
  4.144606e-01    1.823214e+00   4.082819e-02
  4.166710e-01    1.757284e+00   3.996401e-02
  4.188815e-01    1.804595e+00   4.037877e-02
  4.210919e-01    1.889183e+00   4.119320e-02
  4.233024e-01    1.874033e+00   4.090706e-02
  4.255128e-01    1.799327e+00   3.996753e-02
  4.277233e-01    1.803184e+00   3.989537e-02
  4.299338e-01    1.807523e+00   3.982843e-02
  4.321442e-01    1.785047e+00   3.946676e-02
  4.343547e-01    1.786742e+00   3.937385e-02
  4.365651e-01    1.774804e+00   3.913059e-02
  4.387756e-01    1.826559e+00   3.958587e-02
  4.409860e-01    1.774932e+00   3.891432e-02
  4.431965e-01    1.724565e+00   3.825215e-02
  4.454070e-01    1.660755e+00   3.743337e-02
  4.476174e-01    1.697735e+00   3.774390e-02
  4.498279e-01    1.772219e+00   3.845806e-02
  4.520383e-01    1.790742e+00   3.855243e-02
  4.542488e-01    1.766953e+00   3.819225e-02
  4.564592e-01    1.744023e+00   3.784183e-02
  4.586697e-01    1.724297e+00   3.752734e-02
  4.608801e-01    1.715479e+00   3.733100e-02
  4.630906e-01    1.730871e+00   3.739880e-02
  4.653011e-01    1.717058e+00   3.715133e-02
  4.675115e-01    1.736658e+00   3.726435e-02
  4.697220e-01    1.738330e+00   3.718469e-02
  4.719324e-01    1.728202e+00   3.698030e-02
  4.741429e-01    1.733532e+00   3.694184e-02
  4.763533e-01    1.752953e+00   3.705297e-02
  4.785638e-01    1.738356e+00   3.680306e-02
  4.807743e-01    1.728088e+00   3.660090e-02
  4.829847e-01    1.673648e+00   3.592876e-02
  4.851952e-01    1.732708e+00   3.646468e-02
  4.874056e-01    1.693722e+00   3.596122e-02
  4.896161e-01    1.665982e+00   3.557708e-02
  4.918265e-01    1.671189e+00   3.554413e-02
  4.940370e-01    1.710469e+00   3.587065e-02
  4.962475e-01    1.709592e+00   3.577288e-02
  4.984579e-01    1.725705e+00   3.585250e-02
  5.006684e-01    1.658420e+00   3.506091e-02
  5.028788e-01    1.698304e+00   3.539404e-02
  5.050893e-01    1.686026e+00   3.518008e-02
  5.072997e-01    1.717320e+00   3.541932e-02
  5.095102e-01    1.692723e+00   3.508053e-02
  5.117206e-01    1.648017e+00   3.453187e-02
  5.139311e-01    1.668326e+00   3.466176e-02
  5.161416e-01    1.720658e+00   3.511801e-02
  5.183520e-01    1.664294e+00   3.445599e-02
  5.205625e-01    1.661020e+00   3.434142e-02
  5.227729e-01    1.696303e+00   3.462330e-02
  5.249834e-01    1.717620e+00   3.475929e-02
  5.271938e-01    1.720509e+00   3.470733e-02
  5.294043e-01    1.733113e+00   3.475384e-02
  5.316148e-01    1.788590e+00   3.522483e-02
  5.338252e-01    1.827796e+00   3.552742e-02
  5.360357e-01    1.806919e+00   3.524354e-02
  5.382461e-01    1.764015e+00   3.474390e-02
  5.404566e-01    1.728050e+00   3.430961e-02
  5.426670e-01    1.748762e+00   3.443687e-02
  5.448775e-01    1.740545e+00   3.427909e-02
  5.470879e-01    1.773293e+00   3.452291e-02
  5.492984e-01    1.730112e+00   3.402417e-02
  5.515089e-01    1.758679e+00   3.422784e-02
  5.537193e-01    1.727307e+00   3.384645e-02
  5.559298e-01    1.763454e+00   3.412372e-02
  5.581402e-01    1.826916e+00   3.465644e-02
  5.603507e-01    1.857124e+00   3.486573e-02
  5.625611e-01    1.873955e+00   3.494739e-02
  5.647716e-01    1.812021e+00   3.429042e-02
  5.669821e-01    1.777686e+00   3.389076e-02
  5.691925e-01    1.801082e+00   3.403981e-02
  5.714030e-01    1.811372e+00   3.406414e-02
  5.736134e-01    1.738387e+00   3.329985e-02
  5.758239e-01    1.713795e+00   3.299289e-02
  5.780343e-01    1.733162e+00   3.310860e-02
  5.802448e-01    1.710102e+00   3.281877e-02
  5.824552e-01    1.686062e+00   3.251891e-02
  5.846657e-01    1.642544e+00   3.202959e-02
  5.868762e-01    1.669429e+00   3.222340e-02
  5.890866e-01    1.705813e+00   3.250509e-02
  5.912971e-01    1.679410e+00   3.218578e-02
  5.935075e-01    1.651134e+00   3.184772e-02
  5.957180e-01    1.645000e+00   3.172327e-02
  5.979284e-01    1.657869e+00   3.178211e-02
  6.001389e-01    1.666846e+00   3.180315e-02
  6.023494e-01    1.679471e+00   3.185853e-02
  6.045598e-01    1.696373e+00   3.195327e-02
  6.067703e-01    1.646453e+00   3.141631e-02
  6.089807e-01    1.673332e+00   3.160802e-02
  6.111912e-01    1.707168e+00   3.186224e-02
  6.134016e-01    1.724622e+00   3.196085e-02
  6.156121e-01    1.694636e+00   3.161879e-02
  6.178226e-01    1.728400e+00   3.186901e-02
  6.200330e-01    1.719277e+00   3.172209e-02
  6.222435e-01    1.721996e+00   3.168427e-02
  6.244539e-01    1.709751e+00   3.150960e-02
  6.266644e-01    1.755882e+00   3.186956e-02
  6.288748e-01    1.749470e+00   3.174941e-02
  6.310853e-01    1.754499e+00   3.173329e-02
  6.332957e-01    1.741302e+00   3.155267e-02
  6.355062e-01    1.718476e+00   3.128429e-02
  6.377167e-01    1.717545e+00   3.121581e-02
  6.399271e-01    1.744764e+00   3.140188e-02
  6.421376e-01    1.721156e+00   3.112921e-02
  6.443480e-01    1.687610e+00   3.076570e-02
  6.465585e-01    1.672278e+00   3.056762e-02
  6.487689e-01    1.708778e+00   3.084105e-02
  6.509794e-01    1.701693e+00   3.071900e-02
  6.531899e-01    1.685664e+00   3.051651e-02
  6.554003e-01    1.633891e+00   2.998772e-02
  6.576108e-01    1.636774e+00   2.995828e-02
  6.598212e-01    1.616878e+00   2.972032e-02
  6.620317e-01    1.631166e+00   2.979600e-02
  6.642421e-01    1.642974e+00   2.984835e-02
  6.664526e-01    1.629196e+00   2.966816e-02
  6.686630e-01    1.631249e+00   2.963196e-02
  6.708735e-01    1.646056e+00   2.971153e-02
  6.730840e-01    1.635177e+00   2.955921e-02
  6.752944e-01    1.605034e+00   2.923223e-02
  6.775049e-01    1.603652e+00   2.916658e-02
  6.797153e-01    1.626173e+00   2.931749e-02
  6.819258e-01    1.626971e+00   2.927179e-02
  6.841362e-01    1.644420e+00   2.937543e-02
  6.863467e-01    1.614321e+00   2.905322e-02
  6.885572e-01    1.618825e+00   2.904158e-02
  6.907676e-01    1.617777e+00   2.898016e-02
  6.929781e-01    1.618205e+00   2.893247e-02
  6.951885e-01    1.638077e+00   2.905803e-02
  6.973990e-01    1.626804e+00   2.890667e-02
  6.996094e-01    1.616868e+00   2.876757e-02
  7.018199e-01    1.643117e+00   2.894921e-02
  7.040303e-01    1.649053e+00   2.895054e-02
  7.062408e-01    1.614947e+00   2.859940e-02
  7.084513e-01    1.602232e+00   2.843704e-02
  7.106617e-01    1.588274e+00   2.826370e-02
  7.128722e-01    1.606627e+00   2.837735e-02
  7.150826e-01    1.593156e+00   2.820944e-02
  7.172931e-01    1.578547e+00   2.803139e-02
  7.195035e-01    1.560125e+00   2.781943e-02
  7.217140e-01    1.591284e+00   2.814557e-02
  7.239245e-01    1.607351e+00   2.851640e-02
  7.261349e-01    1.615615e+00   2.869961e-02
  7.283454e-01    1.582366e+00   2.847538e-02
  7.305558e-01    1.567685e+00   2.839680e-02
  7.327663e-01    1.628594e+00   2.898642e-02
  7.349767e-01    1.614761e+00   2.887967e-02
  7.371872e-01    1.586925e+00   2.861841e-02
  7.393976e-01    1.596386e+00   2.868924e-02
  7.416081e-01    1.653266e+00   2.917929e-02
  7.438186e-01    1.583564e+00   2.841288e-02
  7.460290e-01    1.556279e+00   2.787448e-02
  7.482395e-01    1.591065e+00   2.801223e-02
  7.504499e-01    1.587927e+00   2.784776e-02
  7.526604e-01    1.616909e+00   2.798262e-02
  7.548708e-01    1.588022e+00   2.764175e-02
  7.570813e-01    1.566741e+00   2.740506e-02
  7.592918e-01    1.611041e+00   2.775422e-02
  7.615022e-01    1.560615e+00   2.728276e-02
  7.637127e-01    1.591061e+00   2.751465e-02
  7.659231e-01    1.597998e+00   2.754235e-02
  7.681336e-01    1.549573e+00   2.709046e-02
  7.703440e-01    1.594248e+00   2.744677e-02
  7.725545e-01    1.629602e+00   2.771802e-02
  7.747650e-01    1.647811e+00   2.783339e-02
  7.769754e-01    1.607832e+00   2.744044e-02
  7.791859e-01    1.585443e+00   2.719503e-02
  7.813963e-01    1.629963e+00   2.752079e-02
  7.836068e-01    1.598935e+00   2.720536e-02
  7.858172e-01    1.591508e+00   2.709137e-02
  7.880277e-01    1.611784e+00   2.721150e-02
  7.902381e-01    1.653482e+00   2.751119e-02
  7.924486e-01    1.625104e+00   2.722356e-02
  7.946591e-01    1.630074e+00   2.721640e-02
  7.968695e-01    1.655576e+00   2.737941e-02
  7.990800e-01    1.638045e+00   2.718540e-02
  8.012904e-01    1.600969e+00   2.682947e-02
  8.035009e-01    1.654120e+00   2.722267e-02
  8.057113e-01    1.671485e+00   2.731789e-02
  8.079218e-01    1.655500e+00   2.714002e-02
  8.101323e-01    1.636893e+00   2.694125e-02
  8.123427e-01    1.606370e+00   2.664338e-02
  8.145532e-01    1.628735e+00   2.678229e-02
  8.167636e-01    1.662965e+00   2.701677e-02
  8.189741e-01    1.624818e+00   2.666060e-02
  8.211845e-01    1.635426e+00   2.670263e-02
  8.233950e-01    1.681938e+00   2.703565e-02
  8.256054e-01    1.723428e+00   2.732173e-02
  8.278159e-01    1.736558e+00   2.738034e-02
  8.300264e-01    1.744466e+00   2.739815e-02
  8.322368e-01    1.696015e+00   2.697114e-02
  8.344473e-01    1.668776e+00   2.670988e-02
  8.366577e-01    1.689750e+00   2.683398e-02
  8.388682e-01    1.709517e+00   2.694732e-02
  8.410786e-01    1.755563e+00   2.726430e-02
  8.432891e-01    1.771558e+00   2.734472e-02
  8.454996e-01    1.777401e+00   2.734645e-02
  8.477100e-01    1.693230e+00   2.664873e-02
  8.499205e-01    1.646470e+00   2.623691e-02
  8.521309e-01    1.640814e+00   2.615096e-02
  8.543414e-01    1.630757e+00   2.603001e-02
  8.565518e-01    1.668078e+00   2.628521e-02
  8.587623e-01    1.661866e+00   2.619535e-02
  8.609727e-01    1.668388e+00   2.620603e-02
  8.631832e-01    1.652675e+00   2.604211e-02
  8.653937e-01    1.640830e+00   2.590874e-02
  8.676041e-01    1.631941e+00   2.579948e-02
  8.698146e-01    1.619864e+00   2.566455e-02
  8.720250e-01    1.624079e+00   2.565876e-02
  8.742355e-01    1.598017e+00   2.541332e-02
  8.764459e-01    1.594949e+00   2.535016e-02
  8.786564e-01    1.622024e+00   2.552631e-02
  8.808669e-01    1.585829e+00   2.520164e-02
  8.830773e-01    1.621026e+00   2.544140e-02
  8.852878e-01    1.630771e+00   2.547951e-02
  8.874982e-01    1.620217e+00   2.536007e-02
  8.897087e-01    1.621772e+00   2.533431e-02
  8.919191e-01    1.604885e+00   2.516425e-02
  8.941296e-01    1.598146e+00   2.507412e-02
  8.963401e-01    1.614829e+00   2.516806e-02
  8.985505e-01    1.598941e+00   2.500698e-02
  9.007610e-01    1.618421e+00   2.512192e-02
  9.029714e-01    1.584542e+00   2.482189e-02
  9.051819e-01    1.599283e+00   2.489988e-02
  9.073923e-01    1.583723e+00   2.474206e-02
  9.096028e-01    1.611621e+00   2.492400e-02
  9.118132e-01    1.601270e+00   2.480759e-02
  9.140237e-01    1.610124e+00   2.483934e-02
  9.162342e-01    1.611778e+00   2.481742e-02
  9.184446e-01    1.609306e+00   2.476250e-02
  9.206551e-01    1.630662e+00   2.489035e-02
  9.228655e-01    1.636781e+00   2.490135e-02
  9.250760e-01    1.641210e+00   2.489925e-02
  9.272864e-01    1.646027e+00   2.490103e-02
  9.294969e-01    1.629656e+00   2.474079e-02
  9.317074e-01    1.615134e+00   2.459550e-02
  9.339178e-01    1.642687e+00   2.477052e-02
  9.361283e-01    1.634931e+00   2.467555e-02
  9.383387e-01    1.641768e+00   2.469347e-02
  9.405492e-01    1.621021e+00   2.450266e-02
  9.427596e-01    1.672852e+00   2.485548e-02
  9.449701e-01    1.668286e+00   2.478781e-02
  9.471805e-01    1.668725e+00   2.475596e-02
  9.493910e-01    1.659301e+00   2.465207e-02
  9.516015e-01    1.692287e+00   2.486114e-02
  9.538119e-01    1.731677e+00   2.511434e-02
  9.560224e-01    1.761362e+00   2.529305e-02
  9.582328e-01    1.760780e+00   2.525494e-02
  9.604433e-01    1.817482e+00   2.562201e-02
  9.626537e-01    1.836997e+00   2.572459e-02
  9.648642e-01    1.788258e+00   2.534627e-02
  9.670747e-01    1.801315e+00   2.540354e-02
  9.692851e-01    1.856933e+00   2.575845e-02
  9.714956e-01    1.911922e+00   2.610023e-02
  9.737060e-01    1.876840e+00   2.582569e-02
  9.759165e-01    1.857969e+00   2.565929e-02
  9.781269e-01    1.865904e+00   2.568038e-02
  9.803374e-01    1.839409e+00   2.546215e-02
  9.825478e-01    1.835592e+00   2.540215e-02
  9.847583e-01    1.825734e+00   2.529947e-02
  9.869688e-01    1.809586e+00   2.515361e-02
  9.891792e-01    1.813410e+00   2.514671e-02
  9.913897e-01    1.828756e+00   2.521881e-02
  9.936001e-01    1.811737e+00   2.506832e-02
  9.958106e-01    1.855132e+00   2.533229e-02
  9.980210e-01    1.773265e+00   2.473491e-02
  1.000231e+00    1.669442e+00   2.413136e-02
  1.002442e+00    1.619353e+00   2.389285e-02
  1.004652e+00    1.624632e+00   2.399852e-02
  1.006863e+00    1.626614e+00   2.406298e-02
  1.009073e+00    1.611973e+00   2.399112e-02
  1.011284e+00    1.609212e+00   2.400260e-02
  1.013494e+00    1.609815e+00   2.403090e-02
  1.015705e+00    1.659219e+00   2.441989e-02
  1.017915e+00    1.658568e+00   2.443198e-02
  1.020126e+00    1.628119e+00   2.422301e-02
  1.022336e+00    1.599078e+00   2.401784e-02
  1.024547e+00    1.566202e+00   2.378095e-02
  1.026757e+00    1.484570e+00   2.316110e-02
  1.028967e+00    1.516182e+00   2.341396e-02
  1.031178e+00    1.583340e+00   2.393318e-02
  1.033388e+00    1.544804e+00   2.364523e-02
  1.035599e+00    1.527221e+00   2.351370e-02
  1.037809e+00    1.490859e+00   2.323530e-02
  1.040020e+00    1.561876e+00   2.378354e-02
  1.042230e+00    1.554446e+00   2.372891e-02
  1.044441e+00    1.492036e+00   2.324745e-02
  1.046651e+00    1.506891e+00   2.336304e-02
  1.048862e+00    1.506800e+00   2.336155e-02
  1.051072e+00    1.525142e+00   2.350093e-02
  1.053282e+00    1.560648e+00   2.377193e-02
  1.055493e+00    1.577699e+00   2.389704e-02
  1.057703e+00    1.586058e+00   2.395868e-02
  1.059914e+00    1.631359e+00   2.429395e-02
  1.062124e+00    1.774184e+00   2.533066e-02
  1.064335e+00    1.856318e+00   2.590657e-02
  1.066545e+00    1.689151e+00   2.470623e-02
  1.068756e+00    1.544290e+00   2.361924e-02
  1.070966e+00    1.505596e+00   2.331483e-02
  1.073177e+00    1.501963e+00   2.328057e-02
  1.075387e+00    1.494505e+00   2.321742e-02
  1.077597e+00    1.494358e+00   2.320897e-02
  1.079808e+00    1.470872e+00   2.289282e-02
  1.082018e+00    1.458649e+00   2.260871e-02
  1.084229e+00    1.431214e+00   2.228615e-02
  1.086439e+00    1.414761e+00   2.207146e-02
  1.088650e+00    1.456296e+00   2.231737e-02
  1.090860e+00    1.448528e+00   2.219030e-02
  1.093071e+00    1.421441e+00   2.192029e-02
  1.095281e+00    1.400505e+00   2.170191e-02
  1.097492e+00    1.431560e+00   2.188655e-02
  1.099702e+00    1.427523e+00   2.180452e-02
  1.101912e+00    1.442771e+00   2.187173e-02
  1.104123e+00    1.463562e+00   2.198009e-02
  1.106333e+00    1.441601e+00   2.177001e-02
  1.108544e+00    1.422440e+00   2.158070e-02
  1.110754e+00    1.410505e+00   2.144719e-02
  1.112965e+00    1.425015e+00   2.151665e-02
  1.115175e+00    1.412625e+00   2.138185e-02
  1.117386e+00    1.406801e+00   2.129855e-02
  1.119596e+00    1.400207e+00   2.121088e-02
  1.121807e+00    1.386771e+00   2.107036e-02
  1.124017e+00    1.415946e+00   2.125408e-02
  1.126228e+00    1.424415e+00   2.128155e-02
  1.128438e+00    1.404529e+00   2.109568e-02
  1.130648e+00    1.382193e+00   2.089314e-02
  1.132859e+00    1.370495e+00   2.077049e-02
  1.135069e+00    1.436725e+00   2.123117e-02
  1.137280e+00    1.414582e+00   2.103365e-02
  1.139490e+00    1.391822e+00   2.083064e-02
  1.141701e+00    1.385803e+00   2.075242e-02
  1.143911e+00    1.381354e+00   2.068722e-02
  1.146122e+00    1.362398e+00   2.051302e-02
  1.148332e+00    1.365802e+00   2.050688e-02
  1.150543e+00    1.397639e+00   2.071346e-02
  1.152753e+00    1.396106e+00   2.067104e-02
  1.154963e+00    1.383286e+00   2.054477e-02
  1.157174e+00    1.380527e+00   2.049402e-02
  1.159384e+00    1.371046e+00   2.039368e-02
  1.161595e+00    1.405360e+00   2.061708e-02
  1.163805e+00    1.443922e+00   2.086795e-02
  1.166016e+00    1.499464e+00   2.123472e-02
  1.168226e+00    1.470435e+00   2.099816e-02
  1.170437e+00    1.423613e+00   2.063191e-02
  1.172647e+00    1.387898e+00   2.034233e-02
  1.174858e+00    1.430544e+00   2.062370e-02
  1.177068e+00    1.400087e+00   2.037437e-02
  1.179278e+00    1.383053e+00   2.022123e-02
  1.181489e+00    1.398291e+00   2.030493e-02
  1.183699e+00    1.397611e+00   2.027203e-02
  1.185910e+00    1.427412e+00   2.045855e-02
  1.188120e+00    1.408348e+00   2.029428e-02
  1.190331e+00    1.396355e+00   2.018052e-02
  1.192541e+00    1.377846e+00   2.001872e-02
  1.194752e+00    1.378270e+00   1.999448e-02
  1.196962e+00    1.356816e+00   1.981248e-02
  1.199173e+00    1.351739e+00   1.974885e-02
  1.201383e+00    1.367761e+00   1.983821e-02
  1.203593e+00    1.353026e+00   1.970623e-02
  1.205804e+00    1.340919e+00   1.959202e-02
  1.208014e+00    1.366469e+00   1.975078e-02
  1.210225e+00    1.369527e+00   1.974736e-02
  1.212435e+00    1.346063e+00   1.955271e-02
  1.214646e+00    1.354308e+00   1.958634e-02
  1.216856e+00    1.360517e+00   1.960563e-02
  1.219067e+00    1.340738e+00   1.943820e-02
  1.221277e+00    1.375651e+00   1.966440e-02
  1.223488e+00    1.361559e+00   1.953757e-02
  1.225698e+00    1.357281e+00   1.947988e-02
  1.227909e+00    1.347521e+00   1.937957e-02
  1.230119e+00    1.344647e+00   1.932711e-02
  1.232329e+00    1.323944e+00   1.914731e-02
  1.234540e+00    1.361870e+00   1.938920e-02
  1.236750e+00    1.373339e+00   1.944016e-02
  1.238961e+00    1.340066e+00   1.917634e-02
  1.241171e+00    1.348460e+00   1.921214e-02
  1.243382e+00    1.350054e+00   1.919997e-02
  1.245592e+00    1.351356e+00   1.918513e-02
  1.247803e+00    1.350784e+00   1.915740e-02
  1.250013e+00    1.392980e+00   1.943039e-02
  1.252224e+00    1.448461e+00   1.978949e-02
  1.254434e+00    1.419114e+00   1.956366e-02
  1.256644e+00    1.404643e+00   1.943999e-02
  1.258855e+00    1.371265e+00   1.918417e-02
  1.261065e+00    1.355071e+00   1.904714e-02
  1.263276e+00    1.345672e+00   1.895806e-02
  1.265486e+00    1.343359e+00   1.891894e-02
  1.267697e+00    1.378158e+00   1.913914e-02
  1.269907e+00    1.360222e+00   1.899145e-02
  1.272118e+00    1.337608e+00   1.881040e-02
  1.274328e+00    1.368917e+00   1.900641e-02
  1.276539e+00    1.380920e+00   1.906649e-02
  1.278749e+00    1.426774e+00   1.935755e-02
  1.280959e+00    1.406171e+00   1.919430e-02
  1.283170e+00    1.385937e+00   1.903298e-02
  1.285380e+00    1.373822e+00   1.892694e-02
  1.287591e+00    1.357137e+00   1.878958e-02
  1.289801e+00    1.354607e+00   1.875080e-02
  1.292012e+00    1.357194e+00   1.875154e-02
  1.294222e+00    1.372872e+00   1.884317e-02
  1.296433e+00    1.367288e+00   1.878911e-02
  1.298643e+00    1.366748e+00   1.876884e-02
  1.300854e+00    1.351804e+00   1.864951e-02
  1.303064e+00    1.354692e+00   1.865016e-02
  1.305274e+00    1.362321e+00   1.868107e-02
  1.307485e+00    1.354641e+00   1.860676e-02
  1.309695e+00    1.367696e+00   1.867380e-02
  1.311906e+00    1.366764e+00   1.864561e-02
  1.314116e+00    1.381926e+00   1.872770e-02
  1.316327e+00    1.362488e+00   1.857375e-02
  1.318537e+00    1.348120e+00   1.845367e-02
  1.320748e+00    1.344959e+00   1.841052e-02
  1.322958e+00    1.377665e+00   1.861227e-02
  1.325169e+00    1.410497e+00   1.881128e-02
  1.327379e+00    1.426777e+00   1.889710e-02
  1.329589e+00    1.426774e+00   1.887545e-02
  1.331800e+00    1.391895e+00   1.862228e-02
  1.334010e+00    1.390665e+00   1.859308e-02
  1.336221e+00    1.368060e+00   1.841945e-02
  1.338431e+00    1.367581e+00   1.839523e-02
  1.340642e+00    1.383911e+00   1.856966e-02
  1.342852e+00    1.435296e+00   1.901511e-02
  1.345063e+00    1.387337e+00   1.874490e-02
  1.347273e+00    1.361373e+00   1.860404e-02
  1.349484e+00    1.361348e+00   1.863166e-02
  1.351694e+00    1.365447e+00   1.868252e-02
  1.353905e+00    1.354479e+00   1.862537e-02
  1.356115e+00    1.328355e+00   1.845981e-02
  1.358325e+00    1.333038e+00   1.850554e-02
  1.360536e+00    1.336685e+00   1.854241e-02
  1.362746e+00    1.333981e+00   1.853315e-02
  1.364957e+00    1.354706e+00   1.868425e-02
  1.367167e+00    1.333442e+00   1.854416e-02
  1.369378e+00    1.327103e+00   1.850598e-02
  1.371588e+00    1.338214e+00   1.858843e-02
  1.373799e+00    1.321511e+00   1.847571e-02
  1.376009e+00    1.303878e+00   1.835537e-02
  1.378220e+00    1.307060e+00   1.838027e-02
  1.380430e+00    1.304426e+00   1.836439e-02
  1.382640e+00    1.343226e+00   1.863645e-02
  1.384851e+00    1.307932e+00   1.839085e-02
  1.387061e+00    1.321173e+00   1.848400e-02
  1.389272e+00    1.296293e+00   1.830934e-02
  1.391482e+00    1.312836e+00   1.842511e-02
  1.393693e+00    1.282353e+00   1.820910e-02
  1.395903e+00    1.277498e+00   1.817307e-02
  1.398114e+00    1.299137e+00   1.832496e-02
  1.400324e+00    1.294163e+00   1.828772e-02
  1.402535e+00    1.283733e+00   1.821153e-02
  1.404745e+00    1.316828e+00   1.844240e-02
  1.406955e+00    1.283837e+00   1.820721e-02
  1.409166e+00    1.282556e+00   1.819479e-02
  1.411376e+00    1.289744e+00   1.824258e-02
  1.413587e+00    1.284951e+00   1.820481e-02
  1.415797e+00    1.284504e+00   1.819808e-02
  1.418008e+00    1.255144e+00   1.794728e-02
  1.420218e+00    1.269648e+00   1.790097e-02
  1.422429e+00    1.244113e+00   1.763562e-02
  1.424639e+00    1.266596e+00   1.772961e-02
  1.426850e+00    1.297373e+00   1.788848e-02
  1.429060e+00    1.255332e+00   1.754756e-02
  1.431270e+00    1.245280e+00   1.743328e-02
  1.433481e+00    1.238694e+00   1.734666e-02
  1.435691e+00    1.249607e+00   1.738478e-02
  1.437902e+00    1.267621e+00   1.747321e-02
  1.440112e+00    1.270118e+00   1.745508e-02
  1.442323e+00    1.269237e+00   1.741598e-02
  1.444533e+00    1.274157e+00   1.741710e-02
  1.446744e+00    1.279706e+00   1.742373e-02
  1.448954e+00    1.294402e+00   1.749301e-02
  1.451165e+00    1.281972e+00   1.737892e-02
  1.453375e+00    1.292770e+00   1.742368e-02
  1.455586e+00    1.266118e+00   1.721501e-02
  1.457796e+00    1.263907e+00   1.717252e-02
  1.460006e+00    1.277626e+00   1.723814e-02
  1.462217e+00    1.263727e+00   1.711796e-02
  1.464427e+00    1.256454e+00   1.704315e-02
  1.466638e+00    1.268966e+00   1.710248e-02
  1.468848e+00    1.253089e+00   1.696999e-02
  1.471059e+00    1.255251e+00   1.695965e-02
  1.473269e+00    1.254337e+00   1.692926e-02
  1.475480e+00    1.272656e+00   1.702861e-02
  1.477690e+00    1.264975e+00   1.695337e-02
  1.479901e+00    1.259151e+00   1.689052e-02
  1.482111e+00    1.247508e+00   1.678912e-02
  1.484321e+00    1.273487e+00   1.693985e-02
  1.486532e+00    1.254009e+00   1.678758e-02
  1.488742e+00    1.264847e+00   1.683733e-02
  1.490953e+00    1.250086e+00   1.671630e-02
  1.493163e+00    1.274218e+00   1.685450e-02
  1.495374e+00    1.253027e+00   1.669239e-02
  1.497584e+00    1.249367e+00   1.664642e-02
  1.499795e+00    1.251064e+00   1.663616e-02
  1.502005e+00    1.273755e+00   1.676454e-02
  1.504216e+00    1.284669e+00   1.681498e-02
  1.506426e+00    1.259591e+00   1.662921e-02
  1.508636e+00    1.250967e+00   1.655179e-02
  1.510847e+00    1.255050e+00   1.655697e-02
  1.513057e+00    1.258679e+00   1.655578e-02
  1.515268e+00    1.274995e+00   1.663681e-02
  1.517478e+00    1.255313e+00   1.648275e-02
  1.519689e+00    1.252997e+00   1.644258e-02
  1.521899e+00    1.256640e+00   1.644333e-02
  1.524110e+00    1.279420e+00   1.657115e-02
  1.526320e+00    1.266837e+00   1.646977e-02
  1.528531e+00    1.274320e+00   1.649838e-02
  1.530741e+00    1.259517e+00   1.638307e-02
  1.532951e+00    1.260494e+00   1.636975e-02
  1.535162e+00    1.251404e+00   1.639727e-02
  1.537372e+00    1.232797e+00   1.634140e-02
  1.539583e+00    1.208252e+00   1.621156e-02
  1.541793e+00    1.246273e+00   1.647159e-02
  1.544004e+00    1.264824e+00   1.659400e-02
  1.546214e+00    1.254772e+00   1.652643e-02
  1.548425e+00    1.258021e+00   1.654807e-02
  1.550635e+00    1.237834e+00   1.642442e-02
  1.552846e+00    1.231209e+00   1.639000e-02
  1.555056e+00    1.241249e+00   1.641527e-02
  1.557266e+00    1.238263e+00   1.628535e-02
  1.559477e+00    1.252651e+00   1.632036e-02
  1.561687e+00    1.262325e+00   1.635238e-02
  1.563898e+00    1.254562e+00   1.628478e-02
  1.566108e+00    1.252208e+00   1.625350e-02
  1.568319e+00    1.237815e+00   1.614424e-02
  1.570529e+00    1.244626e+00   1.616346e-02
  1.572740e+00    1.208344e+00   1.589892e-02
  1.574950e+00    1.219333e+00   1.594499e-02
  1.577161e+00    1.245360e+00   1.608877e-02
  1.579371e+00    1.271214e+00   1.623103e-02
  1.581582e+00    1.248285e+00   1.606418e-02
  1.583792e+00    1.245374e+00   1.602741e-02
  1.586002e+00    1.220591e+00   1.584968e-02
  1.588213e+00    1.249360e+00   1.601810e-02
  1.590423e+00    1.239114e+00   1.593225e-02
  1.592634e+00    1.242968e+00   1.593539e-02
  1.594844e+00    1.250264e+00   1.596063e-02
  1.597055e+00    1.245415e+00   1.590915e-02
  1.599265e+00    1.239701e+00   1.585189e-02
  1.601476e+00    1.260658e+00   1.596484e-02
  1.603686e+00    1.283045e+00   1.608589e-02
  1.605897e+00    1.250710e+00   1.586164e-02
  1.608107e+00    1.240802e+00   1.577910e-02
  1.610317e+00    1.248354e+00   1.580765e-02
  1.612528e+00    1.248699e+00   1.579054e-02
  1.614738e+00    1.248600e+00   1.577087e-02
  1.616949e+00    1.219501e+00   1.556706e-02
  1.619159e+00    1.238322e+00   1.566789e-02
  1.621370e+00    1.220471e+00   1.553610e-02
  1.623580e+00    1.199588e+00   1.538438e-02
  1.625791e+00    1.201101e+00   1.537587e-02
  1.628001e+00    1.189630e+00   1.528412e-02
  1.630212e+00    1.166671e+00   1.511835e-02
  1.632422e+00    1.169315e+00   1.511770e-02
  1.634632e+00    1.169267e+00   1.510019e-02
  1.636843e+00    1.146302e+00   1.493384e-02
  1.639053e+00    1.163276e+00   1.502679e-02
  1.641264e+00    1.195141e+00   1.521393e-02
  1.643474e+00    1.172782e+00   1.505350e-02
  1.645685e+00    1.139135e+00   1.481945e-02
  1.647895e+00    1.144212e+00   1.483590e-02
  1.650106e+00    1.149106e+00   1.485064e-02
  1.652316e+00    1.130656e+00   1.471457e-02
  1.654527e+00    1.114799e+00   1.459455e-02
  1.656737e+00    1.119698e+00   1.461015e-02
  1.658947e+00    1.111353e+00   1.453947e-02
  1.661158e+00    1.100858e+00   1.445458e-02
  1.663368e+00    1.112591e+00   1.451544e-02
  1.665579e+00    1.110155e+00   1.448348e-02
  1.667789e+00    1.111975e+00   1.447913e-02
  1.670000e+00    1.098121e+00   1.437328e-02
  1.672210e+00    1.092246e+00   1.431899e-02
  1.674421e+00    1.138568e+00   1.460393e-02
  1.676631e+00    1.142050e+00   1.461009e-02
  1.678842e+00    1.105854e+00   1.436090e-02
  1.681052e+00    1.070446e+00   1.411387e-02
  1.683263e+00    1.082754e+00   1.417969e-02
  1.685473e+00    1.081034e+00   1.415330e-02
  1.687683e+00    1.091537e+00   1.420641e-02
  1.689894e+00    1.085755e+00   1.415293e-02
  1.692104e+00    1.097614e+00   1.421495e-02
  1.694315e+00    1.066300e+00   1.399627e-02
  1.696525e+00    1.042497e+00   1.382417e-02
  1.698736e+00    1.054671e+00   1.388993e-02
  1.700946e+00    1.036152e+00   1.375247e-02
  1.703157e+00    1.057999e+00   1.388204e-02
  1.705367e+00    1.058037e+00   1.386778e-02
  1.707578e+00    1.046135e+00   1.377500e-02
  1.709788e+00    1.018968e+00   1.358103e-02
  1.711998e+00    1.013144e+00   1.352737e-02
  1.714209e+00    1.019215e+00   1.355352e-02
  1.716419e+00    1.003449e+00   1.343425e-02
  1.718630e+00    1.017770e+00   1.351557e-02
  1.720840e+00    1.032416e+00   1.359829e-02
  1.723051e+00    9.937169e-01   1.332734e-02
  1.725261e+00    9.937035e-01   1.331276e-02
  1.727472e+00    1.008083e+00   1.339464e-02
  1.729682e+00    9.982975e-01   1.331612e-02
  1.731893e+00    1.008644e+00   1.337106e-02
  1.734103e+00    1.003556e+00   1.332354e-02
  1.736313e+00    1.004109e+00   1.331322e-02
  1.738524e+00    9.945344e-01   1.323580e-02
  1.740734e+00    1.019574e+00   1.338757e-02
  1.742945e+00    9.919812e-01   1.319174e-02
  1.745155e+00    9.964009e-01   1.320761e-02
  1.747366e+00    9.905639e-01   1.315506e-02
  1.749576e+00    9.978746e-01   1.318974e-02
  1.751787e+00    1.006325e+00   1.323198e-02
  1.753997e+00    9.877211e-01   1.309568e-02
  1.756208e+00    9.756353e-01   1.300209e-02
  1.758418e+00    9.776276e-01   1.300221e-02
  1.760628e+00    9.570780e-01   1.285158e-02
  1.762839e+00    9.540785e-01   1.281826e-02
  1.765049e+00    9.245126e-01   1.260525e-02
  1.767260e+00    9.274491e-01   1.261263e-02
  1.769470e+00    9.319404e-01   1.263031e-02
  1.771681e+00    9.448763e-01   1.270459e-02
  1.773891e+00    9.334880e-01   1.261485e-02
  1.776102e+00    9.309973e-01   1.258526e-02
  1.778312e+00    9.257310e-01   1.253700e-02
  1.780523e+00    9.188341e-01   1.247764e-02
  1.782733e+00    9.166305e-01   1.245014e-02
  1.784944e+00    9.184139e-01   1.244945e-02
  1.787154e+00    9.412354e-01   1.259062e-02
  1.789364e+00    9.187610e-01   1.242699e-02
  1.791575e+00    9.143727e-01   1.238481e-02
  1.793785e+00    9.163764e-01   1.238604e-02
  1.795996e+00    8.988607e-01   1.225471e-02
  1.798206e+00    9.021960e-01   1.226501e-02
  1.800417e+00    9.263153e-01   1.241513e-02
  1.802627e+00    9.384940e-01   1.248439e-02
  1.804838e+00    9.260183e-01   1.238894e-02
  1.807048e+00    9.625071e-01   1.261741e-02
  1.809259e+00    1.103522e+00   1.349509e-02
  1.811469e+00    1.166057e+00   1.385531e-02
  1.813679e+00    1.003039e+00   1.283456e-02
  1.815890e+00    9.307035e-01   1.234807e-02
  1.818100e+00    9.068724e-01   1.217378e-02
  1.820311e+00    8.810533e-01   1.198454e-02
  1.822521e+00    8.874659e-01   1.201325e-02
  1.824732e+00    8.950963e-01   1.204993e-02
  1.826942e+00    9.348506e-01   1.230192e-02
  1.829153e+00    9.969131e-01   1.269133e-02
  1.831363e+00    9.748511e-01   1.253750e-02
  1.833574e+00    9.327565e-01   1.225180e-02
  1.835784e+00    9.079523e-01   1.207620e-02
  1.837994e+00    8.952515e-01   1.197958e-02
  1.840205e+00    8.838699e-01   1.189198e-02
  1.842415e+00    8.985511e-01   1.197836e-02
  1.844626e+00    9.591342e-01   1.236346e-02
  1.846836e+00    9.206275e-01   1.210101e-02
  1.849047e+00    8.720918e-01   1.176603e-02
  1.851257e+00    8.759572e-01   1.178244e-02
  1.853468e+00    8.611468e-01   1.167361e-02
  1.855678e+00    8.686500e-01   1.171543e-02
  1.857889e+00    8.651703e-01   1.168341e-02
  1.860099e+00    8.847858e-01   1.180634e-02
  1.862309e+00    8.644990e-01   1.166168e-02
  1.864520e+00    8.409572e-01   1.149329e-02
  1.866730e+00    8.225207e-01   1.135740e-02
  1.868941e+00    8.417912e-01   1.147878e-02
  1.871151e+00    8.634644e-01   1.161415e-02
  1.873362e+00    8.452273e-01   1.147955e-02
  1.875572e+00    8.362533e-01   1.140759e-02
  1.877783e+00    8.495353e-01   1.148637e-02
  1.879993e+00    8.600997e-01   1.154633e-02
  1.882204e+00    8.604903e-01   1.153796e-02
  1.884414e+00    8.371809e-01   1.136959e-02
  1.886624e+00    8.542060e-01   1.147346e-02
  1.888835e+00    8.598785e-01   1.150040e-02
  1.891045e+00    9.059713e-01   1.179330e-02
  1.893256e+00    8.874091e-01   1.166049e-02
  1.895466e+00    8.420736e-01   1.134752e-02
  1.897677e+00    8.317084e-01   1.126655e-02
  1.899887e+00    8.659475e-01   1.148493e-02
  1.902098e+00    8.508053e-01   1.137312e-02
  1.904308e+00    8.304986e-01   1.122600e-02
  1.906519e+00    8.297321e-01   1.120996e-02
  1.908729e+00    8.532154e-01   1.135673e-02
  1.910940e+00    8.555043e-01   1.136065e-02
  1.913150e+00    8.318527e-01   1.119188e-02
  1.915360e+00    8.397986e-01   1.123448e-02
  1.917571e+00    8.215057e-01   1.110061e-02
  1.919781e+00    8.152493e-01   1.104758e-02
  1.921992e+00    8.275810e-01   1.112017e-02
  1.924202e+00    8.205675e-01   1.106217e-02
  1.926413e+00    8.059594e-01   1.095302e-02
  1.928623e+00    8.130112e-01   1.099029e-02
  1.930834e+00    8.262726e-01   1.106905e-02
  1.933044e+00    8.277389e-01   1.106810e-02
  1.935255e+00    8.234552e-01   1.102901e-02
  1.937465e+00    8.137915e-01   1.095368e-02
  1.939675e+00    7.933713e-01   1.080461e-02
  1.941886e+00    7.963573e-01   1.081470e-02
  1.944096e+00    7.923359e-01   1.077724e-02
  1.946307e+00    8.139728e-01   1.091298e-02
  1.948517e+00    8.044778e-01   1.083868e-02
  1.950728e+00    7.897652e-01   1.072892e-02
  1.952938e+00    7.930380e-01   1.074107e-02
  1.955149e+00    7.879667e-01   1.069648e-02
  1.957359e+00    7.840275e-01   1.065977e-02
  1.959570e+00    7.890061e-01   1.068270e-02
  1.961780e+00    8.057000e-01   1.078514e-02
  1.963990e+00    7.903709e-01   1.067195e-02
  1.966201e+00    7.919920e-01   1.067281e-02
  1.968411e+00    7.807546e-01   1.058673e-02
  1.970622e+00    7.839057e-01   1.059800e-02
  1.972832e+00    7.767140e-01   1.053938e-02
  1.975043e+00    7.854952e-01   1.058873e-02
  1.977253e+00    8.058290e-01   1.071485e-02
  1.979464e+00    8.011936e-01   1.067383e-02
  1.981674e+00    7.846271e-01   1.055265e-02
  1.983885e+00    7.686451e-01   1.043466e-02
  1.986095e+00    7.787118e-01   1.049308e-02
  1.988305e+00    7.787732e-01   1.048361e-02
  1.990516e+00    7.888232e-01   1.054105e-02
  1.992726e+00    7.918943e-01   1.055179e-02
  1.994937e+00    7.868519e-01   1.050796e-02
  1.997147e+00    7.956776e-01   1.055685e-02
  1.999358e+00    8.263018e-01   1.074793e-02
  2.001568e+00    8.129852e-01   1.064991e-02
  2.003779e+00    7.815677e-01   1.043009e-02
  2.005989e+00    7.777578e-01   1.039258e-02
  2.008200e+00    7.904361e-01   1.046526e-02
  2.010410e+00    7.768559e-01   1.036318e-02
  2.012621e+00    7.802181e-01   1.037376e-02
  2.014831e+00    7.844782e-01   1.039046e-02
  2.017041e+00    7.981778e-01   1.047019e-02
  2.019252e+00    8.118409e-01   1.054917e-02
  2.021462e+00    7.783012e-01   1.031940e-02
  2.023673e+00    7.656294e-01   1.022564e-02
  2.025883e+00    7.733462e-01   1.026744e-02
  2.028094e+00    7.662656e-01   1.021068e-02
  2.030304e+00    7.847970e-01   1.032372e-02
  2.032515e+00    7.740169e-01   1.024320e-02
  2.034725e+00    7.566676e-01   1.011832e-02
  2.036936e+00    7.658438e-01   1.017010e-02
  2.039146e+00    7.658288e-01   1.016038e-02
  2.041356e+00    7.848294e-01   1.027582e-02
  2.043567e+00    7.722023e-01   1.018343e-02
  2.045777e+00    7.576540e-01   1.007778e-02
  2.047988e+00    7.575523e-01   1.006771e-02
  2.050198e+00    7.613456e-01   1.008441e-02
  2.052409e+00    7.536179e-01   1.002544e-02
  2.054619e+00    7.483699e-01   9.983125e-03
  2.056830e+00    7.518924e-01   9.999392e-03
  2.059040e+00    7.610039e-01   1.005224e-02
  2.061251e+00    7.545997e-01   1.000260e-02
  2.063461e+00    7.533899e-01   9.986937e-03
  2.065671e+00    7.746350e-01   1.011791e-02
  2.067882e+00    7.656022e-01   1.004966e-02
  2.070092e+00    7.801780e-01   1.013544e-02
  2.072303e+00    7.839596e-01   1.015065e-02
  2.074513e+00    7.589735e-01   9.978155e-03
  2.076724e+00    7.642888e-01   1.000346e-02
  2.078934e+00    7.633955e-01   9.988473e-03
  2.081145e+00    7.553558e-01   9.926593e-03
  2.083355e+00    7.654250e-01   9.983204e-03
  2.085566e+00    7.641065e-01   9.965558e-03
  2.087776e+00    7.800523e-01   1.005924e-02
  2.089986e+00    7.954126e-01   1.014867e-02
  2.092197e+00    8.131237e-01   1.025164e-02
  2.094407e+00    7.792205e-01   1.002618e-02
  2.096618e+00    7.443822e-01   9.790514e-03
  2.098828e+00    7.335863e-01   9.709951e-03
  2.101039e+00    7.412087e-01   9.751240e-03
  2.103249e+00    7.199875e-01   9.602034e-03
  2.105460e+00    7.199528e-01   9.592837e-03
  2.107670e+00    7.310225e-01   9.657562e-03
  2.109881e+00    7.222847e-01   9.590532e-03
  2.112091e+00    7.316654e-01   9.643593e-03
  2.114301e+00    7.183253e-01   9.546535e-03
  2.116512e+00    7.157049e-01   9.520341e-03
  2.118722e+00    7.236987e-01   9.564545e-03
  2.120933e+00    7.035996e-01   9.422028e-03
  2.123143e+00    7.157289e-01   9.493995e-03
  2.125354e+00    7.209788e-01   9.520216e-03
  2.127564e+00    7.144268e-01   9.468142e-03
  2.129775e+00    7.120188e-01   9.443459e-03
  2.131985e+00    7.235246e-01   9.510332e-03
  2.134196e+00    7.207031e-01   9.483148e-03
  2.136406e+00    7.269036e-01   9.515022e-03
  2.138617e+00    7.139884e-01   9.421645e-03
  2.140827e+00    7.242226e-01   9.505141e-03
  2.143037e+00    7.064093e-01   9.432989e-03
  2.145248e+00    7.035849e-01   9.436072e-03
  2.147458e+00    7.121347e-01   9.508451e-03
  2.149669e+00    7.125135e-01   9.522907e-03
  2.151879e+00    7.076825e-01   9.499840e-03
  2.154090e+00    6.967952e-01   9.433760e-03
  2.156300e+00    6.957991e-01   9.433619e-03
  2.158511e+00    6.878418e-01   9.384755e-03
  2.160721e+00    6.929536e-01   9.424370e-03
  2.162932e+00    7.094580e-01   9.539719e-03
  2.165142e+00    7.177879e-01   9.598609e-03
  2.167352e+00    7.076004e-01   9.533208e-03
  2.169563e+00    7.006773e-01   9.488414e-03
  2.171773e+00    7.027870e-01   9.505136e-03
  2.173984e+00    7.049043e-01   9.520880e-03
  2.176194e+00    6.953368e-01   9.457257e-03
  2.178405e+00    6.850546e-01   9.387750e-03
  2.180615e+00    6.851699e-01   9.389217e-03
  2.182826e+00    6.927705e-01   9.441836e-03
  2.185036e+00    6.876070e-01   9.406639e-03
  2.187247e+00    6.949406e-01   9.456604e-03
  2.189457e+00    6.931161e-01   9.443790e-03
  2.191667e+00    6.962305e-01   9.464800e-03
  2.193878e+00    6.828759e-01   9.373028e-03
  2.196088e+00    6.723115e-01   9.299560e-03
  2.198299e+00    6.733149e-01   9.305424e-03
  2.200509e+00    6.701677e-01   9.282595e-03
  2.202720e+00    6.722131e-01   9.295599e-03
  2.204930e+00    6.964414e-01   9.460393e-03
  2.207141e+00    6.796114e-01   9.344261e-03
  2.209351e+00    6.924387e-01   9.430140e-03
  2.211562e+00    6.960075e-01   9.452770e-03
  2.213772e+00    6.860234e-01   9.328866e-03
  2.215982e+00    6.889060e-01   9.303818e-03
  2.218193e+00    6.850104e-01   9.247639e-03
  2.220403e+00    6.700337e-01   9.121494e-03
  2.222614e+00    6.780579e-01   9.154920e-03
  2.224824e+00    6.667074e-01   9.058700e-03
  2.227035e+00    6.685966e-01   9.054127e-03
  2.229245e+00    6.720880e-01   9.060759e-03
  2.231456e+00    6.806734e-01   9.102736e-03
  2.233666e+00    6.685363e-01   9.006144e-03
  2.235877e+00    6.754441e-01   9.038219e-03
  2.238087e+00    6.829661e-01   9.074831e-03
  2.240298e+00    6.575357e-01   8.890599e-03
  2.242508e+00    6.648991e-01   8.925173e-03
  2.244718e+00    6.745462e-01   8.973799e-03
  2.246929e+00    6.722293e-01   8.943920e-03
  2.249139e+00    6.763510e-01   8.958832e-03
  2.251350e+00    6.676310e-01   8.889179e-03
  2.253560e+00    6.698492e-01   8.892343e-03
  2.255771e+00    6.659368e-01   8.854924e-03
  2.257981e+00    6.575459e-01   8.787840e-03
  2.260192e+00    6.645551e-01   8.823453e-03
  2.262402e+00    6.723921e-01   8.864392e-03
  2.264613e+00    6.865700e-01   8.946360e-03
  2.266823e+00    6.729319e-01   8.846578e-03
  2.269033e+00    6.693745e-01   8.812720e-03
  2.271244e+00    6.938410e-01   8.961701e-03
  2.273454e+00    7.274976e-01   9.165716e-03
  2.275665e+00    7.531287e-01   9.314810e-03
  2.277875e+00    7.201151e-01   9.098023e-03
  2.280086e+00    7.096630e-01   9.021335e-03
  2.282296e+00    6.830711e-01   8.841127e-03
  2.284507e+00    6.730393e-01   8.765714e-03
  2.286717e+00    6.706392e-01   8.740513e-03
  2.288928e+00    6.541473e-01   8.622544e-03
  2.291138e+00    6.448991e-01   8.552028e-03
  2.293348e+00    6.424122e-01   8.526067e-03
  2.295559e+00    6.565824e-01   8.610270e-03
  2.297769e+00    6.562788e-01   8.599025e-03
  2.299980e+00    6.587942e-01   8.606118e-03
  2.302190e+00    6.575621e-01   8.588906e-03
  2.304401e+00    6.677350e-01   8.645654e-03
  2.306611e+00    6.452671e-01   8.489829e-03
  2.308822e+00    6.456802e-01   8.484163e-03
  2.311032e+00    6.603948e-01   8.573803e-03
  2.313243e+00    6.551385e-01   8.533324e-03
  2.315453e+00    6.474468e-01   8.475524e-03
  2.317663e+00    6.497653e-01   8.481524e-03
  2.319874e+00    6.483598e-01   8.463623e-03
  2.322084e+00    6.363567e-01   8.376011e-03
  2.324295e+00    6.644614e-01   8.550612e-03
  2.326505e+00    6.596375e-01   8.510391e-03
  2.328716e+00    6.357021e-01   8.346044e-03
  2.330926e+00    6.426069e-01   8.382454e-03
  2.333137e+00    6.457033e-01   8.394234e-03
  2.335347e+00    6.481289e-01   8.401067e-03
  2.337558e+00    6.511253e-01   8.412162e-03
  2.339768e+00    6.415258e-01   8.341342e-03
  2.341979e+00    6.453060e-01   8.357466e-03
  2.344189e+00    6.473308e-01   8.362113e-03
  2.346399e+00    6.442925e-01   8.333929e-03
  2.348610e+00    6.397902e-01   8.296247e-03
  2.350820e+00    6.545532e-01   8.383131e-03
  2.353031e+00    6.480269e-01   8.332852e-03
  2.355241e+00    6.450814e-01   8.305773e-03
  2.357452e+00    6.374066e-01   8.247750e-03
  2.359662e+00    6.438779e-01   8.281216e-03
  2.361873e+00    6.433151e-01   8.269279e-03
  2.364083e+00    6.354173e-01   8.210345e-03
  2.366294e+00    6.131312e-01   8.057059e-03
  2.368504e+00    6.328250e-01   8.177304e-03
  2.370714e+00    6.308548e-01   8.156482e-03
  2.372925e+00    6.170219e-01   8.058578e-03
  2.375135e+00    6.267950e-01   8.114058e-03
  2.377346e+00    6.169558e-01   8.042224e-03
  2.379556e+00    6.262369e-01   8.094564e-03
  2.381767e+00    6.313611e-01   8.119690e-03
  2.383977e+00    6.250759e-01   8.071220e-03
  2.386188e+00    6.152854e-01   7.999867e-03
  2.388398e+00    6.230149e-01   8.041971e-03
  2.390609e+00    6.223037e-01   8.029624e-03
  2.392819e+00    6.203085e-01   8.008934e-03
  2.395029e+00    6.311568e-01   8.070930e-03
  2.397240e+00    6.195304e-01   7.988327e-03
  2.399450e+00    6.101214e-01   7.919664e-03
  2.401661e+00    6.096056e-01   7.908635e-03
  2.403871e+00    6.183662e-01   7.957459e-03
  2.406082e+00    6.190163e-01   7.954151e-03
  2.408292e+00    6.192672e-01   7.947918e-03
  2.410503e+00    6.124309e-01   7.896403e-03
  2.412713e+00    6.109648e-01   7.879134e-03
  2.414924e+00    5.988111e-01   7.792929e-03
  2.417134e+00    6.108116e-01   7.862936e-03
  2.419344e+00    6.189232e-01   7.907496e-03
  2.421555e+00    5.967270e-01   7.756930e-03
  2.423765e+00    6.004836e-01   7.773894e-03
  2.425976e+00    5.999906e-01   7.762896e-03
  2.428186e+00    5.929586e-01   7.710092e-03
  2.430397e+00    5.970486e-01   7.729148e-03
  2.432607e+00    5.942376e-01   7.703672e-03
  2.434818e+00    6.036522e-01   7.756853e-03
  2.437028e+00    6.087270e-01   7.782165e-03
  2.439239e+00    6.024621e-01   7.734300e-03
  2.441449e+00    6.099742e-01   7.775062e-03
  2.443659e+00    5.948639e-01   7.670799e-03
  2.445870e+00    5.890101e-01   7.645189e-03
  2.448080e+00    5.852149e-01   7.655391e-03
  2.450291e+00    5.910999e-01   7.710589e-03
  2.452501e+00    5.870531e-01   7.695434e-03
  2.454712e+00    5.558369e-01   7.496335e-03
  2.456922e+00    5.728537e-01   7.616825e-03
  2.459133e+00    5.847764e-01   7.701207e-03
  2.461343e+00    5.841796e-01   7.701715e-03
  2.463554e+00    5.673139e-01   7.593188e-03
  2.465764e+00    5.460059e-01   7.452326e-03
  2.467975e+00    5.626391e-01   7.567263e-03
  2.470185e+00    5.544310e-01   7.514106e-03
  2.472395e+00    5.536847e-01   7.510281e-03
  2.474606e+00    5.456557e-01   7.457161e-03
  2.476816e+00    5.580562e-01   7.542168e-03
  2.479027e+00    5.609227e-01   7.562361e-03
  2.481237e+00    5.700783e-01   7.624126e-03
  2.483448e+00    5.543231e-01   7.518349e-03
  2.485658e+00    5.511649e-01   7.496736e-03
  2.487869e+00    5.442924e-01   7.449899e-03
  2.490079e+00    5.442234e-01   7.448912e-03
  2.492290e+00    5.256727e-01   7.320426e-03
  2.494500e+00    5.371899e-01   7.399429e-03
  2.496710e+00    5.480795e-01   7.473371e-03
  2.498921e+00    5.464792e-01   7.461455e-03
  2.501131e+00    5.355350e-01   7.385409e-03
  2.503342e+00    5.323530e-01   7.362161e-03
  2.505552e+00    5.454555e-01   7.451063e-03
  2.507763e+00    5.419703e-01   7.425803e-03
  2.509973e+00    5.295548e-01   7.338866e-03
  2.512184e+00    5.200275e-01   7.270927e-03
  2.514394e+00    5.339236e-01   7.358003e-03
  2.516605e+00    5.412506e-01   7.360625e-03
  2.518815e+00    5.314534e-01   7.265214e-03
  2.521025e+00    5.347000e-01   7.266244e-03
  2.523236e+00    5.363774e-01   7.259436e-03
  2.525446e+00    5.340806e-01   7.228165e-03
  2.527657e+00    5.468978e-01   7.299474e-03
  2.529867e+00    5.372272e-01   7.220327e-03
  2.532078e+00    5.350010e-01   7.190145e-03
  2.534288e+00    5.461078e-01   7.250242e-03
  2.536499e+00    5.309923e-01   7.137206e-03
  2.538709e+00    5.198709e-01   7.051105e-03
  2.540920e+00    5.260407e-01   7.082148e-03
  2.543130e+00    5.293970e-01   7.094297e-03
  2.545340e+00    5.314645e-01   7.097994e-03
  2.547551e+00    5.276305e-01   7.062374e-03
  2.549761e+00    5.168409e-01   6.980251e-03
  2.551972e+00    5.216308e-01   7.003165e-03
  2.554182e+00    5.197187e-01   6.981162e-03
  2.556393e+00    5.218961e-01   6.986658e-03
  2.558603e+00    5.257074e-01   7.003009e-03
  2.560814e+00    5.262377e-01   6.997789e-03
  2.563024e+00    5.144270e-01   6.910281e-03
  2.565235e+00    5.252247e-01   6.972839e-03
  2.567445e+00    5.234893e-01   6.951739e-03
  2.569656e+00    5.132388e-01   6.873624e-03
  2.571866e+00    5.289485e-01   6.968578e-03
  2.574076e+00    5.173004e-01   6.882158e-03
  2.576287e+00    5.201330e-01   6.892612e-03
  2.578497e+00    5.299869e-01   6.949643e-03
  2.580708e+00    5.157214e-01   6.847393e-03
  2.582918e+00    5.216805e-01   6.879022e-03
  2.585129e+00    4.996871e-01   6.724827e-03
  2.587339e+00    4.976993e-01   6.703867e-03
  2.589550e+00    5.109334e-01   6.784874e-03
  2.591760e+00    5.234342e-01   6.859547e-03
  2.593971e+00    5.132846e-01   6.785198e-03
  2.596181e+00    5.240647e-01   6.849759e-03
  2.598391e+00    5.326524e-01   6.900372e-03
  2.600602e+00    5.173630e-01   6.794652e-03
  2.602812e+00    5.225967e-01   6.821303e-03
  2.605023e+00    5.069383e-01   6.711181e-03
  2.607233e+00    5.111600e-01   6.731898e-03
  2.609444e+00    4.955228e-01   6.620992e-03
  2.611654e+00    5.046834e-01   6.674600e-03
  2.613865e+00    5.029269e-01   6.655959e-03
  2.616075e+00    5.053396e-01   6.664768e-03
  2.618286e+00    5.225947e-01   6.770494e-03
  2.620496e+00    5.151901e-01   6.715593e-03
  2.622706e+00    5.193307e-01   6.736706e-03
  2.624917e+00    5.118439e-01   6.682071e-03
  2.627127e+00    4.992380e-01   6.593581e-03
  2.629338e+00    5.031383e-01   6.613290e-03
  2.631548e+00    5.114404e-01   6.661411e-03
  2.633759e+00    4.970100e-01   6.559668e-03
  2.635969e+00    4.941516e-01   6.534138e-03
  2.638180e+00    5.050408e-01   6.598707e-03
  2.640390e+00    5.156716e-01   6.661127e-03
  2.642601e+00    5.091639e-01   6.612227e-03
  2.644811e+00    4.995669e-01   6.542553e-03
  2.647021e+00    5.041395e-01   6.565829e-03
  2.649232e+00    5.072228e-01   6.579105e-03
  2.651442e+00    5.017660e-01   6.537110e-03
  2.653653e+00    5.012783e-01   6.527107e-03
  2.655863e+00    5.124424e-01   6.592626e-03
  2.658074e+00    5.017099e-01   6.516587e-03
  2.660284e+00    5.163479e-01   6.604489e-03
  2.662495e+00    5.085101e-01   6.547351e-03
  2.664705e+00    5.025901e-01   6.502516e-03
  2.666916e+00    5.101570e-01   6.544729e-03
  2.669126e+00    4.882740e-01   6.396439e-03
  2.671337e+00    4.790111e-01   6.328978e-03
  2.673547e+00    4.916396e-01   6.405507e-03
  2.675757e+00    4.959257e-01   6.426919e-03
  2.677968e+00    4.849366e-01   6.348851e-03
  2.680178e+00    5.011040e-01   6.447364e-03
  2.682389e+00    4.998818e-01   6.433056e-03
  2.684599e+00    5.077724e-01   6.477361e-03
  2.686810e+00    4.952436e-01   6.390313e-03
  2.689020e+00    4.991591e-01   6.409198e-03
  2.691231e+00    5.096216e-01   6.469601e-03
  2.693441e+00    5.082434e-01   6.454605e-03
  2.695652e+00    4.936699e-01   6.354844e-03
  2.697862e+00    4.868324e-01   6.304365e-03
  2.700072e+00    4.802379e-01   6.255499e-03
  2.702283e+00    4.862712e-01   6.288460e-03
  2.704493e+00    4.889179e-01   6.299272e-03
  2.706704e+00    4.949621e-01   6.331642e-03
  2.708914e+00    5.002843e-01   6.359547e-03
  2.711125e+00    4.938163e-01   6.312024e-03
  2.713335e+00    4.901954e-01   6.282730e-03
  2.715546e+00    4.834923e-01   6.233194e-03
  2.717756e+00    4.996713e-01   6.330648e-03
  2.719967e+00    4.935784e-01   6.285692e-03
  2.722177e+00    4.857770e-01   6.229676e-03
  2.724387e+00    4.879332e-01   6.237370e-03
  2.726598e+00    4.879053e-01   6.231107e-03
  2.728808e+00    4.870950e-01   6.219798e-03
  2.731019e+00    4.876207e-01   6.216979e-03
  2.733229e+00    4.948882e-01   6.257296e-03
  2.735440e+00    4.765219e-01   6.133846e-03
  2.737650e+00    4.976344e-01   6.262162e-03
  2.739861e+00    4.804365e-01   6.146961e-03
  2.742071e+00    4.876638e-01   6.187228e-03
  2.744282e+00    4.943727e-01   6.223338e-03
  2.746492e+00    4.791436e-01   6.120718e-03
  2.748702e+00    4.775390e-01   6.104583e-03
  2.750913e+00    4.784601e-01   6.104684e-03
  2.753123e+00    4.889815e-01   6.165280e-03
  2.755334e+00    4.884024e-01   6.155513e-03
  2.757544e+00    4.780840e-01   6.084416e-03
  2.759755e+00    4.910550e-01   6.160452e-03
  2.761965e+00    4.762383e-01   6.060847e-03
  2.764176e+00    4.833383e-01   6.099836e-03
  2.766386e+00    4.892239e-01   6.131028e-03
  2.768597e+00    4.821597e-01   6.080734e-03
  2.770807e+00    4.708479e-01   6.003148e-03
  2.773017e+00    4.710880e-01   5.998755e-03
  2.775228e+00    4.723139e-01   6.000789e-03
  2.777438e+00    4.972740e-01   6.151420e-03
  2.779649e+00    4.841322e-01   6.063655e-03
  2.781859e+00    4.801497e-01   6.032886e-03
  2.784070e+00    4.717302e-01   5.973918e-03
  2.786280e+00    4.943480e-01   6.109593e-03
  2.788491e+00    4.919726e-01   6.088987e-03
  2.790701e+00    4.817251e-01   6.019543e-03
  2.792912e+00    4.817249e-01   6.013541e-03
  2.795122e+00    4.829029e-01   6.015129e-03
  2.797333e+00    4.761702e-01   5.967475e-03
  2.799543e+00    4.975336e-01   6.093869e-03
  2.801753e+00    4.833626e-01   6.000566e-03
  2.803964e+00    4.839870e-01   5.998733e-03
  2.806174e+00    4.778156e-01   5.954185e-03
  2.808385e+00    4.858750e-01   5.997323e-03
  2.810595e+00    4.893805e-01   6.011947e-03
  2.812806e+00    4.871279e-01   5.991394e-03
  2.815016e+00    4.843138e-01   5.969283e-03
  2.817227e+00    4.742082e-01   5.932591e-03
  2.819437e+00    4.884390e-01   6.032216e-03
  2.821648e+00    4.671467e-01   5.901545e-03
  2.823858e+00    4.742162e-01   5.951365e-03
  2.826068e+00    4.726618e-01   5.946590e-03
  2.828279e+00    4.753214e-01   5.967342e-03
  2.830489e+00    4.789325e-01   5.993322e-03
  2.832700e+00    4.910716e-01   6.071425e-03
  2.834910e+00    4.697293e-01   5.940081e-03
  2.837121e+00    4.732528e-01   5.964030e-03
  2.839331e+00    4.655103e-01   5.916271e-03
  2.841542e+00    4.743418e-01   5.973127e-03
  2.843752e+00    4.734801e-01   5.968502e-03
  2.845963e+00    4.619186e-01   5.895593e-03
  2.848173e+00    4.453354e-01   5.788843e-03
  2.850383e+00    4.727763e-01   5.964841e-03
  2.852594e+00    4.777401e-01   5.995998e-03
  2.854804e+00    4.800731e-01   6.010106e-03
  2.857015e+00    4.723059e-01   5.960846e-03
  2.859225e+00    4.717001e-01   5.956782e-03
  2.861436e+00    4.652095e-01   5.914998e-03
  2.863646e+00    4.706457e-01   5.949494e-03
  2.865857e+00    4.666081e-01   5.924259e-03
  2.868067e+00    4.658369e-01   5.919583e-03
  2.870278e+00    4.706100e-01   5.949487e-03
  2.872488e+00    4.671996e-01   5.926723e-03
  2.874698e+00    4.682133e-01   5.932088e-03
  2.876909e+00    4.701060e-01   5.942738e-03
  2.879119e+00    4.675344e-01   5.924827e-03
  2.881330e+00    4.747383e-01   5.968797e-03
  2.883540e+00    4.722864e-01   5.951991e-03
  2.885751e+00    4.636806e-01   5.895852e-03
  2.887961e+00    4.723375e-01   5.948724e-03
  2.890172e+00    4.699470e-01   5.932031e-03
  2.892382e+00    4.690633e-01   5.924646e-03
  2.894593e+00    4.635733e-01   5.888039e-03
  2.896803e+00    4.536267e-01   5.822571e-03
  2.899014e+00    4.663479e-01   5.901714e-03
  2.901224e+00    4.523092e-01   5.810239e-03
  2.903434e+00    4.622457e-01   5.871762e-03
  2.905645e+00    4.722824e-01   5.932899e-03
  2.907855e+00    4.541825e-01   5.816041e-03
  2.910066e+00    4.552391e-01   5.820702e-03
  2.912276e+00    4.624711e-01   5.864641e-03
  2.914487e+00    4.654571e-01   5.881057e-03
  2.916697e+00    4.577904e-01   5.830226e-03
  2.918908e+00    4.457451e-01   5.751014e-03
  2.921118e+00    4.725529e-01   5.918688e-03
  2.923329e+00    4.643066e-01   5.864502e-03
  2.925539e+00    4.548525e-01   5.802203e-03
  2.927749e+00    4.632695e-01   5.853316e-03
  2.929960e+00    4.651854e-01   5.862610e-03
  2.932170e+00    4.594977e-01   5.824316e-03
  2.934381e+00    4.603921e-01   5.827551e-03
  2.936591e+00    4.535287e-01   5.781355e-03
  2.938802e+00    4.604529e-01   5.822618e-03
  2.941012e+00    4.658899e-01   5.854525e-03
  2.943223e+00    4.560483e-01   5.789658e-03
  2.945433e+00    4.620502e-01   5.823882e-03
  2.947644e+00    4.565040e-01   5.784676e-03
  2.949854e+00    4.615136e-01   5.812028e-03
  2.952064e+00    4.591671e-01   5.792997e-03
  2.954275e+00    4.641640e-01   5.819967e-03
  2.956485e+00    4.719732e-01   5.864468e-03
  2.958696e+00    4.726084e-01   5.863952e-03
  2.960906e+00    4.707462e-01   5.848132e-03
  2.963117e+00    4.654349e-01   5.810521e-03
  2.965327e+00    4.618182e-01   5.783962e-03
  2.967538e+00    4.698327e-01   5.830963e-03
  2.969748e+00    4.499196e-01   5.703280e-03
  2.971959e+00    4.437586e-01   5.660971e-03
  2.974169e+00    4.570294e-01   5.742406e-03
  2.976379e+00    4.640242e-01   5.783231e-03
  2.978590e+00    4.657145e-01   5.790595e-03
  2.980800e+00    4.622836e-01   5.766386e-03
  2.983011e+00    4.651448e-01   5.781387e-03
  2.985221e+00    4.629298e-01   5.764415e-03
  2.987432e+00    4.517580e-01   5.691335e-03
  2.989642e+00    4.475406e-01   5.662092e-03
  2.991853e+00    4.431998e-01   5.631338e-03
  2.994063e+00    4.569814e-01   5.715290e-03
  2.996274e+00    4.491255e-01   5.662797e-03
  2.998484e+00    4.629174e-01   5.746347e-03
  3.000694e+00    4.553424e-01   5.695692e-03
  3.002905e+00    4.653315e-01   5.754841e-03
  3.005115e+00    4.689088e-01   5.773891e-03
  3.007326e+00    4.603556e-01   5.717825e-03
  3.009536e+00    4.549093e-01   5.680618e-03
  3.011747e+00    4.676393e-01   5.756604e-03
  3.013957e+00    4.599649e-01   5.705967e-03
  3.016168e+00    4.681609e-01   5.753274e-03
  3.018378e+00    4.555746e-01   5.672359e-03
  3.020589e+00    4.561138e-01   5.672477e-03
  3.022799e+00    4.558780e-01   5.667850e-03
  3.025010e+00    4.607480e-01   5.694753e-03
  3.027220e+00    4.683653e-01   5.738498e-03
  3.029430e+00    4.649780e-01   5.714403e-03
  3.031641e+00    4.546246e-01   5.647283e-03
  3.033851e+00    4.656488e-01   5.711770e-03
  3.036062e+00    4.497955e-01   5.610929e-03
  3.038272e+00    4.530036e-01   5.627325e-03
  3.040483e+00    4.377254e-01   5.528432e-03
  3.042693e+00    4.516982e-01   5.612702e-03
  3.044904e+00    4.602356e-01   5.661448e-03
  3.047114e+00    4.450603e-01   5.562549e-03
  3.049325e+00    4.570922e-01   5.632820e-03
  3.051535e+00    4.454836e-01   5.556468e-03
  3.053745e+00    4.358496e-01   5.491366e-03
  3.055956e+00    4.443346e-01   5.540036e-03
  3.058166e+00    4.565446e-01   5.611336e-03
  3.060377e+00    4.541267e-01   5.591684e-03
  3.062587e+00    4.399776e-01   5.499292e-03
  3.064798e+00    4.483556e-01   5.547156e-03
  3.067008e+00    4.604120e-01   5.616468e-03
  3.069219e+00    4.497020e-01   5.546248e-03
  3.071429e+00    4.557372e-01   5.579799e-03
  3.073640e+00    4.596002e-01   5.600032e-03
  3.075850e+00    4.511468e-01   5.544696e-03
  3.078060e+00    4.548537e-01   5.564309e-03
  3.080271e+00    4.434648e-01   5.490759e-03
  3.082481e+00    4.464642e-01   5.505840e-03
  3.084692e+00    4.543127e-01   5.550642e-03
  3.086902e+00    4.553621e-01   5.553766e-03
  3.089113e+00    4.442279e-01   5.481904e-03
  3.091323e+00    4.439384e-01   5.476746e-03
  3.093534e+00    4.527124e-01   5.527206e-03
  3.095744e+00    4.562176e-01   5.545170e-03
  3.097955e+00    4.470537e-01   5.485641e-03
  3.100165e+00    4.567896e-01   5.541700e-03
  3.102375e+00    4.562632e-01   5.535031e-03
  3.104586e+00    4.589344e-01   5.547679e-03
  3.106796e+00    4.436658e-01   5.451115e-03
  3.109007e+00    4.462984e-01   5.464033e-03
  3.111217e+00    4.412943e-01   5.429641e-03
  3.113428e+00    4.550890e-01   5.510400e-03
  3.115638e+00    4.466220e-01   5.455666e-03
  3.117849e+00    4.386354e-01   5.402983e-03
  3.120059e+00    4.441041e-01   5.433075e-03
  3.122270e+00    4.360189e-01   5.380179e-03
  3.124480e+00    4.405572e-01   5.404434e-03
  3.126691e+00    4.441419e-01   5.422812e-03
  3.128901e+00    4.560162e-01   5.491668e-03
  3.131111e+00    4.516755e-01   5.461599e-03
  3.133322e+00    4.549461e-01   5.477845e-03
  3.135532e+00    4.659539e-01   5.540235e-03
  3.137743e+00    4.680553e-01   5.549156e-03
  3.139953e+00    4.529306e-01   5.455029e-03
  3.142164e+00    4.565639e-01   5.489063e-03
  3.144374e+00    4.566664e-01   5.518543e-03
  3.146585e+00    4.612400e-01   5.560990e-03
  3.148795e+00    4.419209e-01   5.454022e-03
  3.151006e+00    4.452943e-01   5.483418e-03
  3.153216e+00    4.429960e-01   5.476367e-03
  3.155426e+00    4.483996e-01   5.516035e-03
  3.157637e+00    4.473469e-01   5.515125e-03
  3.159847e+00    4.354958e-01   5.446433e-03
  3.162058e+00    4.301063e-01   5.416995e-03
  3.164268e+00    4.507866e-01   5.549818e-03
  3.166479e+00    4.357612e-01   5.460164e-03
  3.168689e+00    4.538715e-01   5.575899e-03
  3.170900e+00    4.401750e-01   5.494308e-03
  3.173110e+00    4.277177e-01   5.418844e-03
  3.175321e+00    4.379047e-01   5.485464e-03
  3.177531e+00    4.427200e-01   5.518308e-03
  3.179741e+00    4.293276e-01   5.436257e-03
  3.181952e+00    4.373200e-01   5.488725e-03
  3.184162e+00    4.338929e-01   5.469366e-03
  3.186373e+00    4.292442e-01   5.441576e-03
  3.188583e+00    4.315412e-01   5.457891e-03
  3.190794e+00    4.359744e-01   5.487578e-03
  3.193004e+00    4.463612e-01   5.553859e-03
  3.195215e+00    4.348345e-01   5.483167e-03
  3.197425e+00    4.334689e-01   5.475772e-03
  3.199636e+00    4.316916e-01   5.463732e-03
  3.201846e+00    4.434777e-01   5.537237e-03
  3.204056e+00    4.421720e-01   5.529963e-03
  3.206267e+00    4.379253e-01   5.504195e-03
  3.208477e+00    4.487261e-01   5.572594e-03
  3.210688e+00    4.365797e-01   5.497538e-03
  3.212898e+00    4.223046e-01   5.407448e-03
  3.215109e+00    4.235173e-01   5.415955e-03
  3.217319e+00    4.383845e-01   5.510832e-03
  3.219530e+00    4.392081e-01   5.516420e-03
  3.221740e+00    4.361341e-01   5.497635e-03
  3.223951e+00    4.164391e-01   5.372547e-03
  3.226161e+00    4.219123e-01   5.407901e-03
  3.228372e+00    4.159947e-01   5.370385e-03
  3.230582e+00    4.246694e-01   5.426208e-03
  3.232792e+00    4.250994e-01   5.429184e-03
  3.235003e+00    4.336520e-01   5.483768e-03
  3.237213e+00    4.275452e-01   5.445135e-03
  3.239424e+00    4.254600e-01   5.431825e-03
  3.241634e+00    4.266084e-01   5.439299e-03
  3.243845e+00    4.303285e-01   5.463005e-03
  3.246055e+00    4.309920e-01   5.466966e-03
  3.248266e+00    4.234291e-01   5.418979e-03
  3.250476e+00    4.299466e-01   5.460218e-03
  3.252687e+00    4.184180e-01   5.386435e-03
  3.254897e+00    4.283594e-01   5.449931e-03
  3.257107e+00    4.262806e-01   5.436379e-03
  3.259318e+00    4.124571e-01   5.347271e-03
  3.261528e+00    4.410744e-01   5.529520e-03
  3.263739e+00    4.313977e-01   5.467988e-03
  3.265949e+00    4.283360e-01   5.448403e-03
  3.268160e+00    4.282260e-01   5.447299e-03
  3.270370e+00    4.281857e-01   5.446521e-03
  3.272581e+00    4.306915e-01   5.462166e-03
  3.274791e+00    4.205741e-01   5.397095e-03
  3.277002e+00    4.198601e-01   5.391953e-03
  3.279212e+00    4.366012e-01   5.498012e-03
  3.281422e+00    4.417673e-01   5.529865e-03
  3.283633e+00    4.388119e-01   5.510631e-03
  3.285843e+00    4.348887e-01   5.485622e-03
  3.288054e+00    4.215975e-01   5.400195e-03
  3.290264e+00    4.323052e-01   5.468024e-03
  3.292475e+00    4.302668e-01   5.454286e-03
  3.294685e+00    4.352020e-01   5.484828e-03
  3.296896e+00    4.171123e-01   5.368880e-03
  3.299106e+00    4.263809e-01   5.427633e-03
  3.301317e+00    4.273625e-01   5.432870e-03
  3.303527e+00    4.184123e-01   5.375191e-03
  3.305737e+00    4.257441e-01   5.421044e-03
  3.307948e+00    4.270653e-01   5.428767e-03
  3.310158e+00    4.227281e-01   5.400300e-03
  3.312369e+00    4.229061e-01   5.400533e-03
  3.314579e+00    4.168702e-01   5.360973e-03
  3.316790e+00    4.263024e-01   5.420545e-03
  3.319000e+00    4.177869e-01   5.364984e-03
  3.321211e+00    4.173954e-01   5.361848e-03
  3.323421e+00    4.225283e-01   5.393503e-03
  3.325632e+00    4.213194e-01   5.384916e-03
  3.327842e+00    4.193566e-01   5.371432e-03
  3.330052e+00    4.356801e-01   5.473869e-03
  3.332263e+00    4.414402e-01   5.508944e-03
  3.334473e+00    4.242145e-01   5.399445e-03
  3.336684e+00    4.249332e-01   5.402752e-03
  3.338894e+00    4.307994e-01   5.439076e-03
  3.341105e+00    4.296017e-01   5.430277e-03
  3.343315e+00    4.144537e-01   5.332565e-03
  3.345526e+00    4.280593e-01   5.418452e-03
  3.347736e+00    4.234013e-01   5.387500e-03
  3.349947e+00    4.334674e-01   5.450202e-03
  3.352157e+00    4.146007e-01   5.329119e-03
  3.354368e+00    4.180157e-01   5.349726e-03
  3.356578e+00    4.156604e-01   5.333621e-03
  3.358788e+00    4.150819e-01   5.328567e-03
  3.360999e+00    4.223528e-01   5.373794e-03
  3.363209e+00    4.275045e-01   5.405443e-03
  3.365420e+00    4.137326e-01   5.316170e-03
  3.367630e+00    4.119633e-01   5.303747e-03
  3.369841e+00    4.232135e-01   5.374260e-03
  3.372051e+00    4.222430e-01   5.366113e-03
  3.374262e+00    4.264647e-01   5.390381e-03
  3.376472e+00    4.277122e-01   5.395807e-03
  3.378683e+00    4.212219e-01   5.352185e-03
  3.380893e+00    4.170188e-01   5.323063e-03
  3.383103e+00    4.172755e-01   5.322007e-03
  3.385314e+00    4.245360e-01   5.365836e-03
  3.387524e+00    4.253060e-01   5.367952e-03
  3.389735e+00    4.165868e-01   5.309999e-03
  3.391945e+00    4.216431e-01   5.338396e-03
  3.394156e+00    4.300931e-01   5.387334e-03
  3.396366e+00    4.110015e-01   5.263011e-03
  3.398577e+00    4.076764e-01   5.238627e-03
  3.400787e+00    4.183899e-01   5.319038e-03
  3.402998e+00    4.120843e-01   5.316978e-03
  3.405208e+00    4.056413e-01   5.295891e-03
  3.407418e+00    4.073263e-01   5.322806e-03
  3.409629e+00    4.013346e-01   5.297472e-03
  3.411839e+00    3.946261e-01   5.264727e-03
  3.414050e+00    3.930296e-01   5.264984e-03
  3.416260e+00    3.973983e-01   5.303855e-03
  3.418471e+00    3.792852e-01   5.190826e-03
  3.420681e+00    3.924209e-01   5.288417e-03
  3.422892e+00    3.794896e-01   5.208453e-03
  3.425102e+00    3.900337e-01   5.288118e-03
  3.427313e+00    3.850354e-01   5.261302e-03
  3.429523e+00    3.885188e-01   5.292108e-03
  3.431733e+00    4.025925e-01   5.393907e-03
  3.433944e+00    4.023037e-01   5.398628e-03
  3.436154e+00    3.871963e-01   5.302561e-03
  3.438365e+00    3.776738e-01   5.242873e-03
  3.440575e+00    3.795879e-01   5.262007e-03
  3.442786e+00    3.858888e-01   5.311185e-03
  3.444996e+00    3.873535e-01   5.326845e-03
  3.447207e+00    3.644323e-01   5.172049e-03
  3.449417e+00    3.774093e-01   5.304445e-03
  3.451628e+00    3.697750e-01   5.280013e-03
  3.453838e+00    3.717765e-01   5.315564e-03
  3.456049e+00    3.711428e-01   5.335068e-03
  3.458259e+00    3.569467e-01   5.253697e-03
  3.460469e+00    3.716955e-01   5.381038e-03
  3.462680e+00    3.814463e-01   5.470631e-03
  3.464890e+00    3.604863e-01   5.335864e-03
  3.467101e+00    3.825671e-01   5.514655e-03
  3.469311e+00    3.775198e-01   5.494870e-03
  3.471522e+00    4.092451e-01   5.738248e-03
  3.473732e+00    3.831154e-01   5.568068e-03
  3.475943e+00    3.861940e-01   5.606177e-03
  3.478153e+00    3.953411e-01   5.687749e-03
  3.480364e+00    4.188118e-01   5.869788e-03
  3.482574e+00    4.190268e-01   5.886921e-03
  3.484784e+00    4.273781e-01   5.960478e-03
  3.486995e+00    4.247869e-01   5.957633e-03
  3.489205e+00    4.429085e-01   6.098386e-03
  3.491416e+00    4.468263e-01   6.140564e-03
  3.493626e+00    4.259709e-01   6.009987e-03
  3.495837e+00    4.460170e-01   6.164614e-03
  3.498047e+00    4.578029e-01   6.260251e-03
  3.500258e+00    4.583369e-01   6.278567e-03
  3.502468e+00    4.490593e-01   6.229047e-03
  3.504679e+00    4.667048e-01   6.364823e-03
  3.506889e+00    4.532000e-01   6.286326e-03
  3.509099e+00    4.579156e-01   6.333059e-03
  3.511310e+00    4.844143e-01   6.528333e-03
  3.513520e+00    4.888265e-01   6.572522e-03
  3.515731e+00    4.815806e-01   6.537945e-03
  3.517941e+00    4.987521e-01   6.667954e-03
  3.520152e+00    4.998383e-01   6.689617e-03
  3.522362e+00    5.078160e-01   6.757344e-03
  3.524573e+00    5.258210e-01   6.890683e-03
  3.526783e+00    5.192183e-01   6.860737e-03
  3.528994e+00    5.164446e-01   6.854638e-03
  3.531204e+00    5.294626e-01   6.953025e-03
  3.533414e+00    5.350469e-01   7.001781e-03
  3.535625e+00    5.526190e-01   7.128505e-03
  3.537835e+00    5.457481e-01   7.096293e-03
  3.540046e+00    5.659395e-01   7.235587e-03
  3.542256e+00    5.452557e-01   7.109707e-03
  3.544467e+00    5.404286e-01   7.085842e-03
  3.546677e+00    5.407118e-01   7.095295e-03
  3.548888e+00    5.515444e-01   7.173604e-03
  3.551098e+00    5.386063e-01   7.096311e-03
  3.553309e+00    5.411262e-01   7.121064e-03
  3.555519e+00    5.555555e-01   7.226883e-03
  3.557729e+00    5.279781e-01   7.056890e-03
  3.559940e+00    5.541067e-01   7.241115e-03
  3.562150e+00    5.528015e-01   7.244484e-03
  3.564361e+00    5.466301e-01   7.217381e-03
  3.566571e+00    5.505103e-01   7.256959e-03
  3.568782e+00    5.454467e-01   7.237785e-03
  3.570992e+00    5.241229e-01   7.108443e-03
  3.573203e+00    5.568059e-01   7.341167e-03
  3.575413e+00    5.370129e-01   7.223329e-03
  3.577624e+00    5.380996e-01   7.244758e-03
  3.579834e+00    5.277455e-01   7.188480e-03
  3.582045e+00    5.428038e-01   7.304439e-03
  3.584255e+00    5.316446e-01   7.242987e-03
  3.586465e+00    5.369365e-01   7.292844e-03
  3.588676e+00    5.419160e-01   7.340889e-03
  3.590886e+00    5.378591e-01   7.327082e-03
  3.593097e+00    5.451401e-01   7.391117e-03
  3.595307e+00    5.526190e-01   7.455817e-03
  3.597518e+00    5.188445e-01   7.238409e-03
  3.599728e+00    5.388571e-01   7.390751e-03
  3.601939e+00    5.413707e-01   7.422158e-03
  3.604149e+00    5.429412e-01   7.447396e-03
  3.606360e+00    5.626875e-01   7.596117e-03
  3.608570e+00    5.557954e-01   7.563915e-03
  3.610780e+00    5.356071e-01   7.436316e-03
  3.612991e+00    5.462682e-01   7.520053e-03
  3.615201e+00    5.502128e-01   7.557138e-03
  3.617412e+00    5.446231e-01   7.525968e-03
  3.619622e+00    5.516576e-01   7.580453e-03
  3.621833e+00    5.391657e-01   7.500903e-03
  3.624043e+00    5.485173e-01   7.575300e-03
  3.626254e+00    5.378386e-01   7.510940e-03
  3.628464e+00    5.385754e-01   7.527078e-03
  3.630675e+00    5.442080e-01   7.580593e-03
  3.632885e+00    5.660880e-01   7.746361e-03
  3.635095e+00    5.415932e-01   7.591442e-03
  3.637306e+00    5.431030e-01   7.616494e-03
  3.639516e+00    5.362080e-01   7.582576e-03
  3.641727e+00    5.290287e-01   7.546123e-03
  3.643937e+00    5.544713e-01   7.740313e-03
  3.646148e+00    5.449514e-01   7.688331e-03
  3.648358e+00    5.399739e-01   7.668104e-03
  3.650569e+00    5.531333e-01   7.775983e-03
  3.652779e+00    5.475448e-01   7.751600e-03
  3.654990e+00    5.305311e-01   7.645047e-03
  3.657200e+00    5.376615e-01   7.711225e-03
  3.659410e+00    5.587547e-01   7.876351e-03
  3.661621e+00    5.617623e-01   7.913112e-03
  3.663831e+00    5.453545e-01   7.811948e-03
  3.666042e+00    5.516816e-01   7.872587e-03
  3.668252e+00    5.342742e-01   7.762690e-03
  3.670463e+00    5.513142e-01   7.901006e-03
  3.672673e+00    5.447211e-01   7.869250e-03
  3.674884e+00    5.423552e-01   7.867720e-03
  3.677094e+00    5.228773e-01   7.740551e-03
  3.679305e+00    5.464885e-01   7.929156e-03
  3.681515e+00    5.344643e-01   7.857142e-03
  3.683726e+00    5.226409e-01   7.785452e-03
  3.685936e+00    5.353530e-01   7.895328e-03
  3.688146e+00    5.461061e-01   7.990286e-03
  3.690357e+00    5.395380e-01   7.958269e-03
  3.692567e+00    5.113218e-01   7.763192e-03
  3.694778e+00    5.186182e-01   7.834340e-03
  3.696988e+00    5.209402e-01   7.867744e-03
  3.699199e+00    5.173047e-01   7.856364e-03
  3.701409e+00    5.339000e-01   7.997897e-03
  3.703620e+00    5.252212e-01   7.948967e-03
  3.705830e+00    5.118730e-01   7.863472e-03
  3.708041e+00    5.167210e-01   7.917129e-03
  3.710251e+00    5.210054e-01   7.966571e-03
  3.712461e+00    5.069847e-01   7.875074e-03
  3.714672e+00    5.328709e-01   8.090567e-03
  3.716882e+00    5.153062e-01   7.972730e-03
  3.719093e+00    5.138762e-01   7.978701e-03
  3.721303e+00    5.134557e-01   7.992258e-03
  3.723514e+00    5.425681e-01   8.233379e-03
  3.725724e+00    5.064136e-01   7.971347e-03
  3.727935e+00    5.052187e-01   7.979057e-03
  3.730145e+00    5.450718e-01   8.305633e-03
  3.732356e+00    5.540676e-01   8.392100e-03
  3.734566e+00    5.104183e-01   8.072223e-03
  3.736776e+00    5.163274e-01   8.136526e-03
  3.738987e+00    5.246372e-01   8.219707e-03
  3.741197e+00    5.164769e-01   8.173580e-03
  3.743408e+00    5.331965e-01   8.323214e-03
  3.745618e+00    5.095668e-01   8.154974e-03
  3.747829e+00    5.031201e-01   8.121155e-03
  3.750039e+00    5.040298e-01   8.146728e-03
  3.752250e+00    5.143579e-01   8.248286e-03
  3.754460e+00    5.221016e-01   8.328932e-03
  3.756671e+00    5.200567e-01   8.331593e-03
  3.758881e+00    4.953475e-01   8.149685e-03
  3.761091e+00    5.141705e-01   8.322262e-03
  3.763302e+00    5.235365e-01   8.417126e-03
  3.765512e+00    4.996497e-01   8.241947e-03
  3.767723e+00    5.237424e-01   8.457978e-03
  3.769933e+00    5.119065e-01   8.381340e-03
  3.772144e+00    4.984621e-01   8.289953e-03
  3.774354e+00    5.230030e-01   8.511736e-03
  3.776565e+00    5.167727e-01   8.480966e-03
  3.778775e+00    5.212557e-01   8.537989e-03
  3.780986e+00    5.199980e-01   8.548265e-03
  3.783196e+00    5.280774e-01   8.635189e-03
  3.785407e+00    5.205362e-01   8.594072e-03
  3.787617e+00    5.166367e-01   8.582885e-03
  3.789827e+00    5.036086e-01   8.494509e-03
  3.792038e+00    4.978654e-01   8.466717e-03
  3.794248e+00    4.992864e-01   8.499836e-03
  3.796459e+00    5.060645e-01   8.578869e-03
  3.798669e+00    5.156733e-01   8.681561e-03
  3.800880e+00    5.276561e-01   8.803873e-03
  3.803090e+00    5.114994e-01   8.690185e-03
  3.805301e+00    5.043623e-01   8.651468e-03
  3.807511e+00    5.202441e-01   8.809052e-03
  3.809722e+00    5.222462e-01   8.848755e-03
  3.811932e+00    4.870199e-01   8.567056e-03
  3.814142e+00    4.913357e-01   8.627585e-03
  3.816353e+00    5.133033e-01   8.841534e-03
  3.818563e+00    5.241721e-01   8.958340e-03
  3.820774e+00    5.073963e-01   8.837188e-03
  3.822984e+00    4.917416e-01   8.723028e-03
  3.825195e+00    4.948554e-01   8.774240e-03
  3.827405e+00    5.041707e-01   8.880483e-03
  3.829616e+00    5.023736e-01   8.888818e-03
  3.831826e+00    5.133372e-01   9.009865e-03
  3.834037e+00    5.054778e-01   8.965325e-03
  3.836247e+00    4.858549e-01   8.813997e-03
  3.838457e+00    4.981754e-01   8.950148e-03
  3.840668e+00    4.890932e-01   8.893111e-03
  3.842878e+00    5.206106e-01   9.201405e-03
  3.845089e+00    4.721215e-01   8.787368e-03
  3.847299e+00    5.083085e-01   9.144015e-03
  3.849510e+00    5.165803e-01   9.244516e-03
  3.851720e+00    5.256191e-01   9.347186e-03
  3.853931e+00    5.076921e-01   9.205565e-03
  3.856141e+00    5.004070e-01   9.158430e-03
  3.858352e+00    5.052447e-01   9.222065e-03
  3.860562e+00    4.833185e-01   9.038876e-03
  3.862772e+00    4.721368e-01   8.952751e-03
  3.864983e+00    5.078863e-01   9.305523e-03
  3.867193e+00    5.038825e-01   9.288764e-03
  3.869404e+00    4.922214e-01   9.200396e-03
  3.871614e+00    4.861554e-01   9.163406e-03
  3.873825e+00    5.143199e-01   9.445801e-03
  3.876035e+00    5.190464e-01   9.510239e-03
  3.878246e+00    4.883047e-01   9.250047e-03
  3.880456e+00    4.962417e-01   9.353879e-03
  3.882667e+00    5.012076e-01   9.430221e-03
  3.884877e+00    5.292148e-01   9.721019e-03
  3.887087e+00    5.184481e-01   9.652344e-03
  3.889298e+00    5.228399e-01   9.724478e-03
  3.891508e+00    5.150847e-01   9.683336e-03
  3.893719e+00    5.057095e-01   9.626315e-03
  3.895929e+00    4.850643e-01   9.458973e-03
  3.898140e+00    4.955887e-01   9.592960e-03
  3.900350e+00    4.697069e-01   9.370502e-03
  3.902561e+00    5.009919e-01   9.710250e-03
  3.904771e+00    5.120699e-01   9.850562e-03
  3.906982e+00    4.959710e-01   9.727880e-03
  3.909192e+00    4.759569e-01   9.562638e-03
  3.911403e+00    4.953226e-01   9.789444e-03
  3.913613e+00    4.833784e-01   9.704742e-03
  3.915823e+00    5.145692e-01   1.004871e-02
  3.918034e+00    4.739885e-01   9.679146e-03
  3.920244e+00    4.754438e-01   9.729139e-03
  3.922455e+00    4.940681e-01   9.954187e-03
  3.924665e+00    4.956947e-01   1.000728e-02
  3.926876e+00    4.714184e-01   9.795682e-03
  3.929086e+00    5.125062e-01   1.025185e-02
  3.931297e+00    4.891436e-01   1.005035e-02
  3.933507e+00    5.170261e-01   1.036269e-02
  3.935718e+00    4.757087e-01   9.968383e-03
  3.937928e+00    4.829271e-01   1.007306e-02
  3.940138e+00    4.972198e-01   1.025059e-02
  3.942349e+00    4.798107e-01   1.009931e-02
  3.944559e+00    4.788743e-01   1.011912e-02
  3.946770e+00    5.008719e-01   1.037944e-02
  3.948980e+00    5.037832e-01   1.044099e-02
  3.951191e+00    4.898793e-01   1.032674e-02
  3.953401e+00    4.897299e-01   1.035667e-02
  3.955612e+00    5.182496e-01   1.068661e-02
  3.957822e+00    4.973598e-01   1.050111e-02
  3.960033e+00    4.854268e-01   1.040699e-02
  3.962243e+00    4.788370e-01   1.036867e-02
  3.964453e+00    4.738249e-01   1.034695e-02
  3.966664e+00    4.914461e-01   1.057122e-02
  3.968874e+00    4.906410e-01   1.059110e-02
  3.971085e+00    5.095992e-01   1.081620e-02
  3.973295e+00    4.842931e-01   1.056572e-02
  3.975506e+00    5.065201e-01   1.082748e-02
  3.977716e+00    5.035842e-01   1.081852e-02
  3.979927e+00    4.748571e-01   1.052730e-02
  3.982137e+00    4.860528e-01   1.067286e-02
  3.984348e+00    4.971120e-01   1.081658e-02
  3.986558e+00    5.044280e-01   1.091854e-02
  3.988768e+00    5.280440e-01   1.119529e-02
  3.990979e+00    4.942262e-01   1.085386e-02
  3.993189e+00    4.800344e-01   1.071975e-02
  3.995400e+00    4.616461e-01   1.053550e-02
  3.997610e+00    4.793597e-01   1.076519e-02
  3.999821e+00    5.013170e-01   1.104725e-02
  4.002031e+00    5.333754e-01   1.143520e-02
  4.004242e+00    5.010688e-01   1.112275e-02
  4.006452e+00    4.921580e-01   1.106300e-02
  4.008663e+00    4.764564e-01   1.092477e-02
  4.010873e+00    4.775571e-01   1.097704e-02
  4.013084e+00    4.756747e-01   1.099597e-02
  4.015294e+00    4.720623e-01   1.099452e-02
  4.017504e+00    4.870808e-01   1.121013e-02
  4.019715e+00    4.833936e-01   1.120995e-02
  4.021925e+00    4.781477e-01   1.119180e-02
  4.024136e+00    4.940901e-01   1.142092e-02
  4.026346e+00    5.121100e-01   1.167273e-02
  4.028557e+00    4.847776e-01   1.140140e-02
  4.030767e+00    4.988569e-01   1.161202e-02
  4.032978e+00    4.852021e-01   1.149840e-02
  4.035188e+00    4.799140e-01   1.148159e-02
  4.037399e+00    4.941689e-01   1.169897e-02
  4.039609e+00    4.730412e-01   1.149340e-02
  4.041819e+00    4.206908e-01   1.088413e-02
  4.044030e+00    4.848307e-01   1.173449e-02
  4.046240e+00    4.991120e-01   1.195674e-02
  4.048451e+00    4.772627e-01   1.174284e-02
  4.050661e+00    4.900872e-01   1.195119e-02
  4.052872e+00    4.846145e-01   1.193725e-02
  4.055082e+00    4.775950e-01   1.190369e-02
  4.057293e+00    4.994229e-01   1.222726e-02
  4.059503e+00    5.072673e-01   1.237909e-02
  4.061714e+00    4.917523e-01   1.224523e-02
  4.063924e+00    4.954457e-01   1.234876e-02
  4.066134e+00    4.932131e-01   1.237895e-02
  4.068345e+00    4.764934e-01   1.222593e-02
  4.070555e+00    4.795552e-01   1.232425e-02
  4.072766e+00    4.946711e-01   1.257871e-02
  4.074976e+00    4.858341e-01   1.252782e-02
  4.077187e+00    5.382557e-01   1.325212e-02
  4.079397e+00    5.084790e-01   1.294611e-02
  4.081608e+00    4.822923e-01   1.267392e-02
  4.083818e+00    4.854402e-01   1.278131e-02
  4.086029e+00    4.804436e-01   1.278241e-02
  4.088239e+00    4.731747e-01   1.275370e-02
  4.090449e+00    4.834669e-01   1.296138e-02
  4.092660e+00    5.170836e-01   1.347836e-02
  4.094870e+00    4.812819e-01   1.307570e-02
  4.097081e+00    4.950739e-01   1.333437e-02
  4.099291e+00    4.584855e-01   1.288513e-02
  4.101502e+00    4.870627e-01   1.333046e-02
  4.103712e+00    5.121756e-01   1.372033e-02
  4.105923e+00    5.433552e-01   1.418682e-02
  4.108133e+00    4.605765e-01   1.311193e-02
  4.110344e+00    4.691928e-01   1.328443e-02
  4.112554e+00    4.636139e-01   1.325740e-02
  4.114764e+00    4.775863e-01   1.350987e-02
  4.116975e+00    4.488144e-01   1.314821e-02
  4.119185e+00    4.761659e-01   1.359784e-02
  4.121396e+00    5.021944e-01   1.402218e-02
  4.123606e+00    5.239391e-01   1.438141e-02
  4.125817e+00    4.763219e-01   1.376989e-02
  4.128027e+00    5.107937e-01   1.431927e-02
  4.130238e+00    4.989477e-01   1.421306e-02
  4.132448e+00    4.948206e-01   1.421557e-02
  4.134659e+00    4.921577e-01   1.423822e-02
  4.136869e+00    4.866262e-01   1.422122e-02
  4.139080e+00    5.036106e-01   1.453237e-02
  4.141290e+00    5.063352e-01   1.463630e-02
  4.143500e+00    4.881326e-01   1.443689e-02
  4.145711e+00    5.033045e-01   1.472825e-02
  4.147921e+00    4.272185e-01   1.363160e-02
  4.150132e+00    5.221627e-01   1.514210e-02
  4.152342e+00    5.024211e-01   1.492524e-02
  4.154553e+00    5.005912e-01   1.496893e-02
  4.156763e+00    5.186474e-01   1.531180e-02
  4.158974e+00    4.961436e-01   1.505126e-02
  4.161184e+00    4.708399e-01   1.473521e-02
  4.163395e+00    4.686943e-01   1.477645e-02
  4.165605e+00    4.566569e-01   1.466158e-02
  4.167815e+00    4.663009e-01   1.489273e-02
  4.170026e+00    4.894188e-01   1.533774e-02
  4.172236e+00    5.271550e-01   1.600426e-02
  4.174447e+00    4.055343e-01   1.411378e-02
  4.176657e+00    4.143912e-01   1.434457e-02
  4.178868e+00    4.964761e-01   1.579021e-02
  4.181078e+00    4.877861e-01   1.573984e-02
  4.183289e+00    4.698249e-01   1.553546e-02
  4.185499e+00    5.479453e-01   1.687633e-02
  4.187710e+00    5.143458e-01   1.644679e-02
  4.189920e+00    4.977821e-01   1.627706e-02
  4.192130e+00    4.895031e-01   1.623987e-02
  4.194341e+00    4.552486e-01   1.575736e-02
  4.196551e+00    4.688531e-01   1.609228e-02
  4.198762e+00    4.725863e-01   1.625894e-02
  4.200972e+00    4.775254e-01   1.644941e-02
  4.203183e+00    4.655400e-01   1.634867e-02
  4.205393e+00    4.631492e-01   1.641508e-02
  4.207604e+00    4.986740e-01   1.714925e-02
  4.209814e+00    5.214705e-01   1.765732e-02
  4.212025e+00    4.933300e-01   1.729562e-02
  4.214235e+00    5.314904e-01   1.807972e-02
  4.216445e+00    4.607059e-01   1.695449e-02
  4.218656e+00    4.462383e-01   1.681102e-02
  4.220866e+00    5.008307e-01   1.794156e-02
  4.223077e+00    5.503595e-01   1.895267e-02
  4.225287e+00    4.785896e-01   1.781264e-02
  4.227498e+00    4.933028e-01   1.822621e-02
  4.229708e+00    4.900271e-01   1.831318e-02
  4.231919e+00    5.220286e-01   1.905839e-02
  4.234129e+00    4.645710e-01   1.812989e-02
  4.236340e+00    4.568782e-01   1.813243e-02
  4.238550e+00    4.433360e-01   1.801999e-02
  4.240761e+00    4.364721e-01   1.803738e-02
  4.242971e+00    4.942216e-01   1.936963e-02
  4.245181e+00    4.661668e-01   1.898863e-02
  4.247392e+00    5.213784e-01   2.026897e-02
  4.249602e+00    4.630457e-01   1.929160e-02
  4.251813e+00    4.561174e-01   1.933519e-02
  4.254023e+00    4.833010e-01   2.010376e-02
  4.256234e+00    4.720954e-01   2.008137e-02
  4.258444e+00    4.509658e-01   1.983261e-02
  4.260655e+00    4.382854e-01   1.976670e-02
  4.262865e+00    4.348919e-01   1.991311e-02
  4.265076e+00    3.748981e-01   1.869918e-02
  4.267286e+00    4.563797e-01   2.087568e-02
  4.269496e+00    4.368782e-01   2.067421e-02
  4.271707e+00    4.370993e-01   2.093498e-02
  4.273917e+00    4.160028e-01   2.068749e-02
  4.276128e+00    4.845635e-01   2.262374e-02
  4.278338e+00    5.219197e-01   2.379320e-02
  4.280549e+00    4.034719e-01   2.122024e-02
  4.282759e+00    4.228781e-01   2.203597e-02
  4.284970e+00    5.006616e-01   2.433278e-02
  4.287180e+00    4.459850e-01   2.324075e-02
  4.289391e+00    5.151953e-01   2.516640e-02
  4.291601e+00    4.890960e-01   2.471649e-02
  4.293811e+00    4.641266e-01   2.426547e-02
  4.296022e+00    4.864132e-01   2.504172e-02
  4.298232e+00    4.316931e-01   2.378782e-02
  4.300443e+00    4.182400e-01   2.360799e-02
  4.302653e+00    4.255975e-01   2.402051e-02
  4.304864e+00    4.653971e-01   2.533594e-02
  4.307074e+00    4.534031e-01   2.523249e-02
  4.309285e+00    4.565452e-01   2.554957e-02
  4.311495e+00    4.794437e-01   2.642683e-02
  4.313706e+00    5.058047e-01   2.739931e-02
  4.315916e+00    4.350678e-01   2.566148e-02
  4.318126e+00    4.382410e-01   2.600951e-02
  4.320337e+00    4.529442e-01   2.670936e-02
  4.322547e+00    5.365120e-01   2.937775e-02
  4.324758e+00    5.667248e-01   3.050783e-02
  4.326968e+00    4.863600e-01   2.858039e-02
  4.329179e+00    4.991655e-01   2.927224e-02
  4.331389e+00    4.323836e-01   2.755926e-02
  4.333600e+00    4.844647e-01   2.951891e-02
  4.335810e+00    3.747157e-01   2.627060e-02
  4.338021e+00    5.455289e-01   3.210277e-02
  4.340231e+00    5.596750e-01   3.292394e-02
  4.342442e+00    6.163857e-01   3.501638e-02
  4.344652e+00    5.235878e-01   3.271104e-02
  4.346862e+00    3.867165e-01   2.850673e-02
  4.349073e+00    3.600996e-01   2.790719e-02
  4.351283e+00    4.934995e-01   3.315811e-02
  4.353494e+00    4.109223e-01   3.072493e-02
  4.355704e+00    4.027521e-01   3.090779e-02
  4.357915e+00    4.540224e-01   3.336143e-02
  4.360125e+00    4.718202e-01   3.459156e-02
  4.362336e+00    5.337471e-01   3.746033e-02
  4.364546e+00    4.585606e-01   3.535495e-02
  4.366757e+00    4.662907e-01   3.635991e-02
  4.368967e+00    4.245145e-01   3.538538e-02
  4.371177e+00    5.558242e-01   4.135140e-02
  4.373388e+00    3.688537e-01   3.443833e-02
  4.375598e+00    3.631317e-01   3.494968e-02
  4.377809e+00    3.418335e-01   3.476756e-02
  4.380019e+00    5.241154e-01   4.413243e-02
  4.382230e+00    4.704242e-01   4.297919e-02
  4.384440e+00    3.879140e-01   4.015229e-02
  4.386651e+00    5.712999e-01   5.022688e-02
  4.388861e+00    4.874631e-01   4.795584e-02
  4.391072e+00    4.293260e-01   4.658327e-02
  4.393282e+00    5.178422e-01   5.314011e-02
  4.395492e+00    4.519133e-01   5.170853e-02
  4.397703e+00    2.791353e-01   4.249007e-02
  4.399913e+00    5.228661e-01   6.110312e-02
  4.402124e+00    1.689533e-01   3.669808e-02
  4.404334e+00    4.640973e-01   6.466137e-02
  4.406545e+00    3.563970e-01   6.087981e-02
  4.408755e+00    2.740193e-01   5.789576e-02
  4.410966e+00    2.901266e-01   6.592983e-02
  4.413176e+00    4.042426e-01   8.809467e-02
  4.415387e+00   -7.205085e-01            nan
  4.417597e+00   -2.029266e+00            nan
  4.419807e+00    2.807437e-01   1.902519e-01
