# == pyFAI calibration ==
# Distance Sample to Detector: 0.216 m
# PONI: 1.166e-01, 1.308e-01 m
# Rotations: 0.000000 0.000000 0.000000 rad
# 
# == Fit2d calibration ==
# Distance Sample-beamCenter: 216.000 mm
# Center: x=1744.293, y=1555.000 pix
# Tilt: 0.000 deg  TiltPlanRot: 0.000 deg
# 
# Detector Eiger 9M	 PixelSize= 7.500e-05, 7.500e-05 m
#    Detector has a mask: True 
#    Detector has a dark current: False 
#    detector has a flat field: False 
# 
# Wavelength: 9.8e-11 m
# Mask applied: from detector
# Dark current applied: False
# Flat field applied: False
# Polarization factor: None
# Normalization factor: 1.0
# 
# Headers of the input frame:
# {
# "_array_data.header_convention": "SLS_1.0",
# "_array_data.header_contents": "# Detector: Dectris Eiger 9M, S/N E-18-0102\r\n# Pixel_size 75e-6 m x 75e-6 m\r\n# Silicon sensor, thickness 0.000450 m\r\n# Exposure_time 0.024997 s\r\n# Exposure_period 0.025000 s\r\n# Count_cutoff 62318 counts\r\n# Wavelength 0.980106 A\r\n# Detector_distance 0.215992 m\r\n# Beam_xy (1555, 1744) pixels\r\n# Start_angle 0.000000 deg.\r\n# Angle_increment 0.000000 deg.",
# "Content-Type": "application/octet-stream;",
# "conversions": "x-CBF_BYTE_OFFSET",
# "Content-Transfer-Encoding": "BINARY",
# "X-Binary-Size": "10166594",
# "X-Binary-ID": "1",
# "X-Binary-Element-Type": "signed 32-bit integer",
# "X-Binary-Element-Byte-Order": "LITTLE_ENDIAN",
# "Content-MD5": "7ip7bn1yLCQZzKyaISA1Dw==",
# "X-Binary-Number-of-Elements": "10166590",
# "X-Binary-Size-Fastest-Dimension": "3110",
# "X-Binary-Size-Second-Dimension": "3269",
# "X-Binary-Size-Padding": "4095"
# }
# --> H:/Proxima2a_2019-04-05/RAW_DATA/C5_gel17_position5/C5_mesh_1_data.cbf/C5_mesh_1_data.cbf000128.dat
#        q_A^-1              I           sigma 
  1.105228e-03    2.272192e+00   8.156605e-01
  3.315685e-03    2.234251e+00   4.917127e-01
  5.526141e-03    1.604211e+00   3.221832e-01
  7.736597e-03    1.415232e+00   2.556430e-01
  9.947054e-03    1.416404e+00   2.254604e-01
  1.215751e-02    1.213926e+00   1.887404e-01
  1.436797e-02    1.279753e+00   1.782538e-01
  1.657842e-02    1.134678e+00   1.562359e-01
  1.878888e-02    1.374425e+00   1.615191e-01
  2.099934e-02    1.353141e+00   1.516260e-01
  2.320979e-02    1.262876e+00   1.393199e-01
  2.542025e-02    1.301023e+00   1.351300e-01
  2.763070e-02    1.397963e+00   1.343502e-01
  2.984116e-02    1.483889e+00   1.331917e-01
  3.205162e-02    1.348339e+00   1.225140e-01
  3.426207e-02    1.524060e+00   1.259725e-01
  3.647253e-02    1.497503e+00   1.210246e-01
  3.868299e-02    1.323050e+00   1.104673e-01
  4.089344e-02    1.417545e+00   1.112113e-01
  4.310390e-02    1.383272e+00   1.069985e-01
  4.531436e-02    1.332819e+00   1.024357e-01
  4.752481e-02    1.331082e+00   9.995887e-02
  4.973527e-02    1.422676e+00   1.010194e-01
  5.194572e-02    1.573196e+00   1.039428e-01
  5.415618e-02    1.542065e+00   1.007837e-01
  5.636664e-02    1.470888e+00   9.648392e-02
  5.857709e-02    1.449660e+00   9.396101e-02
  6.078755e-02    1.449618e+00   9.223254e-02
  6.299801e-02    1.445195e+00   9.046064e-02
  6.520846e-02    1.441084e+00   8.878823e-02
  6.741892e-02    1.533305e+00   9.006666e-02
  6.962938e-02    1.397046e+00   8.460028e-02
  7.183983e-02    1.497616e+00   8.623276e-02
  7.405029e-02    1.532335e+00   8.591285e-02
  7.626074e-02    1.480096e+00   8.320231e-02
  7.847120e-02    1.450856e+00   8.120564e-02
  8.068166e-02    1.509392e+00   8.168445e-02
  8.289211e-02    1.388253e+00   7.728604e-02
  8.510257e-02    1.380597e+00   7.606465e-02
  8.731303e-02    1.391359e+00   7.538489e-02
  8.952348e-02    1.418957e+00   7.518516e-02
  9.173394e-02    1.415053e+00   7.416861e-02
  9.394439e-02    1.503550e+00   7.554544e-02
  9.615485e-02    1.579597e+00   7.653549e-02
  9.836531e-02    1.511797e+00   7.402684e-02
  1.005758e-01    1.480685e+00   7.245206e-02
  1.027862e-01    1.509808e+00   7.236835e-02
  1.049967e-01    1.524814e+00   7.195622e-02
  1.072071e-01    1.491892e+00   7.043678e-02
  1.094176e-01    1.576419e+00   7.166849e-02
  1.116280e-01    1.577203e+00   7.097143e-02
  1.138385e-01    1.512826e+00   6.882841e-02
  1.160490e-01    1.583214e+00   6.973675e-02
  1.182594e-01    1.585517e+00   6.913068e-02
  1.204699e-01    1.634869e+00   6.955080e-02
  1.226803e-01    1.572126e+00   6.758309e-02
  1.248908e-01    1.604163e+00   6.766058e-02
  1.271012e-01    1.581936e+00   6.660207e-02
  1.293117e-01    1.621797e+00   6.685626e-02
  1.315222e-01    1.580865e+00   6.544863e-02
  1.337326e-01    1.611277e+00   6.552556e-02
  1.359431e-01    1.499377e+00   6.324632e-02
  1.381535e-01    1.473445e+00   6.353857e-02
  1.403640e-01    1.474592e+00   6.383776e-02
  1.425744e-01    1.554316e+00   6.564543e-02
  1.447849e-01    1.629595e+00   6.723180e-02
  1.469953e-01    1.560371e+00   6.574713e-02
  1.492058e-01    1.505833e+00   6.451286e-02
  1.514163e-01    1.437181e+00   6.292046e-02
  1.536267e-01    1.560648e+00   6.543946e-02
  1.558372e-01    1.603606e+00   6.618757e-02
  1.580476e-01    1.675835e+00   6.749754e-02
  1.602581e-01    1.656577e+00   6.693816e-02
  1.624685e-01    1.643950e+00   6.650000e-02
  1.646790e-01    1.616901e+00   6.576128e-02
  1.668895e-01    1.625180e+00   6.573900e-02
  1.690999e-01    1.759411e+00   6.819457e-02
  1.713104e-01    1.770085e+00   6.818887e-02
  1.735208e-01    1.737387e+00   6.734604e-02
  1.757313e-01    1.827903e+00   6.886160e-02
  1.779417e-01    1.904018e+00   7.005149e-02
  1.801522e-01    1.926690e+00   7.024289e-02
  1.823626e-01    1.931266e+00   7.009214e-02
  1.845731e-01    1.931096e+00   6.986202e-02
  1.867836e-01    1.927941e+00   6.956935e-02
  1.889940e-01    1.952060e+00   6.977440e-02
  1.912045e-01    1.955410e+00   6.960105e-02
  1.934149e-01    1.926498e+00   6.885337e-02
  1.956254e-01    1.933671e+00   6.875390e-02
  1.978358e-01    2.029520e+00   7.019594e-02
  2.000463e-01    2.077280e+00   7.078175e-02
  2.022568e-01    2.060252e+00   7.025968e-02
  2.044672e-01    2.060500e+00   7.002319e-02
  2.066777e-01    2.028511e+00   6.924693e-02
  2.088881e-01    1.963786e+00   6.791029e-02
  2.110986e-01    1.939185e+00   6.725216e-02
  2.133090e-01    1.997842e+00   6.803980e-02
  2.155195e-01    1.959006e+00   6.715178e-02
  2.177300e-01    1.874294e+00   6.516779e-02
  2.199404e-01    1.917260e+00   6.417380e-02
  2.221509e-01    1.974858e+00   6.406112e-02
  2.243613e-01    1.995381e+00   6.357682e-02
  2.265718e-01    1.939631e+00   6.199148e-02
  2.287822e-01    2.005800e+00   6.241602e-02
  2.309927e-01    2.124482e+00   6.365088e-02
  2.332031e-01    2.169669e+00   6.377370e-02
  2.354136e-01    2.212718e+00   6.388129e-02
  2.376241e-01    2.144719e+00   6.240391e-02
  2.398345e-01    2.253711e+00   6.349646e-02
  2.420450e-01    2.126759e+00   6.124134e-02
  2.442554e-01    2.132838e+00   6.090631e-02
  2.464659e-01    2.140546e+00   6.060660e-02
  2.486763e-01    2.211259e+00   6.119462e-02
  2.508868e-01    2.180606e+00   6.038566e-02
  2.530973e-01    2.121392e+00   5.919088e-02
  2.553077e-01    2.104332e+00   5.859478e-02
  2.575182e-01    2.104030e+00   5.824395e-02
  2.597286e-01    2.036613e+00   5.697011e-02
  2.619391e-01    2.020440e+00   5.641678e-02
  2.641495e-01    2.015630e+00   5.603768e-02
  2.663600e-01    2.078559e+00   5.659281e-02
  2.685704e-01    2.010833e+00   5.536146e-02
  2.707809e-01    1.998060e+00   5.489241e-02
  2.729914e-01    1.995130e+00   5.456630e-02
  2.752018e-01    2.017034e+00   5.457946e-02
  2.774123e-01    1.993840e+00   5.398756e-02
  2.796227e-01    2.029448e+00   5.419807e-02
  2.818332e-01    2.038444e+00   5.404709e-02
  2.840436e-01    2.084242e+00   5.438595e-02
  2.862541e-01    1.996073e+00   5.296737e-02
  2.884646e-01    1.938393e+00   5.194872e-02
  2.906750e-01    1.944710e+00   5.178659e-02
  2.928855e-01    1.883603e+00   5.073031e-02
  2.950959e-01    2.020827e+00   5.230435e-02
  2.973064e-01    1.990074e+00   5.167158e-02
  2.995168e-01    1.918021e+00   5.049777e-02
  3.017273e-01    1.940997e+00   5.057537e-02
  3.039377e-01    1.988716e+00   5.096911e-02
  3.061482e-01    2.043072e+00   5.143750e-02
  3.083587e-01    1.990653e+00   5.055359e-02
  3.105691e-01    1.857490e+00   4.862487e-02
  3.127796e-01    1.873499e+00   4.862864e-02
  3.149900e-01    1.922395e+00   4.905389e-02
  3.172005e-01    1.884681e+00   4.837172e-02
  3.194109e-01    1.905249e+00   4.843417e-02
  3.216214e-01    1.937614e+00   4.864454e-02
  3.238319e-01    1.830494e+00   4.709345e-02
  3.260423e-01    1.839948e+00   4.702682e-02
  3.282528e-01    1.867322e+00   4.718676e-02
  3.304632e-01    1.888147e+00   4.726534e-02
  3.326737e-01    1.856835e+00   4.668890e-02
  3.348841e-01    1.849462e+00   4.641543e-02
  3.370946e-01    1.840140e+00   4.612412e-02
  3.393050e-01    1.775115e+00   4.513025e-02
  3.415155e-01    1.843196e+00   4.581460e-02
  3.437260e-01    1.906360e+00   4.642034e-02
  3.459364e-01    1.810467e+00   4.507042e-02
  3.481469e-01    1.849836e+00   4.539150e-02
  3.503573e-01    1.854063e+00   4.527781e-02
  3.525678e-01    1.824234e+00   4.475205e-02
  3.547782e-01    1.812303e+00   4.444425e-02
  3.569887e-01    1.749698e+00   4.351511e-02
  3.591992e-01    1.773051e+00   4.364955e-02
  3.614096e-01    1.824416e+00   4.412377e-02
  3.636201e-01    1.787146e+00   4.351730e-02
  3.658305e-01    1.772604e+00   4.319204e-02
  3.680410e-01    1.808514e+00   4.347730e-02
  3.702514e-01    1.821687e+00   4.348859e-02
  3.724619e-01    1.863634e+00   4.383668e-02
  3.746724e-01    1.779819e+00   4.269665e-02
  3.768828e-01    1.838391e+00   4.324748e-02
  3.790933e-01    1.784522e+00   4.247032e-02
  3.813037e-01    1.771075e+00   4.217155e-02
  3.835142e-01    1.778098e+00   4.211631e-02
  3.857246e-01    1.763118e+00   4.180280e-02
  3.879351e-01    1.751618e+00   4.153138e-02
  3.901455e-01    1.771450e+00   4.163286e-02
  3.923560e-01    1.797132e+00   4.180030e-02
  3.945665e-01    1.811398e+00   4.183278e-02
  3.967769e-01    1.855453e+00   4.220585e-02
  3.989874e-01    1.766108e+00   4.104861e-02
  4.011978e-01    1.748719e+00   4.072037e-02
  4.034083e-01    1.827148e+00   4.149574e-02
  4.056187e-01    1.759129e+00   4.059061e-02
  4.078292e-01    1.770158e+00   4.059442e-02
  4.100397e-01    1.753357e+00   4.027798e-02
  4.122501e-01    1.745277e+00   4.006482e-02
  4.144606e-01    1.807808e+00   4.065533e-02
  4.166710e-01    1.798122e+00   4.042572e-02
  4.188815e-01    1.774497e+00   4.004063e-02
  4.210919e-01    1.771758e+00   3.989247e-02
  4.233024e-01    1.796874e+00   4.005606e-02
  4.255128e-01    1.793472e+00   3.990244e-02
  4.277233e-01    1.811029e+00   3.998205e-02
  4.299338e-01    1.787395e+00   3.960606e-02
  4.321442e-01    1.765059e+00   3.924517e-02
  4.343547e-01    1.757502e+00   3.905034e-02
  4.365651e-01    1.752541e+00   3.888438e-02
  4.387756e-01    1.756951e+00   3.882427e-02
  4.409860e-01    1.774363e+00   3.890808e-02
  4.431965e-01    1.765304e+00   3.870132e-02
  4.454070e-01    1.766317e+00   3.860471e-02
  4.476174e-01    1.807638e+00   3.894643e-02
  4.498279e-01    1.746091e+00   3.817352e-02
  4.520383e-01    1.741042e+00   3.801368e-02
  4.542488e-01    1.750744e+00   3.801665e-02
  4.564592e-01    1.749102e+00   3.789689e-02
  4.586697e-01    1.744482e+00   3.774636e-02
  4.608801e-01    1.733443e+00   3.752594e-02
  4.630906e-01    1.729813e+00   3.738738e-02
  4.653011e-01    1.777380e+00   3.779827e-02
  4.675115e-01    1.748617e+00   3.739244e-02
  4.697220e-01    1.738422e+00   3.718569e-02
  4.719324e-01    1.748185e+00   3.719347e-02
  4.741429e-01    1.741204e+00   3.702350e-02
  4.763533e-01    1.744089e+00   3.695917e-02
  4.785638e-01    1.700183e+00   3.639675e-02
  4.807743e-01    1.688848e+00   3.618294e-02
  4.829847e-01    1.674337e+00   3.593617e-02
  4.851952e-01    1.662789e+00   3.572138e-02
  4.874056e-01    1.691003e+00   3.593235e-02
  4.896161e-01    1.685358e+00   3.578335e-02
  4.918265e-01    1.706746e+00   3.592027e-02
  4.940370e-01    1.685155e+00   3.560422e-02
  4.962475e-01    1.668417e+00   3.533948e-02
  4.984579e-01    1.652900e+00   3.508807e-02
  5.006684e-01    1.660135e+00   3.507902e-02
  5.028788e-01    1.668285e+00   3.507985e-02
  5.050893e-01    1.659064e+00   3.489765e-02
  5.072997e-01    1.688903e+00   3.512505e-02
  5.095102e-01    1.679692e+00   3.494526e-02
  5.117206e-01    1.632491e+00   3.436882e-02
  5.139311e-01    1.701258e+00   3.500220e-02
  5.161416e-01    1.657297e+00   3.446537e-02
  5.183520e-01    1.646281e+00   3.426899e-02
  5.205625e-01    1.648691e+00   3.421374e-02
  5.227729e-01    1.656183e+00   3.421138e-02
  5.249834e-01    1.706824e+00   3.464988e-02
  5.271938e-01    1.679746e+00   3.429373e-02
  5.294043e-01    1.669030e+00   3.410527e-02
  5.316148e-01    1.695127e+00   3.429214e-02
  5.338252e-01    1.772219e+00   3.498311e-02
  5.360357e-01    1.783011e+00   3.500960e-02
  5.382461e-01    1.755816e+00   3.466305e-02
  5.404566e-01    1.753889e+00   3.456517e-02
  5.426670e-01    1.786949e+00   3.481083e-02
  5.448775e-01    1.740020e+00   3.427393e-02
  5.470879e-01    1.753425e+00   3.432897e-02
  5.492984e-01    1.787507e+00   3.458392e-02
  5.515089e-01    1.767743e+00   3.431592e-02
  5.537193e-01    1.785301e+00   3.440996e-02
  5.559298e-01    1.751280e+00   3.400576e-02
  5.581402e-01    1.757969e+00   3.399619e-02
  5.603507e-01    1.784996e+00   3.418197e-02
  5.625611e-01    1.791894e+00   3.417364e-02
  5.647716e-01    1.803177e+00   3.420662e-02
  5.669821e-01    1.813383e+00   3.422933e-02
  5.691925e-01    1.806646e+00   3.409237e-02
  5.714030e-01    1.769038e+00   3.366373e-02
  5.736134e-01    1.711304e+00   3.303944e-02
  5.758239e-01    1.709145e+00   3.294809e-02
  5.780343e-01    1.692029e+00   3.271337e-02
  5.802448e-01    1.700468e+00   3.272618e-02
  5.824552e-01    1.680449e+00   3.246474e-02
  5.846657e-01    1.601297e+00   3.162487e-02
  5.868762e-01    1.617463e+00   3.171792e-02
  5.890866e-01    1.656099e+00   3.202792e-02
  5.912971e-01    1.655164e+00   3.195259e-02
  5.935075e-01    1.657613e+00   3.191015e-02
  5.957180e-01    1.655914e+00   3.182834e-02
  5.979284e-01    1.605187e+00   3.127308e-02
  6.001389e-01    1.612660e+00   3.128195e-02
  6.023494e-01    1.637550e+00   3.145842e-02
  6.045598e-01    1.646607e+00   3.148108e-02
  6.067703e-01    1.632369e+00   3.128164e-02
  6.089807e-01    1.696432e+00   3.182544e-02
  6.111912e-01    1.732731e+00   3.209991e-02
  6.134016e-01    1.709387e+00   3.181936e-02
  6.156121e-01    1.684329e+00   3.152250e-02
  6.178226e-01    1.658987e+00   3.122251e-02
  6.200330e-01    1.708077e+00   3.161860e-02
  6.222435e-01    1.715012e+00   3.161996e-02
  6.244539e-01    1.737750e+00   3.176655e-02
  6.266644e-01    1.742460e+00   3.174753e-02
  6.288748e-01    1.685191e+00   3.116069e-02
  6.310853e-01    1.708624e+00   3.131566e-02
  6.332957e-01    1.716750e+00   3.132942e-02
  6.355062e-01    1.708286e+00   3.119141e-02
  6.377167e-01    1.684034e+00   3.090978e-02
  6.399271e-01    1.699942e+00   3.099591e-02
  6.421376e-01    1.722308e+00   3.113961e-02
  6.443480e-01    1.733030e+00   3.117697e-02
  6.465585e-01    1.671979e+00   3.056489e-02
  6.487689e-01    1.657348e+00   3.037339e-02
  6.509794e-01    1.674684e+00   3.047425e-02
  6.531899e-01    1.647090e+00   3.016532e-02
  6.554003e-01    1.592633e+00   2.960669e-02
  6.576108e-01    1.594560e+00   2.956942e-02
  6.598212e-01    1.592564e+00   2.949602e-02
  6.620317e-01    1.582492e+00   2.934808e-02
  6.642421e-01    1.640329e+00   2.982429e-02
  6.664526e-01    1.593790e+00   2.934401e-02
  6.686630e-01    1.599698e+00   2.934399e-02
  6.708735e-01    1.630962e+00   2.957499e-02
  6.730840e-01    1.640978e+00   2.961158e-02
  6.752944e-01    1.610151e+00   2.927880e-02
  6.775049e-01    1.575599e+00   2.891034e-02
  6.797153e-01    1.605896e+00   2.913415e-02
  6.819258e-01    1.609247e+00   2.911191e-02
  6.841362e-01    1.604889e+00   2.902020e-02
  6.863467e-01    1.557961e+00   2.854154e-02
  6.885572e-01    1.601008e+00   2.888131e-02
  6.907676e-01    1.628819e+00   2.907890e-02
  6.929781e-01    1.573878e+00   2.853346e-02
  6.951885e-01    1.577346e+00   2.851427e-02
  6.973990e-01    1.640465e+00   2.902778e-02
  6.996094e-01    1.603234e+00   2.864601e-02
  7.018199e-01    1.574564e+00   2.833890e-02
  7.040303e-01    1.595374e+00   2.847543e-02
  7.062408e-01    1.622573e+00   2.866685e-02
  7.084513e-01    1.572461e+00   2.817162e-02
  7.106617e-01    1.544170e+00   2.786852e-02
  7.128722e-01    1.553501e+00   2.790424e-02
  7.150826e-01    1.559244e+00   2.790758e-02
  7.172931e-01    1.584442e+00   2.808368e-02
  7.195035e-01    1.572571e+00   2.793019e-02
  7.217140e-01    1.565944e+00   2.792059e-02
  7.239245e-01    1.558633e+00   2.808090e-02
  7.261349e-01    1.599655e+00   2.855750e-02
  7.283454e-01    1.549071e+00   2.817420e-02
  7.305558e-01    1.559877e+00   2.832599e-02
  7.327663e-01    1.592904e+00   2.866706e-02
  7.349767e-01    1.572268e+00   2.849714e-02
  7.371872e-01    1.559893e+00   2.837362e-02
  7.393976e-01    1.560184e+00   2.836208e-02
  7.416081e-01    1.560910e+00   2.835258e-02
  7.438186e-01    1.550687e+00   2.811636e-02
  7.460290e-01    1.546507e+00   2.778684e-02
  7.482395e-01    1.543240e+00   2.758801e-02
  7.504499e-01    1.591685e+00   2.788068e-02
  7.526604e-01    1.587702e+00   2.772874e-02
  7.548708e-01    1.578394e+00   2.755783e-02
  7.570813e-01    1.566874e+00   2.740622e-02
  7.592918e-01    1.591931e+00   2.758913e-02
  7.615022e-01    1.544241e+00   2.713927e-02
  7.637127e-01    1.538188e+00   2.705361e-02
  7.659231e-01    1.565865e+00   2.726402e-02
  7.681336e-01    1.568536e+00   2.725571e-02
  7.703440e-01    1.572206e+00   2.725639e-02
  7.725545e-01    1.566218e+00   2.717361e-02
  7.747650e-01    1.678675e+00   2.809283e-02
  7.769754e-01    1.605806e+00   2.742315e-02
  7.791859e-01    1.596117e+00   2.728644e-02
  7.813963e-01    1.620585e+00   2.744149e-02
  7.836068e-01    1.627696e+00   2.744894e-02
  7.858172e-01    1.631669e+00   2.743105e-02
  7.880277e-01    1.600342e+00   2.711476e-02
  7.902381e-01    1.618004e+00   2.721442e-02
  7.924486e-01    1.639975e+00   2.734784e-02
  7.946591e-01    1.639077e+00   2.729146e-02
  7.968695e-01    1.611616e+00   2.701348e-02
  7.990800e-01    1.548346e+00   2.643059e-02
  8.012904e-01    1.546674e+00   2.637060e-02
  8.035009e-01    1.605432e+00   2.681903e-02
  8.057113e-01    1.602262e+00   2.674623e-02
  8.079218e-01    1.612093e+00   2.678184e-02
  8.101323e-01    1.622342e+00   2.682125e-02
  8.123427e-01    1.602574e+00   2.661188e-02
  8.145532e-01    1.624144e+00   2.674453e-02
  8.167636e-01    1.629273e+00   2.674169e-02
  8.189741e-01    1.654218e+00   2.690069e-02
  8.211845e-01    1.641176e+00   2.674954e-02
  8.233950e-01    1.623731e+00   2.656374e-02
  8.256054e-01    1.615098e+00   2.644911e-02
  8.278159e-01    1.651519e+00   2.670151e-02
  8.300264e-01    1.647645e+00   2.662698e-02
  8.322368e-01    1.646979e+00   2.657834e-02
  8.344473e-01    1.661327e+00   2.665023e-02
  8.366577e-01    1.611813e+00   2.620784e-02
  8.388682e-01    1.650861e+00   2.648099e-02
  8.410786e-01    1.653451e+00   2.645953e-02
  8.432891e-01    1.653101e+00   2.641469e-02
  8.454996e-01    1.632092e+00   2.620478e-02
  8.477100e-01    1.619579e+00   2.606270e-02
  8.499205e-01    1.607824e+00   2.592715e-02
  8.521309e-01    1.612653e+00   2.592558e-02
  8.543414e-01    1.589982e+00   2.570253e-02
  8.565518e-01    1.603788e+00   2.577369e-02
  8.587623e-01    1.624283e+00   2.589747e-02
  8.609727e-01    1.614415e+00   2.577864e-02
  8.631832e-01    1.608707e+00   2.569337e-02
  8.653937e-01    1.578443e+00   2.541142e-02
  8.676041e-01    1.575049e+00   2.534579e-02
  8.698146e-01    1.591264e+00   2.543697e-02
  8.720250e-01    1.597080e+00   2.544459e-02
  8.742355e-01    1.595638e+00   2.539437e-02
  8.764459e-01    1.597648e+00   2.537160e-02
  8.786564e-01    1.589324e+00   2.526771e-02
  8.808669e-01    1.588086e+00   2.521955e-02
  8.830773e-01    1.591030e+00   2.520493e-02
  8.852878e-01    1.602545e+00   2.525803e-02
  8.874982e-01    1.598062e+00   2.518610e-02
  8.897087e-01    1.565980e+00   2.489471e-02
  8.919191e-01    1.594124e+00   2.507976e-02
  8.941296e-01    1.597210e+00   2.506677e-02
  8.963401e-01    1.611092e+00   2.513891e-02
  8.985505e-01    1.592371e+00   2.495557e-02
  9.007610e-01    1.601090e+00   2.498702e-02
  9.029714e-01    1.604212e+00   2.497550e-02
  9.051819e-01    1.624465e+00   2.509514e-02
  9.073923e-01    1.625954e+00   2.506978e-02
  9.096028e-01    1.600375e+00   2.483689e-02
  9.118132e-01    1.637079e+00   2.508343e-02
  9.140237e-01    1.648124e+00   2.513076e-02
  9.162342e-01    1.599525e+00   2.472291e-02
  9.184446e-01    1.630719e+00   2.492670e-02
  9.206551e-01    1.622802e+00   2.483029e-02
  9.228655e-01    1.595293e+00   2.458375e-02
  9.250760e-01    1.565866e+00   2.432099e-02
  9.272864e-01    1.583625e+00   2.442446e-02
  9.294969e-01    1.616621e+00   2.464163e-02
  9.317074e-01    1.617323e+00   2.461216e-02
  9.339178e-01    1.629650e+00   2.467202e-02
  9.361283e-01    1.644566e+00   2.474814e-02
  9.383387e-01    1.629350e+00   2.459991e-02
  9.405492e-01    1.605126e+00   2.438223e-02
  9.427596e-01    1.685333e+00   2.494801e-02
  9.449701e-01    1.706095e+00   2.506713e-02
  9.471805e-01    1.678852e+00   2.483097e-02
  9.493910e-01    1.649493e+00   2.457910e-02
  9.516015e-01    1.707537e+00   2.497290e-02
  9.538119e-01    1.725376e+00   2.506861e-02
  9.560224e-01    1.751611e+00   2.522294e-02
  9.582328e-01    1.730334e+00   2.503565e-02
  9.604433e-01    1.772259e+00   2.530125e-02
  9.626537e-01    1.745991e+00   2.507928e-02
  9.648642e-01    1.780406e+00   2.529055e-02
  9.670747e-01    1.775137e+00   2.521828e-02
  9.692851e-01    1.808888e+00   2.542304e-02
  9.714956e-01    1.826716e+00   2.551201e-02
  9.737060e-01    1.808944e+00   2.535425e-02
  9.759165e-01    1.813913e+00   2.535325e-02
  9.781269e-01    1.831308e+00   2.544121e-02
  9.803374e-01    1.814160e+00   2.528679e-02
  9.825478e-01    1.841272e+00   2.544142e-02
  9.847583e-01    1.854963e+00   2.550116e-02
  9.869688e-01    1.828452e+00   2.528440e-02
  9.891792e-01    1.786694e+00   2.496079e-02
  9.913897e-01    1.794767e+00   2.498334e-02
  9.936001e-01    1.769552e+00   2.477477e-02
  9.958106e-01    1.717777e+00   2.437646e-02
  9.980210e-01    1.695700e+00   2.418786e-02
  1.000231e+00    1.663520e+00   2.408851e-02
  1.002442e+00    1.646494e+00   2.409224e-02
  1.004652e+00    1.610958e+00   2.389733e-02
  1.006863e+00    1.627403e+00   2.406880e-02
  1.009073e+00    1.623066e+00   2.407352e-02
  1.011284e+00    1.610829e+00   2.401466e-02
  1.013494e+00    1.633209e+00   2.420488e-02
  1.015705e+00    1.602876e+00   2.400172e-02
  1.017915e+00    1.643710e+00   2.432226e-02
  1.020126e+00    1.670006e+00   2.453262e-02
  1.022336e+00    1.624231e+00   2.420600e-02
  1.024547e+00    1.609077e+00   2.410424e-02
  1.026757e+00    1.599149e+00   2.403826e-02
  1.028967e+00    1.594655e+00   2.401228e-02
  1.031178e+00    1.564710e+00   2.379197e-02
  1.033388e+00    1.560126e+00   2.376219e-02
  1.035599e+00    1.562103e+00   2.378070e-02
  1.037809e+00    1.580521e+00   2.392380e-02
  1.040020e+00    1.567757e+00   2.382831e-02
  1.042230e+00    1.561495e+00   2.378262e-02
  1.044441e+00    1.571808e+00   2.386081e-02
  1.046651e+00    1.573002e+00   2.387005e-02
  1.048862e+00    1.560712e+00   2.377581e-02
  1.051072e+00    1.541746e+00   2.362853e-02
  1.053282e+00    1.529814e+00   2.353594e-02
  1.055493e+00    1.515732e+00   2.342304e-02
  1.057703e+00    1.498850e+00   2.329070e-02
  1.059914e+00    1.476688e+00   2.311364e-02
  1.062124e+00    1.487605e+00   2.319486e-02
  1.064335e+00    1.492386e+00   2.322865e-02
  1.066545e+00    1.498196e+00   2.326781e-02
  1.068756e+00    1.477880e+00   2.310578e-02
  1.070966e+00    1.469965e+00   2.303731e-02
  1.073177e+00    1.422569e+00   2.265691e-02
  1.075387e+00    1.432047e+00   2.272709e-02
  1.077597e+00    1.437278e+00   2.276140e-02
  1.079808e+00    1.445831e+00   2.269711e-02
  1.082018e+00    1.397298e+00   2.212815e-02
  1.084229e+00    1.410776e+00   2.212643e-02
  1.086439e+00    1.438697e+00   2.225738e-02
  1.088650e+00    1.431670e+00   2.212789e-02
  1.090860e+00    1.444463e+00   2.215914e-02
  1.093071e+00    1.408640e+00   2.182137e-02
  1.095281e+00    1.403282e+00   2.172342e-02
  1.097492e+00    1.402955e+00   2.166677e-02
  1.099702e+00    1.443727e+00   2.192790e-02
  1.101912e+00    1.425722e+00   2.174215e-02
  1.104123e+00    1.404195e+00   2.152969e-02
  1.106333e+00    1.402944e+00   2.147612e-02
  1.108544e+00    1.419808e+00   2.156073e-02
  1.110754e+00    1.413320e+00   2.146858e-02
  1.112965e+00    1.411222e+00   2.141226e-02
  1.115175e+00    1.428475e+00   2.150144e-02
  1.117386e+00    1.427202e+00   2.145245e-02
  1.119596e+00    1.418143e+00   2.134630e-02
  1.121807e+00    1.399831e+00   2.116934e-02
  1.124017e+00    1.425102e+00   2.132269e-02
  1.126228e+00    1.410234e+00   2.117535e-02
  1.128438e+00    1.391451e+00   2.099722e-02
  1.130648e+00    1.395438e+00   2.099301e-02
  1.132859e+00    1.346254e+00   2.058600e-02
  1.135069e+00    1.340908e+00   2.051099e-02
  1.137280e+00    1.395620e+00   2.089218e-02
  1.139490e+00    1.399466e+00   2.088776e-02
  1.141701e+00    1.379568e+00   2.070566e-02
  1.143911e+00    1.390498e+00   2.075559e-02
  1.146122e+00    1.381244e+00   2.065439e-02
  1.148332e+00    1.391113e+00   2.069604e-02
  1.150543e+00    1.366773e+00   2.048347e-02
  1.152753e+00    1.372695e+00   2.049699e-02
  1.154963e+00    1.351859e+00   2.031004e-02
  1.157174e+00    1.343751e+00   2.021922e-02
  1.159384e+00    1.324033e+00   2.004099e-02
  1.161595e+00    1.373568e+00   2.038253e-02
  1.163805e+00    1.381609e+00   2.041275e-02
  1.166016e+00    1.347532e+00   2.013022e-02
  1.168226e+00    1.356997e+00   2.017192e-02
  1.170437e+00    1.363737e+00   2.019335e-02
  1.172647e+00    1.368626e+00   2.020060e-02
  1.174858e+00    1.363984e+00   2.013822e-02
  1.177068e+00    1.376817e+00   2.020432e-02
  1.179278e+00    1.387483e+00   2.025360e-02
  1.181489e+00    1.359505e+00   2.002134e-02
  1.183699e+00    1.373483e+00   2.009628e-02
  1.185910e+00    1.359978e+00   1.996946e-02
  1.188120e+00    1.356958e+00   1.992056e-02
  1.190331e+00    1.376807e+00   2.003876e-02
  1.192541e+00    1.360252e+00   1.989050e-02
  1.194752e+00    1.325047e+00   1.960464e-02
  1.196962e+00    1.333300e+00   1.964002e-02
  1.199173e+00    1.350735e+00   1.974152e-02
  1.201383e+00    1.304050e+00   1.937067e-02
  1.203593e+00    1.354837e+00   1.971938e-02
  1.205804e+00    1.351023e+00   1.966570e-02
  1.208014e+00    1.350358e+00   1.963399e-02
  1.210225e+00    1.353161e+00   1.962901e-02
  1.212435e+00    1.347768e+00   1.956509e-02
  1.214646e+00    1.333832e+00   1.943771e-02
  1.216856e+00    1.343107e+00   1.947978e-02
  1.219067e+00    1.343245e+00   1.945637e-02
  1.221277e+00    1.311864e+00   1.920309e-02
  1.223488e+00    1.328233e+00   1.929698e-02
  1.225698e+00    1.338493e+00   1.934457e-02
  1.227909e+00    1.331557e+00   1.926444e-02
  1.230119e+00    1.348386e+00   1.935394e-02
  1.232329e+00    1.367688e+00   1.946107e-02
  1.234540e+00    1.350196e+00   1.930594e-02
  1.236750e+00    1.349740e+00   1.927239e-02
  1.238961e+00    1.383514e+00   1.948474e-02
  1.241171e+00    1.365141e+00   1.933060e-02
  1.243382e+00    1.364520e+00   1.930259e-02
  1.245592e+00    1.348820e+00   1.916710e-02
  1.247803e+00    1.385372e+00   1.940113e-02
  1.250013e+00    1.348781e+00   1.911968e-02
  1.252224e+00    1.320481e+00   1.889502e-02
  1.254434e+00    1.360900e+00   1.915817e-02
  1.256644e+00    1.349242e+00   1.905276e-02
  1.258855e+00    1.351296e+00   1.904398e-02
  1.261065e+00    1.312802e+00   1.874772e-02
  1.263276e+00    1.335892e+00   1.888903e-02
  1.265486e+00    1.355371e+00   1.900334e-02
  1.267697e+00    1.336697e+00   1.884907e-02
  1.269907e+00    1.326993e+00   1.875802e-02
  1.272118e+00    1.333772e+00   1.878344e-02
  1.274328e+00    1.324519e+00   1.869564e-02
  1.276539e+00    1.306737e+00   1.854732e-02
  1.278749e+00    1.339974e+00   1.875947e-02
  1.280959e+00    1.357190e+00   1.885704e-02
  1.283170e+00    1.337231e+00   1.869554e-02
  1.285380e+00    1.345742e+00   1.873253e-02
  1.287591e+00    1.324315e+00   1.856097e-02
  1.289801e+00    1.351059e+00   1.872622e-02
  1.292012e+00    1.352349e+00   1.871805e-02
  1.294222e+00    1.346129e+00   1.865874e-02
  1.296433e+00    1.354513e+00   1.870113e-02
  1.298643e+00    1.359529e+00   1.871919e-02
  1.300854e+00    1.389600e+00   1.890841e-02
  1.303064e+00    1.399022e+00   1.895285e-02
  1.305274e+00    1.399306e+00   1.893295e-02
  1.307485e+00    1.353763e+00   1.860074e-02
  1.309695e+00    1.373365e+00   1.871245e-02
  1.311906e+00    1.404300e+00   1.889991e-02
  1.314116e+00    1.388025e+00   1.876899e-02
  1.316327e+00    1.389387e+00   1.875618e-02
  1.318537e+00    1.406573e+00   1.884950e-02
  1.320748e+00    1.393260e+00   1.873818e-02
  1.322958e+00    1.369588e+00   1.855765e-02
  1.325169e+00    1.383843e+00   1.863269e-02
  1.327379e+00    1.370436e+00   1.852025e-02
  1.329589e+00    1.346760e+00   1.833852e-02
  1.331800e+00    1.391253e+00   1.861797e-02
  1.334010e+00    1.394012e+00   1.861544e-02
  1.336221e+00    1.372330e+00   1.844819e-02
  1.338431e+00    1.374846e+00   1.844401e-02
  1.340642e+00    1.364893e+00   1.844166e-02
  1.342852e+00    1.343710e+00   1.839843e-02
  1.345063e+00    1.336169e+00   1.839596e-02
  1.347273e+00    1.332048e+00   1.840257e-02
  1.349484e+00    1.359783e+00   1.862095e-02
  1.351694e+00    1.387577e+00   1.883329e-02
  1.353905e+00    1.392001e+00   1.888159e-02
  1.356115e+00    1.354576e+00   1.864112e-02
  1.358325e+00    1.349790e+00   1.862146e-02
  1.360536e+00    1.333735e+00   1.852194e-02
  1.362746e+00    1.323197e+00   1.845810e-02
  1.364957e+00    1.331787e+00   1.852552e-02
  1.367167e+00    1.350461e+00   1.866210e-02
  1.369378e+00    1.320656e+00   1.846100e-02
  1.371588e+00    1.322927e+00   1.848194e-02
  1.373799e+00    1.323261e+00   1.848793e-02
  1.376009e+00    1.334663e+00   1.857079e-02
  1.378220e+00    1.313147e+00   1.842301e-02
  1.380430e+00    1.300483e+00   1.833664e-02
  1.382640e+00    1.306997e+00   1.838338e-02
  1.384851e+00    1.282396e+00   1.821046e-02
  1.387061e+00    1.271752e+00   1.813497e-02
  1.389272e+00    1.280171e+00   1.819513e-02
  1.391482e+00    1.267447e+00   1.810380e-02
  1.393693e+00    1.270453e+00   1.812440e-02
  1.395903e+00    1.268650e+00   1.811004e-02
  1.398114e+00    1.269828e+00   1.811707e-02
  1.400324e+00    1.285205e+00   1.822431e-02
  1.402535e+00    1.282336e+00   1.820163e-02
  1.404745e+00    1.270630e+00   1.811601e-02
  1.406955e+00    1.271834e+00   1.812190e-02
  1.409166e+00    1.276754e+00   1.815359e-02
  1.411376e+00    1.271552e+00   1.811345e-02
  1.413587e+00    1.281888e+00   1.818311e-02
  1.415797e+00    1.276787e+00   1.814333e-02
  1.418008e+00    1.244775e+00   1.787300e-02
  1.420218e+00    1.266116e+00   1.787603e-02
  1.422429e+00    1.277016e+00   1.786729e-02
  1.424639e+00    1.256329e+00   1.765764e-02
  1.426850e+00    1.258104e+00   1.761567e-02
  1.429060e+00    1.262235e+00   1.759571e-02
  1.431270e+00    1.280254e+00   1.767639e-02
  1.433481e+00    1.282372e+00   1.764984e-02
  1.435691e+00    1.270950e+00   1.753262e-02
  1.437902e+00    1.275725e+00   1.752898e-02
  1.440112e+00    1.278595e+00   1.751323e-02
  1.442323e+00    1.234703e+00   1.717743e-02
  1.444533e+00    1.253255e+00   1.727363e-02
  1.446744e+00    1.273547e+00   1.738176e-02
  1.448954e+00    1.259788e+00   1.725754e-02
  1.451165e+00    1.280289e+00   1.736751e-02
  1.453375e+00    1.256455e+00   1.717721e-02
  1.455586e+00    1.245624e+00   1.707511e-02
  1.457796e+00    1.271480e+00   1.722389e-02
  1.460006e+00    1.272172e+00   1.720130e-02
  1.462217e+00    1.263559e+00   1.711683e-02
  1.464427e+00    1.258958e+00   1.706012e-02
  1.466638e+00    1.296090e+00   1.728429e-02
  1.468848e+00    1.270777e+00   1.708936e-02
  1.471059e+00    1.222653e+00   1.673799e-02
  1.473269e+00    1.258605e+00   1.695802e-02
  1.475480e+00    1.257592e+00   1.692755e-02
  1.477690e+00    1.258378e+00   1.690910e-02
  1.479901e+00    1.246034e+00   1.680232e-02
  1.482111e+00    1.254320e+00   1.683489e-02
  1.484321e+00    1.261705e+00   1.686132e-02
  1.486532e+00    1.263666e+00   1.685209e-02
  1.488742e+00    1.265822e+00   1.684381e-02
  1.490953e+00    1.263450e+00   1.680543e-02
  1.493163e+00    1.256893e+00   1.673955e-02
  1.495374e+00    1.230184e+00   1.653952e-02
  1.497584e+00    1.232420e+00   1.653313e-02
  1.499795e+00    1.231910e+00   1.650833e-02
  1.502005e+00    1.242133e+00   1.655513e-02
  1.504216e+00    1.262880e+00   1.667176e-02
  1.506426e+00    1.260364e+00   1.663430e-02
  1.508636e+00    1.264128e+00   1.663863e-02
  1.510847e+00    1.250046e+00   1.652395e-02
  1.513057e+00    1.256485e+00   1.654133e-02
  1.515268e+00    1.252172e+00   1.648725e-02
  1.517478e+00    1.246195e+00   1.642277e-02
  1.519689e+00    1.252415e+00   1.643875e-02
  1.521899e+00    1.278043e+00   1.658278e-02
  1.524110e+00    1.257457e+00   1.642831e-02
  1.526320e+00    1.261676e+00   1.643618e-02
  1.528531e+00    1.266710e+00   1.644905e-02
  1.530741e+00    1.257327e+00   1.636882e-02
  1.532951e+00    1.232345e+00   1.618594e-02
  1.535162e+00    1.244884e+00   1.635450e-02
  1.537372e+00    1.227011e+00   1.630300e-02
  1.539583e+00    1.249086e+00   1.648322e-02
  1.541793e+00    1.270127e+00   1.662849e-02
  1.544004e+00    1.243637e+00   1.645445e-02
  1.546214e+00    1.234326e+00   1.639121e-02
  1.548425e+00    1.256706e+00   1.653941e-02
  1.550635e+00    1.243004e+00   1.645868e-02
  1.552846e+00    1.249663e+00   1.651237e-02
  1.555056e+00    1.258029e+00   1.652586e-02
  1.557266e+00    1.219133e+00   1.615906e-02
  1.559477e+00    1.208750e+00   1.603183e-02
  1.561687e+00    1.219170e+00   1.607043e-02
  1.563898e+00    1.227643e+00   1.610913e-02
  1.566108e+00    1.260188e+00   1.630520e-02
  1.568319e+00    1.270806e+00   1.635797e-02
  1.570529e+00    1.243623e+00   1.615696e-02
  1.572740e+00    1.243916e+00   1.613122e-02
  1.574950e+00    1.265827e+00   1.624617e-02
  1.577161e+00    1.218570e+00   1.591480e-02
  1.579371e+00    1.237547e+00   1.601464e-02
  1.581582e+00    1.245705e+00   1.604756e-02
  1.583792e+00    1.237173e+00   1.597455e-02
  1.586002e+00    1.235752e+00   1.594781e-02
  1.588213e+00    1.224805e+00   1.585992e-02
  1.590423e+00    1.213190e+00   1.576472e-02
  1.592634e+00    1.224386e+00   1.581583e-02
  1.594844e+00    1.241665e+00   1.590564e-02
  1.597055e+00    1.233974e+00   1.583592e-02
  1.599265e+00    1.222052e+00   1.573864e-02
  1.601476e+00    1.225522e+00   1.574080e-02
  1.603686e+00    1.209724e+00   1.561951e-02
  1.605897e+00    1.210979e+00   1.560766e-02
  1.608107e+00    1.224106e+00   1.567257e-02
  1.610317e+00    1.231403e+00   1.569997e-02
  1.612528e+00    1.225470e+00   1.564300e-02
  1.614738e+00    1.216594e+00   1.556739e-02
  1.616949e+00    1.227250e+00   1.561646e-02
  1.619159e+00    1.209165e+00   1.548234e-02
  1.621370e+00    1.187996e+00   1.532802e-02
  1.623580e+00    1.167655e+00   1.517820e-02
  1.625791e+00    1.207138e+00   1.541446e-02
  1.628001e+00    1.199626e+00   1.534820e-02
  1.630212e+00    1.174427e+00   1.516852e-02
  1.632422e+00    1.166682e+00   1.510068e-02
  1.634632e+00    1.162372e+00   1.505559e-02
  1.636843e+00    1.183868e+00   1.517657e-02
  1.639053e+00    1.154951e+00   1.497294e-02
  1.641264e+00    1.164563e+00   1.501804e-02
  1.643474e+00    1.161482e+00   1.498080e-02
  1.645685e+00    1.151268e+00   1.489816e-02
  1.647895e+00    1.153054e+00   1.489313e-02
  1.650106e+00    1.150249e+00   1.485801e-02
  1.652316e+00    1.147684e+00   1.482496e-02
  1.654527e+00    1.153891e+00   1.484823e-02
  1.656737e+00    1.148902e+00   1.479946e-02
  1.658947e+00    1.123772e+00   1.462049e-02
  1.661158e+00    1.114016e+00   1.454070e-02
  1.663368e+00    1.123416e+00   1.458589e-02
  1.665579e+00    1.106019e+00   1.445647e-02
  1.667789e+00    1.120355e+00   1.453358e-02
  1.670000e+00    1.105247e+00   1.441983e-02
  1.672210e+00    1.109189e+00   1.442964e-02
  1.674421e+00    1.076087e+00   1.419758e-02
  1.676631e+00    1.101897e+00   1.435093e-02
  1.678842e+00    1.094953e+00   1.428994e-02
  1.681052e+00    1.061329e+00   1.405363e-02
  1.683263e+00    1.048645e+00   1.395457e-02
  1.685473e+00    1.053798e+00   1.397386e-02
  1.687683e+00    1.074318e+00   1.409391e-02
  1.689894e+00    1.066221e+00   1.402505e-02
  1.692104e+00    1.058923e+00   1.396216e-02
  1.694315e+00    1.067642e+00   1.400505e-02
  1.696525e+00    1.061103e+00   1.394700e-02
  1.698736e+00    1.049733e+00   1.385738e-02
  1.700946e+00    1.031091e+00   1.371883e-02
  1.703157e+00    1.030017e+00   1.369726e-02
  1.705367e+00    1.004911e+00   1.351512e-02
  1.707578e+00    1.023091e+00   1.362243e-02
  1.709788e+00    1.009928e+00   1.352065e-02
  1.711998e+00    1.032463e+00   1.365572e-02
  1.714209e+00    1.029668e+00   1.362286e-02
  1.716419e+00    1.004774e+00   1.344311e-02
  1.718630e+00    1.005393e+00   1.343316e-02
  1.720840e+00    1.005062e+00   1.341692e-02
  1.723051e+00    9.955802e-01   1.333982e-02
  1.725261e+00    1.005512e+00   1.339163e-02
  1.727472e+00    9.927751e-01   1.329255e-02
  1.729682e+00    1.002182e+00   1.334200e-02
  1.731893e+00    9.839574e-01   1.320642e-02
  1.734103e+00    9.992353e-01   1.329482e-02
  1.736313e+00    9.918586e-01   1.323176e-02
  1.738524e+00    9.947270e-01   1.323709e-02
  1.740734e+00    9.714610e-01   1.306787e-02
  1.742945e+00    9.655856e-01   1.301505e-02
  1.745155e+00    9.643657e-01   1.299356e-02
  1.747366e+00    9.635414e-01   1.297437e-02
  1.749576e+00    9.774569e-01   1.305412e-02
  1.751787e+00    9.615494e-01   1.293425e-02
  1.753997e+00    9.609357e-01   1.291687e-02
  1.756208e+00    9.845246e-01   1.306119e-02
  1.758418e+00    9.624937e-01   1.290119e-02
  1.760628e+00    9.509068e-01   1.281006e-02
  1.762839e+00    9.483812e-01   1.277995e-02
  1.765049e+00    9.352438e-01   1.267818e-02
  1.767260e+00    9.339890e-01   1.265704e-02
  1.769470e+00    9.447589e-01   1.271687e-02
  1.771681e+00    9.330525e-01   1.262486e-02
  1.773891e+00    9.162639e-01   1.249793e-02
  1.776102e+00    8.946366e-01   1.233705e-02
  1.778312e+00    9.140658e-01   1.245775e-02
  1.780523e+00    9.304347e-01   1.255616e-02
  1.782733e+00    9.079198e-01   1.239085e-02
  1.784944e+00    9.015143e-01   1.233438e-02
  1.787154e+00    9.266392e-01   1.249260e-02
  1.789364e+00    9.160610e-01   1.240872e-02
  1.791575e+00    9.215236e-01   1.243315e-02
  1.793785e+00    9.235503e-01   1.243440e-02
  1.795996e+00    9.479180e-01   1.258468e-02
  1.798206e+00    9.648366e-01   1.268364e-02
  1.800417e+00    9.758579e-01   1.274283e-02
  1.802627e+00    9.279763e-01   1.241426e-02
  1.804838e+00    9.094446e-01   1.227756e-02
  1.807048e+00    9.353076e-01   1.243788e-02
  1.809259e+00    9.370239e-01   1.243549e-02
  1.811469e+00    9.436674e-01   1.246419e-02
  1.813679e+00    9.492984e-01   1.248598e-02
  1.815890e+00    9.413117e-01   1.241823e-02
  1.818100e+00    9.452157e-01   1.242845e-02
  1.820311e+00    9.445004e-01   1.240857e-02
  1.822521e+00    9.021588e-01   1.211231e-02
  1.824732e+00    9.141871e-01   1.217774e-02
  1.826942e+00    9.337918e-01   1.229499e-02
  1.829153e+00    8.981664e-01   1.204642e-02
  1.831363e+00    8.876234e-01   1.196341e-02
  1.833574e+00    8.796859e-01   1.189815e-02
  1.835784e+00    8.816447e-01   1.189994e-02
  1.837994e+00    8.702002e-01   1.181081e-02
  1.840205e+00    8.568045e-01   1.170847e-02
  1.842415e+00    8.528498e-01   1.166979e-02
  1.844626e+00    8.593155e-01   1.170245e-02
  1.846836e+00    8.625548e-01   1.171310e-02
  1.849047e+00    8.783950e-01   1.180848e-02
  1.851257e+00    8.543358e-01   1.163611e-02
  1.853468e+00    8.631362e-01   1.168709e-02
  1.855678e+00    8.529081e-01   1.160879e-02
  1.857889e+00    8.961901e-01   1.189099e-02
  1.860099e+00    9.610129e-01   1.230439e-02
  1.862309e+00    9.861373e-01   1.245510e-02
  1.864520e+00    9.308295e-01   1.209186e-02
  1.866730e+00    8.897983e-01   1.181277e-02
  1.868941e+00    8.510538e-01   1.154178e-02
  1.871151e+00    8.621197e-01   1.160510e-02
  1.873362e+00    8.612569e-01   1.158788e-02
  1.875572e+00    8.437320e-01   1.145848e-02
  1.877783e+00    8.459027e-01   1.146179e-02
  1.879993e+00    8.310835e-01   1.134991e-02
  1.882204e+00    8.255143e-01   1.130103e-02
  1.884414e+00    8.401936e-01   1.139002e-02
  1.886624e+00    8.572068e-01   1.149359e-02
  1.888835e+00    8.601964e-01   1.150255e-02
  1.891045e+00    8.277320e-01   1.127260e-02
  1.893256e+00    8.161071e-01   1.118219e-02
  1.895466e+00    8.443775e-01   1.136302e-02
  1.897677e+00    8.303609e-01   1.125744e-02
  1.899887e+00    8.116342e-01   1.111893e-02
  1.902098e+00    8.433070e-01   1.132287e-02
  1.904308e+00    8.571731e-01   1.140483e-02
  1.906519e+00    8.478600e-01   1.133178e-02
  1.908729e+00    8.122388e-01   1.108068e-02
  1.910940e+00    8.097317e-01   1.105253e-02
  1.913150e+00    8.351210e-01   1.121384e-02
  1.915360e+00    8.385715e-01   1.122627e-02
  1.917571e+00    8.257537e-01   1.112926e-02
  1.919781e+00    8.247184e-01   1.111156e-02
  1.921992e+00    8.145642e-01   1.103238e-02
  1.924202e+00    8.134998e-01   1.101441e-02
  1.926413e+00    8.003433e-01   1.091480e-02
  1.928623e+00    8.018879e-01   1.091485e-02
  1.930834e+00    8.173699e-01   1.100926e-02
  1.933044e+00    8.088340e-01   1.094097e-02
  1.935255e+00    8.137363e-01   1.096374e-02
  1.937465e+00    8.027112e-01   1.087883e-02
  1.939675e+00    8.032886e-01   1.087194e-02
  1.941886e+00    7.840880e-01   1.073106e-02
  1.944096e+00    7.762663e-01   1.066740e-02
  1.946307e+00    7.812035e-01   1.069105e-02
  1.948517e+00    8.007044e-01   1.081322e-02
  1.950728e+00    7.948250e-01   1.076324e-02
  1.952938e+00    7.808174e-01   1.065799e-02
  1.955149e+00    7.678604e-01   1.055913e-02
  1.957359e+00    7.723632e-01   1.058016e-02
  1.959570e+00    7.906190e-01   1.069362e-02
  1.961780e+00    7.841254e-01   1.063977e-02
  1.963990e+00    7.729538e-01   1.055370e-02
  1.966201e+00    7.754438e-01   1.056073e-02
  1.968411e+00    7.751229e-01   1.054848e-02
  1.970622e+00    7.901349e-01   1.064002e-02
  1.972832e+00    7.831930e-01   1.058325e-02
  1.975043e+00    7.831428e-01   1.057288e-02
  1.977253e+00    7.745658e-01   1.050493e-02
  1.979464e+00    7.877545e-01   1.058393e-02
  1.981674e+00    7.947716e-01   1.062063e-02
  1.983885e+00    8.051456e-01   1.067955e-02
  1.986095e+00    7.877300e-01   1.055368e-02
  1.988305e+00    7.646664e-01   1.038824e-02
  1.990516e+00    7.635868e-01   1.037105e-02
  1.992726e+00    7.687673e-01   1.039657e-02
  1.994937e+00    7.634630e-01   1.035061e-02
  1.997147e+00    7.628192e-01   1.033659e-02
  1.999358e+00    7.642634e-01   1.033658e-02
  2.001568e+00    7.635707e-01   1.032116e-02
  2.003779e+00    7.743276e-01   1.038166e-02
  2.005989e+00    7.775092e-01   1.039091e-02
  2.008200e+00    7.847797e-01   1.042775e-02
  2.010410e+00    7.793726e-01   1.037996e-02
  2.012621e+00    7.586237e-01   1.022920e-02
  2.014831e+00    7.671666e-01   1.027517e-02
  2.017041e+00    7.784546e-01   1.034004e-02
  2.019252e+00    7.686945e-01   1.026502e-02
  2.021462e+00    7.600536e-01   1.019769e-02
  2.023673e+00    7.596203e-01   1.018542e-02
  2.025883e+00    7.660196e-01   1.021870e-02
  2.028094e+00    7.519946e-01   1.011515e-02
  2.030304e+00    7.612286e-01   1.016751e-02
  2.032515e+00    7.613251e-01   1.015887e-02
  2.034725e+00    7.535780e-01   1.009764e-02
  2.036936e+00    7.632918e-01   1.015314e-02
  2.039146e+00    7.556322e-01   1.009251e-02
  2.041356e+00    7.711079e-01   1.018560e-02
  2.043567e+00    7.628539e-01   1.012159e-02
  2.045777e+00    7.632864e-01   1.011517e-02
  2.047988e+00    7.519005e-01   1.003008e-02
  2.050198e+00    7.646751e-01   1.010644e-02
  2.052409e+00    7.624458e-01   1.008398e-02
  2.054619e+00    7.550461e-01   1.002756e-02
  2.056830e+00    7.570370e-01   1.003356e-02
  2.059040e+00    7.558377e-01   1.001807e-02
  2.061251e+00    7.507760e-01   9.977216e-03
  2.063461e+00    7.615786e-01   1.004107e-02
  2.065671e+00    7.522314e-01   9.970532e-03
  2.067882e+00    7.519091e-01   9.959375e-03
  2.070092e+00    7.323170e-01   9.819667e-03
  2.072303e+00    7.429365e-01   9.881476e-03
  2.074513e+00    7.393370e-01   9.848245e-03
  2.076724e+00    7.358692e-01   9.815690e-03
  2.078934e+00    7.385319e-01   9.824477e-03
  2.081145e+00    7.296112e-01   9.755954e-03
  2.083355e+00    7.309414e-01   9.755740e-03
  2.085566e+00    7.217649e-01   9.685515e-03
  2.087776e+00    7.279832e-01   9.717708e-03
  2.089986e+00    7.354860e-01   9.758906e-03
  2.092197e+00    7.180818e-01   9.633896e-03
  2.094407e+00    7.252334e-01   9.672591e-03
  2.096618e+00    7.305592e-01   9.699189e-03
  2.098828e+00    7.139583e-01   9.579171e-03
  2.101039e+00    7.148043e-01   9.575967e-03
  2.103249e+00    7.408699e-01   9.740274e-03
  2.105460e+00    7.336364e-01   9.683581e-03
  2.107670e+00    7.221212e-01   9.598584e-03
  2.109881e+00    7.345787e-01   9.671801e-03
  2.112091e+00    7.325403e-01   9.649366e-03
  2.114301e+00    7.133576e-01   9.513462e-03
  2.116512e+00    7.358888e-01   9.653648e-03
  2.118722e+00    7.249039e-01   9.572519e-03
  2.120933e+00    7.099877e-01   9.464695e-03
  2.123143e+00    6.999478e-01   9.388754e-03
  2.125354e+00    7.111183e-01   9.454884e-03
  2.127564e+00    7.174628e-01   9.488237e-03
  2.129775e+00    7.164089e-01   9.472522e-03
  2.131985e+00    7.063642e-01   9.396889e-03
  2.134196e+00    7.188751e-01   9.471100e-03
  2.136406e+00    7.183692e-01   9.459002e-03
  2.138617e+00    7.155389e-01   9.431869e-03
  2.140827e+00    7.000474e-01   9.345158e-03
  2.143037e+00    6.849724e-01   9.288750e-03
  2.145248e+00    7.021064e-01   9.426162e-03
  2.147458e+00    6.826127e-01   9.309274e-03
  2.149669e+00    7.070265e-01   9.486167e-03
  2.151879e+00    6.964438e-01   9.424101e-03
  2.154090e+00    6.926884e-01   9.405925e-03
  2.156300e+00    7.071857e-01   9.510471e-03
  2.158511e+00    7.086424e-01   9.525617e-03
  2.160721e+00    6.815836e-01   9.346739e-03
  2.162932e+00    6.802752e-01   9.341451e-03
  2.165142e+00    6.869865e-01   9.390402e-03
  2.167352e+00    6.949385e-01   9.447522e-03
  2.169563e+00    6.838609e-01   9.373867e-03
  2.171773e+00    6.760979e-01   9.322911e-03
  2.173984e+00    6.952932e-01   9.455741e-03
  2.176194e+00    6.988742e-01   9.481264e-03
  2.178405e+00    6.881148e-01   9.408711e-03
  2.180615e+00    6.591983e-01   9.209568e-03
  2.182826e+00    6.839767e-01   9.381683e-03
  2.185036e+00    7.149147e-01   9.591606e-03
  2.187247e+00    7.013841e-01   9.500367e-03
  2.189457e+00    6.728515e-01   9.304713e-03
  2.191667e+00    6.796256e-01   9.351247e-03
  2.193878e+00    6.949655e-01   9.455622e-03
  2.196088e+00    6.961714e-01   9.463142e-03
  2.198299e+00    6.900741e-01   9.420509e-03
  2.200509e+00    6.968210e-01   9.465394e-03
  2.202720e+00    6.907300e-01   9.422772e-03
  2.204930e+00    6.886692e-01   9.407451e-03
  2.207141e+00    6.832533e-01   9.369276e-03
  2.209351e+00    6.799191e-01   9.344503e-03
  2.211562e+00    6.602754e-01   9.206930e-03
  2.213772e+00    6.674961e-01   9.202030e-03
  2.215982e+00    6.834967e-01   9.267204e-03
  2.218193e+00    6.839400e-01   9.240419e-03
  2.220403e+00    6.720289e-01   9.135056e-03
  2.222614e+00    6.859183e-01   9.207833e-03
  2.224824e+00    6.799262e-01   9.148057e-03
  2.227035e+00    6.796854e-01   9.128907e-03
  2.229245e+00    6.649293e-01   9.012380e-03
  2.231456e+00    6.758934e-01   9.070722e-03
  2.233666e+00    6.527187e-01   8.898959e-03
  2.235877e+00    6.627038e-01   8.952583e-03
  2.238087e+00    6.704581e-01   8.991327e-03
  2.240298e+00    6.651672e-01   8.942057e-03
  2.242508e+00    6.500800e-01   8.825153e-03
  2.244718e+00    6.690547e-01   8.937190e-03
  2.246929e+00    6.702036e-01   8.930435e-03
  2.249139e+00    6.635692e-01   8.873779e-03
  2.251350e+00    6.624358e-01   8.854521e-03
  2.253560e+00    6.667235e-01   8.871567e-03
  2.255771e+00    6.674548e-01   8.865008e-03
  2.257981e+00    6.647924e-01   8.836142e-03
  2.260192e+00    6.634820e-01   8.816316e-03
  2.262402e+00    6.519208e-01   8.728430e-03
  2.264613e+00    6.613556e-01   8.780527e-03
  2.266823e+00    6.786727e-01   8.884226e-03
  2.269033e+00    6.711435e-01   8.824375e-03
  2.271244e+00    6.732883e-01   8.827975e-03
  2.273454e+00    6.766843e-01   8.839853e-03
  2.275665e+00    6.602668e-01   8.721653e-03
  2.277875e+00    6.724436e-01   8.791713e-03
  2.280086e+00    6.612619e-01   8.708244e-03
  2.282296e+00    6.587397e-01   8.682227e-03
  2.284507e+00    6.616294e-01   8.691110e-03
  2.286717e+00    6.435577e-01   8.562217e-03
  2.288928e+00    6.451895e-01   8.563287e-03
  2.291138e+00    6.616877e-01   8.662619e-03
  2.293348e+00    6.627155e-01   8.659759e-03
  2.295559e+00    6.531288e-01   8.587606e-03
  2.297769e+00    6.504554e-01   8.560793e-03
  2.299980e+00    6.518741e-01   8.560782e-03
  2.302190e+00    6.651251e-01   8.638166e-03
  2.304401e+00    6.540207e-01   8.556415e-03
  2.306611e+00    6.595048e-01   8.582960e-03
  2.308822e+00    6.466822e-01   8.490766e-03
  2.311032e+00    6.442496e-01   8.468355e-03
  2.313243e+00    6.401262e-01   8.434987e-03
  2.315453e+00    6.328259e-01   8.379268e-03
  2.317663e+00    6.355271e-01   8.388092e-03
  2.319874e+00    6.516876e-01   8.485305e-03
  2.322084e+00    6.435586e-01   8.423276e-03
  2.324295e+00    6.428686e-01   8.410539e-03
  2.326505e+00    6.531975e-01   8.468728e-03
  2.328716e+00    6.447828e-01   8.405454e-03
  2.330926e+00    6.350265e-01   8.332864e-03
  2.333137e+00    6.441296e-01   8.384000e-03
  2.335347e+00    6.369924e-01   8.328574e-03
  2.337558e+00    6.481309e-01   8.392795e-03
  2.339768e+00    6.454089e-01   8.366555e-03
  2.341979e+00    6.287712e-01   8.249700e-03
  2.344189e+00    6.378945e-01   8.300941e-03
  2.346399e+00    6.307113e-01   8.245617e-03
  2.348610e+00    6.244592e-01   8.196260e-03
  2.350820e+00    6.225146e-01   8.175391e-03
  2.353031e+00    6.268443e-01   8.195532e-03
  2.355241e+00    6.185684e-01   8.133290e-03
  2.357452e+00    6.293294e-01   8.195326e-03
  2.359662e+00    6.377903e-01   8.241965e-03
  2.361873e+00    6.442812e-01   8.275507e-03
  2.364083e+00    6.059242e-01   8.017532e-03
  2.366294e+00    6.158061e-01   8.074610e-03
  2.368504e+00    6.067899e-01   8.007344e-03
  2.370714e+00    6.036031e-01   7.978362e-03
  2.372925e+00    6.082741e-01   8.001233e-03
  2.375135e+00    6.223844e-01   8.085454e-03
  2.377346e+00    6.308170e-01   8.132068e-03
  2.379556e+00    6.127347e-01   8.006838e-03
  2.381767e+00    6.074061e-01   7.964156e-03
  2.383977e+00    6.032781e-01   7.929245e-03
  2.386188e+00    6.005037e-01   7.903191e-03
  2.388398e+00    5.931929e-01   7.847141e-03
  2.390609e+00    5.957307e-01   7.856314e-03
  2.392819e+00    6.148123e-01   7.973374e-03
  2.395029e+00    6.112557e-01   7.942662e-03
  2.397240e+00    6.031600e-01   7.882087e-03
  2.399450e+00    6.053762e-01   7.888792e-03
  2.401661e+00    6.028703e-01   7.864825e-03
  2.403871e+00    6.123829e-01   7.918872e-03
  2.406082e+00    6.200976e-01   7.961087e-03
  2.408292e+00    6.176594e-01   7.937589e-03
  2.410503e+00    6.088126e-01   7.873054e-03
  2.412713e+00    6.167082e-01   7.916072e-03
  2.414924e+00    6.065150e-01   7.842897e-03
  2.417134e+00    6.093494e-01   7.853540e-03
  2.419344e+00    5.903484e-01   7.722788e-03
  2.421555e+00    6.103696e-01   7.845090e-03
  2.423765e+00    5.975220e-01   7.754714e-03
  2.425976e+00    5.833541e-01   7.654514e-03
  2.428186e+00    5.876106e-01   7.675241e-03
  2.430397e+00    5.952187e-01   7.717301e-03
  2.432607e+00    5.834968e-01   7.633737e-03
  2.434818e+00    5.803894e-01   7.605929e-03
  2.437028e+00    5.848155e-01   7.627777e-03
  2.439239e+00    5.752711e-01   7.557753e-03
  2.441449e+00    5.907685e-01   7.651679e-03
  2.443659e+00    5.880678e-01   7.626841e-03
  2.445870e+00    5.799772e-01   7.586348e-03
  2.448080e+00    5.758172e-01   7.593680e-03
  2.450291e+00    5.782648e-01   7.626409e-03
  2.452501e+00    5.781404e-01   7.636788e-03
  2.454712e+00    5.718668e-01   7.603657e-03
  2.456922e+00    5.527995e-01   7.482344e-03
  2.459133e+00    5.500197e-01   7.468827e-03
  2.461343e+00    5.717831e-01   7.619543e-03
  2.463554e+00    5.687781e-01   7.602982e-03
  2.465764e+00    5.630338e-01   7.567644e-03
  2.467975e+00    5.505512e-01   7.485534e-03
  2.470185e+00    5.453440e-01   7.452271e-03
  2.472395e+00    5.637745e-01   7.578385e-03
  2.474606e+00    5.491534e-01   7.481048e-03
  2.476816e+00    5.236391e-01   7.305903e-03
  2.479027e+00    5.295498e-01   7.347825e-03
  2.481237e+00    5.423927e-01   7.436689e-03
  2.483448e+00    5.274838e-01   7.334075e-03
  2.485658e+00    5.397613e-01   7.418770e-03
  2.487869e+00    5.343660e-01   7.381653e-03
  2.490079e+00    5.513187e-01   7.497294e-03
  2.492290e+00    5.539520e-01   7.514759e-03
  2.494500e+00    5.370819e-01   7.398706e-03
  2.496710e+00    5.348020e-01   7.382290e-03
  2.498921e+00    5.435591e-01   7.441482e-03
  2.501131e+00    5.349144e-01   7.381130e-03
  2.503342e+00    5.343981e-01   7.376297e-03
  2.505552e+00    5.221968e-01   7.290482e-03
  2.507763e+00    5.212346e-01   7.282362e-03
  2.509973e+00    5.166885e-01   7.249149e-03
  2.512184e+00    5.152642e-01   7.237560e-03
  2.514394e+00    5.162503e-01   7.235209e-03
  2.516605e+00    5.262211e-01   7.257695e-03
  2.518815e+00    5.297656e-01   7.253676e-03
  2.521025e+00    5.245932e-01   7.197228e-03
  2.523236e+00    5.295072e-01   7.212815e-03
  2.525446e+00    5.307225e-01   7.205406e-03
  2.527657e+00    5.255302e-01   7.155461e-03
  2.529867e+00    5.227996e-01   7.122693e-03
  2.532078e+00    5.315617e-01   7.167013e-03
  2.534288e+00    5.087553e-01   6.997905e-03
  2.536499e+00    5.137757e-01   7.020535e-03
  2.538709e+00    5.205209e-01   7.055502e-03
  2.540920e+00    5.237083e-01   7.066436e-03
  2.543130e+00    5.242265e-01   7.059567e-03
  2.545340e+00    5.257575e-01   7.059790e-03
  2.547551e+00    5.348604e-01   7.110580e-03
  2.549761e+00    5.115433e-01   6.944396e-03
  2.551972e+00    5.010010e-01   6.863281e-03
  2.554182e+00    5.242384e-01   7.011444e-03
  2.556393e+00    5.204637e-01   6.977064e-03
  2.558603e+00    5.234470e-01   6.987942e-03
  2.560814e+00    5.279432e-01   7.009116e-03
  2.563024e+00    5.081744e-01   6.868157e-03
  2.565235e+00    5.164614e-01   6.914436e-03
  2.567445e+00    5.252988e-01   6.963733e-03
  2.569656e+00    5.067254e-01   6.829878e-03
  2.571866e+00    5.190957e-01   6.903376e-03
  2.574076e+00    5.064513e-01   6.809600e-03
  2.576287e+00    5.054745e-01   6.794796e-03
  2.578497e+00    5.181618e-01   6.871666e-03
  2.580708e+00    5.046625e-01   6.773593e-03
  2.582918e+00    4.896462e-01   6.664463e-03
  2.585129e+00    5.155516e-01   6.830734e-03
  2.587339e+00    5.100282e-01   6.786387e-03
  2.589550e+00    5.090533e-01   6.772391e-03
  2.591760e+00    5.097674e-01   6.769409e-03
  2.593971e+00    5.101542e-01   6.764471e-03
  2.596181e+00    5.170845e-01   6.803986e-03
  2.598391e+00    5.158263e-01   6.790514e-03
  2.600602e+00    5.094651e-01   6.742593e-03
  2.602812e+00    5.016502e-01   6.683201e-03
  2.605023e+00    5.083635e-01   6.720597e-03
  2.607233e+00    5.029947e-01   6.677926e-03
  2.609444e+00    4.975646e-01   6.634610e-03
  2.611654e+00    5.047466e-01   6.675014e-03
  2.613865e+00    5.135554e-01   6.725925e-03
  2.616075e+00    5.103413e-01   6.697680e-03
  2.618286e+00    5.069938e-01   6.668670e-03
  2.620496e+00    5.018619e-01   6.628164e-03
  2.622706e+00    5.024824e-01   6.626523e-03
  2.624917e+00    4.909596e-01   6.544339e-03
  2.627127e+00    4.946974e-01   6.563502e-03
  2.629338e+00    5.210553e-01   6.730012e-03
  2.631548e+00    5.090934e-01   6.646123e-03
  2.633759e+00    4.979622e-01   6.565941e-03
  2.635969e+00    5.038780e-01   6.598132e-03
  2.638180e+00    4.813313e-01   6.441981e-03
  2.640390e+00    4.834407e-01   6.449578e-03
  2.642601e+00    4.794109e-01   6.416135e-03
  2.644811e+00    4.971668e-01   6.526807e-03
  2.647021e+00    4.913693e-01   6.482137e-03
  2.649232e+00    4.998245e-01   6.530950e-03
  2.651442e+00    5.075171e-01   6.574458e-03
  2.653653e+00    4.961108e-01   6.493399e-03
  2.655863e+00    4.914009e-01   6.455852e-03
  2.658074e+00    4.896400e-01   6.437730e-03
  2.660284e+00    4.899611e-01   6.433510e-03
  2.662495e+00    4.941881e-01   6.454496e-03
  2.664705e+00    4.993853e-01   6.481749e-03
  2.666916e+00    4.872154e-01   6.395880e-03
  2.669126e+00    5.053006e-01   6.506983e-03
  2.671337e+00    5.030052e-01   6.485565e-03
  2.673547e+00    5.001630e-01   6.460801e-03
  2.675757e+00    4.947656e-01   6.419400e-03
  2.677968e+00    4.851160e-01   6.350027e-03
  2.680178e+00    4.958502e-01   6.413473e-03
  2.682389e+00    5.020646e-01   6.447083e-03
  2.684599e+00    5.034502e-01   6.449735e-03
  2.686810e+00    4.985754e-01   6.411788e-03
  2.689020e+00    4.847317e-01   6.315890e-03
  2.691231e+00    4.850443e-01   6.311675e-03
  2.693441e+00    4.866526e-01   6.316007e-03
  2.695652e+00    4.856360e-01   6.302927e-03
  2.697862e+00    5.015871e-01   6.399173e-03
  2.700072e+00    4.839208e-01   6.279451e-03
  2.702283e+00    4.841772e-01   6.274895e-03
  2.704493e+00    4.972939e-01   6.353001e-03
  2.706704e+00    4.915522e-01   6.309810e-03
  2.708914e+00    4.889081e-01   6.286822e-03
  2.711125e+00    4.856039e-01   6.259311e-03
  2.713335e+00    4.882756e-01   6.270426e-03
  2.715546e+00    4.810172e-01   6.217213e-03
  2.717756e+00    4.831629e-01   6.225199e-03
  2.719967e+00    4.895352e-01   6.259874e-03
  2.722177e+00    4.900379e-01   6.256946e-03
  2.724387e+00    4.920913e-01   6.263888e-03
  2.726598e+00    4.838035e-01   6.204880e-03
  2.728808e+00    4.757471e-01   6.146911e-03
  2.731019e+00    4.752751e-01   6.137772e-03
  2.733229e+00    4.827821e-01   6.180276e-03
  2.735440e+00    4.844590e-01   6.184721e-03
  2.737650e+00    4.821239e-01   6.163805e-03
  2.739861e+00    4.748605e-01   6.111171e-03
  2.742071e+00    4.795870e-01   6.135795e-03
  2.744282e+00    4.819224e-01   6.144460e-03
  2.746492e+00    4.818585e-01   6.138039e-03
  2.748702e+00    4.753885e-01   6.090814e-03
  2.750913e+00    4.890081e-01   6.171614e-03
  2.753123e+00    4.706824e-01   6.048832e-03
  2.755334e+00    4.741527e-01   6.065038e-03
  2.757544e+00    4.866783e-01   6.138866e-03
  2.759755e+00    4.757141e-01   6.063462e-03
  2.761965e+00    4.761930e-01   6.060544e-03
  2.764176e+00    4.821561e-01   6.092389e-03
  2.766386e+00    4.849980e-01   6.104482e-03
  2.768597e+00    4.846276e-01   6.096271e-03
  2.770807e+00    4.820951e-01   6.074416e-03
  2.773017e+00    4.782977e-01   6.044489e-03
  2.775228e+00    4.817405e-01   6.060394e-03
  2.777438e+00    4.670504e-01   5.961558e-03
  2.779649e+00    4.850521e-01   6.069394e-03
  2.781859e+00    4.756582e-01   6.004605e-03
  2.784070e+00    4.753017e-01   5.996497e-03
  2.786280e+00    4.774847e-01   6.004487e-03
  2.788491e+00    4.887002e-01   6.068689e-03
  2.790701e+00    4.762807e-01   5.985439e-03
  2.792912e+00    4.636959e-01   5.899942e-03
  2.795122e+00    4.801809e-01   5.998137e-03
  2.797333e+00    4.800234e-01   5.991567e-03
  2.799543e+00    4.876324e-01   6.032947e-03
  2.801753e+00    4.802910e-01   5.981476e-03
  2.803964e+00    4.561723e-01   5.823803e-03
  2.806174e+00    4.737810e-01   5.928993e-03
  2.808385e+00    4.758914e-01   5.935387e-03
  2.810595e+00    4.679548e-01   5.878872e-03
  2.812806e+00    4.699770e-01   5.884977e-03
  2.815016e+00    4.759035e-01   5.917213e-03
  2.817227e+00    4.860938e-01   6.006492e-03
  2.819437e+00    4.754904e-01   5.951717e-03
  2.821648e+00    4.718954e-01   5.931460e-03
  2.823858e+00    4.731387e-01   5.944604e-03
  2.826068e+00    4.643824e-01   5.894286e-03
  2.828279e+00    4.632744e-01   5.891218e-03
  2.830489e+00    4.734657e-01   5.959032e-03
  2.832700e+00    4.652129e-01   5.909408e-03
  2.834910e+00    4.675191e-01   5.926080e-03
  2.837121e+00    4.621668e-01   5.893764e-03
  2.839331e+00    4.687839e-01   5.937026e-03
  2.841542e+00    4.687064e-01   5.937546e-03
  2.843752e+00    4.786764e-01   6.001165e-03
  2.845963e+00    4.702956e-01   5.948795e-03
  2.848173e+00    4.771302e-01   5.991943e-03
  2.850383e+00    4.771806e-01   5.992565e-03
  2.852594e+00    4.637403e-01   5.907485e-03
  2.854804e+00    4.687257e-01   5.938654e-03
  2.857015e+00    4.634119e-01   5.904465e-03
  2.859225e+00    4.540842e-01   5.844489e-03
  2.861436e+00    4.619940e-01   5.894512e-03
  2.863646e+00    4.611855e-01   5.889403e-03
  2.865857e+00    4.734424e-01   5.967478e-03
  2.868067e+00    4.747090e-01   5.975696e-03
  2.870278e+00    4.651986e-01   5.915181e-03
  2.872488e+00    4.766188e-01   5.986155e-03
  2.874698e+00    4.586678e-01   5.871337e-03
  2.876909e+00    4.539342e-01   5.839613e-03
  2.879119e+00    4.614961e-01   5.886448e-03
  2.881330e+00    4.663877e-01   5.916076e-03
  2.883540e+00    4.701419e-01   5.938452e-03
  2.885751e+00    4.685622e-01   5.926799e-03
  2.887961e+00    4.590923e-01   5.864729e-03
  2.890172e+00    4.625586e-01   5.885219e-03
  2.892382e+00    4.636118e-01   5.890113e-03
  2.894593e+00    4.575559e-01   5.849703e-03
  2.896803e+00    4.540589e-01   5.825343e-03
  2.899014e+00    4.616868e-01   5.872143e-03
  2.901224e+00    4.696372e-01   5.920480e-03
  2.903434e+00    4.658585e-01   5.894670e-03
  2.905645e+00    4.661481e-01   5.894247e-03
  2.907855e+00    4.664866e-01   5.894285e-03
  2.910066e+00    4.590130e-01   5.844792e-03
  2.912276e+00    4.596031e-01   5.846424e-03
  2.914487e+00    4.593934e-01   5.842638e-03
  2.916697e+00    4.531032e-01   5.800284e-03
  2.918908e+00    4.605242e-01   5.845583e-03
  2.921118e+00    4.503565e-01   5.778020e-03
  2.923329e+00    4.462689e-01   5.749456e-03
  2.925539e+00    4.601155e-01   5.835664e-03
  2.927749e+00    4.592071e-01   5.827607e-03
  2.929960e+00    4.636217e-01   5.852737e-03
  2.932170e+00    4.523033e-01   5.778553e-03
  2.934381e+00    4.663169e-01   5.864916e-03
  2.936591e+00    4.492084e-01   5.753776e-03
  2.938802e+00    4.553684e-01   5.790365e-03
  2.941012e+00    4.570822e-01   5.798923e-03
  2.943223e+00    4.568836e-01   5.794962e-03
  2.945433e+00    4.593241e-01   5.806656e-03
  2.947644e+00    4.532694e-01   5.764162e-03
  2.949854e+00    4.474143e-01   5.722553e-03
  2.952064e+00    4.566053e-01   5.776805e-03
  2.954275e+00    4.649891e-01   5.825150e-03
  2.956485e+00    4.626437e-01   5.806218e-03
  2.958696e+00    4.500919e-01   5.722563e-03
  2.960906e+00    4.541055e-01   5.743835e-03
  2.963117e+00    4.572839e-01   5.759424e-03
  2.965327e+00    4.443910e-01   5.673777e-03
  2.967538e+00    4.399633e-01   5.642570e-03
  2.969748e+00    4.452669e-01   5.673699e-03
  2.971959e+00    4.524435e-01   5.716105e-03
  2.974169e+00    4.559424e-01   5.735574e-03
  2.976379e+00    4.490924e-01   5.689433e-03
  2.978590e+00    4.403847e-01   5.630927e-03
  2.980800e+00    4.406323e-01   5.629731e-03
  2.983011e+00    4.413088e-01   5.631303e-03
  2.985221e+00    4.482358e-01   5.672175e-03
  2.987432e+00    4.531386e-01   5.700026e-03
  2.989642e+00    4.580644e-01   5.728279e-03
  2.991853e+00    4.467751e-01   5.654000e-03
  2.994063e+00    4.536900e-01   5.694687e-03
  2.996274e+00    4.532098e-01   5.688471e-03
  2.998484e+00    4.538891e-01   5.690061e-03
  3.000694e+00    4.448450e-01   5.629637e-03
  3.002905e+00    4.484054e-01   5.649221e-03
  3.005115e+00    4.591234e-01   5.713321e-03
  3.007326e+00    4.544691e-01   5.681150e-03
  3.009536e+00    4.624186e-01   5.727315e-03
  3.011747e+00    4.574964e-01   5.693842e-03
  3.013957e+00    4.529242e-01   5.662126e-03
  3.016168e+00    4.583305e-01   5.692535e-03
  3.018378e+00    4.669508e-01   5.742738e-03
  3.020589e+00    4.603336e-01   5.698669e-03
  3.022799e+00    4.528188e-01   5.648799e-03
  3.025010e+00    4.554780e-01   5.662108e-03
  3.027220e+00    4.562283e-01   5.663645e-03
  3.029430e+00    4.463525e-01   5.598790e-03
  3.031641e+00    4.540688e-01   5.643822e-03
  3.033851e+00    4.522848e-01   5.629216e-03
  3.036062e+00    4.529037e-01   5.630271e-03
  3.038272e+00    4.486794e-01   5.600408e-03
  3.040483e+00    4.529739e-01   5.623889e-03
  3.042693e+00    4.427112e-01   5.556612e-03
  3.044904e+00    4.535994e-01   5.620473e-03
  3.047114e+00    4.442103e-01   5.557244e-03
  3.049325e+00    4.439740e-01   5.551386e-03
  3.051535e+00    4.470584e-01   5.566284e-03
  3.053745e+00    4.311389e-01   5.461624e-03
  3.055956e+00    4.442677e-01   5.539603e-03
  3.058166e+00    4.561369e-01   5.608826e-03
  3.060377e+00    4.560263e-01   5.603372e-03
  3.062587e+00    4.385378e-01   5.490295e-03
  3.064798e+00    4.450195e-01   5.526485e-03
  3.067008e+00    4.503529e-01   5.554758e-03
  3.069219e+00    4.477867e-01   5.534438e-03
  3.071429e+00    4.394803e-01   5.479372e-03
  3.073640e+00    4.364897e-01   5.457419e-03
  3.075850e+00    4.368229e-01   5.455965e-03
  3.078060e+00    4.593869e-01   5.591958e-03
  3.080271e+00    4.446339e-01   5.497995e-03
  3.082481e+00    4.377109e-01   5.451608e-03
  3.084692e+00    4.547252e-01   5.553151e-03
  3.086902e+00    4.384197e-01   5.449482e-03
  3.089113e+00    4.464014e-01   5.495284e-03
  3.091323e+00    4.447563e-01   5.481794e-03
  3.093534e+00    4.406303e-01   5.452974e-03
  3.095744e+00    4.358798e-01   5.420149e-03
  3.097955e+00    4.397702e-01   5.440776e-03
  3.100165e+00    4.484079e-01   5.490607e-03
  3.102375e+00    4.469843e-01   5.478466e-03
  3.104586e+00    4.448231e-01   5.461725e-03
  3.106796e+00    4.308486e-01   5.371795e-03
  3.109007e+00    4.391578e-01   5.420147e-03
  3.111217e+00    4.419273e-01   5.433521e-03
  3.113428e+00    4.454487e-01   5.451733e-03
  3.115638e+00    4.454429e-01   5.448469e-03
  3.117849e+00    4.400650e-01   5.411756e-03
  3.120059e+00    4.381111e-01   5.396312e-03
  3.122270e+00    4.456533e-01   5.439292e-03
  3.124480e+00    4.444009e-01   5.427954e-03
  3.126691e+00    4.417474e-01   5.408194e-03
  3.128901e+00    4.480211e-01   5.443300e-03
  3.131111e+00    4.658539e-01   5.546657e-03
  3.133322e+00    4.558935e-01   5.483563e-03
  3.135532e+00    4.542751e-01   5.470353e-03
  3.137743e+00    4.587912e-01   5.493972e-03
  3.139953e+00    4.370279e-01   5.358409e-03
  3.142164e+00    4.453666e-01   5.421330e-03
  3.144374e+00    4.532432e-01   5.497823e-03
  3.146585e+00    4.405479e-01   5.434818e-03
  3.148795e+00    4.362701e-01   5.419048e-03
  3.151006e+00    4.247473e-01   5.355415e-03
  3.153216e+00    4.278157e-01   5.381720e-03
  3.155426e+00    4.349909e-01   5.432926e-03
  3.157637e+00    4.368388e-01   5.449970e-03
  3.159847e+00    4.393812e-01   5.470663e-03
  3.162058e+00    4.348951e-01   5.447079e-03
  3.164268e+00    4.311725e-01   5.427735e-03
  3.166479e+00    4.303362e-01   5.426069e-03
  3.168689e+00    4.410534e-01   5.496601e-03
  3.170900e+00    4.365328e-01   5.471530e-03
  3.173110e+00    4.378209e-01   5.482444e-03
  3.175321e+00    4.513934e-01   5.569327e-03
  3.177531e+00    4.316156e-01   5.448662e-03
  3.179741e+00    4.350134e-01   5.472121e-03
  3.181952e+00    4.488125e-01   5.560372e-03
  3.184162e+00    4.425798e-01   5.523866e-03
  3.186373e+00    4.232823e-01   5.403652e-03
  3.188583e+00    4.356294e-01   5.483672e-03
  3.190794e+00    4.233734e-01   5.407720e-03
  3.193004e+00    4.368562e-01   5.494381e-03
  3.195215e+00    4.337008e-01   5.476018e-03
  3.197425e+00    4.216124e-01   5.400363e-03
  3.199636e+00    4.183570e-01   5.378692e-03
  3.201846e+00    4.280882e-01   5.440314e-03
  3.204056e+00    4.214692e-01   5.398951e-03
  3.206267e+00    4.310978e-01   5.461118e-03
  3.208477e+00    4.251895e-01   5.424493e-03
  3.210688e+00    4.284818e-01   5.446281e-03
  3.212898e+00    4.288823e-01   5.449404e-03
  3.215109e+00    4.302049e-01   5.458547e-03
  3.217319e+00    4.421921e-01   5.534708e-03
  3.219530e+00    4.417118e-01   5.532134e-03
  3.221740e+00    4.255888e-01   5.430755e-03
  3.223951e+00    4.291015e-01   5.453602e-03
  3.226161e+00    4.366886e-01   5.501801e-03
  3.228372e+00    4.276194e-01   5.444892e-03
  3.230582e+00    4.209304e-01   5.402279e-03
  3.232792e+00    4.197516e-01   5.394921e-03
  3.235003e+00    4.167144e-01   5.375631e-03
  3.237213e+00    4.237486e-01   5.420893e-03
  3.239424e+00    4.216631e-01   5.407535e-03
  3.241634e+00    4.441050e-01   5.549693e-03
  3.243845e+00    4.258222e-01   5.434360e-03
  3.246055e+00    4.209046e-01   5.402587e-03
  3.248266e+00    4.299955e-01   5.460845e-03
  3.250476e+00    4.178331e-01   5.382750e-03
  3.252687e+00    4.168831e-01   5.376542e-03
  3.254897e+00    4.421611e-01   5.537020e-03
  3.257107e+00    4.230137e-01   5.415529e-03
  3.259318e+00    4.277038e-01   5.445190e-03
  3.261528e+00    4.388864e-01   5.515802e-03
  3.263739e+00    4.451208e-01   5.554256e-03
  3.265949e+00    4.355760e-01   5.494270e-03
  3.268160e+00    4.275744e-01   5.443147e-03
  3.270370e+00    4.271605e-01   5.440009e-03
  3.272581e+00    4.191496e-01   5.388479e-03
  3.274791e+00    4.182492e-01   5.382153e-03
  3.277002e+00    4.331715e-01   5.476765e-03
  3.279212e+00    4.161631e-01   5.367800e-03
  3.281422e+00    4.151158e-01   5.360456e-03
  3.283633e+00    4.273831e-01   5.438393e-03
  3.285843e+00    4.214622e-01   5.400273e-03
  3.288054e+00    4.286111e-01   5.444923e-03
  3.290264e+00    4.168535e-01   5.369440e-03
  3.292475e+00    4.047149e-01   5.289842e-03
  3.294685e+00    4.127742e-01   5.341625e-03
  3.296896e+00    4.252985e-01   5.421295e-03
  3.299106e+00    4.393793e-01   5.509748e-03
  3.301317e+00    4.199124e-01   5.385317e-03
  3.303527e+00    4.123133e-01   5.335869e-03
  3.305737e+00    4.306088e-01   5.451928e-03
  3.307948e+00    4.178241e-01   5.369714e-03
  3.310158e+00    4.234249e-01   5.404734e-03
  3.312369e+00    4.238479e-01   5.406555e-03
  3.314579e+00    4.311450e-01   5.451969e-03
  3.316790e+00    4.297800e-01   5.442627e-03
  3.319000e+00    4.228554e-01   5.397409e-03
  3.321211e+00    4.303193e-01   5.444236e-03
  3.323421e+00    4.202945e-01   5.379234e-03
  3.325632e+00    4.342743e-01   5.467054e-03
  3.327842e+00    4.314440e-01   5.448315e-03
  3.330052e+00    4.180536e-01   5.362019e-03
  3.332263e+00    4.221627e-01   5.387293e-03
  3.334473e+00    4.359642e-01   5.473700e-03
  3.336684e+00    4.317519e-01   5.445939e-03
  3.338894e+00    4.255468e-01   5.405810e-03
  3.341105e+00    4.240201e-01   5.394886e-03
  3.343315e+00    4.174846e-01   5.352020e-03
  3.345526e+00    4.215328e-01   5.376997e-03
  3.347736e+00    4.275430e-01   5.413781e-03
  3.349947e+00    4.083882e-01   5.290209e-03
  3.352157e+00    4.173876e-01   5.346971e-03
  3.354368e+00    4.172125e-01   5.344609e-03
  3.356578e+00    4.284470e-01   5.415004e-03
  3.358788e+00    4.167836e-01   5.339489e-03
  3.360999e+00    4.328767e-01   5.440340e-03
  3.363209e+00    4.063942e-01   5.270301e-03
  3.365420e+00    4.180272e-01   5.343656e-03
  3.367630e+00    4.359708e-01   5.456121e-03
  3.369841e+00    4.289008e-01   5.410245e-03
  3.372051e+00    4.224896e-01   5.367687e-03
  3.374262e+00    4.095475e-01   5.282396e-03
  3.376472e+00    4.178709e-01   5.333349e-03
  3.378683e+00    4.457040e-01   5.505522e-03
  3.380893e+00    4.122665e-01   5.292668e-03
  3.383103e+00    4.065402e-01   5.253081e-03
  3.385314e+00    4.226403e-01   5.353840e-03
  3.387524e+00    4.206859e-01   5.338723e-03
  3.389735e+00    4.106453e-01   5.272002e-03
  3.391945e+00    3.984202e-01   5.189306e-03
  3.394156e+00    4.078152e-01   5.245952e-03
  3.396366e+00    4.165677e-01   5.298500e-03
  3.398577e+00    4.019161e-01   5.201511e-03
  3.400787e+00    3.919919e-01   5.148502e-03
  3.402998e+00    4.130670e-01   5.323294e-03
  3.405208e+00    4.013198e-01   5.267638e-03
  3.407418e+00    3.920690e-01   5.222141e-03
  3.409629e+00    4.022844e-01   5.303750e-03
  3.411839e+00    3.989176e-01   5.293254e-03
  3.414050e+00    3.982014e-01   5.299525e-03
  3.416260e+00    3.928541e-01   5.273448e-03
  3.418471e+00    3.859110e-01   5.235941e-03
  3.420681e+00    4.050171e-01   5.372639e-03
  3.422892e+00    3.931204e-01   5.301179e-03
  3.425102e+00    3.751446e-01   5.186223e-03
  3.427313e+00    3.789781e-01   5.219731e-03
  3.429523e+00    3.962704e-01   5.344640e-03
  3.431733e+00    3.932852e-01   5.331219e-03
  3.433944e+00    3.690945e-01   5.171009e-03
  3.436154e+00    3.685733e-01   5.173468e-03
  3.438365e+00    3.622602e-01   5.134743e-03
  3.440575e+00    3.783285e-01   5.253276e-03
  3.442786e+00    3.851446e-01   5.306079e-03
  3.444996e+00    3.724195e-01   5.223133e-03
  3.447207e+00    3.807158e-01   5.286336e-03
  3.449417e+00    3.750559e-01   5.287865e-03
  3.451628e+00    3.688065e-01   5.273130e-03
  3.453838e+00    3.611591e-01   5.239103e-03
  3.456049e+00    3.576328e-01   5.237072e-03
  3.458259e+00    3.634728e-01   5.301482e-03
  3.460469e+00    3.658242e-01   5.338395e-03
  3.462680e+00    3.667433e-01   5.364142e-03
  3.464890e+00    3.642436e-01   5.363602e-03
  3.467101e+00    3.737818e-01   5.450966e-03
  3.469311e+00    3.770781e-01   5.491671e-03
  3.471522e+00    3.761971e-01   5.501672e-03
  3.473732e+00    4.007196e-01   5.694541e-03
  3.475943e+00    3.987249e-01   5.696399e-03
  3.478153e+00    4.124672e-01   5.809647e-03
  3.480364e+00    4.091096e-01   5.801403e-03
  3.482574e+00    4.286406e-01   5.954065e-03
  3.484784e+00    4.257134e-01   5.948873e-03
  3.486995e+00    4.193891e-01   5.919654e-03
  3.489205e+00    4.290191e-01   6.002012e-03
  3.491416e+00    4.396846e-01   6.091282e-03
  3.493626e+00    4.378744e-01   6.093377e-03
  3.495837e+00    4.520869e-01   6.206415e-03
  3.498047e+00    4.592339e-01   6.270014e-03
  3.500258e+00    4.634483e-01   6.313501e-03
  3.502468e+00    4.493253e-01   6.230881e-03
  3.504679e+00    4.657286e-01   6.358166e-03
  3.506889e+00    4.730648e-01   6.422606e-03
  3.509099e+00    4.752411e-01   6.451765e-03
  3.511310e+00    4.721175e-01   6.444962e-03
  3.513520e+00    4.875073e-01   6.563624e-03
  3.515731e+00    4.884466e-01   6.584397e-03
  3.517941e+00    4.785309e-01   6.531383e-03
  3.520152e+00    5.013924e-01   6.699978e-03
  3.522362e+00    5.224097e-01   6.853783e-03
  3.524573e+00    5.239049e-01   6.878103e-03
  3.526783e+00    5.209528e-01   6.872197e-03
  3.528994e+00    5.259895e-01   6.917680e-03
  3.531204e+00    5.323280e-01   6.971815e-03
  3.533414e+00    5.407882e-01   7.039263e-03
  3.535625e+00    5.420628e-01   7.060091e-03
  3.537835e+00    5.288273e-01   6.985426e-03
  3.540046e+00    5.401201e-01   7.068587e-03
  3.542256e+00    5.334370e-01   7.032246e-03
  3.544467e+00    5.506918e-01   7.152785e-03
  3.546677e+00    5.364389e-01   7.067224e-03
  3.548888e+00    5.384319e-01   7.087830e-03
  3.551098e+00    5.350559e-01   7.072858e-03
  3.553309e+00    5.357676e-01   7.085741e-03
  3.555519e+00    5.400672e-01   7.125439e-03
  3.557729e+00    5.327365e-01   7.088583e-03
  3.559940e+00    5.488287e-01   7.206567e-03
  3.562150e+00    5.211679e-01   7.034167e-03
  3.564361e+00    5.359642e-01   7.146593e-03
  3.566571e+00    5.593719e-01   7.315139e-03
  3.568782e+00    5.551469e-01   7.301853e-03
  3.570992e+00    5.410411e-01   7.222291e-03
  3.573203e+00    5.420140e-01   7.242983e-03
  3.575413e+00    5.534112e-01   7.332761e-03
  3.577624e+00    5.577156e-01   7.375617e-03
  3.579834e+00    5.443289e-01   7.300575e-03
  3.582045e+00    5.449281e-01   7.318707e-03
  3.584255e+00    5.216478e-01   7.174575e-03
  3.586465e+00    5.342622e-01   7.274682e-03
  3.588676e+00    5.334672e-01   7.283418e-03
  3.590886e+00    5.385300e-01   7.331660e-03
  3.593097e+00    5.330608e-01   7.308788e-03
  3.595307e+00    5.379742e-01   7.356359e-03
  3.597518e+00    5.376993e-01   7.368711e-03
  3.599728e+00    5.321315e-01   7.344509e-03
  3.601939e+00    5.615510e-01   7.559228e-03
  3.604149e+00    5.444321e-01   7.457611e-03
  3.606360e+00    5.455778e-01   7.479755e-03
  3.608570e+00    5.484913e-01   7.514017e-03
  3.610780e+00    5.485016e-01   7.525320e-03
  3.612991e+00    5.391616e-01   7.471015e-03
  3.615201e+00    5.116587e-01   7.287541e-03
  3.617412e+00    5.283857e-01   7.412913e-03
  3.619622e+00    5.249993e-01   7.395053e-03
  3.621833e+00    5.295885e-01   7.433980e-03
  3.624043e+00    5.364010e-01   7.491147e-03
  3.626254e+00    5.357868e-01   7.496593e-03
  3.628464e+00    5.303854e-01   7.469644e-03
  3.630675e+00    5.328083e-01   7.500772e-03
  3.632885e+00    5.323345e-01   7.511887e-03
  3.635095e+00    5.430443e-01   7.601567e-03
  3.637306e+00    5.284019e-01   7.512738e-03
  3.639516e+00    5.340959e-01   7.567606e-03
  3.641727e+00    5.499316e-01   7.693760e-03
  3.643937e+00    5.383071e-01   7.626639e-03
  3.646148e+00    5.525233e-01   7.741581e-03
  3.648358e+00    5.246015e-01   7.558189e-03
  3.650569e+00    5.255596e-01   7.579677e-03
  3.652779e+00    5.277649e-01   7.610280e-03
  3.654990e+00    5.504853e-01   7.787519e-03
  3.657200e+00    5.359399e-01   7.698834e-03
  3.659410e+00    5.525588e-01   7.832605e-03
  3.661621e+00    5.291805e-01   7.680186e-03
  3.663831e+00    5.019141e-01   7.494385e-03
  3.666042e+00    5.377580e-01   7.772575e-03
  3.668252e+00    5.527665e-01   7.895877e-03
  3.670463e+00    5.338368e-01   7.774794e-03
  3.672673e+00    5.236681e-01   7.715678e-03
  3.674884e+00    5.449793e-01   7.886690e-03
  3.677094e+00    5.296577e-01   7.790607e-03
  3.679305e+00    5.314900e-01   7.819591e-03
  3.681515e+00    5.347354e-01   7.859129e-03
  3.683726e+00    5.445073e-01   7.946626e-03
  3.685936e+00    5.123436e-01   7.723852e-03
  3.688146e+00    5.099530e-01   7.721258e-03
  3.690357e+00    5.172164e-01   7.791865e-03
  3.692567e+00    5.154354e-01   7.794371e-03
  3.694778e+00    5.049822e-01   7.730684e-03
  3.696988e+00    5.119458e-01   7.799498e-03
  3.699199e+00    5.157680e-01   7.844711e-03
  3.701409e+00    5.225732e-01   7.912609e-03
  3.703620e+00    5.345981e-01   8.019564e-03
  3.705830e+00    5.219421e-01   7.940495e-03
  3.708041e+00    4.983503e-01   7.775111e-03
  3.710251e+00    5.180416e-01   7.943834e-03
  3.712461e+00    4.955954e-01   7.786158e-03
  3.714672e+00    5.099467e-01   7.914605e-03
  3.716882e+00    5.365338e-01   8.135265e-03
  3.719093e+00    5.256128e-01   8.069316e-03
  3.721303e+00    5.109103e-01   7.972430e-03
  3.723514e+00    5.254859e-01   8.102723e-03
  3.725724e+00    5.255011e-01   8.120127e-03
  3.727935e+00    5.109713e-01   8.024422e-03
  3.730145e+00    5.118844e-01   8.048840e-03
  3.732356e+00    5.088043e-01   8.042021e-03
  3.734566e+00    4.934116e-01   7.936549e-03
  3.736776e+00    4.991355e-01   7.999959e-03
  3.738987e+00    5.111051e-01   8.112988e-03
  3.741197e+00    5.080448e-01   8.106592e-03
  3.743408e+00    5.049186e-01   8.099517e-03
  3.745618e+00    5.007149e-01   8.083796e-03
  3.747829e+00    5.158694e-01   8.223415e-03
  3.750039e+00    5.021811e-01   8.131774e-03
  3.752250e+00    5.084760e-01   8.201003e-03
  3.754460e+00    5.131909e-01   8.257522e-03
  3.756671e+00    5.015188e-01   8.181780e-03
  3.758881e+00    5.167983e-01   8.324209e-03
  3.761091e+00    5.278447e-01   8.432207e-03
  3.763302e+00    5.082248e-01   8.293205e-03
  3.765512e+00    4.832209e-01   8.105304e-03
  3.767723e+00    4.959400e-01   8.230420e-03
  3.769933e+00    4.986161e-01   8.271801e-03
  3.772144e+00    5.104991e-01   8.389456e-03
  3.774354e+00    4.933109e-01   8.266609e-03
  3.776565e+00    4.974042e-01   8.320515e-03
  3.778775e+00    5.124677e-01   8.465694e-03
  3.780986e+00    4.980618e-01   8.366033e-03
  3.783196e+00    4.916460e-01   8.332005e-03
  3.785407e+00    5.048504e-01   8.463606e-03
  3.787617e+00    5.031819e-01   8.470330e-03
  3.789827e+00    5.204803e-01   8.635628e-03
  3.792038e+00    5.222049e-01   8.671165e-03
  3.794248e+00    5.094546e-01   8.586033e-03
  3.796459e+00    4.957924e-01   8.491317e-03
  3.798669e+00    4.964964e-01   8.518666e-03
  3.800880e+00    4.910884e-01   8.493325e-03
  3.803090e+00    5.112512e-01   8.688033e-03
  3.805301e+00    5.052753e-01   8.659294e-03
  3.807511e+00    5.180078e-01   8.790119e-03
  3.809722e+00    4.974043e-01   8.635718e-03
  3.811932e+00    5.243796e-01   8.889528e-03
  3.814142e+00    5.075772e-01   8.769086e-03
  3.816353e+00    4.924440e-01   8.660034e-03
  3.818563e+00    4.855652e-01   8.622061e-03
  3.820774e+00    5.135035e-01   8.890254e-03
  3.822984e+00    4.750878e-01   8.574029e-03
  3.825195e+00    4.960954e-01   8.785266e-03
  3.827405e+00    5.001219e-01   8.844701e-03
  3.829616e+00    5.020993e-01   8.886459e-03
  3.831826e+00    4.842906e-01   8.751196e-03
  3.834037e+00    5.129379e-01   9.031214e-03
  3.836247e+00    5.060763e-01   8.995584e-03
  3.838457e+00    4.965723e-01   8.935711e-03
  3.840668e+00    4.887134e-01   8.889734e-03
  3.842878e+00    4.854672e-01   8.885367e-03
  3.845089e+00    4.850367e-01   8.906750e-03
  3.847299e+00    4.863899e-01   8.944697e-03
  3.849510e+00    4.990527e-01   9.086384e-03
  3.851720e+00    4.974275e-01   9.092957e-03
  3.853931e+00    5.078278e-01   9.206848e-03
  3.856141e+00    4.907826e-01   9.069945e-03
  3.858352e+00    5.198174e-01   9.354065e-03
  3.860562e+00    5.116850e-01   9.300326e-03
  3.862772e+00    4.885606e-01   9.107173e-03
  3.864983e+00    4.960413e-01   9.196348e-03
  3.867193e+00    5.225235e-01   9.459028e-03
  3.869404e+00    5.027744e-01   9.298519e-03
  3.871614e+00    4.823878e-01   9.127805e-03
  3.873825e+00    5.029739e-01   9.341035e-03
  3.876035e+00    4.975687e-01   9.311419e-03
  3.878246e+00    5.262321e-01   9.602447e-03
  3.880456e+00    5.113239e-01   9.495068e-03
  3.882667e+00    5.099028e-01   9.511705e-03
  3.884877e+00    4.804927e-01   9.262716e-03
  3.887087e+00    4.989642e-01   9.469193e-03
  3.889298e+00    5.026798e-01   9.535188e-03
  3.891508e+00    4.954799e-01   9.497236e-03
  3.893719e+00    4.807001e-01   9.385290e-03
  3.895929e+00    4.826620e-01   9.435534e-03
  3.898140e+00    4.914426e-01   9.552677e-03
  3.900350e+00    4.921730e-01   9.591986e-03
  3.902561e+00    4.953538e-01   9.655483e-03
  3.904771e+00    4.853669e-01   9.590317e-03
  3.906982e+00    5.213482e-01   9.973597e-03
  3.909192e+00    5.093142e-01   9.892052e-03
  3.911403e+00    5.020900e-01   9.856081e-03
  3.913613e+00    5.101320e-01   9.969726e-03
  3.915823e+00    4.979446e-01   9.885048e-03
  3.918034e+00    4.826596e-01   9.767267e-03
  3.920244e+00    4.582991e-01   9.552115e-03
  3.922455e+00    4.766988e-01   9.777658e-03
  3.924665e+00    4.861612e-01   9.910568e-03
  3.926876e+00    5.003639e-01   1.009188e-02
  3.929086e+00    4.698656e-01   9.816202e-03
  3.931297e+00    4.715200e-01   9.867644e-03
  3.933507e+00    4.823384e-01   1.000895e-02
  3.935718e+00    5.073530e-01   1.029462e-02
  3.937928e+00    4.908673e-01   1.015558e-02
  3.940138e+00    4.809879e-01   1.008184e-02
  3.942349e+00    4.905566e-01   1.021175e-02
  3.944559e+00    4.669017e-01   9.991848e-03
  3.946770e+00    4.681863e-01   1.003508e-02
  3.948980e+00    5.062227e-01   1.046617e-02
  3.951191e+00    5.083941e-01   1.052009e-02
  3.953401e+00    4.864860e-01   1.032235e-02
  3.955612e+00    4.598684e-01   1.006674e-02
  3.957822e+00    4.902773e-01   1.042601e-02
  3.960033e+00    5.016763e-01   1.057971e-02
  3.962243e+00    4.736121e-01   1.031196e-02
  3.964453e+00    4.810394e-01   1.042542e-02
  3.966664e+00    5.191467e-01   1.086503e-02
  3.968874e+00    4.657101e-01   1.031860e-02
  3.971085e+00    4.836148e-01   1.053684e-02
  3.973295e+00    4.852738e-01   1.057635e-02
  3.975506e+00    4.807082e-01   1.054807e-02
  3.977716e+00    5.197393e-01   1.099063e-02
  3.979927e+00    4.992558e-01   1.079436e-02
  3.982137e+00    4.717062e-01   1.051427e-02
  3.984348e+00    4.867490e-01   1.070318e-02
  3.986558e+00    4.870904e-01   1.072931e-02
  3.988768e+00    4.745950e-01   1.061355e-02
  3.990979e+00    4.755860e-01   1.064715e-02
  3.993189e+00    4.795676e-01   1.071462e-02
  3.995400e+00    4.831311e-01   1.077778e-02
  3.997610e+00    5.260060e-01   1.127683e-02
  3.999821e+00    4.797340e-01   1.080693e-02
  4.002031e+00    4.803945e-01   1.085247e-02
  4.004242e+00    4.790744e-01   1.087583e-02
  4.006452e+00    4.860162e-01   1.099371e-02
  4.008663e+00    4.724165e-01   1.087840e-02
  4.010873e+00    4.427345e-01   1.056919e-02
  4.013084e+00    4.779066e-01   1.102177e-02
  4.015294e+00    4.720236e-01   1.099407e-02
  4.017504e+00    4.750842e-01   1.107117e-02
  4.019715e+00    4.545016e-01   1.086993e-02
  4.021925e+00    4.507740e-01   1.086655e-02
  4.024136e+00    4.767480e-01   1.121879e-02
  4.026346e+00    4.629656e-01   1.109844e-02
  4.028557e+00    4.655057e-01   1.117247e-02
  4.030767e+00    4.978009e-01   1.159969e-02
  4.032978e+00    4.767343e-01   1.139775e-02
  4.035188e+00    4.574747e-01   1.120989e-02
  4.037399e+00    4.791349e-01   1.151962e-02
  4.039609e+00    4.815610e-01   1.159636e-02
  4.041819e+00    4.926403e-01   1.177820e-02
  4.044030e+00    5.164026e-01   1.211049e-02
  4.046240e+00    5.308300e-01   1.233090e-02
  4.048451e+00    4.794620e-01   1.176983e-02
  4.050661e+00    4.640159e-01   1.162908e-02
  4.052872e+00    4.425001e-01   1.140672e-02
  4.055082e+00    4.913594e-01   1.207399e-02
  4.057293e+00    4.912433e-01   1.212682e-02
  4.059503e+00    4.905879e-01   1.217380e-02
  4.061714e+00    4.629980e-01   1.188187e-02
  4.063924e+00    4.804177e-01   1.215992e-02
  4.066134e+00    4.646230e-01   1.201485e-02
  4.068345e+00    4.517139e-01   1.190369e-02
  4.070555e+00    4.886957e-01   1.244120e-02
  4.072766e+00    4.744848e-01   1.231925e-02
  4.074976e+00    5.020404e-01   1.273514e-02
  4.077187e+00    4.993953e-01   1.276486e-02
  4.079397e+00    4.569625e-01   1.227275e-02
  4.081608e+00    4.548728e-01   1.230838e-02
  4.083818e+00    4.776257e-01   1.267792e-02
  4.086029e+00    4.674563e-01   1.260852e-02
  4.088239e+00    4.628589e-01   1.261384e-02
  4.090449e+00    4.835927e-01   1.296319e-02
  4.092660e+00    5.009243e-01   1.326599e-02
  4.094870e+00    4.923883e-01   1.322568e-02
  4.097081e+00    4.845963e-01   1.319257e-02
  4.099291e+00    4.946017e-01   1.338308e-02
  4.101502e+00    4.752207e-01   1.316726e-02
  4.103712e+00    4.910945e-01   1.343510e-02
  4.105923e+00    4.985688e-01   1.358953e-02
  4.108133e+00    5.112918e-01   1.381476e-02
  4.110344e+00    5.053714e-01   1.378724e-02
  4.112554e+00    4.869348e-01   1.358677e-02
  4.114764e+00    4.682598e-01   1.337723e-02
  4.116975e+00    5.264124e-01   1.423950e-02
  4.119185e+00    5.262684e-01   1.429544e-02
  4.121396e+00    4.700788e-01   1.356643e-02
  4.123606e+00    5.058736e-01   1.413121e-02
  4.125817e+00    4.796017e-01   1.381714e-02
  4.128027e+00    4.644613e-01   1.365453e-02
  4.130238e+00    5.039822e-01   1.428450e-02
  4.132448e+00    4.791175e-01   1.398826e-02
  4.134659e+00    5.188075e-01   1.461857e-02
  4.136869e+00    4.831060e-01   1.416969e-02
  4.139080e+00    4.395452e-01   1.357665e-02
  4.141290e+00    5.197329e-01   1.482854e-02
  4.143500e+00    4.979004e-01   1.458076e-02
  4.145711e+00    5.053005e-01   1.475730e-02
  4.147921e+00    4.776538e-01   1.441379e-02
  4.150132e+00    4.870390e-01   1.462417e-02
  4.152342e+00    5.091774e-01   1.502525e-02
  4.154553e+00    4.886843e-01   1.478979e-02
  4.156763e+00    5.152081e-01   1.526085e-02
  4.158974e+00    4.633504e-01   1.454546e-02
  4.161184e+00    4.976609e-01   1.514891e-02
  4.163395e+00    4.811959e-01   1.497248e-02
  4.165605e+00    4.822962e-01   1.506716e-02
  4.167815e+00    5.264318e-01   1.582393e-02
  4.170026e+00    5.238777e-01   1.586861e-02
  4.172236e+00    4.926160e-01   1.547118e-02
  4.174447e+00    4.542647e-01   1.493739e-02
  4.176657e+00    4.648484e-01   1.519307e-02
  4.178868e+00    5.222774e-01   1.619525e-02
  4.181078e+00    5.390605e-01   1.654644e-02
  4.183289e+00    4.736811e-01   1.559904e-02
  4.185499e+00    4.690563e-01   1.561468e-02
  4.187710e+00    4.614444e-01   1.557788e-02
  4.189920e+00    5.136136e-01   1.653385e-02
  4.192130e+00    5.658249e-01   1.745995e-02
  4.194341e+00    5.202560e-01   1.684496e-02
  4.196551e+00    5.352520e-01   1.719423e-02
  4.198762e+00    4.586761e-01   1.601775e-02
  4.200972e+00    4.667444e-01   1.626275e-02
  4.203183e+00    4.406290e-01   1.590516e-02
  4.205393e+00    4.512584e-01   1.620294e-02
  4.207604e+00    5.044279e-01   1.724807e-02
  4.209814e+00    4.952947e-01   1.720824e-02
  4.212025e+00    5.319763e-01   1.796057e-02
  4.214235e+00    4.484714e-01   1.660777e-02
  4.216445e+00    4.684635e-01   1.709654e-02
  4.218656e+00    4.808468e-01   1.745082e-02
  4.220866e+00    4.716307e-01   1.741083e-02
  4.223077e+00    4.953374e-01   1.798009e-02
  4.225287e+00    5.301718e-01   1.874806e-02
  4.227498e+00    4.559314e-01   1.752249e-02
  4.229708e+00    4.729624e-01   1.799143e-02
  4.231919e+00    4.699802e-01   1.808326e-02
  4.234129e+00    4.189041e-01   1.721577e-02
  4.236340e+00    5.249913e-01   1.943726e-02
  4.238550e+00    4.789889e-01   1.873037e-02
  4.240761e+00    4.700938e-01   1.871919e-02
  4.242971e+00    5.173290e-01   1.981723e-02
  4.245181e+00    5.165101e-01   1.998749e-02
  4.247392e+00    5.414903e-01   2.065658e-02
  4.249602e+00    4.883469e-01   1.981166e-02
  4.251813e+00    5.052139e-01   2.034921e-02
  4.254023e+00    4.767422e-01   1.996700e-02
  4.256234e+00    4.394186e-01   1.937419e-02
  4.258444e+00    4.921879e-01   2.071887e-02
  4.260655e+00    4.800663e-01   2.068741e-02
  4.262865e+00    4.806534e-01   2.093444e-02
  4.265076e+00    4.526023e-01   2.054577e-02
  4.267286e+00    5.085493e-01   2.203691e-02
  4.269496e+00    4.427077e-01   2.081189e-02
  4.271707e+00    4.623769e-01   2.153157e-02
  4.273917e+00    4.752198e-01   2.211105e-02
  4.276128e+00    4.659913e-01   2.218612e-02
  4.278338e+00    4.520690e-01   2.214395e-02
  4.280549e+00    4.596930e-01   2.264995e-02
  4.282759e+00    4.676971e-01   2.317499e-02
  4.284970e+00    3.994999e-01   2.173555e-02
  4.287180e+00    4.907546e-01   2.437921e-02
  4.289391e+00    4.618138e-01   2.382701e-02
  4.291601e+00    5.377809e-01   2.591730e-02
  4.293811e+00    4.585027e-01   2.411844e-02
  4.296022e+00    4.320627e-01   2.360080e-02
  4.298232e+00    3.674285e-01   2.194625e-02
  4.300443e+00    4.460558e-01   2.437963e-02
  4.302653e+00    5.767902e-01   2.796352e-02
  4.304864e+00    5.528997e-01   2.761579e-02
  4.307074e+00    4.661592e-01   2.558481e-02
  4.309285e+00    4.088421e-01   2.417838e-02
  4.311495e+00    4.143282e-01   2.456734e-02
  4.313706e+00    4.848580e-01   2.682515e-02
  4.315916e+00    4.532947e-01   2.619401e-02
  4.318126e+00    4.701960e-01   2.694066e-02
  4.320337e+00    4.877053e-01   2.771606e-02
  4.322547e+00    5.594296e-01   2.999861e-02
  4.324758e+00    4.789781e-01   2.804669e-02
  4.326968e+00    4.993666e-01   2.895935e-02
  4.329179e+00    4.974756e-01   2.922413e-02
  4.331389e+00    4.097047e-01   2.682578e-02
  4.333600e+00    4.391845e-01   2.810560e-02
  4.335810e+00    4.625866e-01   2.918885e-02
  4.338021e+00    4.485447e-01   2.910977e-02
  4.340231e+00    4.981990e-01   3.106339e-02
  4.342442e+00    5.454335e-01   3.293921e-02
  4.344652e+00    3.832535e-01   2.798693e-02
  4.346862e+00    3.559667e-01   2.734903e-02
  4.349073e+00    4.647334e-01   3.170400e-02
  4.351283e+00    4.180907e-01   3.052023e-02
  4.353494e+00    3.953360e-01   3.013647e-02
  4.355704e+00    4.067386e-01   3.106033e-02
  4.357915e+00    4.330405e-01   3.258141e-02
  4.360125e+00    6.508906e-01   4.062689e-02
  4.362336e+00    5.685056e-01   3.866195e-02
  4.364546e+00    5.654253e-01   3.925842e-02
  4.366757e+00    5.952452e-01   4.108329e-02
  4.368967e+00    3.045883e-01   2.997287e-02
  4.371177e+00    5.348244e-01   4.056091e-02
  4.373388e+00    5.638011e-01   4.257828e-02
  4.375598e+00    4.056118e-01   3.693911e-02
  4.377809e+00    3.189148e-01   3.358113e-02
  4.380019e+00    5.123979e-01   4.363673e-02
  4.382230e+00    2.380434e-01   3.057249e-02
  4.384440e+00    3.284957e-01   3.694753e-02
  4.386651e+00    4.837276e-01   4.621932e-02
  4.388861e+00    4.587821e-01   4.652036e-02
  4.391072e+00    5.799767e-01   5.414476e-02
  4.393282e+00    4.275725e-01   4.828829e-02
  4.395492e+00    5.159525e-01   5.524641e-02
  4.397703e+00    3.505256e-01   4.761918e-02
  4.399913e+00    2.813649e-01   4.482254e-02
  4.402124e+00    3.650856e-01   5.395348e-02
  4.404334e+00    5.660226e-01   7.140353e-02
  4.406545e+00    3.101926e-01   5.680244e-02
  4.408755e+00    4.306826e-01   7.257929e-02
  4.410966e+00    1.835417e-01   5.245584e-02
  4.413176e+00    7.159550e-02   3.707634e-02
  4.415387e+00   -7.675311e-01            nan
  4.417597e+00   -2.027282e+00            nan
  4.419807e+00    2.807437e-01   1.902519e-01
