# == pyFAI calibration ==
# Distance Sample to Detector: 0.216 m
# PONI: 1.166e-01, 1.308e-01 m
# Rotations: 0.000000 0.000000 0.000000 rad
# 
# == Fit2d calibration ==
# Distance Sample-beamCenter: 216.000 mm
# Center: x=1744.293, y=1555.000 pix
# Tilt: 0.000 deg  TiltPlanRot: 0.000 deg
# 
# Detector Eiger 9M	 PixelSize= 7.500e-05, 7.500e-05 m
#    Detector has a mask: True 
#    Detector has a dark current: False 
#    detector has a flat field: False 
# 
# Wavelength: 9.8e-11 m
# Mask applied: from detector
# Dark current applied: False
# Flat field applied: False
# Polarization factor: None
# Normalization factor: 1.0
# 
# Headers of the input frame:
# {
# "_array_data.header_convention": "SLS_1.0",
# "_array_data.header_contents": "# Detector: Dectris Eiger 9M, S/N E-18-0102\r\n# Pixel_size 75e-6 m x 75e-6 m\r\n# Silicon sensor, thickness 0.000450 m\r\n# Exposure_time 0.024997 s\r\n# Exposure_period 0.025000 s\r\n# Count_cutoff 62318 counts\r\n# Wavelength 0.980106 A\r\n# Detector_distance 0.215992 m\r\n# Beam_xy (1555, 1744) pixels\r\n# Start_angle 0.000000 deg.\r\n# Angle_increment 0.000000 deg.",
# "Content-Type": "application/octet-stream;",
# "conversions": "x-CBF_BYTE_OFFSET",
# "Content-Transfer-Encoding": "BINARY",
# "X-Binary-Size": "10166636",
# "X-Binary-ID": "1",
# "X-Binary-Element-Type": "signed 32-bit integer",
# "X-Binary-Element-Byte-Order": "LITTLE_ENDIAN",
# "Content-MD5": "sKGQbdehRKA/nhJPKv70Fw==",
# "X-Binary-Number-of-Elements": "10166590",
# "X-Binary-Size-Fastest-Dimension": "3110",
# "X-Binary-Size-Second-Dimension": "3269",
# "X-Binary-Size-Padding": "4095"
# }
# --> H:/Proxima2a_2019-04-05/RAW_DATA/C5_gel17_position5/C5_mesh_1_data.cbf/C5_mesh_1_data.cbf000163.dat
#        q_A^-1              I           sigma 
  1.105228e-03    1.943296e+00   7.543214e-01
  3.315685e-03    1.189750e+00   3.588173e-01
  5.526141e-03    1.289185e+00   2.888216e-01
  7.736597e-03    1.286313e+00   2.437213e-01
  9.947054e-03    1.503173e+00   2.322636e-01
  1.215751e-02    1.620261e+00   2.180525e-01
  1.436797e-02    1.234311e+00   1.750605e-01
  1.657842e-02    1.481481e+00   1.785223e-01
  1.878888e-02    1.460841e+00   1.665195e-01
  2.099934e-02    1.451233e+00   1.570256e-01
  2.320979e-02    1.450976e+00   1.493355e-01
  2.542025e-02    1.228150e+00   1.312911e-01
  2.763070e-02    1.323404e+00   1.307183e-01
  2.984116e-02    1.501724e+00   1.339897e-01
  3.205162e-02    1.498655e+00   1.291627e-01
  3.426207e-02    1.407762e+00   1.210708e-01
  3.647253e-02    1.515729e+00   1.217588e-01
  3.868299e-02    1.440382e+00   1.152615e-01
  4.089344e-02    1.376261e+00   1.095799e-01
  4.310390e-02    1.333852e+00   1.050697e-01
  4.531436e-02    1.425879e+00   1.059515e-01
  4.752481e-02    1.344779e+00   1.004719e-01
  4.973527e-02    1.487990e+00   1.033122e-01
  5.194572e-02    1.419101e+00   9.872101e-02
  5.415618e-02    1.337788e+00   9.387121e-02
  5.636664e-02    1.410667e+00   9.448817e-02
  5.857709e-02    1.479799e+00   9.493271e-02
  6.078755e-02    1.392956e+00   9.041202e-02
  6.299801e-02    1.296040e+00   8.566546e-02
  6.520846e-02    1.307364e+00   8.456857e-02
  6.741892e-02    1.473990e+00   8.830738e-02
  6.962938e-02    1.496392e+00   8.755663e-02
  7.183983e-02    1.529842e+00   8.715562e-02
  7.405029e-02    1.490411e+00   8.472944e-02
  7.626074e-02    1.427405e+00   8.170787e-02
  7.847120e-02    1.500270e+00   8.257694e-02
  8.068166e-02    1.504918e+00   8.156327e-02
  8.289211e-02    1.529519e+00   8.112302e-02
  8.510257e-02    1.467852e+00   7.843149e-02
  8.731303e-02    1.453735e+00   7.705615e-02
  8.952348e-02    1.529760e+00   7.806553e-02
  9.173394e-02    1.525665e+00   7.701289e-02
  9.394439e-02    1.592995e+00   7.776004e-02
  9.615485e-02    1.637060e+00   7.791515e-02
  9.836531e-02    1.582313e+00   7.573360e-02
  1.005758e-01    1.558630e+00   7.433458e-02
  1.027862e-01    1.570434e+00   7.380704e-02
  1.049967e-01    1.492004e+00   7.117787e-02
  1.072071e-01    1.524556e+00   7.120367e-02
  1.094176e-01    1.601657e+00   7.223991e-02
  1.116280e-01    1.618240e+00   7.188877e-02
  1.138385e-01    1.627988e+00   7.140012e-02
  1.160490e-01    1.647882e+00   7.114676e-02
  1.182594e-01    1.689886e+00   7.136975e-02
  1.204699e-01    1.559024e+00   6.791835e-02
  1.226803e-01    1.499072e+00   6.599420e-02
  1.248908e-01    1.569030e+00   6.691556e-02
  1.271012e-01    1.517815e+00   6.523831e-02
  1.293117e-01    1.538630e+00   6.511946e-02
  1.315222e-01    1.628026e+00   6.641771e-02
  1.337326e-01    1.649675e+00   6.630171e-02
  1.359431e-01    1.597974e+00   6.529272e-02
  1.381535e-01    1.619972e+00   6.662303e-02
  1.403640e-01    1.600862e+00   6.651486e-02
  1.425744e-01    1.557261e+00   6.570762e-02
  1.447849e-01    1.449058e+00   6.339832e-02
  1.469953e-01    1.551238e+00   6.555442e-02
  1.492058e-01    1.575806e+00   6.599474e-02
  1.514163e-01    1.528934e+00   6.489788e-02
  1.536267e-01    1.530704e+00   6.480864e-02
  1.558372e-01    1.603482e+00   6.618498e-02
  1.580476e-01    1.582556e+00   6.559218e-02
  1.602581e-01    1.600628e+00   6.579807e-02
  1.624685e-01    1.662749e+00   6.687913e-02
  1.646790e-01    1.767868e+00   6.876277e-02
  1.668895e-01    1.756376e+00   6.834097e-02
  1.690999e-01    1.828294e+00   6.951673e-02
  1.713104e-01    1.772872e+00   6.824253e-02
  1.735208e-01    1.846483e+00   6.942827e-02
  1.757313e-01    1.815227e+00   6.862244e-02
  1.779417e-01    1.767206e+00   6.748784e-02
  1.801522e-01    1.801653e+00   6.792536e-02
  1.823626e-01    1.933982e+00   7.014140e-02
  1.845731e-01    1.878245e+00   6.889938e-02
  1.867836e-01    1.966285e+00   7.025773e-02
  1.889940e-01    1.996377e+00   7.056199e-02
  1.912045e-01    1.955817e+00   6.960829e-02
  1.934149e-01    2.019346e+00   7.049302e-02
  1.956254e-01    2.054169e+00   7.086376e-02
  1.978358e-01    2.028808e+00   7.018362e-02
  2.000463e-01    2.037316e+00   7.009756e-02
  2.022568e-01    2.009115e+00   6.938224e-02
  2.044672e-01    1.993744e+00   6.887954e-02
  2.066777e-01    2.032101e+00   6.930817e-02
  2.088881e-01    2.022881e+00   6.892451e-02
  2.110986e-01    1.935980e+00   6.719657e-02
  2.133090e-01    1.937824e+00   6.701001e-02
  2.155195e-01    2.021739e+00   6.821847e-02
  2.177300e-01    2.018150e+00   6.762247e-02
  2.199404e-01    1.972237e+00   6.508738e-02
  2.221509e-01    1.982663e+00   6.418759e-02
  2.243613e-01    1.966193e+00   6.311011e-02
  2.265718e-01    2.021184e+00   6.328126e-02
  2.287822e-01    2.108519e+00   6.399427e-02
  2.309927e-01    2.086098e+00   6.307326e-02
  2.332031e-01    2.106391e+00   6.283684e-02
  2.354136e-01    2.167045e+00   6.321855e-02
  2.376241e-01    2.150172e+00   6.248318e-02
  2.398345e-01    2.245306e+00   6.337795e-02
  2.420450e-01    2.193717e+00   6.219792e-02
  2.442554e-01    2.188609e+00   6.169747e-02
  2.464659e-01    2.142554e+00   6.063503e-02
  2.486763e-01    2.088530e+00   5.947219e-02
  2.508868e-01    2.079166e+00   5.896437e-02
  2.530973e-01    2.094697e+00   5.881727e-02
  2.553077e-01    2.124067e+00   5.886891e-02
  2.575182e-01    2.068891e+00   5.775553e-02
  2.597286e-01    2.055290e+00   5.723074e-02
  2.619391e-01    2.011802e+00   5.629607e-02
  2.641495e-01    2.043676e+00   5.642620e-02
  2.663600e-01    2.153354e+00   5.760203e-02
  2.685704e-01    2.033923e+00   5.567840e-02
  2.707809e-01    2.007544e+00   5.502253e-02
  2.729914e-01    2.043476e+00   5.522346e-02
  2.752018e-01    2.021777e+00   5.464359e-02
  2.774123e-01    2.026661e+00   5.443008e-02
  2.796227e-01    2.027580e+00   5.417313e-02
  2.818332e-01    2.067749e+00   5.443421e-02
  2.840436e-01    1.908847e+00   5.204731e-02
  2.862541e-01    1.939334e+00   5.220909e-02
  2.884646e-01    1.995835e+00   5.271282e-02
  2.906750e-01    1.976619e+00   5.220970e-02
  2.928855e-01    2.015467e+00   5.247600e-02
  2.950959e-01    1.871652e+00   5.033683e-02
  2.973064e-01    1.888101e+00   5.033030e-02
  2.995168e-01    1.993757e+00   5.148512e-02
  3.017273e-01    1.919819e+00   5.029869e-02
  3.039377e-01    1.961580e+00   5.062019e-02
  3.061482e-01    1.990344e+00   5.076938e-02
  3.083587e-01    1.981325e+00   5.043501e-02
  3.105691e-01    1.850347e+00   4.853128e-02
  3.127796e-01    1.921234e+00   4.924424e-02
  3.149900e-01    1.935135e+00   4.921616e-02
  3.172005e-01    1.980303e+00   4.958363e-02
  3.194109e-01    2.045007e+00   5.017918e-02
  3.216214e-01    1.964049e+00   4.897525e-02
  3.238319e-01    1.872956e+00   4.763654e-02
  3.260423e-01    1.903004e+00   4.782586e-02
  3.282528e-01    1.864105e+00   4.714610e-02
  3.304632e-01    1.920542e+00   4.766910e-02
  3.326737e-01    1.845262e+00   4.654318e-02
  3.348841e-01    1.878877e+00   4.678309e-02
  3.370946e-01    1.893508e+00   4.678819e-02
  3.393050e-01    1.893812e+00   4.661470e-02
  3.415155e-01    1.849494e+00   4.589283e-02
  3.437260e-01    1.818160e+00   4.533375e-02
  3.459364e-01    1.781865e+00   4.471299e-02
  3.481469e-01    1.836109e+00   4.522276e-02
  3.503573e-01    1.920920e+00   4.608693e-02
  3.525678e-01    1.859519e+00   4.518278e-02
  3.547782e-01    1.825716e+00   4.460840e-02
  3.569887e-01    1.831966e+00   4.452636e-02
  3.591992e-01    1.783747e+00   4.378102e-02
  3.614096e-01    1.728234e+00   4.294494e-02
  3.636201e-01    1.787230e+00   4.351832e-02
  3.658305e-01    1.744044e+00   4.284268e-02
  3.680410e-01    1.867930e+00   4.418571e-02
  3.702514e-01    1.908667e+00   4.451474e-02
  3.724619e-01    1.811079e+00   4.321415e-02
  3.746724e-01    1.855804e+00   4.359852e-02
  3.768828e-01    1.768631e+00   4.241903e-02
  3.790933e-01    1.751111e+00   4.207084e-02
  3.813037e-01    1.850383e+00   4.310542e-02
  3.835142e-01    1.826267e+00   4.268297e-02
  3.857246e-01    1.821005e+00   4.248350e-02
  3.879351e-01    1.750504e+00   4.151818e-02
  3.901455e-01    1.796339e+00   4.192430e-02
  3.923560e-01    1.821881e+00   4.208713e-02
  3.945665e-01    1.793171e+00   4.162179e-02
  3.967769e-01    1.811238e+00   4.169994e-02
  3.989874e-01    1.806608e+00   4.151658e-02
  4.011978e-01    1.775674e+00   4.103302e-02
  4.034083e-01    1.834497e+00   4.157910e-02
  4.056187e-01    1.870907e+00   4.186033e-02
  4.078292e-01    1.817763e+00   4.113669e-02
  4.100397e-01    1.756330e+00   4.031209e-02
  4.122501e-01    1.832187e+00   4.105027e-02
  4.144606e-01    1.806193e+00   4.063716e-02
  4.166710e-01    1.821263e+00   4.068502e-02
  4.188815e-01    1.782460e+00   4.013037e-02
  4.210919e-01    1.824607e+00   4.048306e-02
  4.233024e-01    1.763831e+00   3.968605e-02
  4.255128e-01    1.810756e+00   4.009424e-02
  4.277233e-01    1.837529e+00   4.027352e-02
  4.299338e-01    1.796547e+00   3.970731e-02
  4.321442e-01    1.732975e+00   3.888686e-02
  4.343547e-01    1.753307e+00   3.900370e-02
  4.365651e-01    1.744926e+00   3.879981e-02
  4.387756e-01    1.760403e+00   3.886237e-02
  4.409860e-01    1.775730e+00   3.892307e-02
  4.431965e-01    1.762734e+00   3.867314e-02
  4.454070e-01    1.735260e+00   3.826382e-02
  4.476174e-01    1.725564e+00   3.805202e-02
  4.498279e-01    1.675709e+00   3.739624e-02
  4.520383e-01    1.693815e+00   3.749456e-02
  4.542488e-01    1.680083e+00   3.724158e-02
  4.564592e-01    1.711835e+00   3.749098e-02
  4.586697e-01    1.722253e+00   3.750510e-02
  4.608801e-01    1.671214e+00   3.684624e-02
  4.630906e-01    1.664932e+00   3.667950e-02
  4.653011e-01    1.728360e+00   3.727339e-02
  4.675115e-01    1.783059e+00   3.775890e-02
  4.697220e-01    1.737838e+00   3.717943e-02
  4.719324e-01    1.724367e+00   3.693924e-02
  4.741429e-01    1.745297e+00   3.706698e-02
  4.763533e-01    1.756935e+00   3.709503e-02
  4.785638e-01    1.744972e+00   3.687303e-02
  4.807743e-01    1.652511e+00   3.579159e-02
  4.829847e-01    1.702767e+00   3.623994e-02
  4.851952e-01    1.733130e+00   3.646912e-02
  4.874056e-01    1.738076e+00   3.642905e-02
  4.896161e-01    1.706760e+00   3.600985e-02
  4.918265e-01    1.682538e+00   3.566462e-02
  4.940370e-01    1.702173e+00   3.578355e-02
  4.962475e-01    1.700088e+00   3.567334e-02
  4.984579e-01    1.644140e+00   3.499496e-02
  5.006684e-01    1.682205e+00   3.531144e-02
  5.028788e-01    1.700589e+00   3.541782e-02
  5.050893e-01    1.723231e+00   3.556612e-02
  5.072997e-01    1.718006e+00   3.542640e-02
  5.095102e-01    1.741334e+00   3.558068e-02
  5.117206e-01    1.726772e+00   3.534735e-02
  5.139311e-01    1.696526e+00   3.495349e-02
  5.161416e-01    1.712029e+00   3.502985e-02
  5.183520e-01    1.673257e+00   3.454863e-02
  5.205625e-01    1.688010e+00   3.461931e-02
  5.227729e-01    1.629539e+00   3.393512e-02
  5.249834e-01    1.634563e+00   3.390846e-02
  5.271938e-01    1.718648e+00   3.468856e-02
  5.294043e-01    1.704819e+00   3.446898e-02
  5.316148e-01    1.755552e+00   3.489798e-02
  5.338252e-01    1.793273e+00   3.519031e-02
  5.360357e-01    1.752197e+00   3.470576e-02
  5.382461e-01    1.731384e+00   3.442103e-02
  5.404566e-01    1.735315e+00   3.438167e-02
  5.426670e-01    1.758101e+00   3.452869e-02
  5.448775e-01    1.793132e+00   3.479307e-02
  5.470879e-01    1.789411e+00   3.467947e-02
  5.492984e-01    1.770754e+00   3.442146e-02
  5.515089e-01    1.799204e+00   3.461995e-02
  5.537193e-01    1.772492e+00   3.428629e-02
  5.559298e-01    1.760023e+00   3.409052e-02
  5.581402e-01    1.804409e+00   3.444231e-02
  5.603507e-01    1.771201e+00   3.404963e-02
  5.625611e-01    1.795908e+00   3.421188e-02
  5.647716e-01    1.838431e+00   3.453939e-02
  5.669821e-01    1.800344e+00   3.410606e-02
  5.691925e-01    1.798118e+00   3.401180e-02
  5.714030e-01    1.767525e+00   3.364933e-02
  5.736134e-01    1.760183e+00   3.350795e-02
  5.758239e-01    1.740476e+00   3.324872e-02
  5.780343e-01    1.722583e+00   3.300740e-02
  5.802448e-01    1.705360e+00   3.277324e-02
  5.824552e-01    1.663707e+00   3.230261e-02
  5.846657e-01    1.654489e+00   3.214582e-02
  5.868762e-01    1.657925e+00   3.211221e-02
  5.890866e-01    1.646926e+00   3.193910e-02
  5.912971e-01    1.657112e+00   3.197140e-02
  5.935075e-01    1.669010e+00   3.201964e-02
  5.957180e-01    1.665345e+00   3.191886e-02
  5.979284e-01    1.632941e+00   3.154228e-02
  6.001389e-01    1.619554e+00   3.134874e-02
  6.023494e-01    1.653949e+00   3.161555e-02
  6.045598e-01    1.658913e+00   3.159850e-02
  6.067703e-01    1.674451e+00   3.168228e-02
  6.089807e-01    1.704519e+00   3.190121e-02
  6.111912e-01    1.715704e+00   3.194181e-02
  6.134016e-01    1.688593e+00   3.162524e-02
  6.156121e-01    1.655000e+00   3.124684e-02
  6.178226e-01    1.665501e+00   3.128374e-02
  6.200330e-01    1.707063e+00   3.160920e-02
  6.222435e-01    1.719053e+00   3.165719e-02
  6.244539e-01    1.706252e+00   3.147734e-02
  6.266644e-01    1.723905e+00   3.157805e-02
  6.288748e-01    1.671896e+00   3.103753e-02
  6.310853e-01    1.679717e+00   3.104963e-02
  6.332957e-01    1.672291e+00   3.092110e-02
  6.355062e-01    1.733752e+00   3.142303e-02
  6.377167e-01    1.701572e+00   3.107032e-02
  6.399271e-01    1.707093e+00   3.106105e-02
  6.421376e-01    1.721289e+00   3.113039e-02
  6.443480e-01    1.724930e+00   3.110403e-02
  6.465585e-01    1.691430e+00   3.074214e-02
  6.487689e-01    1.752566e+00   3.123372e-02
  6.509794e-01    1.690771e+00   3.062028e-02
  6.531899e-01    1.632638e+00   3.003268e-02
  6.554003e-01    1.652265e+00   3.015585e-02
  6.576108e-01    1.621796e+00   2.982089e-02
  6.598212e-01    1.602750e+00   2.959018e-02
  6.620317e-01    1.580415e+00   2.932884e-02
  6.642421e-01    1.604668e+00   2.949831e-02
  6.664526e-01    1.607313e+00   2.946824e-02
  6.686630e-01    1.616415e+00   2.949691e-02
  6.708735e-01    1.674555e+00   2.996763e-02
  6.730840e-01    1.670521e+00   2.987697e-02
  6.752944e-01    1.624406e+00   2.940812e-02
  6.775049e-01    1.608461e+00   2.921028e-02
  6.797153e-01    1.646433e+00   2.949955e-02
  6.819258e-01    1.641575e+00   2.940288e-02
  6.841362e-01    1.629170e+00   2.923890e-02
  6.863467e-01    1.611591e+00   2.902863e-02
  6.885572e-01    1.621754e+00   2.906784e-02
  6.907676e-01    1.607779e+00   2.889047e-02
  6.929781e-01    1.608884e+00   2.884901e-02
  6.951885e-01    1.647399e+00   2.914060e-02
  6.973990e-01    1.617501e+00   2.882389e-02
  6.996094e-01    1.637830e+00   2.895343e-02
  7.018199e-01    1.631366e+00   2.884552e-02
  7.040303e-01    1.623899e+00   2.872889e-02
  7.062408e-01    1.588638e+00   2.836549e-02
  7.084513e-01    1.569854e+00   2.814825e-02
  7.106617e-01    1.632756e+00   2.865674e-02
  7.128722e-01    1.659236e+00   2.883823e-02
  7.150826e-01    1.641418e+00   2.863352e-02
  7.172931e-01    1.615157e+00   2.835459e-02
  7.195035e-01    1.581659e+00   2.801076e-02
  7.217140e-01    1.579729e+00   2.804319e-02
  7.239245e-01    1.611590e+00   2.855397e-02
  7.261349e-01    1.622880e+00   2.876408e-02
  7.283454e-01    1.580977e+00   2.846287e-02
  7.305558e-01    1.555321e+00   2.828461e-02
  7.327663e-01    1.615062e+00   2.886575e-02
  7.349767e-01    1.581553e+00   2.858116e-02
  7.371872e-01    1.571201e+00   2.847629e-02
  7.393976e-01    1.587719e+00   2.861124e-02
  7.416081e-01    1.633679e+00   2.900595e-02
  7.438186e-01    1.610209e+00   2.865090e-02
  7.460290e-01    1.584600e+00   2.812697e-02
  7.482395e-01    1.609007e+00   2.816974e-02
  7.504499e-01    1.556980e+00   2.757506e-02
  7.526604e-01    1.586471e+00   2.771798e-02
  7.548708e-01    1.602356e+00   2.776622e-02
  7.570813e-01    1.598369e+00   2.768029e-02
  7.592918e-01    1.585574e+00   2.753399e-02
  7.615022e-01    1.576100e+00   2.741777e-02
  7.637127e-01    1.603805e+00   2.762462e-02
  7.659231e-01    1.583004e+00   2.741283e-02
  7.681336e-01    1.542837e+00   2.703151e-02
  7.703440e-01    1.578497e+00   2.731086e-02
  7.725545e-01    1.588420e+00   2.736554e-02
  7.747650e-01    1.690852e+00   2.819453e-02
  7.769754e-01    1.643232e+00   2.774089e-02
  7.791859e-01    1.570940e+00   2.707038e-02
  7.813963e-01    1.567882e+00   2.699162e-02
  7.836068e-01    1.573395e+00   2.698719e-02
  7.858172e-01    1.590037e+00   2.707883e-02
  7.880277e-01    1.598354e+00   2.709791e-02
  7.902381e-01    1.635991e+00   2.736528e-02
  7.924486e-01    1.613152e+00   2.712328e-02
  7.946591e-01    1.640556e+00   2.730376e-02
  7.968695e-01    1.656186e+00   2.738446e-02
  7.990800e-01    1.672697e+00   2.747143e-02
  8.012904e-01    1.666324e+00   2.737163e-02
  8.035009e-01    1.672651e+00   2.737473e-02
  8.057113e-01    1.665777e+00   2.727119e-02
  8.079218e-01    1.682454e+00   2.736007e-02
  8.101323e-01    1.659706e+00   2.712833e-02
  8.123427e-01    1.669851e+00   2.716472e-02
  8.145532e-01    1.669543e+00   2.711576e-02
  8.167636e-01    1.612825e+00   2.660636e-02
  8.189741e-01    1.633547e+00   2.673210e-02
  8.211845e-01    1.649373e+00   2.681625e-02
  8.233950e-01    1.677743e+00   2.700193e-02
  8.256054e-01    1.657296e+00   2.679241e-02
  8.278159e-01    1.651387e+00   2.670045e-02
  8.300264e-01    1.668584e+00   2.679563e-02
  8.322368e-01    1.665063e+00   2.672387e-02
  8.344473e-01    1.696315e+00   2.692936e-02
  8.366577e-01    1.687171e+00   2.681351e-02
  8.388682e-01    1.657191e+00   2.653171e-02
  8.410786e-01    1.650491e+00   2.643583e-02
  8.432891e-01    1.650902e+00   2.639711e-02
  8.454996e-01    1.638172e+00   2.625353e-02
  8.477100e-01    1.667668e+00   2.644678e-02
  8.499205e-01    1.686542e+00   2.655426e-02
  8.521309e-01    1.657911e+00   2.628686e-02
  8.543414e-01    1.619513e+00   2.594013e-02
  8.565518e-01    1.621924e+00   2.591901e-02
  8.587623e-01    1.637466e+00   2.600235e-02
  8.609727e-01    1.654741e+00   2.609862e-02
  8.631832e-01    1.625094e+00   2.582389e-02
  8.653937e-01    1.615431e+00   2.570744e-02
  8.676041e-01    1.629267e+00   2.577832e-02
  8.698146e-01    1.647457e+00   2.588222e-02
  8.720250e-01    1.618879e+00   2.561765e-02
  8.742355e-01    1.620249e+00   2.558947e-02
  8.764459e-01    1.611444e+00   2.548091e-02
  8.786564e-01    1.579408e+00   2.518876e-02
  8.808669e-01    1.593985e+00   2.526634e-02
  8.830773e-01    1.623618e+00   2.546175e-02
  8.852878e-01    1.603296e+00   2.526397e-02
  8.874982e-01    1.612505e+00   2.529964e-02
  8.897087e-01    1.597034e+00   2.514036e-02
  8.919191e-01    1.560552e+00   2.481426e-02
  8.941296e-01    1.584341e+00   2.496557e-02
  8.963401e-01    1.604361e+00   2.508635e-02
  8.985505e-01    1.613587e+00   2.512125e-02
  9.007610e-01    1.599342e+00   2.497341e-02
  9.029714e-01    1.545820e+00   2.451673e-02
  9.051819e-01    1.577964e+00   2.473336e-02
  9.073923e-01    1.583353e+00   2.473918e-02
  9.096028e-01    1.594626e+00   2.479222e-02
  9.118132e-01    1.617732e+00   2.493479e-02
  9.140237e-01    1.612280e+00   2.485596e-02
  9.162342e-01    1.633784e+00   2.498627e-02
  9.184446e-01    1.644103e+00   2.502878e-02
  9.206551e-01    1.653591e+00   2.506473e-02
  9.228655e-01    1.616425e+00   2.474604e-02
  9.250760e-01    1.607912e+00   2.464535e-02
  9.272864e-01    1.651767e+00   2.494439e-02
  9.294969e-01    1.730683e+00   2.549611e-02
  9.317074e-01    1.705613e+00   2.527506e-02
  9.339178e-01    1.608327e+00   2.451011e-02
  9.361283e-01    1.616536e+00   2.453633e-02
  9.383387e-01    1.636525e+00   2.465398e-02
  9.405492e-01    1.665037e+00   2.483311e-02
  9.427596e-01    1.650128e+00   2.468609e-02
  9.449701e-01    1.640519e+00   2.458066e-02
  9.471805e-01    1.664032e+00   2.472110e-02
  9.493910e-01    1.681665e+00   2.481765e-02
  9.516015e-01    1.687475e+00   2.482577e-02
  9.538119e-01    1.718695e+00   2.502004e-02
  9.560224e-01    1.714890e+00   2.495715e-02
  9.582328e-01    1.726641e+00   2.500892e-02
  9.604433e-01    1.728046e+00   2.498365e-02
  9.626537e-01    1.788033e+00   2.537943e-02
  9.648642e-01    1.755432e+00   2.511255e-02
  9.670747e-01    1.791763e+00   2.533609e-02
  9.692851e-01    1.778388e+00   2.520782e-02
  9.714956e-01    1.820355e+00   2.546754e-02
  9.737060e-01    1.821027e+00   2.543879e-02
  9.759165e-01    1.849411e+00   2.560012e-02
  9.781269e-01    1.830095e+00   2.543278e-02
  9.803374e-01    1.813665e+00   2.528333e-02
  9.825478e-01    1.810379e+00   2.522711e-02
  9.847583e-01    1.794670e+00   2.508330e-02
  9.869688e-01    1.815225e+00   2.519277e-02
  9.891792e-01    1.798931e+00   2.504613e-02
  9.913897e-01    1.753042e+00   2.469124e-02
  9.936001e-01    1.732651e+00   2.451508e-02
  9.958106e-01    1.709281e+00   2.431610e-02
  9.980210e-01    1.669727e+00   2.400191e-02
  1.000231e+00    1.662683e+00   2.408244e-02
  1.002442e+00    1.648100e+00   2.410401e-02
  1.004652e+00    1.577815e+00   2.365023e-02
  1.006863e+00    1.600485e+00   2.386892e-02
  1.009073e+00    1.595614e+00   2.386907e-02
  1.011284e+00    1.564475e+00   2.366660e-02
  1.013494e+00    1.589267e+00   2.387704e-02
  1.015705e+00    1.588657e+00   2.389502e-02
  1.017915e+00    1.597656e+00   2.397912e-02
  1.020126e+00    1.609214e+00   2.408195e-02
  1.022336e+00    1.652918e+00   2.441881e-02
  1.024547e+00    1.657854e+00   2.446684e-02
  1.026757e+00    1.655533e+00   2.445838e-02
  1.028967e+00    1.595401e+00   2.401790e-02
  1.031178e+00    1.569427e+00   2.382780e-02
  1.033388e+00    1.579969e+00   2.391283e-02
  1.035599e+00    1.588269e+00   2.397904e-02
  1.037809e+00    1.594283e+00   2.402775e-02
  1.040020e+00    1.535036e+00   2.357833e-02
  1.042230e+00    1.519433e+00   2.346013e-02
  1.044441e+00    1.518787e+00   2.345490e-02
  1.046651e+00    1.555259e+00   2.373504e-02
  1.048862e+00    1.516048e+00   2.343314e-02
  1.051072e+00    1.510457e+00   2.338753e-02
  1.053282e+00    1.515322e+00   2.342419e-02
  1.055493e+00    1.506915e+00   2.335481e-02
  1.057703e+00    1.500258e+00   2.330165e-02
  1.059914e+00    1.516498e+00   2.342311e-02
  1.062124e+00    1.537721e+00   2.358234e-02
  1.064335e+00    1.543222e+00   2.362096e-02
  1.066545e+00    1.543864e+00   2.361977e-02
  1.068756e+00    1.635056e+00   2.430335e-02
  1.070966e+00    1.913621e+00   2.628480e-02
  1.073177e+00    1.981387e+00   2.673927e-02
  1.075387e+00    1.675398e+00   2.458249e-02
  1.077597e+00    1.573873e+00   2.381842e-02
  1.079808e+00    1.606817e+00   2.392738e-02
  1.082018e+00    1.551590e+00   2.331788e-02
  1.084229e+00    1.539624e+00   2.311478e-02
  1.086439e+00    1.500379e+00   2.272953e-02
  1.088650e+00    1.453546e+00   2.229632e-02
  1.090860e+00    1.448103e+00   2.218704e-02
  1.093071e+00    1.429564e+00   2.198284e-02
  1.095281e+00    1.440530e+00   2.200982e-02
  1.097492e+00    1.460962e+00   2.211017e-02
  1.099702e+00    1.429974e+00   2.182322e-02
  1.101912e+00    1.447791e+00   2.190977e-02
  1.104123e+00    1.452600e+00   2.189762e-02
  1.106333e+00    1.422384e+00   2.162443e-02
  1.108544e+00    1.454274e+00   2.182083e-02
  1.110754e+00    1.459390e+00   2.181568e-02
  1.112965e+00    1.449538e+00   2.170101e-02
  1.115175e+00    1.406881e+00   2.133831e-02
  1.117386e+00    1.423138e+00   2.142187e-02
  1.119596e+00    1.416420e+00   2.133332e-02
  1.121807e+00    1.407572e+00   2.122781e-02
  1.124017e+00    1.387264e+00   2.103772e-02
  1.126228e+00    1.391314e+00   2.103283e-02
  1.128438e+00    1.371203e+00   2.084389e-02
  1.130648e+00    1.383128e+00   2.090020e-02
  1.132859e+00    1.364607e+00   2.072584e-02
  1.135069e+00    1.395043e+00   2.092093e-02
  1.137280e+00    1.376752e+00   2.075051e-02
  1.139490e+00    1.373210e+00   2.069088e-02
  1.141701e+00    1.370231e+00   2.063549e-02
  1.143911e+00    1.389567e+00   2.074863e-02
  1.146122e+00    1.384827e+00   2.068117e-02
  1.148332e+00    1.390414e+00   2.069082e-02
  1.150543e+00    1.384044e+00   2.061249e-02
  1.152753e+00    1.372232e+00   2.049353e-02
  1.154963e+00    1.363478e+00   2.039714e-02
  1.157174e+00    1.357860e+00   2.032507e-02
  1.159384e+00    1.382797e+00   2.048089e-02
  1.161595e+00    1.428246e+00   2.078427e-02
  1.163805e+00    1.469561e+00   2.105240e-02
  1.166016e+00    1.685000e+00   2.251008e-02
  1.168226e+00    1.894912e+00   2.383701e-02
  1.170437e+00    1.871387e+00   2.365516e-02
  1.172647e+00    1.591486e+00   2.178337e-02
  1.174858e+00    1.432899e+00   2.064071e-02
  1.177068e+00    1.390744e+00   2.030626e-02
  1.179278e+00    1.413673e+00   2.044384e-02
  1.181489e+00    1.434674e+00   2.056739e-02
  1.183699e+00    1.436068e+00   2.054906e-02
  1.185910e+00    1.402634e+00   2.028021e-02
  1.188120e+00    1.386250e+00   2.013445e-02
  1.190331e+00    1.350466e+00   1.984616e-02
  1.192541e+00    1.352535e+00   1.983398e-02
  1.194752e+00    1.355119e+00   1.982585e-02
  1.196962e+00    1.360520e+00   1.983949e-02
  1.199173e+00    1.343934e+00   1.969176e-02
  1.201383e+00    1.336436e+00   1.960973e-02
  1.203593e+00    1.330201e+00   1.953929e-02
  1.205804e+00    1.342208e+00   1.960144e-02
  1.208014e+00    1.334235e+00   1.951644e-02
  1.210225e+00    1.343566e+00   1.955929e-02
  1.212435e+00    1.372560e+00   1.974421e-02
  1.214646e+00    1.369627e+00   1.969681e-02
  1.216856e+00    1.376145e+00   1.971790e-02
  1.219067e+00    1.375123e+00   1.968591e-02
  1.221277e+00    1.336591e+00   1.938321e-02
  1.223488e+00    1.354188e+00   1.948463e-02
  1.225698e+00    1.330738e+00   1.928844e-02
  1.227909e+00    1.412696e+00   1.984267e-02
  1.230119e+00    1.490287e+00   2.034685e-02
  1.232329e+00    1.476134e+00   2.021793e-02
  1.234540e+00    1.384115e+00   1.954694e-02
  1.236750e+00    1.351835e+00   1.928738e-02
  1.238961e+00    1.322088e+00   1.904728e-02
  1.241171e+00    1.322525e+00   1.902649e-02
  1.243382e+00    1.314901e+00   1.894837e-02
  1.245592e+00    1.325083e+00   1.899771e-02
  1.247803e+00    1.328595e+00   1.899941e-02
  1.250013e+00    1.327437e+00   1.896778e-02
  1.252224e+00    1.334636e+00   1.899602e-02
  1.254434e+00    1.343282e+00   1.903378e-02
  1.256644e+00    1.329752e+00   1.891464e-02
  1.258855e+00    1.330627e+00   1.889775e-02
  1.261065e+00    1.344639e+00   1.897370e-02
  1.263276e+00    1.321620e+00   1.878786e-02
  1.265486e+00    1.369688e+00   1.910343e-02
  1.267697e+00    1.338810e+00   1.886396e-02
  1.269907e+00    1.349072e+00   1.891343e-02
  1.272118e+00    1.361076e+00   1.897471e-02
  1.274328e+00    1.364723e+00   1.897728e-02
  1.276539e+00    1.322409e+00   1.865822e-02
  1.278749e+00    1.322773e+00   1.863869e-02
  1.280959e+00    1.346691e+00   1.878394e-02
  1.283170e+00    1.359463e+00   1.885032e-02
  1.285380e+00    1.362717e+00   1.885029e-02
  1.287591e+00    1.343495e+00   1.869491e-02
  1.289801e+00    1.324410e+00   1.854062e-02
  1.292012e+00    1.347354e+00   1.868344e-02
  1.294222e+00    1.369091e+00   1.881721e-02
  1.296433e+00    1.357329e+00   1.872055e-02
  1.298643e+00    1.364165e+00   1.875108e-02
  1.300854e+00    1.358458e+00   1.869535e-02
  1.303064e+00    1.361366e+00   1.869604e-02
  1.305274e+00    1.378674e+00   1.879286e-02
  1.307485e+00    1.363071e+00   1.866456e-02
  1.309695e+00    1.344711e+00   1.851624e-02
  1.311906e+00    1.345583e+00   1.850055e-02
  1.314116e+00    1.348842e+00   1.850218e-02
  1.316327e+00    1.344736e+00   1.845234e-02
  1.318537e+00    1.350971e+00   1.847319e-02
  1.320748e+00    1.348886e+00   1.843737e-02
  1.322958e+00    1.355835e+00   1.846425e-02
  1.325169e+00    1.356374e+00   1.844683e-02
  1.327379e+00    1.362238e+00   1.846476e-02
  1.329589e+00    1.345066e+00   1.832699e-02
  1.331800e+00    1.332757e+00   1.822237e-02
  1.334010e+00    1.348705e+00   1.831042e-02
  1.336221e+00    1.372957e+00   1.845238e-02
  1.338431e+00    1.355349e+00   1.831278e-02
  1.340642e+00    1.361739e+00   1.842033e-02
  1.342852e+00    1.368277e+00   1.856585e-02
  1.345063e+00    1.360844e+00   1.856504e-02
  1.347273e+00    1.357481e+00   1.857742e-02
  1.349484e+00    1.349950e+00   1.855350e-02
  1.351694e+00    1.339534e+00   1.850441e-02
  1.353905e+00    1.347505e+00   1.857736e-02
  1.356115e+00    1.326335e+00   1.844577e-02
  1.358325e+00    1.343112e+00   1.857532e-02
  1.360536e+00    1.339404e+00   1.856127e-02
  1.362746e+00    1.325449e+00   1.847379e-02
  1.364957e+00    1.326156e+00   1.848632e-02
  1.367167e+00    1.326834e+00   1.849813e-02
  1.369378e+00    1.325806e+00   1.849695e-02
  1.371588e+00    1.303252e+00   1.834401e-02
  1.373799e+00    1.293374e+00   1.827795e-02
  1.376009e+00    1.309009e+00   1.839145e-02
  1.378220e+00    1.317962e+00   1.845676e-02
  1.380430e+00    1.303794e+00   1.835996e-02
  1.382640e+00    1.307994e+00   1.839040e-02
  1.384851e+00    1.314238e+00   1.843513e-02
  1.387061e+00    1.294898e+00   1.829927e-02
  1.389272e+00    1.297303e+00   1.831646e-02
  1.391482e+00    1.288227e+00   1.825162e-02
  1.393693e+00    1.292856e+00   1.828349e-02
  1.395903e+00    1.299089e+00   1.832602e-02
  1.398114e+00    1.294437e+00   1.829179e-02
  1.400324e+00    1.277982e+00   1.817302e-02
  1.402535e+00    1.268285e+00   1.810164e-02
  1.404745e+00    1.274217e+00   1.814155e-02
  1.406955e+00    1.258640e+00   1.802765e-02
  1.409166e+00    1.263545e+00   1.805945e-02
  1.411376e+00    1.268946e+00   1.809488e-02
  1.413587e+00    1.310519e+00   1.838504e-02
  1.415797e+00    1.263909e+00   1.805162e-02
  1.418008e+00    1.241953e+00   1.785273e-02
  1.420218e+00    1.260207e+00   1.783428e-02
  1.422429e+00    1.252422e+00   1.769440e-02
  1.424639e+00    1.264203e+00   1.771288e-02
  1.426850e+00    1.276766e+00   1.774583e-02
  1.429060e+00    1.261730e+00   1.759220e-02
  1.431270e+00    1.274423e+00   1.763608e-02
  1.433481e+00    1.278419e+00   1.762262e-02
  1.435691e+00    1.276848e+00   1.757326e-02
  1.437902e+00    1.289009e+00   1.762000e-02
  1.440112e+00    1.292780e+00   1.761012e-02
  1.442323e+00    1.270236e+00   1.742283e-02
  1.444533e+00    1.274617e+00   1.742024e-02
  1.446744e+00    1.265190e+00   1.732464e-02
  1.448954e+00    1.272898e+00   1.734710e-02
  1.451165e+00    1.260755e+00   1.723452e-02
  1.453375e+00    1.253862e+00   1.715947e-02
  1.455586e+00    1.256014e+00   1.714617e-02
  1.457796e+00    1.268276e+00   1.720219e-02
  1.460006e+00    1.266067e+00   1.715997e-02
  1.462217e+00    1.294834e+00   1.732736e-02
  1.464427e+00    1.273738e+00   1.715999e-02
  1.466638e+00    1.246363e+00   1.694950e-02
  1.468848e+00    1.238124e+00   1.686833e-02
  1.471059e+00    1.274060e+00   1.708626e-02
  1.473269e+00    1.254740e+00   1.693197e-02
  1.475480e+00    1.265374e+00   1.697984e-02
  1.477690e+00    1.277648e+00   1.703806e-02
  1.479901e+00    1.276727e+00   1.700800e-02
  1.482111e+00    1.269653e+00   1.693748e-02
  1.484321e+00    1.276310e+00   1.695861e-02
  1.486532e+00    1.278145e+00   1.694837e-02
  1.488742e+00    1.269719e+00   1.686972e-02
  1.490953e+00    1.286456e+00   1.695774e-02
  1.493163e+00    1.289161e+00   1.695306e-02
  1.495374e+00    1.270448e+00   1.680801e-02
  1.497584e+00    1.264738e+00   1.674851e-02
  1.499795e+00    1.320801e+00   1.709353e-02
  1.502005e+00    1.303732e+00   1.696069e-02
  1.504216e+00    1.271173e+00   1.672642e-02
  1.506426e+00    1.259486e+00   1.662851e-02
  1.508636e+00    1.263326e+00   1.663335e-02
  1.510847e+00    1.264508e+00   1.661924e-02
  1.513057e+00    1.270600e+00   1.663399e-02
  1.515268e+00    1.290952e+00   1.674060e-02
  1.517478e+00    1.307287e+00   1.682048e-02
  1.519689e+00    1.329483e+00   1.693701e-02
  1.521899e+00    1.286004e+00   1.663435e-02
  1.524110e+00    1.261892e+00   1.645725e-02
  1.526320e+00    1.270288e+00   1.649218e-02
  1.528531e+00    1.272400e+00   1.648594e-02
  1.530741e+00    1.296463e+00   1.662161e-02
  1.532951e+00    1.272451e+00   1.644721e-02
  1.535162e+00    1.263078e+00   1.647358e-02
  1.537372e+00    1.265729e+00   1.655822e-02
  1.539583e+00    1.250513e+00   1.649264e-02
  1.541793e+00    1.255401e+00   1.653180e-02
  1.544004e+00    1.266422e+00   1.660448e-02
  1.546214e+00    1.254144e+00   1.652230e-02
  1.548425e+00    1.231021e+00   1.636952e-02
  1.550635e+00    1.245978e+00   1.647835e-02
  1.552846e+00    1.239860e+00   1.644748e-02
  1.555056e+00    1.248644e+00   1.646410e-02
  1.557266e+00    1.216251e+00   1.613994e-02
  1.559477e+00    1.214272e+00   1.606841e-02
  1.561687e+00    1.236442e+00   1.618386e-02
  1.563898e+00    1.243353e+00   1.621187e-02
  1.566108e+00    1.243446e+00   1.619653e-02
  1.568319e+00    1.259310e+00   1.628381e-02
  1.570529e+00    1.236930e+00   1.611342e-02
  1.572740e+00    1.222454e+00   1.599147e-02
  1.574950e+00    1.237381e+00   1.606257e-02
  1.577161e+00    1.243010e+00   1.607361e-02
  1.579371e+00    1.236261e+00   1.600633e-02
  1.581582e+00    1.237346e+00   1.599362e-02
  1.583792e+00    1.244889e+00   1.602430e-02
  1.586002e+00    1.210338e+00   1.578297e-02
  1.588213e+00    1.247800e+00   1.600808e-02
  1.590423e+00    1.273696e+00   1.615304e-02
  1.592634e+00    1.282301e+00   1.618558e-02
  1.594844e+00    1.240385e+00   1.589746e-02
  1.597055e+00    1.234403e+00   1.583866e-02
  1.599265e+00    1.230115e+00   1.579048e-02
  1.601476e+00    1.222354e+00   1.572045e-02
  1.603686e+00    1.233170e+00   1.577014e-02
  1.605897e+00    1.235830e+00   1.576699e-02
  1.608107e+00    1.234587e+00   1.573954e-02
  1.610317e+00    1.214504e+00   1.559186e-02
  1.612528e+00    1.205017e+00   1.551190e-02
  1.614738e+00    1.221123e+00   1.559635e-02
  1.616949e+00    1.213272e+00   1.552727e-02
  1.619159e+00    1.204385e+00   1.545170e-02
  1.621370e+00    1.208352e+00   1.545876e-02
  1.623580e+00    1.175038e+00   1.522615e-02
  1.625791e+00    1.169637e+00   1.517314e-02
  1.628001e+00    1.173759e+00   1.518183e-02
  1.630212e+00    1.160427e+00   1.507782e-02
  1.632422e+00    1.184361e+00   1.521466e-02
  1.634632e+00    1.152464e+00   1.499128e-02
  1.636843e+00    1.162140e+00   1.503666e-02
  1.639053e+00    1.151351e+00   1.494959e-02
  1.641264e+00    1.143764e+00   1.488332e-02
  1.643474e+00    1.156453e+00   1.494833e-02
  1.645685e+00    1.128245e+00   1.474844e-02
  1.647895e+00    1.135289e+00   1.477796e-02
  1.650106e+00    1.139980e+00   1.479153e-02
  1.652316e+00    1.137736e+00   1.476057e-02
  1.654527e+00    1.120254e+00   1.463023e-02
  1.656737e+00    1.107223e+00   1.452853e-02
  1.658947e+00    1.124202e+00   1.462327e-02
  1.661158e+00    1.117693e+00   1.456469e-02
  1.663368e+00    1.123020e+00   1.458332e-02
  1.665579e+00    1.097463e+00   1.440046e-02
  1.667789e+00    1.071731e+00   1.421470e-02
  1.670000e+00    1.099689e+00   1.438351e-02
  1.672210e+00    1.101917e+00   1.438227e-02
  1.674421e+00    1.088942e+00   1.428213e-02
  1.676631e+00    1.060962e+00   1.408186e-02
  1.678842e+00    1.051977e+00   1.400668e-02
  1.681052e+00    1.049024e+00   1.397192e-02
  1.683263e+00    1.063958e+00   1.405607e-02
  1.685473e+00    1.067021e+00   1.406128e-02
  1.687683e+00    1.053664e+00   1.395778e-02
  1.689894e+00    1.058678e+00   1.397534e-02
  1.692104e+00    1.058511e+00   1.395945e-02
  1.694315e+00    1.070953e+00   1.402675e-02
  1.696525e+00    1.067096e+00   1.398635e-02
  1.698736e+00    1.053018e+00   1.387904e-02
  1.700946e+00    1.019528e+00   1.364171e-02
  1.703157e+00    1.079666e+00   1.402346e-02
  1.705367e+00    1.090767e+00   1.408065e-02
  1.707578e+00    1.044633e+00   1.376510e-02
  1.709788e+00    1.038059e+00   1.370766e-02
  1.711998e+00    1.038538e+00   1.369584e-02
  1.714209e+00    1.026961e+00   1.360495e-02
  1.716419e+00    1.011375e+00   1.348719e-02
  1.718630e+00    1.006395e+00   1.343985e-02
  1.720840e+00    1.000868e+00   1.338891e-02
  1.723051e+00    9.988348e-01   1.336161e-02
  1.725261e+00    9.886164e-01   1.327865e-02
  1.727472e+00    9.947459e-01   1.330572e-02
  1.729682e+00    1.000126e+00   1.332831e-02
  1.731893e+00    1.018916e+00   1.343895e-02
  1.734103e+00    1.044107e+00   1.359007e-02
  1.736313e+00    1.027856e+00   1.346973e-02
  1.738524e+00    1.004159e+00   1.329971e-02
  1.740734e+00    9.868554e-01   1.317101e-02
  1.742945e+00    1.011123e+00   1.331840e-02
  1.745155e+00    1.097899e+00   1.386399e-02
  1.747366e+00    1.039797e+00   1.347802e-02
  1.749576e+00    9.908583e-01   1.314330e-02
  1.751787e+00    9.779721e-01   1.304425e-02
  1.753997e+00    9.929679e-01   1.313039e-02
  1.756208e+00    9.762614e-01   1.300628e-02
  1.758418e+00    9.684096e-01   1.294076e-02
  1.760628e+00    9.644654e-01   1.290107e-02
  1.762839e+00    9.505093e-01   1.279427e-02
  1.765049e+00    9.518266e-01   1.279009e-02
  1.767260e+00    9.323474e-01   1.264591e-02
  1.769470e+00    9.322908e-01   1.263269e-02
  1.771681e+00    9.390365e-01   1.266527e-02
  1.773891e+00    9.150344e-01   1.248955e-02
  1.776102e+00    9.254081e-01   1.254741e-02
  1.778312e+00    9.192314e-01   1.249291e-02
  1.780523e+00    9.459780e-01   1.266060e-02
  1.782733e+00    9.733002e-01   1.282920e-02
  1.784944e+00    9.771826e-01   1.284163e-02
  1.787154e+00    9.520543e-01   1.266276e-02
  1.789364e+00    9.267473e-01   1.248089e-02
  1.791575e+00    9.461010e-01   1.259784e-02
  1.793785e+00    9.590968e-01   1.267145e-02
  1.795996e+00    9.900968e-01   1.286158e-02
  1.798206e+00    1.180952e+00   1.403242e-02
  1.800417e+00    1.138915e+00   1.376638e-02
  1.802627e+00    9.825699e-01   1.277422e-02
  1.804838e+00    9.413061e-01   1.249079e-02
  1.807048e+00    9.231290e-01   1.235665e-02
  1.809259e+00    9.460168e-01   1.249500e-02
  1.811469e+00    9.628593e-01   1.259031e-02
  1.813679e+00    9.143571e-01   1.225404e-02
  1.815890e+00    8.984688e-01   1.213234e-02
  1.818100e+00    8.854174e-01   1.202890e-02
  1.820311e+00    8.581383e-01   1.182768e-02
  1.822521e+00    8.522840e-01   1.177271e-02
  1.824732e+00    8.953195e-01   1.205143e-02
  1.826942e+00    8.974755e-01   1.205353e-02
  1.829153e+00    8.794060e-01   1.191994e-02
  1.831363e+00    8.815365e-01   1.192232e-02
  1.833574e+00    9.380564e-01   1.228653e-02
  1.835784e+00    9.761873e-01   1.252174e-02
  1.837994e+00    9.262231e-01   1.218509e-02
  1.840205e+00    8.570430e-01   1.171012e-02
  1.842415e+00    8.668022e-01   1.176485e-02
  1.844626e+00    8.552082e-01   1.167447e-02
  1.846836e+00    8.495329e-01   1.162434e-02
  1.849047e+00    8.741097e-01   1.177964e-02
  1.851257e+00    8.567453e-01   1.165252e-02
  1.853468e+00    8.440061e-01   1.155685e-02
  1.855678e+00    8.496557e-01   1.158664e-02
  1.857889e+00    8.460540e-01   1.155361e-02
  1.860099e+00    8.515058e-01   1.158219e-02
  1.862309e+00    8.271861e-01   1.140721e-02
  1.864520e+00    8.329442e-01   1.143840e-02
  1.866730e+00    8.356937e-01   1.144797e-02
  1.868941e+00    8.582017e-01   1.159014e-02
  1.871151e+00    8.587279e-01   1.158226e-02
  1.873362e+00    8.309872e-01   1.138243e-02
  1.875572e+00    8.559799e-01   1.154134e-02
  1.877783e+00    8.628694e-01   1.157616e-02
  1.879993e+00    8.479654e-01   1.146462e-02
  1.882204e+00    8.525152e-01   1.148435e-02
  1.884414e+00    8.425658e-01   1.140610e-02
  1.886624e+00    8.466080e-01   1.142231e-02
  1.888835e+00    8.417608e-01   1.137862e-02
  1.891045e+00    8.314155e-01   1.129765e-02
  1.893256e+00    8.312297e-01   1.128534e-02
  1.895466e+00    8.221179e-01   1.121224e-02
  1.897677e+00    8.275652e-01   1.123846e-02
  1.899887e+00    8.262905e-01   1.121888e-02
  1.902098e+00    8.136639e-01   1.112210e-02
  1.904308e+00    8.253465e-01   1.119111e-02
  1.906519e+00    8.380684e-01   1.126613e-02
  1.908729e+00    8.517696e-01   1.134711e-02
  1.910940e+00    8.195831e-01   1.111958e-02
  1.913150e+00    8.216895e-01   1.112331e-02
  1.915360e+00    8.328244e-01   1.118772e-02
  1.917571e+00    8.341738e-01   1.118586e-02
  1.919781e+00    8.496574e-01   1.127831e-02
  1.921992e+00    8.700773e-01   1.140209e-02
  1.924202e+00    8.674495e-01   1.137380e-02
  1.926413e+00    8.264958e-01   1.109169e-02
  1.928623e+00    8.176744e-01   1.102178e-02
  1.930834e+00    8.103024e-01   1.096156e-02
  1.933044e+00    8.130184e-01   1.096923e-02
  1.935255e+00    8.031217e-01   1.089200e-02
  1.937465e+00    8.029642e-01   1.088056e-02
  1.939675e+00    7.889159e-01   1.077423e-02
  1.941886e+00    7.840748e-01   1.073098e-02
  1.944096e+00    7.971420e-01   1.080987e-02
  1.946307e+00    7.986171e-01   1.080956e-02
  1.948517e+00    8.015851e-01   1.081917e-02
  1.950728e+00    8.005415e-01   1.080188e-02
  1.952938e+00    7.974811e-01   1.077111e-02
  1.955149e+00    7.979878e-01   1.076428e-02
  1.957359e+00    8.113974e-01   1.084423e-02
  1.959570e+00    7.938387e-01   1.071538e-02
  1.961780e+00    8.056855e-01   1.078504e-02
  1.963990e+00    8.031313e-01   1.075776e-02
  1.966201e+00    7.859281e-01   1.063188e-02
  1.968411e+00    7.780375e-01   1.056830e-02
  1.970622e+00    7.785174e-01   1.056150e-02
  1.972832e+00    8.124813e-01   1.077930e-02
  1.975043e+00    7.983784e-01   1.067524e-02
  1.977253e+00    7.633390e-01   1.042854e-02
  1.979464e+00    7.784902e-01   1.052150e-02
  1.981674e+00    7.845683e-01   1.055224e-02
  1.983885e+00    7.719192e-01   1.045687e-02
  1.986095e+00    7.586665e-01   1.035715e-02
  1.988305e+00    7.777541e-01   1.047674e-02
  1.990516e+00    7.667965e-01   1.039284e-02
  1.992726e+00    7.741283e-01   1.043276e-02
  1.994937e+00    7.638028e-01   1.035290e-02
  1.997147e+00    7.900829e-01   1.051969e-02
  1.999358e+00    7.649930e-01   1.034152e-02
  2.001568e+00    7.611087e-01   1.030451e-02
  2.003779e+00    7.514253e-01   1.022698e-02
  2.005989e+00    7.648800e-01   1.030617e-02
  2.008200e+00    7.753128e-01   1.036465e-02
  2.010410e+00    7.677249e-01   1.030210e-02
  2.012621e+00    7.386484e-01   1.009364e-02
  2.014831e+00    7.501889e-01   1.016082e-02
  2.017041e+00    7.657310e-01   1.025517e-02
  2.019252e+00    7.667114e-01   1.025178e-02
  2.021462e+00    7.647702e-01   1.022927e-02
  2.023673e+00    7.613882e-01   1.019727e-02
  2.025883e+00    7.775666e-01   1.029543e-02
  2.028094e+00    7.701483e-01   1.023650e-02
  2.030304e+00    7.804089e-01   1.029484e-02
  2.032515e+00    7.654281e-01   1.018620e-02
  2.034725e+00    7.738934e-01   1.023285e-02
  2.036936e+00    7.680545e-01   1.018477e-02
  2.039146e+00    7.671540e-01   1.016917e-02
  2.041356e+00    7.649055e-01   1.014456e-02
  2.043567e+00    7.468235e-01   1.001468e-02
  2.045777e+00    7.536070e-01   1.005082e-02
  2.047988e+00    7.566558e-01   1.006175e-02
  2.050198e+00    7.564146e-01   1.005171e-02
  2.052409e+00    7.456189e-01   9.972091e-03
  2.054619e+00    7.587270e-01   1.005196e-02
  2.056830e+00    7.547034e-01   1.001808e-02
  2.059040e+00    7.564681e-01   1.002224e-02
  2.061251e+00    7.479454e-01   9.958391e-03
  2.063461e+00    7.470027e-01   9.944526e-03
  2.065671e+00    7.546377e-01   9.986457e-03
  2.067882e+00    7.527156e-01   9.964722e-03
  2.070092e+00    7.333837e-01   9.826808e-03
  2.072303e+00    7.255446e-01   9.765141e-03
  2.074513e+00    7.214639e-01   9.728473e-03
  2.076724e+00    7.347857e-01   9.808462e-03
  2.078934e+00    7.359273e-01   9.807129e-03
  2.081145e+00    7.397491e-01   9.823507e-03
  2.083355e+00    7.324982e-01   9.766118e-03
  2.085566e+00    7.294811e-01   9.737155e-03
  2.087776e+00    7.405823e-01   9.801445e-03
  2.089986e+00    7.160845e-01   9.629329e-03
  2.092197e+00    7.239915e-01   9.673457e-03
  2.094407e+00    7.402295e-01   9.772088e-03
  2.096618e+00    7.324135e-01   9.711479e-03
  2.098828e+00    7.265533e-01   9.663304e-03
  2.101039e+00    7.056769e-01   9.514633e-03
  2.103249e+00    7.265921e-01   9.645976e-03
  2.105460e+00    7.206652e-01   9.597581e-03
  2.107670e+00    7.175176e-01   9.567942e-03
  2.109881e+00    7.150949e-01   9.542678e-03
  2.112091e+00    7.181126e-01   9.553867e-03
  2.114301e+00    7.135510e-01   9.514748e-03
  2.116512e+00    7.101981e-01   9.483660e-03
  2.118722e+00    7.175490e-01   9.523804e-03
  2.120933e+00    7.148731e-01   9.497221e-03
  2.123143e+00    7.103541e-01   9.458287e-03
  2.125354e+00    7.172888e-01   9.495811e-03
  2.127564e+00    7.209361e-01   9.511181e-03
  2.129775e+00    6.999956e-01   9.363394e-03
  2.131985e+00    7.012534e-01   9.362820e-03
  2.134196e+00    6.963828e-01   9.321771e-03
  2.136406e+00    6.970143e-01   9.317348e-03
  2.138617e+00    6.962726e-01   9.304011e-03
  2.140827e+00    6.996980e-01   9.342821e-03
  2.143037e+00    6.912556e-01   9.331262e-03
  2.145248e+00    7.028428e-01   9.431092e-03
  2.147458e+00    7.120965e-01   9.508182e-03
  2.149669e+00    7.355704e-01   9.675765e-03
  2.151879e+00    7.153731e-01   9.551322e-03
  2.154090e+00    6.969475e-01   9.434815e-03
  2.156300e+00    6.858405e-01   9.365847e-03
  2.158511e+00    6.948571e-01   9.432492e-03
  2.160721e+00    6.946066e-01   9.435611e-03
  2.162932e+00    6.985483e-01   9.466075e-03
  2.165142e+00    7.102402e-01   9.548019e-03
  2.167352e+00    7.019669e-01   9.495180e-03
  2.169563e+00    6.975262e-01   9.467044e-03
  2.171773e+00    7.060061e-01   9.526889e-03
  2.173984e+00    7.003369e-01   9.489981e-03
  2.176194e+00    7.257594e-01   9.661907e-03
  2.178405e+00    7.135825e-01   9.581245e-03
  2.180615e+00    7.098331e-01   9.556707e-03
  2.182826e+00    6.990542e-01   9.484577e-03
  2.185036e+00    6.824631e-01   9.371382e-03
  2.187247e+00    6.824446e-01   9.371207e-03
  2.189457e+00    6.974810e-01   9.473464e-03
  2.191667e+00    7.105635e-01   9.561728e-03
  2.193878e+00    7.023939e-01   9.506039e-03
  2.196088e+00    6.925344e-01   9.438386e-03
  2.198299e+00    7.023013e-01   9.503604e-03
  2.200509e+00    6.939638e-01   9.445965e-03
  2.202720e+00    6.922504e-01   9.433127e-03
  2.204930e+00    6.753131e-01   9.315803e-03
  2.207141e+00    6.804098e-01   9.349742e-03
  2.209351e+00    6.860891e-01   9.386805e-03
  2.211562e+00    6.846318e-01   9.375206e-03
  2.213772e+00    6.760309e-01   9.260684e-03
  2.215982e+00    6.757016e-01   9.214212e-03
  2.218193e+00    6.716477e-01   9.157001e-03
  2.220403e+00    6.771103e-01   9.169524e-03
  2.222614e+00    6.629480e-01   9.052354e-03
  2.224824e+00    6.674871e-01   9.063983e-03
  2.227035e+00    6.607067e-01   9.000555e-03
  2.229245e+00    6.531827e-01   8.932420e-03
  2.231456e+00    6.693401e-01   9.026626e-03
  2.233666e+00    6.626317e-01   8.966282e-03
  2.235877e+00    6.604173e-01   8.937136e-03
  2.238087e+00    6.596095e-01   8.918282e-03
  2.240298e+00    6.761013e-01   9.015243e-03
  2.242508e+00    6.662437e-01   8.934208e-03
  2.244718e+00    6.332785e-01   8.694971e-03
  2.246929e+00    6.516962e-01   8.806258e-03
  2.249139e+00    6.640387e-01   8.876915e-03
  2.251350e+00    6.661318e-01   8.879188e-03
  2.253560e+00    6.793384e-01   8.955098e-03
  2.255771e+00    6.927180e-01   9.031211e-03
  2.257981e+00    6.979029e-01   9.053509e-03
  2.260192e+00    6.976778e-01   9.040656e-03
  2.262402e+00    7.176500e-01   9.157857e-03
  2.264613e+00    7.787293e-01   9.527859e-03
  2.266823e+00    7.853742e-01   9.557161e-03
  2.269033e+00    7.483804e-01   9.318336e-03
  2.271244e+00    7.120125e-01   9.078284e-03
  2.273454e+00    7.968050e-01   9.592365e-03
  2.275665e+00    8.376056e-01   9.823351e-03
  2.277875e+00    7.803606e-01   9.470966e-03
  2.280086e+00    7.256818e-01   9.122600e-03
  2.282296e+00    6.751680e-01   8.789838e-03
  2.284507e+00    6.681456e-01   8.733784e-03
  2.286717e+00    6.725997e-01   8.753280e-03
  2.288928e+00    6.578681e-01   8.647024e-03
  2.291138e+00    6.672713e-01   8.699097e-03
  2.293348e+00    6.548136e-01   8.607982e-03
  2.295559e+00    6.658994e-01   8.671141e-03
  2.297769e+00    6.693222e-01   8.684056e-03
  2.299980e+00    6.553623e-01   8.583682e-03
  2.302190e+00    6.490510e-01   8.533142e-03
  2.304401e+00    6.514755e-01   8.539748e-03
  2.306611e+00    6.470138e-01   8.501285e-03
  2.308822e+00    6.567340e-01   8.556499e-03
  2.311032e+00    6.539493e-01   8.531860e-03
  2.313243e+00    6.482749e-01   8.488505e-03
  2.315453e+00    6.457328e-01   8.464294e-03
  2.317663e+00    6.354911e-01   8.387856e-03
  2.319874e+00    6.371353e-01   8.390038e-03
  2.322084e+00    6.412072e-01   8.407874e-03
  2.324295e+00    6.506739e-01   8.461436e-03
  2.326505e+00    6.501846e-01   8.449178e-03
  2.328716e+00    6.513909e-01   8.448404e-03
  2.330926e+00    6.499087e-01   8.429944e-03
  2.333137e+00    6.643331e-01   8.514469e-03
  2.335347e+00    6.360871e-01   8.322665e-03
  2.337558e+00    6.329391e-01   8.293856e-03
  2.339768e+00    6.389085e-01   8.324293e-03
  2.341979e+00    6.388328e-01   8.315460e-03
  2.344189e+00    6.319186e-01   8.261958e-03
  2.346399e+00    6.277775e-01   8.226427e-03
  2.348610e+00    6.262686e-01   8.208123e-03
  2.350820e+00    6.410971e-01   8.296506e-03
  2.353031e+00    6.334752e-01   8.238768e-03
  2.355241e+00    6.306537e-01   8.212369e-03
  2.357452e+00    6.212104e-01   8.142287e-03
  2.359662e+00    6.345297e-01   8.220876e-03
  2.361873e+00    6.251082e-01   8.151425e-03
  2.364083e+00    6.246364e-01   8.140394e-03
  2.366294e+00    6.363267e-01   8.208028e-03
  2.368504e+00    6.406103e-01   8.227474e-03
  2.370714e+00    6.304153e-01   8.153639e-03
  2.372925e+00    6.187440e-01   8.069812e-03
  2.375135e+00    6.143848e-01   8.033328e-03
  2.377346e+00    6.269479e-01   8.107083e-03
  2.379556e+00    6.286569e-01   8.110204e-03
  2.381767e+00    5.976449e-01   7.899911e-03
  2.383977e+00    6.119621e-01   7.986104e-03
  2.386188e+00    5.997134e-01   7.897983e-03
  2.388398e+00    6.135824e-01   7.980860e-03
  2.390609e+00    6.081838e-01   7.938014e-03
  2.392819e+00    6.033230e-01   7.898522e-03
  2.395029e+00    6.220421e-01   8.012427e-03
  2.397240e+00    6.053447e-01   7.896350e-03
  2.399450e+00    6.092111e-01   7.913737e-03
  2.401661e+00    6.127604e-01   7.929087e-03
  2.403871e+00    6.069882e-01   7.883910e-03
  2.406082e+00    6.025709e-01   7.847787e-03
  2.408292e+00    6.023954e-01   7.838893e-03
  2.410503e+00    6.123200e-01   7.895680e-03
  2.412713e+00    6.231945e-01   7.957593e-03
  2.414924e+00    6.259837e-01   7.967779e-03
  2.417134e+00    6.100810e-01   7.858257e-03
  2.419344e+00    6.005002e-01   7.788913e-03
  2.421555e+00    5.898443e-01   7.712062e-03
  2.423765e+00    5.944440e-01   7.734700e-03
  2.425976e+00    5.970681e-01   7.743964e-03
  2.428186e+00    5.939698e-01   7.716663e-03
  2.430397e+00    5.895361e-01   7.680383e-03
  2.432607e+00    5.799566e-01   7.610534e-03
  2.434818e+00    5.915322e-01   7.678590e-03
  2.437028e+00    5.945758e-01   7.691179e-03
  2.439239e+00    5.808402e-01   7.594248e-03
  2.441449e+00    5.787451e-01   7.573405e-03
  2.443659e+00    5.900816e-01   7.639900e-03
  2.445870e+00    5.773073e-01   7.568856e-03
  2.448080e+00    5.785220e-01   7.611496e-03
  2.450291e+00    5.738919e-01   7.597527e-03
  2.452501e+00    5.674988e-01   7.566172e-03
  2.454712e+00    5.811917e-01   7.665393e-03
  2.456922e+00    5.607557e-01   7.535995e-03
  2.459133e+00    5.659550e-01   7.576250e-03
  2.461343e+00    5.817009e-01   7.685348e-03
  2.463554e+00    5.768598e-01   7.656806e-03
  2.465764e+00    5.642239e-01   7.575626e-03
  2.467975e+00    5.639765e-01   7.576251e-03
  2.470185e+00    5.570525e-01   7.531856e-03
  2.472395e+00    5.456043e-01   7.455279e-03
  2.474606e+00    5.413591e-01   7.427741e-03
  2.476816e+00    5.535416e-01   7.511603e-03
  2.479027e+00    5.406669e-01   7.424571e-03
  2.481237e+00    5.401192e-01   7.421086e-03
  2.483448e+00    5.343255e-01   7.381478e-03
  2.485658e+00    5.281511e-01   7.338561e-03
  2.487869e+00    5.284768e-01   7.340867e-03
  2.490079e+00    5.436476e-01   7.444943e-03
  2.492290e+00    5.520878e-01   7.502097e-03
  2.494500e+00    5.401289e-01   7.419663e-03
  2.496710e+00    5.355478e-01   7.387442e-03
  2.498921e+00    5.349448e-01   7.382278e-03
  2.501131e+00    5.321171e-01   7.361799e-03
  2.503342e+00    5.252135e-01   7.312636e-03
  2.505552e+00    5.331669e-01   7.366661e-03
  2.507763e+00    5.157828e-01   7.244175e-03
  2.509973e+00    5.268201e-01   7.319874e-03
  2.512184e+00    5.203419e-01   7.273138e-03
  2.514394e+00    5.185938e-01   7.251608e-03
  2.516605e+00    5.330264e-01   7.304471e-03
  2.518815e+00    5.207400e-01   7.191637e-03
  2.521025e+00    5.099164e-01   7.095834e-03
  2.523236e+00    5.296774e-01   7.213956e-03
  2.525446e+00    5.380607e-01   7.255044e-03
  2.527657e+00    5.217394e-01   7.129623e-03
  2.529867e+00    5.249665e-01   7.137435e-03
  2.532078e+00    5.366840e-01   7.201460e-03
  2.534288e+00    5.311079e-01   7.149972e-03
  2.536499e+00    5.474939e-01   7.247238e-03
  2.538709e+00    5.433064e-01   7.208287e-03
  2.540920e+00    5.327528e-01   7.127205e-03
  2.543130e+00    5.194682e-01   7.027459e-03
  2.545340e+00    5.207002e-01   7.025755e-03
  2.547551e+00    5.128602e-01   6.962810e-03
  2.549761e+00    5.216125e-01   7.012387e-03
  2.551972e+00    5.202771e-01   6.994092e-03
  2.554182e+00    5.098284e-01   6.914409e-03
  2.556393e+00    5.174076e-01   6.956549e-03
  2.558603e+00    5.158718e-01   6.937185e-03
  2.560814e+00    5.217722e-01   6.968033e-03
  2.563024e+00    5.242945e-01   6.976235e-03
  2.565235e+00    5.155953e-01   6.908648e-03
  2.567445e+00    5.176167e-01   6.912615e-03
  2.569656e+00    5.073560e-01   6.834138e-03
  2.571866e+00    5.115826e-01   6.853236e-03
  2.574076e+00    4.969085e-01   6.745138e-03
  2.576287e+00    5.153982e-01   6.861161e-03
  2.578497e+00    5.126817e-01   6.835247e-03
  2.580708e+00    5.113725e-01   6.818458e-03
  2.582918e+00    5.143504e-01   6.830516e-03
  2.585129e+00    5.088605e-01   6.786272e-03
  2.587339e+00    5.049337e-01   6.752418e-03
  2.589550e+00    4.931473e-01   6.665742e-03
  2.591760e+00    5.053714e-01   6.740155e-03
  2.593971e+00    5.186465e-01   6.820523e-03
  2.596181e+00    5.223237e-01   6.838399e-03
  2.598391e+00    5.053516e-01   6.721204e-03
  2.600602e+00    5.240821e-01   6.838623e-03
  2.602812e+00    5.164723e-01   6.781219e-03
  2.605023e+00    5.178477e-01   6.782997e-03
  2.607233e+00    5.042673e-01   6.686375e-03
  2.609444e+00    5.068296e-01   6.696084e-03
  2.611654e+00    5.087991e-01   6.701767e-03
  2.613865e+00    5.173472e-01   6.750708e-03
  2.616075e+00    5.216097e-01   6.771205e-03
  2.618286e+00    5.200496e-01   6.753996e-03
  2.620496e+00    5.086984e-01   6.673160e-03
  2.622706e+00    5.016760e-01   6.621201e-03
  2.624917e+00    5.032249e-01   6.625581e-03
  2.627127e+00    4.987538e-01   6.590371e-03
  2.629338e+00    4.950913e-01   6.560196e-03
  2.631548e+00    5.084357e-01   6.641816e-03
  2.633759e+00    5.087397e-01   6.636615e-03
  2.635969e+00    4.936251e-01   6.530658e-03
  2.638180e+00    4.991430e-01   6.560075e-03
  2.640390e+00    5.068567e-01   6.603939e-03
  2.642601e+00    5.022755e-01   6.567352e-03
  2.644811e+00    5.022807e-01   6.560289e-03
  2.647021e+00    5.131721e-01   6.624394e-03
  2.649232e+00    5.027577e-01   6.550089e-03
  2.651442e+00    5.052322e-01   6.559639e-03
  2.653653e+00    5.109925e-01   6.590062e-03
  2.655863e+00    4.937598e-01   6.471341e-03
  2.658074e+00    4.923472e-01   6.455486e-03
  2.660284e+00    5.043028e-01   6.527001e-03
  2.662495e+00    4.983807e-01   6.481810e-03
  2.664705e+00    5.058716e-01   6.523704e-03
  2.666916e+00    5.047923e-01   6.510229e-03
  2.669126e+00    4.992366e-01   6.467831e-03
  2.671337e+00    5.050192e-01   6.498526e-03
  2.673547e+00    4.891466e-01   6.389269e-03
  2.675757e+00    4.909630e-01   6.394665e-03
  2.677968e+00    5.079005e-01   6.497435e-03
  2.680178e+00    5.145596e-01   6.533353e-03
  2.682389e+00    5.188819e-01   6.554181e-03
  2.684599e+00    4.914939e-01   6.372698e-03
  2.686810e+00    4.842978e-01   6.319308e-03
  2.689020e+00    4.922797e-01   6.364864e-03
  2.691231e+00    5.021489e-01   6.422004e-03
  2.693441e+00    4.858440e-01   6.310761e-03
  2.695652e+00    4.930862e-01   6.351083e-03
  2.697862e+00    4.814912e-01   6.269688e-03
  2.700072e+00    4.836024e-01   6.277362e-03
  2.702283e+00    4.990578e-01   6.370602e-03
  2.704493e+00    4.948297e-01   6.337245e-03
  2.706704e+00    4.917333e-01   6.310957e-03
  2.708914e+00    4.889449e-01   6.287065e-03
  2.711125e+00    4.920627e-01   6.300804e-03
  2.713335e+00    4.836912e-01   6.240921e-03
  2.715546e+00    4.789591e-01   6.203894e-03
  2.717756e+00    4.961940e-01   6.308586e-03
  2.719967e+00    4.860539e-01   6.237588e-03
  2.722177e+00    4.782704e-01   6.181365e-03
  2.724387e+00    4.905069e-01   6.253786e-03
  2.726598e+00    4.830698e-01   6.200182e-03
  2.728808e+00    4.769300e-01   6.154530e-03
  2.731019e+00    4.785250e-01   6.158743e-03
  2.733229e+00    4.743162e-01   6.125844e-03
  2.735440e+00    4.817757e-01   6.167570e-03
  2.737650e+00    4.785346e-01   6.140823e-03
  2.739861e+00    4.793060e-01   6.139703e-03
  2.742071e+00    4.840485e-01   6.164270e-03
  2.744282e+00    4.855066e-01   6.167277e-03
  2.746492e+00    4.771070e-01   6.107701e-03
  2.748702e+00    4.759406e-01   6.094351e-03
  2.750913e+00    4.774389e-01   6.098177e-03
  2.753123e+00    4.749264e-01   6.076027e-03
  2.755334e+00    4.837115e-01   6.125879e-03
  2.757544e+00    4.813280e-01   6.105016e-03
  2.759755e+00    4.798512e-01   6.089773e-03
  2.761965e+00    4.911774e-01   6.155163e-03
  2.764176e+00    4.801503e-01   6.079704e-03
  2.766386e+00    4.909700e-01   6.141946e-03
  2.768597e+00    4.878179e-01   6.116311e-03
  2.770807e+00    4.769900e-01   6.042177e-03
  2.773017e+00    4.729306e-01   6.010471e-03
  2.775228e+00    4.830600e-01   6.068680e-03
  2.777438e+00    4.821763e-01   6.057322e-03
  2.779649e+00    4.836771e-01   6.060801e-03
  2.781859e+00    4.711733e-01   5.976225e-03
  2.784070e+00    4.724306e-01   5.978365e-03
  2.786280e+00    4.655651e-01   5.929072e-03
  2.788491e+00    4.686642e-01   5.942971e-03
  2.790701e+00    4.826869e-01   6.025547e-03
  2.792912e+00    4.740922e-01   5.965724e-03
  2.795122e+00    4.755263e-01   5.968988e-03
  2.797333e+00    4.857017e-01   6.026921e-03
  2.799543e+00    4.676749e-01   5.908190e-03
  2.801753e+00    4.817902e-01   5.990794e-03
  2.803964e+00    4.799449e-01   5.973618e-03
  2.806174e+00    4.756131e-01   5.940455e-03
  2.808385e+00    4.654382e-01   5.869843e-03
  2.810595e+00    4.638205e-01   5.852848e-03
  2.812806e+00    4.656669e-01   5.857930e-03
  2.815016e+00    4.546962e-01   5.783872e-03
  2.817227e+00    4.760051e-01   5.943818e-03
  2.819437e+00    4.840906e-01   6.005297e-03
  2.821648e+00    4.670973e-01   5.901237e-03
  2.823858e+00    4.785285e-01   5.978359e-03
  2.826068e+00    4.648718e-01   5.897394e-03
  2.828279e+00    4.620867e-01   5.883675e-03
  2.830489e+00    4.750846e-01   5.969200e-03
  2.832700e+00    4.763317e-01   5.979609e-03
  2.834910e+00    4.686255e-01   5.933092e-03
  2.837121e+00    4.811632e-01   6.013659e-03
  2.839331e+00    4.685557e-01   5.935600e-03
  2.841542e+00    4.575022e-01   5.866160e-03
  2.843752e+00    4.673725e-01   5.929867e-03
  2.845963e+00    4.644068e-01   5.911439e-03
  2.848173e+00    4.606424e-01   5.887494e-03
  2.850383e+00    4.632415e-01   5.904397e-03
  2.852594e+00    4.673196e-01   5.930242e-03
  2.854804e+00    4.676718e-01   5.931963e-03
  2.857015e+00    4.778311e-01   5.995619e-03
  2.859225e+00    4.720838e-01   5.959198e-03
  2.861436e+00    4.708619e-01   5.950830e-03
  2.863646e+00    4.703051e-01   5.947342e-03
  2.865857e+00    4.632583e-01   5.902967e-03
  2.868067e+00    4.513610e-01   5.826881e-03
  2.870278e+00    4.524852e-01   5.833782e-03
  2.872488e+00    4.690502e-01   5.938450e-03
  2.874698e+00    4.572027e-01   5.861934e-03
  2.876909e+00    4.598404e-01   5.877482e-03
  2.879119e+00    4.665192e-01   5.918392e-03
  2.881330e+00    4.661604e-01   5.914637e-03
  2.883540e+00    4.704240e-01   5.940228e-03
  2.885751e+00    4.548987e-01   5.839761e-03
  2.887961e+00    4.567742e-01   5.849895e-03
  2.890172e+00    4.667823e-01   5.912025e-03
  2.892382e+00    4.710882e-01   5.937409e-03
  2.894593e+00    4.679201e-01   5.915588e-03
  2.896803e+00    4.593442e-01   5.859148e-03
  2.899014e+00    4.718516e-01   5.936423e-03
  2.901224e+00    4.715400e-01   5.932482e-03
  2.903434e+00    4.562386e-01   5.833494e-03
  2.905645e+00    4.481063e-01   5.779059e-03
  2.907855e+00    4.628066e-01   5.870966e-03
  2.910066e+00    4.655432e-01   5.886233e-03
  2.912276e+00    4.612490e-01   5.856874e-03
  2.914487e+00    4.620146e-01   5.859297e-03
  2.916697e+00    4.385988e-01   5.706691e-03
  2.918908e+00    4.529901e-01   5.797566e-03
  2.921118e+00    4.547084e-01   5.805869e-03
  2.923329e+00    4.562997e-01   5.813703e-03
  2.925539e+00    4.572417e-01   5.817429e-03
  2.927749e+00    4.644959e-01   5.861056e-03
  2.929960e+00    4.464159e-01   5.743128e-03
  2.932170e+00    4.596743e-01   5.825439e-03
  2.934381e+00    4.467793e-01   5.740734e-03
  2.936591e+00    4.552757e-01   5.792490e-03
  2.938802e+00    4.553667e-01   5.790365e-03
  2.941012e+00    4.538917e-01   5.778654e-03
  2.943223e+00    4.469909e-01   5.731877e-03
  2.945433e+00    4.565964e-01   5.789391e-03
  2.947644e+00    4.655428e-01   5.841666e-03
  2.949854e+00    4.623686e-01   5.817414e-03
  2.952064e+00    4.504441e-01   5.737714e-03
  2.954275e+00    4.469475e-01   5.711017e-03
  2.956485e+00    4.591928e-01   5.784508e-03
  2.958696e+00    4.653767e-01   5.818922e-03
  2.960906e+00    4.561295e-01   5.756626e-03
  2.963117e+00    4.646845e-01   5.805826e-03
  2.965327e+00    4.453087e-01   5.679645e-03
  2.967538e+00    4.434276e-01   5.664750e-03
  2.969748e+00    4.536672e-01   5.726954e-03
  2.971959e+00    4.643188e-01   5.790635e-03
  2.974169e+00    4.536609e-01   5.721210e-03
  2.976379e+00    4.533497e-01   5.716336e-03
  2.978590e+00    4.549126e-01   5.723037e-03
  2.980800e+00    4.603880e-01   5.754553e-03
  2.983011e+00    4.687822e-01   5.803943e-03
  2.985221e+00    4.572150e-01   5.728728e-03
  2.987432e+00    4.475161e-01   5.664550e-03
  2.989642e+00    4.478127e-01   5.663814e-03
  2.991853e+00    4.650576e-01   5.768522e-03
  2.994063e+00    4.543053e-01   5.698537e-03
  2.996274e+00    4.584024e-01   5.720970e-03
  2.998484e+00    4.620921e-01   5.741245e-03
  3.000694e+00    4.566378e-01   5.703771e-03
  3.002905e+00    4.624676e-01   5.737116e-03
  3.005115e+00    4.577842e-01   5.704997e-03
  3.007326e+00    4.589265e-01   5.708925e-03
  3.009536e+00    4.532284e-01   5.670132e-03
  3.011747e+00    4.612541e-01   5.717166e-03
  3.013957e+00    4.525267e-01   5.659651e-03
  3.016168e+00    4.450107e-01   5.609216e-03
  3.018378e+00    4.470595e-01   5.619082e-03
  3.020589e+00    4.538000e-01   5.658083e-03
  3.022799e+00    4.531364e-01   5.650779e-03
  3.025010e+00    4.434689e-01   5.586955e-03
  3.027220e+00    4.515551e-01   5.634570e-03
  3.029430e+00    4.615709e-01   5.693427e-03
  3.031641e+00    4.600929e-01   5.681139e-03
  3.033851e+00    4.431565e-01   5.572131e-03
  3.036062e+00    4.523687e-01   5.626943e-03
  3.038272e+00    4.447531e-01   5.575842e-03
  3.040483e+00    4.564697e-01   5.645562e-03
  3.042693e+00    4.506398e-01   5.606132e-03
  3.044904e+00    4.503085e-01   5.600047e-03
  3.047114e+00    4.514741e-01   5.602501e-03
  3.049325e+00    4.544315e-01   5.616385e-03
  3.051535e+00    4.626358e-01   5.662422e-03
  3.053745e+00    4.515078e-01   5.589149e-03
  3.055956e+00    4.668776e-01   5.678818e-03
  3.058166e+00    4.562850e-01   5.609750e-03
  3.060377e+00    4.635713e-01   5.649518e-03
  3.062587e+00    4.600233e-01   5.623182e-03
  3.064798e+00    4.554325e-01   5.590772e-03
  3.067008e+00    4.575858e-01   5.599199e-03
  3.069219e+00    4.500071e-01   5.548138e-03
  3.071429e+00    4.425927e-01   5.498738e-03
  3.073640e+00    4.504665e-01   5.544108e-03
  3.075850e+00    4.452043e-01   5.508070e-03
  3.078060e+00    4.325439e-01   5.426127e-03
  3.080271e+00    4.466687e-01   5.510544e-03
  3.082481e+00    4.552412e-01   5.559706e-03
  3.084692e+00    4.538899e-01   5.548046e-03
  3.086902e+00    4.501868e-01   5.522125e-03
  3.089113e+00    4.552867e-01   5.549714e-03
  3.091323e+00    4.497564e-01   5.512521e-03
  3.093534e+00    4.505369e-01   5.513918e-03
  3.095744e+00    4.671834e-01   5.611404e-03
  3.097955e+00    4.564128e-01   5.542786e-03
  3.100165e+00    4.474680e-01   5.484847e-03
  3.102375e+00    4.480172e-01   5.484801e-03
  3.104586e+00    4.490950e-01   5.487878e-03
  3.106796e+00    4.461645e-01   5.466448e-03
  3.109007e+00    4.405261e-01   5.428572e-03
  3.111217e+00    4.415548e-01   5.431251e-03
  3.113428e+00    4.414939e-01   5.427477e-03
  3.115638e+00    4.504708e-01   5.479112e-03
  3.117849e+00    4.506734e-01   5.476618e-03
  3.120059e+00    4.456021e-01   5.442232e-03
  3.122270e+00    4.530421e-01   5.484205e-03
  3.124480e+00    4.436638e-01   5.423463e-03
  3.126691e+00    4.551379e-01   5.489520e-03
  3.128901e+00    4.599173e-01   5.515120e-03
  3.131111e+00    4.547024e-01   5.479863e-03
  3.133322e+00    4.590460e-01   5.502482e-03
  3.135532e+00    4.541223e-01   5.469447e-03
  3.137743e+00    4.381914e-01   5.369215e-03
  3.139953e+00    4.507829e-01   5.442061e-03
  3.142164e+00    4.366177e-01   5.367841e-03
  3.144374e+00    4.380324e-01   5.404768e-03
  3.146585e+00    4.437505e-01   5.454538e-03
  3.148795e+00    4.333421e-01   5.400837e-03
  3.151006e+00    4.377649e-01   5.436842e-03
  3.153216e+00    4.440215e-01   5.482707e-03
  3.155426e+00    4.471439e-01   5.508306e-03
  3.157637e+00    4.320724e-01   5.420162e-03
  3.159847e+00    4.446335e-01   5.503263e-03
  3.162058e+00    4.362236e-01   5.455384e-03
  3.164268e+00    4.410976e-01   5.489843e-03
  3.166479e+00    4.450385e-01   5.517995e-03
  3.168689e+00    4.479778e-01   5.539571e-03
  3.170900e+00    4.459110e-01   5.529993e-03
  3.173110e+00    4.479239e-01   5.545352e-03
  3.175321e+00    4.467484e-01   5.540574e-03
  3.177531e+00    4.390917e-01   5.495673e-03
  3.179741e+00    4.392788e-01   5.498888e-03
  3.181952e+00    4.426992e-01   5.522375e-03
  3.184162e+00    4.336089e-01   5.467597e-03
  3.186373e+00    4.329084e-01   5.464730e-03
  3.188583e+00    4.391537e-01   5.505815e-03
  3.190794e+00    4.387695e-01   5.505165e-03
  3.193004e+00    4.360147e-01   5.489104e-03
  3.195215e+00    4.235790e-01   5.411742e-03
  3.197425e+00    4.327125e-01   5.470971e-03
  3.199636e+00    4.533736e-01   5.599269e-03
  3.201846e+00    4.390510e-01   5.509547e-03
  3.204056e+00    4.193047e-01   5.385071e-03
  3.206267e+00    4.216712e-01   5.401082e-03
  3.208477e+00    4.430757e-01   5.537398e-03
  3.210688e+00    4.272424e-01   5.438407e-03
  3.212898e+00    4.298434e-01   5.455516e-03
  3.215109e+00    4.231360e-01   5.413507e-03
  3.217319e+00    4.397016e-01   5.519113e-03
  3.219530e+00    4.345521e-01   5.487094e-03
  3.221740e+00    4.346492e-01   5.488269e-03
  3.223951e+00    4.276587e-01   5.444436e-03
  3.226161e+00    4.289211e-01   5.452632e-03
  3.228372e+00    4.258914e-01   5.433897e-03
  3.230582e+00    4.146504e-01   5.361824e-03
  3.232792e+00    4.276942e-01   5.445719e-03
  3.235003e+00    4.436803e-01   5.546821e-03
  3.237213e+00    4.368495e-01   5.504059e-03
  3.239424e+00    4.328698e-01   5.478925e-03
  3.241634e+00    4.356201e-01   5.496433e-03
  3.243845e+00    4.368265e-01   5.504121e-03
  3.246055e+00    4.261712e-01   5.436290e-03
  3.248266e+00    4.273410e-01   5.443955e-03
  3.250476e+00    4.399768e-01   5.523528e-03
  3.252687e+00    4.277529e-01   5.446200e-03
  3.254897e+00    4.289629e-01   5.453765e-03
  3.257107e+00    4.260931e-01   5.435183e-03
  3.259318e+00    4.414743e-01   5.532169e-03
  3.261528e+00    4.347160e-01   5.489535e-03
  3.263739e+00    4.319391e-01   5.471401e-03
  3.265949e+00    4.248610e-01   5.426272e-03
  3.268160e+00    4.168814e-01   5.374660e-03
  3.270370e+00    4.186342e-01   5.385428e-03
  3.272581e+00    4.196499e-01   5.391690e-03
  3.274791e+00    4.322216e-01   5.471308e-03
  3.277002e+00    4.408867e-01   5.525326e-03
  3.279212e+00    4.321569e-01   5.469959e-03
  3.281422e+00    4.372337e-01   5.501410e-03
  3.283633e+00    4.338282e-01   5.479279e-03
  3.285843e+00    4.255796e-01   5.426561e-03
  3.288054e+00    4.417553e-01   5.527804e-03
  3.290264e+00    4.255544e-01   5.425158e-03
  3.292475e+00    4.283129e-01   5.441891e-03
  3.294685e+00    4.310935e-01   5.458870e-03
  3.296896e+00    4.351356e-01   5.483645e-03
  3.299106e+00    4.321790e-01   5.464414e-03
  3.301317e+00    4.489794e-01   5.568570e-03
  3.303527e+00    4.230263e-01   5.404764e-03
  3.305737e+00    4.229201e-01   5.403028e-03
  3.307948e+00    4.288213e-01   5.439926e-03
  3.310158e+00    4.291561e-01   5.441186e-03
  3.312369e+00    4.267804e-01   5.425219e-03
  3.314579e+00    4.198050e-01   5.379815e-03
  3.316790e+00    4.246325e-01   5.409920e-03
  3.319000e+00    4.221029e-01   5.392615e-03
  3.321211e+00    4.235048e-01   5.400951e-03
  3.323421e+00    4.304638e-01   5.443908e-03
  3.325632e+00    4.381482e-01   5.491402e-03
  3.327842e+00    4.415220e-01   5.511569e-03
  3.330052e+00    4.360361e-01   5.476122e-03
  3.332263e+00    4.382919e-01   5.489242e-03
  3.334473e+00    4.362646e-01   5.475616e-03
  3.336684e+00    4.217367e-01   5.382396e-03
  3.338894e+00    4.254619e-01   5.405264e-03
  3.341105e+00    4.196931e-01   5.367282e-03
  3.343315e+00    4.209707e-01   5.374342e-03
  3.345526e+00    4.228314e-01   5.385258e-03
  3.347736e+00    4.235347e-01   5.388343e-03
  3.349947e+00    4.347771e-01   5.458424e-03
  3.352157e+00    4.329298e-01   5.445643e-03
  3.354368e+00    4.327725e-01   5.443347e-03
  3.356578e+00    4.256453e-01   5.397291e-03
  3.358788e+00    4.233528e-01   5.381414e-03
  3.360999e+00    4.198498e-01   5.357829e-03
  3.363209e+00    4.255951e-01   5.393378e-03
  3.365420e+00    4.194367e-01   5.352661e-03
  3.367630e+00    4.375845e-01   5.466202e-03
  3.369841e+00    4.245491e-01   5.382746e-03
  3.372051e+00    4.113365e-01   5.296348e-03
  3.374262e+00    4.223047e-01   5.364040e-03
  3.376472e+00    4.192824e-01   5.342367e-03
  3.378683e+00    4.145477e-01   5.309604e-03
  3.380893e+00    4.297055e-01   5.403423e-03
  3.383103e+00    4.135932e-01   5.298471e-03
  3.385314e+00    4.125043e-01   5.289265e-03
  3.387524e+00    4.200097e-01   5.334419e-03
  3.389735e+00    4.142094e-01   5.294804e-03
  3.391945e+00    4.260521e-01   5.366253e-03
  3.394156e+00    4.110088e-01   5.266457e-03
  3.396366e+00    4.257205e-01   5.356405e-03
  3.398577e+00    4.139793e-01   5.278981e-03
  3.400787e+00    4.177753e-01   5.315133e-03
  3.402998e+00    4.193055e-01   5.363340e-03
  3.405208e+00    4.122503e-01   5.338882e-03
  3.407418e+00    3.980373e-01   5.261765e-03
  3.409629e+00    3.865793e-01   5.199174e-03
  3.411839e+00    3.897477e-01   5.232069e-03
  3.414050e+00    4.053608e-01   5.346948e-03
  3.416260e+00    4.017254e-01   5.332652e-03
  3.418471e+00    3.971312e-01   5.311532e-03
  3.420681e+00    3.917661e-01   5.284003e-03
  3.422892e+00    3.862604e-01   5.254728e-03
  3.425102e+00    3.824565e-01   5.236505e-03
  3.427313e+00    3.796533e-01   5.224393e-03
  3.429523e+00    3.912830e-01   5.310902e-03
  3.431733e+00    3.780308e-01   5.226796e-03
  3.433944e+00    3.969801e-01   5.362768e-03
  3.436154e+00    3.954633e-01   5.358869e-03
  3.438365e+00    3.878336e-01   5.312910e-03
  3.440575e+00    3.836806e-01   5.290322e-03
  3.442786e+00    3.885751e-01   5.329637e-03
  3.444996e+00    3.837111e-01   5.301745e-03
  3.447207e+00    3.671912e-01   5.191580e-03
  3.449417e+00    3.736657e-01   5.278070e-03
  3.451628e+00    3.582420e-01   5.197048e-03
  3.453838e+00    3.644660e-01   5.263016e-03
  3.456049e+00    3.676780e-01   5.310095e-03
  3.458259e+00    3.657113e-01   5.317819e-03
  3.460469e+00    3.620791e-01   5.310992e-03
  3.462680e+00    3.507008e-01   5.245529e-03
  3.464890e+00    3.634970e-01   5.358083e-03
  3.467101e+00    3.614178e-01   5.360056e-03
  3.469311e+00    3.883854e-01   5.573391e-03
  3.471522e+00    3.861129e-01   5.573698e-03
  3.473732e+00    4.102191e-01   5.761656e-03
  3.475943e+00    4.127358e-01   5.795604e-03
  3.478153e+00    4.131366e-01   5.814370e-03
  3.480364e+00    4.239396e-01   5.905607e-03
  3.482574e+00    4.150817e-01   5.859175e-03
  3.484784e+00    4.235028e-01   5.933386e-03
  3.486995e+00    4.380811e-01   6.050118e-03
  3.489205e+00    4.538056e-01   6.172950e-03
  3.491416e+00    4.509593e-01   6.168903e-03
  3.493626e+00    4.644924e-01   6.275843e-03
  3.495837e+00    4.557227e-01   6.231341e-03
  3.498047e+00    4.610805e-01   6.282606e-03
  3.500258e+00    4.670054e-01   6.337667e-03
  3.502468e+00    4.574904e-01   6.287268e-03
  3.504679e+00    4.615818e-01   6.329777e-03
  3.506889e+00    4.796438e-01   6.467115e-03
  3.509099e+00    4.793802e-01   6.479810e-03
  3.511310e+00    4.717715e-01   6.442583e-03
  3.513520e+00    4.816957e-01   6.524396e-03
  3.515731e+00    4.944223e-01   6.624527e-03
  3.517941e+00    4.994889e-01   6.672899e-03
  3.520152e+00    4.959549e-01   6.663582e-03
  3.522362e+00    5.047930e-01   6.737209e-03
  3.524573e+00    5.042276e-01   6.747704e-03
  3.526783e+00    5.269293e-01   6.911484e-03
  3.528994e+00    5.244371e-01   6.907487e-03
  3.531204e+00    5.183296e-01   6.879534e-03
  3.533414e+00    5.377256e-01   7.019300e-03
  3.535625e+00    5.483353e-01   7.100797e-03
  3.537835e+00    5.407845e-01   7.063960e-03
  3.540046e+00    5.323903e-01   7.017848e-03
  3.542256e+00    5.449179e-01   7.107514e-03
  3.544467e+00    5.183862e-01   6.939817e-03
  3.546677e+00    5.430281e-01   7.110471e-03
  3.548888e+00    5.432979e-01   7.119789e-03
  3.551098e+00    5.333407e-01   7.061524e-03
  3.553309e+00    5.327229e-01   7.065570e-03
  3.555519e+00    5.434844e-01   7.147927e-03
  3.557729e+00    5.446626e-01   7.167520e-03
  3.559940e+00    5.522853e-01   7.229209e-03
  3.562150e+00    5.450857e-01   7.193756e-03
  3.564361e+00    5.307187e-01   7.111556e-03
  3.566571e+00    5.431477e-01   7.208287e-03
  3.568782e+00    5.317811e-01   7.146508e-03
  3.570992e+00    5.414944e-01   7.225319e-03
  3.573203e+00    5.433112e-01   7.251656e-03
  3.575413e+00    5.385722e-01   7.233781e-03
  3.577624e+00    5.308054e-01   7.195496e-03
  3.579834e+00    5.413032e-01   7.280233e-03
  3.582045e+00    5.487002e-01   7.343987e-03
  3.584255e+00    5.391362e-01   7.293848e-03
  3.586465e+00    5.407471e-01   7.318703e-03
  3.588676e+00    5.397406e-01   7.326114e-03
  3.590886e+00    5.515840e-01   7.419990e-03
  3.593097e+00    5.371201e-01   7.336583e-03
  3.595307e+00    5.209121e-01   7.238754e-03
  3.597518e+00    5.445574e-01   7.415551e-03
  3.599728e+00    5.269685e-01   7.308822e-03
  3.601939e+00    5.335659e-01   7.368430e-03
  3.604149e+00    5.536469e-01   7.520468e-03
  3.606360e+00    5.439179e-01   7.468379e-03
  3.608570e+00    5.470923e-01   7.504418e-03
  3.610780e+00    5.317739e-01   7.409663e-03
  3.612991e+00    5.483702e-01   7.534544e-03
  3.615201e+00    5.330172e-01   7.438099e-03
  3.617412e+00    5.521136e-01   7.577509e-03
  3.619622e+00    5.586261e-01   7.628208e-03
  3.621833e+00    5.320100e-01   7.450983e-03
  3.624043e+00    5.218379e-01   7.388767e-03
  3.626254e+00    5.216488e-01   7.397008e-03
  3.628464e+00    5.424063e-01   7.553818e-03
  3.630675e+00    5.380487e-01   7.537579e-03
  3.632885e+00    5.437700e-01   7.592115e-03
  3.635095e+00    5.367008e-01   7.557071e-03
  3.637306e+00    5.447001e-01   7.627673e-03
  3.639516e+00    5.355043e-01   7.577606e-03
  3.641727e+00    5.572200e-01   7.744553e-03
  3.643937e+00    5.472267e-01   7.689613e-03
  3.646148e+00    5.349410e-01   7.617368e-03
  3.648358e+00    5.618091e-01   7.821601e-03
  3.650569e+00    5.432821e-01   7.706470e-03
  3.652779e+00    5.212274e-01   7.562989e-03
  3.654990e+00    5.202577e-01   7.570664e-03
  3.657200e+00    5.320191e-01   7.670663e-03
  3.659410e+00    5.412838e-01   7.752271e-03
  3.661621e+00    5.342426e-01   7.716801e-03
  3.663831e+00    5.227850e-01   7.648605e-03
  3.666042e+00    5.502880e-01   7.862629e-03
  3.668252e+00    5.393283e-01   7.799339e-03
  3.670463e+00    5.386912e-01   7.810010e-03
  3.672673e+00    5.382828e-01   7.822665e-03
  3.674884e+00    5.067981e-01   7.605404e-03
  3.677094e+00    5.220591e-01   7.734473e-03
  3.679305e+00    5.422949e-01   7.898677e-03
  3.681515e+00    5.542247e-01   8.001066e-03
  3.683726e+00    5.439076e-01   7.942279e-03
  3.685936e+00    5.373123e-01   7.909778e-03
  3.688146e+00    5.275428e-01   7.853309e-03
  3.690357e+00    5.297270e-01   7.885569e-03
  3.692567e+00    5.148923e-01   7.790235e-03
  3.694778e+00    5.290955e-01   7.913082e-03
  3.696988e+00    5.282038e-01   7.922425e-03
  3.699199e+00    5.121284e-01   7.816967e-03
  3.701409e+00    5.406017e-01   8.047918e-03
  3.703620e+00    5.198717e-01   7.908398e-03
  3.705830e+00    5.307657e-01   8.007258e-03
  3.708041e+00    5.050427e-01   7.827175e-03
  3.710251e+00    5.117356e-01   7.895366e-03
  3.712461e+00    5.086325e-01   7.887854e-03
  3.714672e+00    5.229453e-01   8.014886e-03
  3.716882e+00    5.063714e-01   7.903308e-03
  3.719093e+00    5.110804e-01   7.956935e-03
  3.721303e+00    5.133955e-01   7.991808e-03
  3.723514e+00    5.238318e-01   8.089960e-03
  3.725724e+00    5.199031e-01   8.076774e-03
  3.727935e+00    5.046076e-01   7.974320e-03
  3.730145e+00    5.264763e-01   8.162724e-03
  3.732356e+00    5.168291e-01   8.105140e-03
  3.734566e+00    5.217245e-01   8.161110e-03
  3.736776e+00    5.069204e-01   8.062102e-03
  3.738987e+00    5.185186e-01   8.171636e-03
  3.741197e+00    5.167767e-01   8.175958e-03
  3.743408e+00    5.002362e-01   8.061861e-03
  3.745618e+00    5.060093e-01   8.126453e-03
  3.747829e+00    5.173916e-01   8.235510e-03
  3.750039e+00    4.887784e-01   8.022553e-03
  3.752250e+00    5.088488e-01   8.203990e-03
  3.754460e+00    5.271417e-01   8.369017e-03
  3.756671e+00    5.179433e-01   8.314634e-03
  3.758881e+00    5.100349e-01   8.269624e-03
  3.761091e+00    4.957789e-01   8.172060e-03
  3.763302e+00    5.098436e-01   8.306351e-03
  3.765512e+00    5.046142e-01   8.282785e-03
  3.767723e+00    5.109703e-01   8.354222e-03
  3.769933e+00    5.151773e-01   8.408049e-03
  3.772144e+00    5.226993e-01   8.489096e-03
  3.774354e+00    4.996433e-01   8.319493e-03
  3.776565e+00    5.012454e-01   8.352636e-03
  3.778775e+00    5.127997e-01   8.468393e-03
  3.780986e+00    5.185627e-01   8.536514e-03
  3.783196e+00    4.971670e-01   8.378621e-03
  3.785407e+00    4.968007e-01   8.395873e-03
  3.787617e+00    5.225801e-01   8.632075e-03
  3.789827e+00    5.013178e-01   8.475177e-03
  3.792038e+00    4.943084e-01   8.436394e-03
  3.794248e+00    5.007196e-01   8.512044e-03
  3.796459e+00    5.217107e-01   8.710454e-03
  3.798669e+00    4.926893e-01   8.485907e-03
  3.800880e+00    5.237719e-01   8.771430e-03
  3.803090e+00    5.120817e-01   8.695071e-03
  3.805301e+00    5.095742e-01   8.696089e-03
  3.807511e+00    5.209214e-01   8.814787e-03
  3.809722e+00    5.004098e-01   8.661783e-03
  3.811932e+00    4.905849e-01   8.598343e-03
  3.814142e+00    4.990438e-01   8.695006e-03
  3.816353e+00    5.161752e-01   8.866209e-03
  3.818563e+00    5.251453e-01   8.966640e-03
  3.820774e+00    4.974043e-01   8.749798e-03
  3.822984e+00    4.870564e-01   8.681353e-03
  3.825195e+00    4.975262e-01   8.797881e-03
  3.827405e+00    5.094383e-01   8.926749e-03
  3.829616e+00    5.070832e-01   8.930410e-03
  3.831826e+00    5.067292e-01   8.951658e-03
  3.834037e+00    5.018331e-01   8.932959e-03
  3.836247e+00    5.067980e-01   9.001952e-03
  3.838457e+00    5.260872e-01   9.197403e-03
  3.840668e+00    5.213204e-01   9.181496e-03
  3.842878e+00    5.053372e-01   9.065457e-03
  3.845089e+00    4.777269e-01   8.839339e-03
  3.847299e+00    4.968652e-01   9.040536e-03
  3.849510e+00    5.105283e-01   9.190203e-03
  3.851720e+00    5.178454e-01   9.277740e-03
  3.853931e+00    5.124839e-01   9.248939e-03
  3.856141e+00    5.161193e-01   9.301140e-03
  3.858352e+00    4.983791e-01   9.159161e-03
  3.860562e+00    4.927845e-01   9.126927e-03
  3.862772e+00    5.083331e-01   9.289600e-03
  3.864983e+00    5.021219e-01   9.252582e-03
  3.867193e+00    4.778087e-01   9.045266e-03
  3.869404e+00    4.884088e-01   9.164670e-03
  3.871614e+00    4.974996e-01   9.269715e-03
  3.873825e+00    5.076135e-01   9.384023e-03
  3.876035e+00    5.043373e-01   9.374532e-03
  3.878246e+00    4.835314e-01   9.204663e-03
  3.880456e+00    4.907273e-01   9.301822e-03
  3.882667e+00    4.747499e-01   9.177989e-03
  3.884877e+00    5.258814e-01   9.690262e-03
  3.887087e+00    5.099570e-01   9.573014e-03
  3.889298e+00    4.919314e-01   9.432633e-03
  3.891508e+00    5.295219e-01   9.818150e-03
  3.893719e+00    4.955138e-01   9.528760e-03
  3.895929e+00    4.759924e-01   9.370110e-03
  3.898140e+00    5.113835e-01   9.744540e-03
  3.900350e+00    5.161768e-01   9.823161e-03
  3.902561e+00    5.122223e-01   9.818455e-03
  3.904771e+00    5.034056e-01   9.766890e-03
  3.906982e+00    5.216004e-01   9.976106e-03
  3.909192e+00    4.977344e-01   9.778911e-03
  3.911403e+00    4.983512e-01   9.819344e-03
  3.913613e+00    5.006876e-01   9.876974e-03
  3.915823e+00    4.984903e-01   9.890466e-03
  3.918034e+00    4.989210e-01   9.930397e-03
  3.920244e+00    4.851117e-01   9.827605e-03
  3.922455e+00    4.943850e-01   9.957400e-03
  3.924665e+00    4.890949e-01   9.940432e-03
  3.926876e+00    4.959500e-01   1.004728e-02
  3.929086e+00    4.969119e-01   1.009477e-02
  3.931297e+00    4.763973e-01   9.918535e-03
  3.933507e+00    4.892638e-01   1.008059e-02
  3.935718e+00    4.753034e-01   9.964102e-03
  3.937928e+00    4.928690e-01   1.017623e-02
  3.940138e+00    5.253120e-01   1.053619e-02
  3.942349e+00    5.071690e-01   1.038321e-02
  3.944559e+00    4.680778e-01   1.000444e-02
  3.946770e+00    4.902655e-01   1.026902e-02
  3.948980e+00    4.938323e-01   1.033721e-02
  3.951191e+00    4.825620e-01   1.024942e-02
  3.953401e+00    4.835910e-01   1.029156e-02
  3.955612e+00    4.704527e-01   1.018196e-02
  3.957822e+00    4.758597e-01   1.027152e-02
  3.960033e+00    5.073081e-01   1.063892e-02
  3.962243e+00    5.152975e-01   1.075622e-02
  3.964453e+00    4.774129e-01   1.038609e-02
  3.966664e+00    4.996195e-01   1.065870e-02
  3.968874e+00    5.306669e-01   1.101465e-02
  3.971085e+00    5.086263e-01   1.080592e-02
  3.973295e+00    4.862009e-01   1.058654e-02
  3.975506e+00    5.079036e-01   1.084227e-02
  3.977716e+00    5.166050e-01   1.095740e-02
  3.979927e+00    5.021970e-01   1.082617e-02
  3.982137e+00    4.935571e-01   1.075504e-02
  3.984348e+00    4.610052e-01   1.041638e-02
  3.986558e+00    4.541281e-01   1.035988e-02
  3.988768e+00    4.729246e-01   1.059485e-02
  3.990979e+00    4.681776e-01   1.056386e-02
  3.993189e+00    5.089570e-01   1.103797e-02
  3.995400e+00    4.830400e-01   1.077684e-02
  3.997610e+00    5.101601e-01   1.110569e-02
  3.999821e+00    4.928833e-01   1.095390e-02
  4.002031e+00    5.163039e-01   1.125083e-02
  4.004242e+00    4.663807e-01   1.073071e-02
  4.006452e+00    5.084239e-01   1.124431e-02
  4.008663e+00    5.103422e-01   1.130662e-02
  4.010873e+00    4.959863e-01   1.118685e-02
  4.013084e+00    4.813696e-01   1.106158e-02
  4.015294e+00    4.751224e-01   1.103013e-02
  4.017504e+00    4.797759e-01   1.112576e-02
  4.019715e+00    4.576172e-01   1.090703e-02
  4.021925e+00    4.825721e-01   1.124340e-02
  4.024136e+00    4.712010e-01   1.115326e-02
  4.026346e+00    4.699496e-01   1.118190e-02
  4.028557e+00    5.118955e-01   1.171586e-02
  4.030767e+00    5.145394e-01   1.179322e-02
  4.032978e+00    4.573429e-01   1.116349e-02
  4.035188e+00    4.771366e-01   1.144818e-02
  4.037399e+00    5.148042e-01   1.194081e-02
  4.039609e+00    4.961965e-01   1.177128e-02
  4.041819e+00    4.437881e-01   1.117899e-02
  4.044030e+00    4.816238e-01   1.169550e-02
  4.046240e+00    4.862677e-01   1.180204e-02
  4.048451e+00    4.559835e-01   1.147788e-02
  4.050661e+00    4.953200e-01   1.201497e-02
  4.052872e+00    5.106865e-01   1.225403e-02
  4.055082e+00    5.005214e-01   1.218620e-02
  4.057293e+00    4.482251e-01   1.158368e-02
  4.059503e+00    4.808334e-01   1.205210e-02
  4.061714e+00    4.733600e-01   1.201414e-02
  4.063924e+00    4.613249e-01   1.191594e-02
  4.066134e+00    4.676294e-01   1.205353e-02
  4.068345e+00    4.881201e-01   1.237419e-02
  4.070555e+00    4.915912e-01   1.247792e-02
  4.072766e+00    5.060347e-01   1.272237e-02
  4.074976e+00    4.890855e-01   1.256979e-02
  4.077187e+00    5.134515e-01   1.294315e-02
  4.079397e+00    4.682875e-01   1.242390e-02
  4.081608e+00    5.129278e-01   1.307021e-02
  4.083818e+00    4.644047e-01   1.250127e-02
  4.086029e+00    4.758048e-01   1.272060e-02
  4.088239e+00    4.760412e-01   1.279220e-02
  4.090449e+00    4.713526e-01   1.279809e-02
  4.092660e+00    4.994384e-01   1.324637e-02
  4.094870e+00    4.791836e-01   1.304713e-02
  4.097081e+00    4.881220e-01   1.324033e-02
  4.099291e+00    4.729833e-01   1.308754e-02
  4.101502e+00    4.463941e-01   1.276158e-02
  4.103712e+00    4.799386e-01   1.328173e-02
  4.105923e+00    4.883337e-01   1.344937e-02
  4.108133e+00    4.647277e-01   1.317060e-02
  4.110344e+00    4.746431e-01   1.336150e-02
  4.112554e+00    4.557461e-01   1.314439e-02
  4.114764e+00    4.804588e-01   1.355029e-02
  4.116975e+00    5.134842e-01   1.406369e-02
  4.119185e+00    4.889592e-01   1.377923e-02
  4.121396e+00    4.952756e-01   1.392542e-02
  4.123606e+00    5.173972e-01   1.429125e-02
  4.125817e+00    4.495883e-01   1.337783e-02
  4.128027e+00    4.855213e-01   1.396057e-02
  4.130238e+00    5.003242e-01   1.423263e-02
  4.132448e+00    4.770766e-01   1.395849e-02
  4.134659e+00    4.544002e-01   1.368104e-02
  4.136869e+00    4.957065e-01   1.435331e-02
  4.139080e+00    4.679875e-01   1.400889e-02
  4.141290e+00    4.870751e-01   1.435539e-02
  4.143500e+00    4.314087e-01   1.357217e-02
  4.145711e+00    5.097122e-01   1.482155e-02
  4.147921e+00    4.976426e-01   1.471229e-02
  4.150132e+00    4.513012e-01   1.407727e-02
  4.152342e+00    4.777934e-01   1.455487e-02
  4.154553e+00    4.545396e-01   1.426386e-02
  4.156763e+00    4.746181e-01   1.464734e-02
  4.158974e+00    4.673414e-01   1.460789e-02
  4.161184e+00    4.316831e-01   1.410924e-02
  4.163395e+00    4.299418e-01   1.415232e-02
  4.165605e+00    5.083804e-01   1.546946e-02
  4.167815e+00    5.349184e-01   1.595094e-02
  4.170026e+00    4.979886e-01   1.547159e-02
  4.172236e+00    4.756575e-01   1.520244e-02
  4.174447e+00    4.691071e-01   1.517943e-02
  4.176657e+00    5.199779e-01   1.606856e-02
  4.178868e+00    5.478314e-01   1.658681e-02
  4.181078e+00    5.433589e-01   1.661226e-02
  4.183289e+00    4.834931e-01   1.575995e-02
  4.185499e+00    4.815778e-01   1.582153e-02
  4.187710e+00    4.308069e-01   1.505187e-02
  4.189920e+00    4.422151e-01   1.534166e-02
  4.192130e+00    4.926415e-01   1.629201e-02
  4.194341e+00    4.384477e-01   1.546381e-02
  4.196551e+00    4.873701e-01   1.640683e-02
  4.198762e+00    5.310290e-01   1.723507e-02
  4.200972e+00    4.539921e-01   1.603875e-02
  4.203183e+00    4.725487e-01   1.647146e-02
  4.205393e+00    4.467672e-01   1.612219e-02
  4.207604e+00    4.776811e-01   1.678438e-02
  4.209814e+00    4.872400e-01   1.706784e-02
  4.212025e+00    5.388547e-01   1.807630e-02
  4.214235e+00    4.896226e-01   1.735282e-02
  4.216445e+00    5.389468e-01   1.833761e-02
  4.218656e+00    4.995387e-01   1.778677e-02
  4.220866e+00    4.710556e-01   1.740035e-02
  4.223077e+00    4.592967e-01   1.731389e-02
  4.225287e+00    4.435268e-01   1.714763e-02
  4.227498e+00    4.524156e-01   1.745455e-02
  4.229708e+00    4.593082e-01   1.772992e-02
  4.231919e+00    5.177434e-01   1.897988e-02
  4.234129e+00    5.052600e-01   1.890671e-02
  4.236340e+00    4.782795e-01   1.855272e-02
  4.238550e+00    4.785176e-01   1.872102e-02
  4.240761e+00    4.906844e-01   1.912493e-02
  4.242971e+00    5.129955e-01   1.973396e-02
  4.245181e+00    4.938022e-01   1.954335e-02
  4.247392e+00    4.138670e-01   1.805909e-02
  4.249602e+00    4.575033e-01   1.917554e-02
  4.251813e+00    5.182556e-01   2.061033e-02
  4.254023e+00    4.990197e-01   2.042792e-02
  4.256234e+00    4.687761e-01   2.001067e-02
  4.258444e+00    5.110831e-01   2.111331e-02
  4.260655e+00    4.287644e-01   1.955060e-02
  4.262865e+00    5.377932e-01   2.214387e-02
  4.265076e+00    4.606728e-01   2.072814e-02
  4.267286e+00    5.086020e-01   2.203813e-02
  4.269496e+00    4.255916e-01   2.040542e-02
  4.271707e+00    5.134476e-01   2.268925e-02
  4.273917e+00    5.328301e-01   2.341336e-02
  4.276128e+00    4.432500e-01   2.163768e-02
  4.278338e+00    4.493421e-01   2.207682e-02
  4.280549e+00    4.517313e-01   2.245351e-02
  4.282759e+00    4.354790e-01   2.236213e-02
  4.284970e+00    5.099551e-01   2.455729e-02
  4.287180e+00    5.316924e-01   2.537586e-02
  4.289391e+00    5.618649e-01   2.628125e-02
  4.291601e+00    5.611506e-01   2.647480e-02
  4.293811e+00    5.069140e-01   2.535973e-02
  4.296022e+00    4.940448e-01   2.523666e-02
  4.298232e+00    4.886416e-01   2.530868e-02
  4.300443e+00    4.751732e-01   2.516363e-02
  4.302653e+00    4.094625e-01   2.356062e-02
  4.304864e+00    4.381769e-01   2.458346e-02
  4.307074e+00    5.424219e-01   2.759878e-02
  4.309285e+00    5.065448e-01   2.691186e-02
  4.311495e+00    4.997907e-01   2.698240e-02
  4.313706e+00    4.996137e-01   2.723060e-02
  4.315916e+00    4.976768e-01   2.744604e-02
  4.318126e+00    4.605552e-01   2.666375e-02
  4.320337e+00    4.917440e-01   2.783069e-02
  4.322547e+00    4.332104e-01   2.639796e-02
  4.324758e+00    4.504257e-01   2.719782e-02
  4.326968e+00    4.413859e-01   2.722652e-02
  4.329179e+00    4.752271e-01   2.856263e-02
  4.331389e+00    4.668164e-01   2.863460e-02
  4.333600e+00    4.560331e-01   2.863998e-02
  4.335810e+00    5.324750e-01   3.131567e-02
  4.338021e+00    4.846841e-01   3.025903e-02
  4.340231e+00    5.916795e-01   3.385422e-02
  4.342442e+00    4.203783e-01   2.891723e-02
  4.344652e+00    4.174154e-01   2.920718e-02
  4.346862e+00    4.339368e-01   3.019502e-02
  4.349073e+00    4.900590e-01   3.255711e-02
  4.351283e+00    4.781042e-01   3.263615e-02
  4.353494e+00    5.128910e-01   3.432675e-02
  4.355704e+00    4.528691e-01   3.277493e-02
  4.357915e+00    5.652947e-01   3.722546e-02
  4.360125e+00    4.896080e-01   3.523724e-02
  4.362336e+00    4.328319e-01   3.373386e-02
  4.364546e+00    3.584133e-01   3.125720e-02
  4.366757e+00    3.347116e-01   3.080486e-02
  4.368967e+00    4.013902e-01   3.440778e-02
  4.371177e+00    5.238031e-01   4.014254e-02
  4.373388e+00    6.839909e-01   4.689543e-02
  4.375598e+00    6.090150e-01   4.526238e-02
  4.377809e+00    4.540007e-01   4.006868e-02
  4.380019e+00    3.217519e-01   3.457906e-02
  4.382230e+00    4.020671e-01   3.973451e-02
  4.384440e+00    3.099264e-01   3.588690e-02
  4.386651e+00    4.775191e-01   4.592165e-02
  4.388861e+00    4.879971e-01   4.797908e-02
  4.391072e+00    5.752705e-01   5.392326e-02
  4.393282e+00    6.160697e-01   5.796047e-02
  4.395492e+00    5.061642e-01   5.472454e-02
  4.397703e+00    4.351397e-01   5.305616e-02
  4.399913e+00    3.649991e-01   5.105302e-02
  4.402124e+00    1.566194e-01   3.533810e-02
  4.404334e+00    3.870159e-01   5.904315e-02
  4.406545e+00    4.450104e-01   6.802667e-02
  4.408755e+00    4.724000e-01   7.601810e-02
  4.410966e+00    3.328723e-01   7.062387e-02
  4.413176e+00    1.803961e-01   5.886128e-02
  4.415387e+00   -8.866234e-01            nan
  4.417597e+00   -2.044852e+00            nan
  4.419807e+00   -3.766224e-01            nan
