# == pyFAI calibration ==
# Distance Sample to Detector: 0.216 m
# PONI: 1.166e-01, 1.308e-01 m
# Rotations: 0.000000 0.000000 0.000000 rad
# 
# == Fit2d calibration ==
# Distance Sample-beamCenter: 216.000 mm
# Center: x=1744.293, y=1555.000 pix
# Tilt: 0.000 deg  TiltPlanRot: 0.000 deg
# 
# Detector Eiger 9M	 PixelSize= 7.500e-05, 7.500e-05 m
#    Detector has a mask: True 
#    Detector has a dark current: False 
#    detector has a flat field: False 
# 
# Wavelength: 9.8e-11 m
# Mask applied: from detector
# Dark current applied: False
# Flat field applied: False
# Polarization factor: None
# Normalization factor: 1.0
# 
# Headers of the input frame:
# {
# "_array_data.header_convention": "SLS_1.0",
# "_array_data.header_contents": "# Detector: Dectris Eiger 9M, S/N E-18-0102\r\n# Pixel_size 75e-6 m x 75e-6 m\r\n# Silicon sensor, thickness 0.000450 m\r\n# Exposure_time 0.024997 s\r\n# Exposure_period 0.025000 s\r\n# Count_cutoff 62318 counts\r\n# Wavelength 0.980106 A\r\n# Detector_distance 0.215992 m\r\n# Beam_xy (1555, 1744) pixels\r\n# Start_angle 0.000000 deg.\r\n# Angle_increment 0.000000 deg.",
# "Content-Type": "application/octet-stream;",
# "conversions": "x-CBF_BYTE_OFFSET",
# "Content-Transfer-Encoding": "BINARY",
# "X-Binary-Size": "10166594",
# "X-Binary-ID": "1",
# "X-Binary-Element-Type": "signed 32-bit integer",
# "X-Binary-Element-Byte-Order": "LITTLE_ENDIAN",
# "Content-MD5": "wZltdgf+OqnCp/vc2oxKRw==",
# "X-Binary-Number-of-Elements": "10166590",
# "X-Binary-Size-Fastest-Dimension": "3110",
# "X-Binary-Size-Second-Dimension": "3269",
# "X-Binary-Size-Padding": "4095"
# }
# --> H:/Proxima2a_2019-04-05/RAW_DATA/C5_gel17_position5/C5_mesh_1_data.cbf/C5_mesh_1_data.cbf000093.dat
#        q_A^-1              I           sigma 
  1.105228e-03    9.407477e-01   5.248359e-01
  3.315685e-03    1.104411e+00   3.457091e-01
  5.526141e-03    1.357833e+00   2.964116e-01
  7.736597e-03    1.456696e+00   2.593610e-01
  9.947054e-03    1.416989e+00   2.255069e-01
  1.215751e-02    1.541185e+00   2.126650e-01
  1.436797e-02    1.691961e+00   2.049609e-01
  1.657842e-02    1.685397e+00   1.904125e-01
  1.878888e-02    1.551682e+00   1.716188e-01
  2.099934e-02    1.502518e+00   1.597761e-01
  2.320979e-02    1.600090e+00   1.568213e-01
  2.542025e-02    1.532288e+00   1.466492e-01
  2.763070e-02    1.430736e+00   1.359159e-01
  2.984116e-02    1.456367e+00   1.319508e-01
  3.205162e-02    1.436782e+00   1.264683e-01
  3.426207e-02    1.615564e+00   1.296991e-01
  3.647253e-02    1.562402e+00   1.236193e-01
  3.868299e-02    1.432115e+00   1.149303e-01
  4.089344e-02    1.453054e+00   1.125956e-01
  4.310390e-02    1.625072e+00   1.159739e-01
  4.531436e-02    1.617241e+00   1.128374e-01
  4.752481e-02    1.429631e+00   1.035931e-01
  4.973527e-02    1.315606e+00   9.714372e-02
  5.194572e-02    1.299100e+00   9.445482e-02
  5.415618e-02    1.391687e+00   9.574355e-02
  5.636664e-02    1.430753e+00   9.515848e-02
  5.857709e-02    1.449949e+00   9.397036e-02
  6.078755e-02    1.349556e+00   8.899239e-02
  6.299801e-02    1.471950e+00   9.129414e-02
  6.520846e-02    1.462590e+00   8.944828e-02
  6.741892e-02    1.523375e+00   8.977457e-02
  6.962938e-02    1.486999e+00   8.728141e-02
  7.183983e-02    1.493739e+00   8.612106e-02
  7.405029e-02    1.549779e+00   8.640047e-02
  7.626074e-02    1.543838e+00   8.497501e-02
  7.847120e-02    1.584263e+00   8.485699e-02
  8.068166e-02    1.449471e+00   8.004663e-02
  8.289211e-02    1.508201e+00   8.055571e-02
  8.510257e-02    1.571489e+00   8.115311e-02
  8.731303e-02    1.388348e+00   7.530329e-02
  8.952348e-02    1.585838e+00   7.948349e-02
  9.173394e-02    1.629373e+00   7.958737e-02
  9.394439e-02    1.543721e+00   7.654798e-02
  9.615485e-02    1.518542e+00   7.504179e-02
  9.836531e-02    1.476616e+00   7.316043e-02
  1.005758e-01    1.452341e+00   7.175524e-02
  1.027862e-01    1.558278e+00   7.352081e-02
  1.049967e-01    1.596748e+00   7.363395e-02
  1.072071e-01    1.567385e+00   7.219692e-02
  1.094176e-01    1.626351e+00   7.279466e-02
  1.116280e-01    1.584791e+00   7.114194e-02
  1.138385e-01    1.558542e+00   6.986064e-02
  1.160490e-01    1.581064e+00   6.968940e-02
  1.182594e-01    1.645784e+00   7.043229e-02
  1.204699e-01    1.601470e+00   6.883671e-02
  1.226803e-01    1.621607e+00   6.863840e-02
  1.248908e-01    1.664243e+00   6.891597e-02
  1.271012e-01    1.611851e+00   6.722887e-02
  1.293117e-01    1.654352e+00   6.752393e-02
  1.315222e-01    1.644748e+00   6.675793e-02
  1.337326e-01    1.689122e+00   6.708975e-02
  1.359431e-01    1.616096e+00   6.566188e-02
  1.381535e-01    1.659269e+00   6.742623e-02
  1.403640e-01    1.610747e+00   6.671990e-02
  1.425744e-01    1.620623e+00   6.703104e-02
  1.447849e-01    1.677013e+00   6.820294e-02
  1.469953e-01    1.611014e+00   6.680556e-02
  1.492058e-01    1.640369e+00   6.733309e-02
  1.514163e-01    1.691241e+00   6.825571e-02
  1.536267e-01    1.539052e+00   6.498515e-02
  1.558372e-01    1.617244e+00   6.646839e-02
  1.580476e-01    1.674510e+00   6.747088e-02
  1.602581e-01    1.594791e+00   6.567800e-02
  1.624685e-01    1.656513e+00   6.675360e-02
  1.646790e-01    1.716695e+00   6.776024e-02
  1.668895e-01    1.759028e+00   6.839257e-02
  1.690999e-01    1.689722e+00   6.683037e-02
  1.713104e-01    1.756508e+00   6.792683e-02
  1.735208e-01    1.848427e+00   6.946481e-02
  1.757313e-01    1.826620e+00   6.883744e-02
  1.779417e-01    1.805070e+00   6.820698e-02
  1.801522e-01    1.955768e+00   7.077097e-02
  1.823626e-01    1.963448e+00   7.067374e-02
  1.845731e-01    1.899884e+00   6.929514e-02
  1.867836e-01    1.832821e+00   6.783146e-02
  1.889940e-01    1.937079e+00   6.950613e-02
  1.912045e-01    1.970522e+00   6.986949e-02
  1.934149e-01    1.992486e+00   7.002264e-02
  1.956254e-01    2.061936e+00   7.099762e-02
  1.978358e-01    2.041775e+00   7.040755e-02
  2.000463e-01    2.053374e+00   7.037327e-02
  2.022568e-01    2.025714e+00   6.966826e-02
  2.044672e-01    1.999435e+00   6.897779e-02
  2.066777e-01    1.967146e+00   6.819147e-02
  2.088881e-01    1.944830e+00   6.758173e-02
  2.110986e-01    2.031780e+00   6.883907e-02
  2.133090e-01    2.020093e+00   6.841765e-02
  2.155195e-01    2.008246e+00   6.799047e-02
  2.177300e-01    2.065918e+00   6.841804e-02
  2.199404e-01    2.136023e+00   6.773610e-02
  2.221509e-01    2.006371e+00   6.457025e-02
  2.243613e-01    1.910386e+00   6.220800e-02
  2.265718e-01    2.088388e+00   6.432472e-02
  2.287822e-01    2.123773e+00   6.422535e-02
  2.309927e-01    2.153321e+00   6.408145e-02
  2.332031e-01    2.135537e+00   6.327008e-02
  2.354136e-01    2.173513e+00   6.331283e-02
  2.376241e-01    2.173411e+00   6.281995e-02
  2.398345e-01    2.177612e+00   6.241524e-02
  2.420450e-01    2.206523e+00   6.237920e-02
  2.442554e-01    2.140225e+00   6.101169e-02
  2.464659e-01    2.210690e+00   6.159159e-02
  2.486763e-01    2.169402e+00   6.061270e-02
  2.508868e-01    2.135185e+00   5.975343e-02
  2.530973e-01    2.132023e+00   5.933899e-02
  2.553077e-01    2.155482e+00   5.930264e-02
  2.575182e-01    2.145841e+00   5.881979e-02
  2.597286e-01    2.170618e+00   5.881450e-02
  2.619391e-01    2.162078e+00   5.836078e-02
  2.641495e-01    2.106795e+00   5.729095e-02
  2.663600e-01    2.102581e+00   5.691890e-02
  2.685704e-01    2.054079e+00   5.595359e-02
  2.707809e-01    2.077317e+00   5.597053e-02
  2.729914e-01    2.067126e+00   5.554211e-02
  2.752018e-01    2.028766e+00   5.473796e-02
  2.774123e-01    2.028928e+00   5.446051e-02
  2.796227e-01    2.050137e+00   5.447364e-02
  2.818332e-01    2.002586e+00   5.356963e-02
  2.840436e-01    1.963990e+00   5.279370e-02
  2.862541e-01    2.073871e+00   5.398967e-02
  2.884646e-01    2.060417e+00   5.355889e-02
  2.906750e-01    2.017396e+00   5.274549e-02
  2.928855e-01    2.019605e+00   5.252985e-02
  2.950959e-01    1.948292e+00   5.135708e-02
  2.973064e-01    1.924874e+00   5.081807e-02
  2.995168e-01    1.964982e+00   5.111222e-02
  3.017273e-01    1.956595e+00   5.077819e-02
  3.039377e-01    1.932083e+00   5.023815e-02
  3.061482e-01    1.952935e+00   5.029004e-02
  3.083587e-01    1.938809e+00   4.989091e-02
  3.105691e-01    1.932606e+00   4.959831e-02
  3.127796e-01    1.883260e+00   4.875515e-02
  3.149900e-01    1.881874e+00   4.853414e-02
  3.172005e-01    1.919807e+00   4.882041e-02
  3.194109e-01    1.921672e+00   4.864248e-02
  3.216214e-01    1.989707e+00   4.929410e-02
  3.238319e-01    1.942988e+00   4.851897e-02
  3.260423e-01    1.869227e+00   4.739953e-02
  3.282528e-01    1.908409e+00   4.770308e-02
  3.304632e-01    1.893545e+00   4.733285e-02
  3.326737e-01    1.888161e+00   4.708110e-02
  3.348841e-01    1.907010e+00   4.713202e-02
  3.370946e-01    1.944367e+00   4.741239e-02
  3.393050e-01    1.846851e+00   4.603312e-02
  3.415155e-01    1.774382e+00   4.495126e-02
  3.437260e-01    1.801426e+00   4.512466e-02
  3.459364e-01    1.805241e+00   4.500531e-02
  3.481469e-01    1.822001e+00   4.504871e-02
  3.503573e-01    1.829038e+00   4.497119e-02
  3.525678e-01    1.871339e+00   4.532616e-02
  3.547782e-01    1.842099e+00   4.480810e-02
  3.569887e-01    1.838153e+00   4.460149e-02
  3.591992e-01    1.844766e+00   4.452356e-02
  3.614096e-01    1.868230e+00   4.465046e-02
  3.636201e-01    1.805660e+00   4.374213e-02
  3.658305e-01    1.818762e+00   4.375079e-02
  3.680410e-01    1.808555e+00   4.347781e-02
  3.702514e-01    1.740321e+00   4.250629e-02
  3.724619e-01    1.791588e+00   4.298098e-02
  3.746724e-01    1.795700e+00   4.288670e-02
  3.768828e-01    1.822105e+00   4.305550e-02
  3.790933e-01    1.817611e+00   4.286225e-02
  3.813037e-01    1.807951e+00   4.260833e-02
  3.835142e-01    1.858773e+00   4.306115e-02
  3.857246e-01    1.810197e+00   4.235724e-02
  3.879351e-01    1.790220e+00   4.198652e-02
  3.901455e-01    1.785926e+00   4.180263e-02
  3.923560e-01    1.806999e+00   4.191489e-02
  3.945665e-01    1.815947e+00   4.188529e-02
  3.967769e-01    1.892201e+00   4.262174e-02
  3.989874e-01    1.902697e+00   4.260636e-02
  4.011978e-01    1.836996e+00   4.173554e-02
  4.034083e-01    1.844449e+00   4.169173e-02
  4.056187e-01    1.772783e+00   4.074784e-02
  4.078292e-01    1.781461e+00   4.072382e-02
  4.100397e-01    1.793962e+00   4.074167e-02
  4.122501e-01    1.832406e+00   4.105272e-02
  4.144606e-01    1.799786e+00   4.056504e-02
  4.166710e-01    1.779272e+00   4.021325e-02
  4.188815e-01    1.860620e+00   4.100077e-02
  4.210919e-01    1.832361e+00   4.056900e-02
  4.233024e-01    1.781884e+00   3.988863e-02
  4.255128e-01    1.842986e+00   4.044950e-02
  4.277233e-01    1.823152e+00   4.011566e-02
  4.299338e-01    1.836808e+00   4.014977e-02
  4.321442e-01    1.825253e+00   3.990874e-02
  4.343547e-01    1.842862e+00   3.998742e-02
  4.365651e-01    1.810984e+00   3.952742e-02
  4.387756e-01    1.813577e+00   3.944496e-02
  4.409860e-01    1.792159e+00   3.910271e-02
  4.431965e-01    1.761145e+00   3.865571e-02
  4.454070e-01    1.783870e+00   3.879605e-02
  4.476174e-01    1.794202e+00   3.880143e-02
  4.498279e-01    1.737991e+00   3.808489e-02
  4.520383e-01    1.755462e+00   3.817076e-02
  4.542488e-01    1.784249e+00   3.837871e-02
  4.564592e-01    1.782708e+00   3.825922e-02
  4.586697e-01    1.745053e+00   3.775252e-02
  4.608801e-01    1.768922e+00   3.790804e-02
  4.630906e-01    1.750238e+00   3.760745e-02
  4.653011e-01    1.753139e+00   3.753964e-02
  4.675115e-01    1.745806e+00   3.736237e-02
  4.697220e-01    1.768980e+00   3.751106e-02
  4.719324e-01    1.784037e+00   3.757294e-02
  4.741429e-01    1.749765e+00   3.711441e-02
  4.763533e-01    1.711722e+00   3.661462e-02
  4.785638e-01    1.750113e+00   3.692729e-02
  4.807743e-01    1.750357e+00   3.683596e-02
  4.829847e-01    1.761520e+00   3.685988e-02
  4.851952e-01    1.771305e+00   3.686858e-02
  4.874056e-01    1.752285e+00   3.657765e-02
  4.896161e-01    1.695885e+00   3.589494e-02
  4.918265e-01    1.690387e+00   3.574771e-02
  4.940370e-01    1.701486e+00   3.577634e-02
  4.962475e-01    1.704772e+00   3.572242e-02
  4.984579e-01    1.742976e+00   3.603145e-02
  5.006684e-01    1.790900e+00   3.643439e-02
  5.028788e-01    1.769250e+00   3.612577e-02
  5.050893e-01    1.748657e+00   3.582755e-02
  5.072997e-01    1.697212e+00   3.521136e-02
  5.095102e-01    1.691082e+00   3.506351e-02
  5.117206e-01    1.698452e+00   3.505628e-02
  5.139311e-01    1.716680e+00   3.516050e-02
  5.161416e-01    1.742320e+00   3.533839e-02
  5.183520e-01    1.713641e+00   3.496306e-02
  5.205625e-01    1.714896e+00   3.489391e-02
  5.227729e-01    1.715111e+00   3.481472e-02
  5.249834e-01    1.671628e+00   3.429076e-02
  5.271938e-01    1.685833e+00   3.435579e-02
  5.294043e-01    1.763571e+00   3.505789e-02
  5.316148e-01    1.749318e+00   3.483598e-02
  5.338252e-01    1.774657e+00   3.500717e-02
  5.360357e-01    1.788738e+00   3.506578e-02
  5.382461e-01    1.779121e+00   3.489234e-02
  5.404566e-01    1.761691e+00   3.464197e-02
  5.426670e-01    1.786780e+00   3.480918e-02
  5.448775e-01    1.771801e+00   3.458552e-02
  5.470879e-01    1.768953e+00   3.448064e-02
  5.492984e-01    1.844700e+00   3.513283e-02
  5.515089e-01    1.823170e+00   3.484977e-02
  5.537193e-01    1.784212e+00   3.439945e-02
  5.559298e-01    1.833573e+00   3.479556e-02
  5.581402e-01    1.793564e+00   3.433865e-02
  5.603507e-01    1.817590e+00   3.449263e-02
  5.625611e-01    1.810609e+00   3.435163e-02
  5.647716e-01    1.808830e+00   3.426020e-02
  5.669821e-01    1.779373e+00   3.390684e-02
  5.691925e-01    1.772523e+00   3.376887e-02
  5.714030e-01    1.753753e+00   3.351799e-02
  5.736134e-01    1.718297e+00   3.310686e-02
  5.758239e-01    1.756617e+00   3.340254e-02
  5.780343e-01    1.730457e+00   3.308276e-02
  5.802448e-01    1.716440e+00   3.287952e-02
  5.824552e-01    1.725153e+00   3.289370e-02
  5.846657e-01    1.714860e+00   3.272707e-02
  5.868762e-01    1.703066e+00   3.254643e-02
  5.890866e-01    1.686069e+00   3.231643e-02
  5.912971e-01    1.622269e+00   3.163349e-02
  5.935075e-01    1.664132e+00   3.197281e-02
  5.957180e-01    1.657829e+00   3.184675e-02
  5.979284e-01    1.657439e+00   3.177798e-02
  6.001389e-01    1.677109e+00   3.190090e-02
  6.023494e-01    1.691827e+00   3.197553e-02
  6.045598e-01    1.663933e+00   3.164627e-02
  6.067703e-01    1.691699e+00   3.184503e-02
  6.089807e-01    1.721154e+00   3.205651e-02
  6.111912e-01    1.679165e+00   3.159985e-02
  6.134016e-01    1.630904e+00   3.108032e-02
  6.156121e-01    1.661924e+00   3.131213e-02
  6.178226e-01    1.719350e+00   3.178545e-02
  6.200330e-01    1.735212e+00   3.186876e-02
  6.222435e-01    1.742674e+00   3.187395e-02
  6.244539e-01    1.753020e+00   3.190582e-02
  6.266644e-01    1.739406e+00   3.171971e-02
  6.288748e-01    1.751137e+00   3.176453e-02
  6.310853e-01    1.736235e+00   3.156768e-02
  6.332957e-01    1.745845e+00   3.159380e-02
  6.355062e-01    1.709426e+00   3.120182e-02
  6.377167e-01    1.690759e+00   3.097143e-02
  6.399271e-01    1.724750e+00   3.122128e-02
  6.421376e-01    1.688916e+00   3.083627e-02
  6.443480e-01    1.712424e+00   3.099106e-02
  6.465585e-01    1.722797e+00   3.102589e-02
  6.487689e-01    1.717989e+00   3.092409e-02
  6.509794e-01    1.672790e+00   3.045700e-02
  6.531899e-01    1.679410e+00   3.045984e-02
  6.554003e-01    1.642667e+00   3.006814e-02
  6.576108e-01    1.653001e+00   3.010641e-02
  6.598212e-01    1.641187e+00   2.994291e-02
  6.620317e-01    1.634790e+00   2.982909e-02
  6.642421e-01    1.612267e+00   2.956809e-02
  6.664526e-01    1.625477e+00   2.963427e-02
  6.686630e-01    1.643773e+00   2.974548e-02
  6.708735e-01    1.643214e+00   2.968587e-02
  6.730840e-01    1.671269e+00   2.988364e-02
  6.752944e-01    1.629549e+00   2.945463e-02
  6.775049e-01    1.634160e+00   2.944271e-02
  6.797153e-01    1.600636e+00   2.908639e-02
  6.819258e-01    1.618321e+00   2.919387e-02
  6.841362e-01    1.640810e+00   2.934317e-02
  6.863467e-01    1.647770e+00   2.935265e-02
  6.885572e-01    1.678235e+00   2.956968e-02
  6.907676e-01    1.643979e+00   2.921391e-02
  6.929781e-01    1.628597e+00   2.902522e-02
  6.951885e-01    1.604532e+00   2.875896e-02
  6.973990e-01    1.600604e+00   2.867294e-02
  6.996094e-01    1.621764e+00   2.881108e-02
  7.018199e-01    1.596614e+00   2.853663e-02
  7.040303e-01    1.616304e+00   2.866160e-02
  7.062408e-01    1.648849e+00   2.889803e-02
  7.084513e-01    1.612203e+00   2.852540e-02
  7.106617e-01    1.615953e+00   2.850891e-02
  7.128722e-01    1.632538e+00   2.860526e-02
  7.150826e-01    1.602225e+00   2.828963e-02
  7.172931e-01    1.607916e+00   2.829093e-02
  7.195035e-01    1.622192e+00   2.836743e-02
  7.217140e-01    1.606904e+00   2.828337e-02
  7.239245e-01    1.601627e+00   2.846558e-02
  7.261349e-01    1.597579e+00   2.853898e-02
  7.283454e-01    1.584516e+00   2.849469e-02
  7.305558e-01    1.596811e+00   2.865939e-02
  7.327663e-01    1.614624e+00   2.886185e-02
  7.349767e-01    1.610479e+00   2.884133e-02
  7.371872e-01    1.624420e+00   2.895453e-02
  7.393976e-01    1.596012e+00   2.868589e-02
  7.416081e-01    1.576999e+00   2.849832e-02
  7.438186e-01    1.585736e+00   2.843232e-02
  7.460290e-01    1.590431e+00   2.817869e-02
  7.482395e-01    1.570730e+00   2.783265e-02
  7.504499e-01    1.609256e+00   2.803415e-02
  7.526604e-01    1.613366e+00   2.795195e-02
  7.548708e-01    1.625658e+00   2.796738e-02
  7.570813e-01    1.600138e+00   2.769562e-02
  7.592918e-01    1.600438e+00   2.766272e-02
  7.615022e-01    1.646121e+00   2.802021e-02
  7.637127e-01    1.614921e+00   2.772021e-02
  7.659231e-01    1.571236e+00   2.731074e-02
  7.681336e-01    1.591581e+00   2.745520e-02
  7.703440e-01    1.597805e+00   2.747740e-02
  7.725545e-01    1.586436e+00   2.734844e-02
  7.747650e-01    1.649269e+00   2.784570e-02
  7.769754e-01    1.613348e+00   2.748746e-02
  7.791859e-01    1.609152e+00   2.739762e-02
  7.813963e-01    1.644309e+00   2.764164e-02
  7.836068e-01    1.602454e+00   2.723528e-02
  7.858172e-01    1.618993e+00   2.732428e-02
  7.880277e-01    1.571808e+00   2.687195e-02
  7.902381e-01    1.617501e+00   2.721018e-02
  7.924486e-01    1.656001e+00   2.748113e-02
  7.946591e-01    1.675564e+00   2.759356e-02
  7.968695e-01    1.666528e+00   2.746983e-02
  7.990800e-01    1.629992e+00   2.711849e-02
  8.012904e-01    1.627334e+00   2.704950e-02
  8.035009e-01    1.659057e+00   2.726327e-02
  8.057113e-01    1.632267e+00   2.699550e-02
  8.079218e-01    1.652622e+00   2.711642e-02
  8.101323e-01    1.636843e+00   2.694084e-02
  8.123427e-01    1.655173e+00   2.704507e-02
  8.145532e-01    1.648413e+00   2.694361e-02
  8.167636e-01    1.649650e+00   2.690839e-02
  8.189741e-01    1.668072e+00   2.701312e-02
  8.211845e-01    1.653264e+00   2.684787e-02
  8.233950e-01    1.674759e+00   2.697789e-02
  8.256054e-01    1.673839e+00   2.692580e-02
  8.278159e-01    1.650828e+00   2.669594e-02
  8.300264e-01    1.700265e+00   2.704880e-02
  8.322368e-01    1.708676e+00   2.707161e-02
  8.344473e-01    1.667416e+00   2.669902e-02
  8.366577e-01    1.642214e+00   2.645383e-02
  8.388682e-01    1.625904e+00   2.628008e-02
  8.410786e-01    1.646535e+00   2.640412e-02
  8.432891e-01    1.660347e+00   2.647253e-02
  8.454996e-01    1.614845e+00   2.606595e-02
  8.477100e-01    1.646033e+00   2.627467e-02
  8.499205e-01    1.697395e+00   2.663957e-02
  8.521309e-01    1.671620e+00   2.639530e-02
  8.543414e-01    1.682403e+00   2.643898e-02
  8.565518e-01    1.679549e+00   2.637544e-02
  8.587623e-01    1.624330e+00   2.589784e-02
  8.609727e-01    1.627889e+00   2.588600e-02
  8.631832e-01    1.628175e+00   2.584835e-02
  8.653937e-01    1.641139e+00   2.591118e-02
  8.676041e-01    1.590827e+00   2.547244e-02
  8.698146e-01    1.603203e+00   2.553220e-02
  8.720250e-01    1.616581e+00   2.559948e-02
  8.742355e-01    1.597706e+00   2.541081e-02
  8.764459e-01    1.617541e+00   2.552908e-02
  8.786564e-01    1.613479e+00   2.545898e-02
  8.808669e-01    1.629204e+00   2.554396e-02
  8.830773e-01    1.599771e+00   2.527408e-02
  8.852878e-01    1.577973e+00   2.506366e-02
  8.874982e-01    1.589625e+00   2.511949e-02
  8.897087e-01    1.623531e+00   2.534805e-02
  8.919191e-01    1.588521e+00   2.503565e-02
  8.941296e-01    1.583667e+00   2.496026e-02
  8.963401e-01    1.598564e+00   2.504097e-02
  8.985505e-01    1.638561e+00   2.531490e-02
  9.007610e-01    1.628075e+00   2.519672e-02
  9.029714e-01    1.615291e+00   2.506159e-02
  9.051819e-01    1.596256e+00   2.487632e-02
  9.073923e-01    1.594619e+00   2.482703e-02
  9.096028e-01    1.632378e+00   2.508399e-02
  9.118132e-01    1.632005e+00   2.504454e-02
  9.140237e-01    1.627515e+00   2.497313e-02
  9.162342e-01    1.650131e+00   2.511096e-02
  9.184446e-01    1.617067e+00   2.482216e-02
  9.206551e-01    1.626769e+00   2.486061e-02
  9.228655e-01    1.630061e+00   2.485019e-02
  9.250760e-01    1.600985e+00   2.459221e-02
  9.272864e-01    1.608338e+00   2.461430e-02
  9.294969e-01    1.629879e+00   2.474247e-02
  9.317074e-01    1.638266e+00   2.477100e-02
  9.339178e-01    1.640647e+00   2.475515e-02
  9.361283e-01    1.645510e+00   2.475524e-02
  9.383387e-01    1.649509e+00   2.475161e-02
  9.405492e-01    1.649454e+00   2.471662e-02
  9.427596e-01    1.665088e+00   2.479774e-02
  9.449701e-01    1.690768e+00   2.495426e-02
  9.471805e-01    1.694886e+00   2.494927e-02
  9.493910e-01    1.667120e+00   2.471008e-02
  9.516015e-01    1.687432e+00   2.482545e-02
  9.538119e-01    1.722645e+00   2.504876e-02
  9.560224e-01    1.758557e+00   2.527289e-02
  9.582328e-01    1.756127e+00   2.522156e-02
  9.604433e-01    1.758518e+00   2.520298e-02
  9.626537e-01    1.776650e+00   2.529851e-02
  9.648642e-01    1.781312e+00   2.529699e-02
  9.670747e-01    1.809876e+00   2.546385e-02
  9.692851e-01    1.837512e+00   2.562340e-02
  9.714956e-01    1.862269e+00   2.575908e-02
  9.737060e-01    1.887619e+00   2.589973e-02
  9.759165e-01    1.917150e+00   2.606474e-02
  9.781269e-01    1.918132e+00   2.603731e-02
  9.803374e-01    1.894881e+00   2.584325e-02
  9.825478e-01    1.891101e+00   2.578337e-02
  9.847583e-01    1.884283e+00   2.570194e-02
  9.869688e-01    1.816262e+00   2.519998e-02
  9.891792e-01    1.806918e+00   2.510165e-02
  9.913897e-01    1.775024e+00   2.484557e-02
  9.936001e-01    1.762573e+00   2.472586e-02
  9.958106e-01    1.737780e+00   2.451798e-02
  9.980210e-01    1.722696e+00   2.437965e-02
  1.000231e+00    1.671120e+00   2.414347e-02
  1.002442e+00    1.647496e+00   2.409958e-02
  1.004652e+00    1.618521e+00   2.395335e-02
  1.006863e+00    1.595804e+00   2.383401e-02
  1.009073e+00    1.614504e+00   2.400991e-02
  1.011284e+00    1.629226e+00   2.415142e-02
  1.013494e+00    1.584305e+00   2.383975e-02
  1.015705e+00    1.559405e+00   2.367401e-02
  1.017915e+00    1.577682e+00   2.382876e-02
  1.020126e+00    1.566634e+00   2.376123e-02
  1.022336e+00    1.534288e+00   2.352624e-02
  1.024547e+00    1.517341e+00   2.340705e-02
  1.026757e+00    1.509279e+00   2.335302e-02
  1.028967e+00    1.527870e+00   2.350406e-02
  1.031178e+00    1.555637e+00   2.372288e-02
  1.033388e+00    1.559702e+00   2.375897e-02
  1.035599e+00    1.539139e+00   2.360527e-02
  1.037809e+00    1.528263e+00   2.352497e-02
  1.040020e+00    1.528649e+00   2.352922e-02
  1.042230e+00    1.510848e+00   2.339376e-02
  1.044441e+00    1.489869e+00   2.323055e-02
  1.046651e+00    1.492276e+00   2.324947e-02
  1.048862e+00    1.480828e+00   2.315934e-02
  1.051072e+00    1.498246e+00   2.329279e-02
  1.053282e+00    1.506591e+00   2.335661e-02
  1.055493e+00    1.551595e+00   2.369850e-02
  1.057703e+00    1.584357e+00   2.394585e-02
  1.059914e+00    1.555543e+00   2.372274e-02
  1.062124e+00    1.533061e+00   2.354659e-02
  1.064335e+00    1.540974e+00   2.360374e-02
  1.066545e+00    1.594376e+00   2.400305e-02
  1.068756e+00    1.594886e+00   2.400300e-02
  1.070966e+00    1.583530e+00   2.391068e-02
  1.073177e+00    1.515763e+00   2.338727e-02
  1.075387e+00    1.539828e+00   2.356684e-02
  1.077597e+00    1.532969e+00   2.350691e-02
  1.079808e+00    1.487040e+00   2.301829e-02
  1.082018e+00    1.473178e+00   2.272103e-02
  1.084229e+00    1.447437e+00   2.241210e-02
  1.086439e+00    1.451727e+00   2.235793e-02
  1.088650e+00    1.478910e+00   2.249001e-02
  1.090860e+00    1.432850e+00   2.206988e-02
  1.093071e+00    1.451274e+00   2.214912e-02
  1.095281e+00    1.451258e+00   2.209164e-02
  1.097492e+00    1.463771e+00   2.213140e-02
  1.099702e+00    1.491590e+00   2.228844e-02
  1.101912e+00    1.470757e+00   2.208286e-02
  1.104123e+00    1.471240e+00   2.203767e-02
  1.106333e+00    1.428778e+00   2.167297e-02
  1.108544e+00    1.442725e+00   2.173403e-02
  1.110754e+00    1.449833e+00   2.174413e-02
  1.112965e+00    1.428530e+00   2.154317e-02
  1.115175e+00    1.413538e+00   2.138876e-02
  1.117386e+00    1.389691e+00   2.116864e-02
  1.119596e+00    1.418603e+00   2.134974e-02
  1.121807e+00    1.445217e+00   2.150979e-02
  1.124017e+00    1.415156e+00   2.124816e-02
  1.126228e+00    1.392667e+00   2.104304e-02
  1.128438e+00    1.431621e+00   2.129814e-02
  1.130648e+00    1.439708e+00   2.132341e-02
  1.132859e+00    1.439993e+00   2.129062e-02
  1.135069e+00    1.418860e+00   2.109879e-02
  1.137280e+00    1.377320e+00   2.075478e-02
  1.139490e+00    1.366668e+00   2.064154e-02
  1.141701e+00    1.399140e+00   2.085202e-02
  1.143911e+00    1.377440e+00   2.065791e-02
  1.146122e+00    1.399825e+00   2.079284e-02
  1.148332e+00    1.372869e+00   2.055989e-02
  1.150543e+00    1.391688e+00   2.066930e-02
  1.152753e+00    1.441756e+00   2.100626e-02
  1.154963e+00    1.397634e+00   2.065106e-02
  1.157174e+00    1.380909e+00   2.049685e-02
  1.159384e+00    1.362090e+00   2.032697e-02
  1.161595e+00    1.369072e+00   2.034917e-02
  1.163805e+00    1.369717e+00   2.032468e-02
  1.166016e+00    1.369895e+00   2.029656e-02
  1.168226e+00    1.389647e+00   2.041315e-02
  1.170437e+00    1.379458e+00   2.030941e-02
  1.172647e+00    1.377007e+00   2.026237e-02
  1.174858e+00    1.367185e+00   2.016182e-02
  1.177068e+00    1.403099e+00   2.039625e-02
  1.179278e+00    1.385013e+00   2.023556e-02
  1.181489e+00    1.360486e+00   2.002856e-02
  1.183699e+00    1.387383e+00   2.019772e-02
  1.185910e+00    1.377597e+00   2.009839e-02
  1.188120e+00    1.381061e+00   2.009671e-02
  1.190331e+00    1.376478e+00   2.003637e-02
  1.192541e+00    1.369186e+00   1.995571e-02
  1.194752e+00    1.359990e+00   1.986144e-02
  1.196962e+00    1.369918e+00   1.990791e-02
  1.199173e+00    1.367906e+00   1.986659e-02
  1.201383e+00    1.364416e+00   1.981395e-02
  1.203593e+00    1.336952e+00   1.958881e-02
  1.205804e+00    1.348122e+00   1.964457e-02
  1.208014e+00    1.368176e+00   1.976310e-02
  1.210225e+00    1.419010e+00   2.010092e-02
  1.212435e+00    1.547677e+00   2.096590e-02
  1.214646e+00    1.596507e+00   2.126574e-02
  1.216856e+00    1.483113e+00   2.046993e-02
  1.219067e+00    1.442503e+00   2.016242e-02
  1.221277e+00    1.429519e+00   2.004572e-02
  1.223488e+00    1.402645e+00   1.983017e-02
  1.225698e+00    1.376106e+00   1.961450e-02
  1.227909e+00    1.368279e+00   1.952828e-02
  1.230119e+00    1.354570e+00   1.939829e-02
  1.232329e+00    1.334256e+00   1.922175e-02
  1.234540e+00    1.351565e+00   1.931570e-02
  1.236750e+00    1.365263e+00   1.938292e-02
  1.238961e+00    1.358621e+00   1.930866e-02
  1.241171e+00    1.360108e+00   1.929493e-02
  1.243382e+00    1.391740e+00   1.949415e-02
  1.245592e+00    1.381363e+00   1.939696e-02
  1.247803e+00    1.393424e+00   1.945742e-02
  1.250013e+00    1.385323e+00   1.937694e-02
  1.252224e+00    1.382461e+00   1.933338e-02
  1.254434e+00    1.410897e+00   1.950692e-02
  1.256644e+00    1.440633e+00   1.968745e-02
  1.258855e+00    1.402096e+00   1.939865e-02
  1.261065e+00    1.368356e+00   1.914029e-02
  1.263276e+00    1.379273e+00   1.919328e-02
  1.265486e+00    1.378389e+00   1.916404e-02
  1.267697e+00    1.347092e+00   1.892221e-02
  1.269907e+00    1.360161e+00   1.899100e-02
  1.272118e+00    1.345808e+00   1.886800e-02
  1.274328e+00    1.352202e+00   1.889001e-02
  1.276539e+00    1.335931e+00   1.875336e-02
  1.278749e+00    1.359854e+00   1.889813e-02
  1.280959e+00    1.387477e+00   1.906627e-02
  1.283170e+00    1.449070e+00   1.946162e-02
  1.285380e+00    1.497275e+00   1.975905e-02
  1.287591e+00    1.440367e+00   1.935719e-02
  1.289801e+00    1.383208e+00   1.894772e-02
  1.292012e+00    1.384095e+00   1.893647e-02
  1.294222e+00    1.361935e+00   1.876797e-02
  1.296433e+00    1.380561e+00   1.888008e-02
  1.298643e+00    1.361381e+00   1.873196e-02
  1.300854e+00    1.332309e+00   1.851453e-02
  1.303064e+00    1.350608e+00   1.862203e-02
  1.305274e+00    1.374751e+00   1.876609e-02
  1.307485e+00    1.381937e+00   1.879328e-02
  1.309695e+00    1.366197e+00   1.866358e-02
  1.311906e+00    1.364600e+00   1.863084e-02
  1.314116e+00    1.350211e+00   1.851156e-02
  1.316327e+00    1.359334e+00   1.855223e-02
  1.318537e+00    1.367752e+00   1.858754e-02
  1.320748e+00    1.401708e+00   1.879492e-02
  1.322958e+00    1.375322e+00   1.859646e-02
  1.325169e+00    1.372595e+00   1.855681e-02
  1.327379e+00    1.388662e+00   1.864299e-02
  1.329589e+00    1.359894e+00   1.842773e-02
  1.331800e+00    1.397922e+00   1.866254e-02
  1.334010e+00    1.401723e+00   1.866685e-02
  1.336221e+00    1.392035e+00   1.858015e-02
  1.338431e+00    1.396111e+00   1.858610e-02
  1.340642e+00    1.392737e+00   1.862882e-02
  1.342852e+00    1.354200e+00   1.847011e-02
  1.345063e+00    1.369681e+00   1.862522e-02
  1.347273e+00    1.355690e+00   1.856517e-02
  1.349484e+00    1.355253e+00   1.858990e-02
  1.351694e+00    1.376477e+00   1.875783e-02
  1.353905e+00    1.360786e+00   1.866869e-02
  1.356115e+00    1.349856e+00   1.860859e-02
  1.358325e+00    1.370113e+00   1.876112e-02
  1.360536e+00    1.366720e+00   1.874958e-02
  1.362746e+00    1.370718e+00   1.878661e-02
  1.364957e+00    1.352927e+00   1.867199e-02
  1.367167e+00    1.345268e+00   1.862620e-02
  1.369378e+00    1.324619e+00   1.848866e-02
  1.371588e+00    1.321547e+00   1.847230e-02
  1.373799e+00    1.323947e+00   1.849272e-02
  1.376009e+00    1.331426e+00   1.854826e-02
  1.378220e+00    1.314663e+00   1.843364e-02
  1.380430e+00    1.325632e+00   1.851308e-02
  1.382640e+00    1.327034e+00   1.852378e-02
  1.384851e+00    1.291844e+00   1.827739e-02
  1.387061e+00    1.301285e+00   1.834433e-02
  1.389272e+00    1.307598e+00   1.838901e-02
  1.391482e+00    1.312609e+00   1.842352e-02
  1.393693e+00    1.296672e+00   1.831047e-02
  1.395903e+00    1.307806e+00   1.838738e-02
  1.398114e+00    1.285327e+00   1.822731e-02
  1.400324e+00    1.280173e+00   1.818859e-02
  1.402535e+00    1.285846e+00   1.822652e-02
  1.404745e+00    1.296522e+00   1.829965e-02
  1.406955e+00    1.288745e+00   1.824197e-02
  1.409166e+00    1.299064e+00   1.831153e-02
  1.411376e+00    1.275260e+00   1.813985e-02
  1.413587e+00    1.264237e+00   1.805748e-02
  1.415797e+00    1.253979e+00   1.798056e-02
  1.418008e+00    1.280169e+00   1.812530e-02
  1.420218e+00    1.263349e+00   1.785651e-02
  1.422429e+00    1.257770e+00   1.773213e-02
  1.424639e+00    1.271422e+00   1.776338e-02
  1.426850e+00    1.292629e+00   1.785573e-02
  1.429060e+00    1.293328e+00   1.781113e-02
  1.431270e+00    1.291388e+00   1.775309e-02
  1.433481e+00    1.290189e+00   1.770354e-02
  1.435691e+00    1.315208e+00   1.783528e-02
  1.437902e+00    1.274967e+00   1.752378e-02
  1.440112e+00    1.303618e+00   1.768376e-02
  1.442323e+00    1.279380e+00   1.748545e-02
  1.444533e+00    1.262927e+00   1.734017e-02
  1.446744e+00    1.278645e+00   1.741650e-02
  1.448954e+00    1.308823e+00   1.759019e-02
  1.451165e+00    1.275656e+00   1.733608e-02
  1.453375e+00    1.303281e+00   1.749434e-02
  1.455586e+00    1.318225e+00   1.756568e-02
  1.457796e+00    1.305760e+00   1.745454e-02
  1.460006e+00    1.279952e+00   1.725382e-02
  1.462217e+00    1.281398e+00   1.723723e-02
  1.464427e+00    1.272411e+00   1.715104e-02
  1.466638e+00    1.301643e+00   1.732127e-02
  1.468848e+00    1.300507e+00   1.728809e-02
  1.471059e+00    1.280055e+00   1.712641e-02
  1.473269e+00    1.281928e+00   1.711443e-02
  1.475480e+00    1.280266e+00   1.707948e-02
  1.477690e+00    1.250804e+00   1.685812e-02
  1.479901e+00    1.274403e+00   1.699250e-02
  1.482111e+00    1.282958e+00   1.702599e-02
  1.484321e+00    1.255708e+00   1.682119e-02
  1.486532e+00    1.251133e+00   1.676831e-02
  1.488742e+00    1.272151e+00   1.688588e-02
  1.490953e+00    1.258402e+00   1.677181e-02
  1.493163e+00    1.253298e+00   1.671559e-02
  1.495374e+00    1.275479e+00   1.684124e-02
  1.497584e+00    1.266466e+00   1.675996e-02
  1.499795e+00    1.277355e+00   1.681005e-02
  1.502005e+00    1.255762e+00   1.664573e-02
  1.504216e+00    1.261326e+00   1.666150e-02
  1.506426e+00    1.237907e+00   1.648546e-02
  1.508636e+00    1.251412e+00   1.655473e-02
  1.510847e+00    1.238661e+00   1.644851e-02
  1.513057e+00    1.222327e+00   1.631496e-02
  1.515268e+00    1.232629e+00   1.635806e-02
  1.517478e+00    1.267302e+00   1.656125e-02
  1.519689e+00    1.269264e+00   1.654899e-02
  1.521899e+00    1.245017e+00   1.636711e-02
  1.524110e+00    1.261218e+00   1.645285e-02
  1.526320e+00    1.260597e+00   1.642915e-02
  1.528531e+00    1.271098e+00   1.647751e-02
  1.530741e+00    1.262342e+00   1.640143e-02
  1.532951e+00    1.262008e+00   1.637957e-02
  1.535162e+00    1.228932e+00   1.624939e-02
  1.537372e+00    1.244047e+00   1.641577e-02
  1.539583e+00    1.275013e+00   1.665341e-02
  1.541793e+00    1.274529e+00   1.665728e-02
  1.544004e+00    1.269415e+00   1.662410e-02
  1.546214e+00    1.248273e+00   1.648357e-02
  1.548425e+00    1.246893e+00   1.647472e-02
  1.550635e+00    1.235609e+00   1.640964e-02
  1.552846e+00    1.223781e+00   1.634049e-02
  1.555056e+00    1.232559e+00   1.635770e-02
  1.557266e+00    1.232341e+00   1.624635e-02
  1.559477e+00    1.229829e+00   1.617102e-02
  1.561687e+00    1.232997e+00   1.616130e-02
  1.563898e+00    1.240914e+00   1.619596e-02
  1.566108e+00    1.258059e+00   1.629143e-02
  1.568319e+00    1.277718e+00   1.640238e-02
  1.570529e+00    1.274725e+00   1.635774e-02
  1.572740e+00    1.257766e+00   1.622080e-02
  1.574950e+00    1.251361e+00   1.615304e-02
  1.577161e+00    1.260907e+00   1.618890e-02
  1.579371e+00    1.265689e+00   1.619571e-02
  1.581582e+00    1.268359e+00   1.619283e-02
  1.583792e+00    1.274682e+00   1.621489e-02
  1.586002e+00    1.282024e+00   1.624365e-02
  1.588213e+00    1.254977e+00   1.605409e-02
  1.590423e+00    1.256909e+00   1.604623e-02
  1.592634e+00    1.263940e+00   1.606927e-02
  1.594844e+00    1.273080e+00   1.610562e-02
  1.597055e+00    1.246004e+00   1.591291e-02
  1.599265e+00    1.232063e+00   1.580300e-02
  1.601476e+00    1.227978e+00   1.575657e-02
  1.603686e+00    1.210547e+00   1.562481e-02
  1.605897e+00    1.222030e+00   1.567871e-02
  1.608107e+00    1.249619e+00   1.583506e-02
  1.610317e+00    1.251676e+00   1.582867e-02
  1.612528e+00    1.254456e+00   1.582691e-02
  1.614738e+00    1.230949e+00   1.565898e-02
  1.616949e+00    1.238892e+00   1.569034e-02
  1.619159e+00    1.209665e+00   1.548555e-02
  1.621370e+00    1.204580e+00   1.543461e-02
  1.623580e+00    1.212292e+00   1.546562e-02
  1.625791e+00    1.212614e+00   1.544939e-02
  1.628001e+00    1.196632e+00   1.532903e-02
  1.630212e+00    1.168409e+00   1.512961e-02
  1.632422e+00    1.176906e+00   1.516669e-02
  1.634632e+00    1.176643e+00   1.514773e-02
  1.636843e+00    1.167197e+00   1.506935e-02
  1.639053e+00    1.156134e+00   1.498059e-02
  1.641264e+00    1.147346e+00   1.490663e-02
  1.643474e+00    1.149614e+00   1.490404e-02
  1.645685e+00    1.154075e+00   1.491631e-02
  1.647895e+00    1.133085e+00   1.476361e-02
  1.650106e+00    1.150170e+00   1.485749e-02
  1.652316e+00    1.125392e+00   1.468029e-02
  1.654527e+00    1.128376e+00   1.468315e-02
  1.656737e+00    1.114426e+00   1.457571e-02
  1.658947e+00    1.108151e+00   1.451850e-02
  1.661158e+00    1.122957e+00   1.459893e-02
  1.663368e+00    1.139183e+00   1.468789e-02
  1.665579e+00    1.137403e+00   1.466013e-02
  1.667789e+00    1.167848e+00   1.483843e-02
  1.670000e+00    1.158136e+00   1.476082e-02
  1.672210e+00    1.123883e+00   1.452491e-02
  1.674421e+00    1.113409e+00   1.444168e-02
  1.676631e+00    1.140254e+00   1.459858e-02
  1.678842e+00    1.137926e+00   1.456764e-02
  1.681052e+00    1.112077e+00   1.438572e-02
  1.683263e+00    1.094039e+00   1.425339e-02
  1.685473e+00    1.099289e+00   1.427231e-02
  1.687683e+00    1.097042e+00   1.424220e-02
  1.689894e+00    1.079148e+00   1.410980e-02
  1.692104e+00    1.077524e+00   1.408426e-02
  1.694315e+00    1.108887e+00   1.427299e-02
  1.696525e+00    1.114318e+00   1.429246e-02
  1.698736e+00    1.128051e+00   1.436500e-02
  1.700946e+00    1.097723e+00   1.415520e-02
  1.703157e+00    1.060409e+00   1.389786e-02
  1.705367e+00    1.052916e+00   1.383416e-02
  1.707578e+00    1.061422e+00   1.387528e-02
  1.709788e+00    1.044553e+00   1.375047e-02
  1.711998e+00    1.035832e+00   1.367799e-02
  1.714209e+00    1.035101e+00   1.365874e-02
  1.716419e+00    1.055068e+00   1.377545e-02
  1.718630e+00    1.034225e+00   1.362442e-02
  1.720840e+00    1.016417e+00   1.349251e-02
  1.723051e+00    1.011959e+00   1.344909e-02
  1.725261e+00    1.022547e+00   1.350461e-02
  1.727472e+00    1.008384e+00   1.339663e-02
  1.729682e+00    9.953588e-01   1.329653e-02
  1.731893e+00    9.727300e-01   1.313084e-02
  1.734103e+00    9.852532e-01   1.320149e-02
  1.736313e+00    1.000006e+00   1.328598e-02
  1.738524e+00    9.981013e-01   1.325952e-02
  1.740734e+00    9.854528e-01   1.316164e-02
  1.742945e+00    9.862655e-01   1.315368e-02
  1.745155e+00    9.835832e-01   1.312239e-02
  1.747366e+00    9.771459e-01   1.306565e-02
  1.749576e+00    9.830817e-01   1.309162e-02
  1.751787e+00    9.852788e-01   1.309289e-02
  1.753997e+00    9.660856e-01   1.295145e-02
  1.756208e+00    9.779281e-01   1.301735e-02
  1.758418e+00    9.741173e-01   1.297885e-02
  1.760628e+00    9.765601e-01   1.298171e-02
  1.762839e+00    9.689512e-01   1.291779e-02
  1.765049e+00    9.586289e-01   1.283570e-02
  1.767260e+00    9.699248e-01   1.289822e-02
  1.769470e+00    9.779752e-01   1.293850e-02
  1.771681e+00    9.810731e-01   1.294564e-02
  1.773891e+00    9.665852e-01   1.283656e-02
  1.776102e+00    9.551361e-01   1.274736e-02
  1.778312e+00    9.644297e-01   1.279637e-02
  1.780523e+00    9.602641e-01   1.275585e-02
  1.782733e+00    9.368489e-01   1.258671e-02
  1.784944e+00    9.298276e-01   1.252659e-02
  1.787154e+00    9.592903e-01   1.271078e-02
  1.789364e+00    1.019806e+00   1.309249e-02
  1.791575e+00    1.096048e+00   1.355945e-02
  1.793785e+00    1.131282e+00   1.376196e-02
  1.795996e+00    1.049910e+00   1.324447e-02
  1.798206e+00    9.913127e-01   1.285652e-02
  1.800417e+00    9.647872e-01   1.267034e-02
  1.802627e+00    9.350523e-01   1.246148e-02
  1.804838e+00    9.440658e-01   1.250906e-02
  1.807048e+00    9.580145e-01   1.258798e-02
  1.809259e+00    9.018178e-01   1.219963e-02
  1.811469e+00    9.199739e-01   1.230672e-02
  1.813679e+00    9.075656e-01   1.220845e-02
  1.815890e+00    8.798556e-01   1.200601e-02
  1.818100e+00    8.935226e-01   1.208382e-02
  1.820311e+00    8.904570e-01   1.204834e-02
  1.822521e+00    8.886840e-01   1.202149e-02
  1.824732e+00    8.949578e-01   1.204901e-02
  1.826942e+00    8.722086e-01   1.188265e-02
  1.829153e+00    8.663076e-01   1.183082e-02
  1.831363e+00    8.642015e-01   1.180452e-02
  1.833574e+00    8.763117e-01   1.187531e-02
  1.835784e+00    8.544013e-01   1.171465e-02
  1.837994e+00    8.540283e-01   1.170053e-02
  1.840205e+00    8.585231e-01   1.172020e-02
  1.842415e+00    8.626816e-01   1.173686e-02
  1.844626e+00    8.645451e-01   1.173802e-02
  1.846836e+00    8.838833e-01   1.185703e-02
  1.849047e+00    8.608722e-01   1.169010e-02
  1.851257e+00    8.802981e-01   1.181160e-02
  1.853468e+00    8.648300e-01   1.169855e-02
  1.855678e+00    8.498729e-01   1.158813e-02
  1.857889e+00    8.314916e-01   1.145376e-02
  1.860099e+00    8.338197e-01   1.146125e-02
  1.862309e+00    8.555164e-01   1.160091e-02
  1.864520e+00    8.436581e-01   1.151174e-02
  1.866730e+00    8.465233e-01   1.152189e-02
  1.868941e+00    8.793419e-01   1.173204e-02
  1.871151e+00    8.376577e-01   1.143928e-02
  1.873362e+00    8.424504e-01   1.146066e-02
  1.875572e+00    8.443934e-01   1.146296e-02
  1.877783e+00    8.467627e-01   1.146763e-02
  1.879993e+00    8.327045e-01   1.136096e-02
  1.882204e+00    8.424144e-01   1.141612e-02
  1.884414e+00    8.448435e-01   1.142149e-02
  1.886624e+00    8.300743e-01   1.131026e-02
  1.888835e+00    8.364124e-01   1.134238e-02
  1.891045e+00    8.489059e-01   1.141586e-02
  1.893256e+00    8.301120e-01   1.127775e-02
  1.895466e+00    8.314766e-01   1.127588e-02
  1.897677e+00    8.115802e-01   1.112940e-02
  1.899887e+00    8.163341e-01   1.115107e-02
  1.902098e+00    8.126019e-01   1.111484e-02
  1.904308e+00    8.276928e-01   1.120701e-02
  1.906519e+00    8.233360e-01   1.116668e-02
  1.908729e+00    8.301045e-01   1.120187e-02
  1.910940e+00    8.286000e-01   1.118059e-02
  1.913150e+00    8.221830e-01   1.112663e-02
  1.915360e+00    8.353711e-01   1.120483e-02
  1.917571e+00    8.250468e-01   1.112448e-02
  1.919781e+00    8.132166e-01   1.103383e-02
  1.921992e+00    8.022898e-01   1.094893e-02
  1.924202e+00    8.068478e-01   1.096928e-02
  1.926413e+00    8.196141e-01   1.104541e-02
  1.928623e+00    8.136490e-01   1.099461e-02
  1.930834e+00    8.190374e-01   1.102048e-02
  1.933044e+00    8.284731e-01   1.107301e-02
  1.935255e+00    8.209229e-01   1.101204e-02
  1.937465e+00    8.093030e-01   1.092342e-02
  1.939675e+00    8.040131e-01   1.087683e-02
  1.941886e+00    8.139864e-01   1.093374e-02
  1.944096e+00    8.145874e-01   1.092753e-02
  1.946307e+00    8.105015e-01   1.088969e-02
  1.948517e+00    8.005062e-01   1.081190e-02
  1.950728e+00    8.125217e-01   1.088238e-02
  1.952938e+00    8.093892e-01   1.085124e-02
  1.955149e+00    8.157765e-01   1.088361e-02
  1.957359e+00    8.018242e-01   1.078006e-02
  1.959570e+00    7.988776e-01   1.074932e-02
  1.961780e+00    8.025540e-01   1.076407e-02
  1.963990e+00    8.010671e-01   1.074390e-02
  1.966201e+00    8.065950e-01   1.077076e-02
  1.968411e+00    7.981848e-01   1.070425e-02
  1.970622e+00    8.056464e-01   1.074396e-02
  1.972832e+00    7.934450e-01   1.065228e-02
  1.975043e+00    8.079852e-01   1.073926e-02
  1.977253e+00    8.061559e-01   1.071702e-02
  1.979464e+00    7.988925e-01   1.065848e-02
  1.981674e+00    7.962483e-01   1.063049e-02
  1.983885e+00    8.185098e-01   1.076781e-02
  1.986095e+00    8.029553e-01   1.065518e-02
  1.988305e+00    8.054424e-01   1.066161e-02
  1.990516e+00    7.922117e-01   1.056367e-02
  1.992726e+00    7.741833e-01   1.043314e-02
  1.994937e+00    7.729127e-01   1.041446e-02
  1.997147e+00    7.847254e-01   1.048395e-02
  1.999358e+00    7.957562e-01   1.054741e-02
  2.001568e+00    7.871474e-01   1.047929e-02
  2.003779e+00    7.896814e-01   1.048409e-02
  2.005989e+00    8.025643e-01   1.055700e-02
  2.008200e+00    7.941338e-01   1.048971e-02
  2.010410e+00    7.897033e-01   1.044852e-02
  2.012621e+00    7.717221e-01   1.031714e-02
  2.014831e+00    7.814476e-01   1.037036e-02
  2.017041e+00    7.801602e-01   1.035136e-02
  2.019252e+00    7.747529e-01   1.030539e-02
  2.021462e+00    7.745173e-01   1.029427e-02
  2.023673e+00    7.784398e-01   1.031081e-02
  2.025883e+00    7.766146e-01   1.028914e-02
  2.028094e+00    7.635962e-01   1.019288e-02
  2.030304e+00    7.753466e-01   1.026137e-02
  2.032515e+00    7.696453e-01   1.021423e-02
  2.034725e+00    7.794810e-01   1.026972e-02
  2.036936e+00    7.620643e-01   1.014497e-02
  2.039146e+00    7.728909e-01   1.020712e-02
  2.041356e+00    7.780433e-01   1.023130e-02
  2.043567e+00    7.664706e-01   1.014556e-02
  2.045777e+00    7.568721e-01   1.007258e-02
  2.047988e+00    7.647952e-01   1.011570e-02
  2.050198e+00    7.725704e-01   1.015849e-02
  2.052409e+00    7.581791e-01   1.005574e-02
  2.054619e+00    7.528266e-01   1.001279e-02
  2.056830e+00    7.625597e-01   1.007008e-02
  2.059040e+00    7.485256e-01   9.969501e-03
  2.061251e+00    7.465956e-01   9.949398e-03
  2.063461e+00    7.468942e-01   9.943790e-03
  2.065671e+00    7.463088e-01   9.931220e-03
  2.067882e+00    7.484654e-01   9.936517e-03
  2.070092e+00    7.591088e-01   9.997678e-03
  2.072303e+00    7.636108e-01   1.001802e-02
  2.074513e+00    7.689904e-01   1.004379e-02
  2.076724e+00    7.732647e-01   1.006203e-02
  2.078934e+00    7.503607e-01   9.902846e-03
  2.081145e+00    7.367687e-01   9.803686e-03
  2.083355e+00    7.661861e-01   9.988165e-03
  2.085566e+00    7.515596e-01   9.883422e-03
  2.087776e+00    7.453213e-01   9.832746e-03
  2.089986e+00    7.401665e-01   9.789913e-03
  2.092197e+00    7.536988e-01   9.869912e-03
  2.094407e+00    7.825425e-01   1.004750e-02
  2.096618e+00    7.681427e-01   9.945537e-03
  2.098828e+00    7.562800e-01   9.859008e-03
  2.101039e+00    7.325953e-01   9.694419e-03
  2.103249e+00    7.334012e-01   9.691061e-03
  2.105460e+00    7.160341e-01   9.566705e-03
  2.107670e+00    7.131146e-01   9.538539e-03
  2.109881e+00    7.273133e-01   9.623853e-03
  2.112091e+00    7.369182e-01   9.678147e-03
  2.114301e+00    7.367805e-01   9.668383e-03
  2.116512e+00    7.397603e-01   9.679019e-03
  2.118722e+00    7.260317e-01   9.579951e-03
  2.120933e+00    7.176189e-01   9.515429e-03
  2.123143e+00    7.221153e-01   9.536264e-03
  2.125354e+00    7.402580e-01   9.646659e-03
  2.127564e+00    7.232263e-01   9.526271e-03
  2.129775e+00    7.169384e-01   9.476035e-03
  2.131985e+00    7.247633e-01   9.518470e-03
  2.134196e+00    7.172354e-01   9.460316e-03
  2.136406e+00    7.047287e-01   9.368763e-03
  2.138617e+00    7.045436e-01   9.359107e-03
  2.140827e+00    7.106010e-01   9.415342e-03
  2.143037e+00    7.084031e-01   9.446275e-03
  2.145248e+00    7.196373e-01   9.543109e-03
  2.147458e+00    7.006057e-01   9.431181e-03
  2.149669e+00    6.965352e-01   9.415524e-03
  2.151879e+00    7.037413e-01   9.473353e-03
  2.154090e+00    6.848793e-01   9.352746e-03
  2.156300e+00    7.041693e-01   9.490182e-03
  2.158511e+00    6.996557e-01   9.465015e-03
  2.160721e+00    7.120315e-01   9.553202e-03
  2.162932e+00    7.250999e-01   9.644318e-03
  2.165142e+00    7.157577e-01   9.585035e-03
  2.167352e+00    7.054526e-01   9.518718e-03
  2.169563e+00    7.176944e-01   9.602937e-03
  2.171773e+00    6.955712e-01   9.456235e-03
  2.173984e+00    6.971421e-01   9.468308e-03
  2.176194e+00    6.986091e-01   9.479462e-03
  2.178405e+00    6.996604e-01   9.487320e-03
  2.180615e+00    6.864140e-01   9.397736e-03
  2.182826e+00    6.996803e-01   9.488802e-03
  2.185036e+00    6.916220e-01   9.434070e-03
  2.187247e+00    6.780754e-01   9.341160e-03
  2.189457e+00    6.884404e-01   9.411858e-03
  2.191667e+00    6.920172e-01   9.436139e-03
  2.193878e+00    6.781784e-01   9.340716e-03
  2.196088e+00    6.923223e-01   9.436943e-03
  2.198299e+00    6.863863e-01   9.395305e-03
  2.200509e+00    6.927594e-01   9.437761e-03
  2.202720e+00    6.848588e-01   9.382643e-03
  2.204930e+00    6.817268e-01   9.359913e-03
  2.207141e+00    6.830586e-01   9.367930e-03
  2.209351e+00    6.910559e-01   9.420726e-03
  2.211562e+00    6.916993e-01   9.423470e-03
  2.213772e+00    6.808496e-01   9.293620e-03
  2.215982e+00    6.770691e-01   9.223547e-03
  2.218193e+00    6.822757e-01   9.229153e-03
  2.220403e+00    6.829242e-01   9.208820e-03
  2.222614e+00    6.678082e-01   9.085469e-03
  2.224824e+00    6.773967e-01   9.131016e-03
  2.227035e+00    6.740572e-01   9.091040e-03
  2.229245e+00    6.695814e-01   9.043841e-03
  2.231456e+00    6.804723e-01   9.101394e-03
  2.233666e+00    6.626902e-01   8.966681e-03
  2.235877e+00    6.587669e-01   8.925955e-03
  2.238087e+00    6.635901e-01   8.945156e-03
  2.240298e+00    6.593559e-01   8.902907e-03
  2.242508e+00    6.713182e-01   8.968141e-03
  2.244718e+00    6.715799e-01   8.954046e-03
  2.246929e+00    6.718285e-01   8.941263e-03
  2.249139e+00    6.608954e-01   8.855880e-03
  2.251350e+00    6.588384e-01   8.830446e-03
  2.253560e+00    6.715658e-01   8.903717e-03
  2.255771e+00    6.702628e-01   8.883650e-03
  2.257981e+00    6.621950e-01   8.818850e-03
  2.260192e+00    6.801056e-01   8.926082e-03
  2.262402e+00    6.597862e-01   8.780931e-03
  2.264613e+00    6.462752e-01   8.679852e-03
  2.266823e+00    6.499742e-01   8.694355e-03
  2.269033e+00    6.699926e-01   8.816789e-03
  2.271244e+00    6.642723e-01   8.768685e-03
  2.273454e+00    6.529605e-01   8.683513e-03
  2.275665e+00    6.622090e-01   8.734457e-03
  2.277875e+00    6.771757e-01   8.822601e-03
  2.280086e+00    6.677274e-01   8.750718e-03
  2.282296e+00    6.657460e-01   8.728273e-03
  2.284507e+00    6.663383e-01   8.721974e-03
  2.286717e+00    6.576197e-01   8.655258e-03
  2.288928e+00    6.467484e-01   8.573630e-03
  2.291138e+00    6.578421e-01   8.637412e-03
  2.293348e+00    6.576153e-01   8.626373e-03
  2.295559e+00    6.633279e-01   8.654387e-03
  2.297769e+00    6.593176e-01   8.618913e-03
  2.299980e+00    6.518667e-01   8.560752e-03
  2.302190e+00    6.492994e-01   8.534770e-03
  2.304401e+00    6.433092e-01   8.486059e-03
  2.306611e+00    6.613588e-01   8.595009e-03
  2.308822e+00    6.548614e-01   8.544287e-03
  2.311032e+00    6.517287e-01   8.517369e-03
  2.313243e+00    6.421207e-01   8.448122e-03
  2.315453e+00    6.502345e-01   8.493737e-03
  2.317663e+00    6.545021e-01   8.512391e-03
  2.319874e+00    6.462623e-01   8.449931e-03
  2.322084e+00    6.312380e-01   8.342244e-03
  2.324295e+00    6.597941e-01   8.520538e-03
  2.326505e+00    6.501668e-01   8.449054e-03
  2.328716e+00    6.710591e-01   8.575004e-03
  2.330926e+00    6.545053e-01   8.459715e-03
  2.333137e+00    6.469476e-01   8.402316e-03
  2.335347e+00    6.401438e-01   8.349163e-03
  2.337558e+00    6.379651e-01   8.326706e-03
  2.339768e+00    6.483328e-01   8.385479e-03
  2.341979e+00    6.322792e-01   8.272693e-03
  2.344189e+00    6.289759e-01   8.242707e-03
  2.346399e+00    6.290821e-01   8.234951e-03
  2.348610e+00    6.357797e-01   8.270221e-03
  2.350820e+00    6.436869e-01   8.313249e-03
  2.353031e+00    6.367962e-01   8.260343e-03
  2.355241e+00    6.310350e-01   8.214835e-03
  2.357452e+00    6.284164e-01   8.189389e-03
  2.359662e+00    6.252161e-01   8.160325e-03
  2.361873e+00    6.237229e-01   8.142390e-03
  2.364083e+00    6.318310e-01   8.187124e-03
  2.366294e+00    6.301474e-01   8.168087e-03
  2.368504e+00    6.260288e-01   8.133302e-03
  2.370714e+00    6.169629e-01   8.066168e-03
  2.372925e+00    6.173593e-01   8.060778e-03
  2.375135e+00    6.259724e-01   8.108722e-03
  2.377346e+00    6.364816e-01   8.168504e-03
  2.379556e+00    6.197681e-01   8.052654e-03
  2.381767e+00    6.109204e-01   7.987181e-03
  2.383977e+00    6.077572e-01   7.958614e-03
  2.386188e+00    6.060315e-01   7.939478e-03
  2.388398e+00    6.178097e-01   8.008308e-03
  2.390609e+00    6.131028e-01   7.970040e-03
  2.392819e+00    6.195471e-01   8.004033e-03
  2.395029e+00    6.060837e-01   7.908980e-03
  2.397240e+00    5.927892e-01   7.814032e-03
  2.399450e+00    6.016177e-01   7.864262e-03
  2.401661e+00    6.095194e-01   7.908082e-03
  2.403871e+00    6.102099e-01   7.904811e-03
  2.406082e+00    6.074321e-01   7.879373e-03
  2.408292e+00    5.974301e-01   7.806533e-03
  2.410503e+00    5.917544e-01   7.761962e-03
  2.412713e+00    6.103970e-01   7.875455e-03
  2.414924e+00    6.024506e-01   7.816586e-03
  2.417134e+00    6.102133e-01   7.859079e-03
  2.419344e+00    6.101750e-01   7.851424e-03
  2.421555e+00    5.814419e-01   7.656939e-03
  2.423765e+00    5.977229e-01   7.755990e-03
  2.425976e+00    6.060798e-01   7.802187e-03
  2.428186e+00    6.042311e-01   7.783048e-03
  2.430397e+00    5.866978e-01   7.661853e-03
  2.432607e+00    6.006945e-01   7.745415e-03
  2.434818e+00    5.852053e-01   7.637421e-03
  2.437028e+00    5.894189e-01   7.657743e-03
  2.439239e+00    6.005820e-01   7.722223e-03
  2.441449e+00    5.928640e-01   7.665233e-03
  2.443659e+00    6.021346e-01   7.717532e-03
  2.445870e+00    5.831126e-01   7.606829e-03
  2.448080e+00    5.662307e-01   7.530202e-03
  2.450291e+00    5.601090e-01   7.505743e-03
  2.452501e+00    5.646325e-01   7.547037e-03
  2.454712e+00    5.684336e-01   7.580796e-03
  2.456922e+00    5.655917e-01   7.568408e-03
  2.459133e+00    5.731039e-01   7.623950e-03
  2.461343e+00    5.727605e-01   7.626077e-03
  2.463554e+00    5.629604e-01   7.563985e-03
  2.465764e+00    5.749478e-01   7.647279e-03
  2.467975e+00    5.591473e-01   7.543751e-03
  2.470185e+00    5.479953e-01   7.470374e-03
  2.472395e+00    5.476900e-01   7.469509e-03
  2.474606e+00    5.376298e-01   7.402121e-03
  2.476816e+00    5.379722e-01   7.405201e-03
  2.479027e+00    5.540949e-01   7.516202e-03
  2.481237e+00    5.444686e-01   7.450902e-03
  2.483448e+00    5.508531e-01   7.494769e-03
  2.485658e+00    5.398182e-01   7.419180e-03
  2.487869e+00    5.353228e-01   7.388256e-03
  2.490079e+00    5.379276e-01   7.405699e-03
  2.492290e+00    5.312698e-01   7.359282e-03
  2.494500e+00    5.411560e-01   7.426716e-03
  2.496710e+00    5.415415e-01   7.428665e-03
  2.498921e+00    5.283563e-01   7.336671e-03
  2.501131e+00    5.265135e-01   7.322951e-03
  2.503342e+00    5.250441e-01   7.311439e-03
  2.505552e+00    5.361952e-01   7.387549e-03
  2.507763e+00    5.414682e-01   7.422350e-03
  2.509973e+00    5.377119e-01   7.395168e-03
  2.512184e+00    5.101623e-01   7.201652e-03
  2.514394e+00    5.114350e-01   7.201371e-03
  2.516605e+00    5.326954e-01   7.302207e-03
  2.518815e+00    5.249746e-01   7.220811e-03
  2.521025e+00    5.255287e-01   7.203621e-03
  2.523236e+00    5.466305e-01   7.328524e-03
  2.525446e+00    5.306226e-01   7.204727e-03
  2.527657e+00    5.248610e-01   7.150902e-03
  2.529867e+00    5.224798e-01   7.120518e-03
  2.532078e+00    5.286933e-01   7.147655e-03
  2.534288e+00    5.267293e-01   7.120434e-03
  2.536499e+00    5.340069e-01   7.157420e-03
  2.538709e+00    5.414416e-01   7.195902e-03
  2.540920e+00    5.226973e-01   7.059618e-03
  2.543130e+00    5.254574e-01   7.067857e-03
  2.545340e+00    5.312251e-01   7.096381e-03
  2.547551e+00    5.319516e-01   7.091244e-03
  2.549761e+00    5.100374e-01   6.934148e-03
  2.551972e+00    5.243029e-01   7.021071e-03
  2.554182e+00    5.263065e-01   7.025279e-03
  2.556393e+00    5.138962e-01   6.932905e-03
  2.558603e+00    5.173979e-01   6.947442e-03
  2.560814e+00    5.214058e-01   6.965578e-03
  2.563024e+00    5.329619e-01   7.033659e-03
  2.565235e+00    5.255992e-01   6.975343e-03
  2.567445e+00    5.210572e-01   6.935569e-03
  2.569656e+00    5.227058e-01   6.936729e-03
  2.571866e+00    5.167917e-01   6.888049e-03
  2.574076e+00    5.145784e-01   6.864013e-03
  2.576287e+00    5.156645e-01   6.862946e-03
  2.578497e+00    5.019986e-01   6.763655e-03
  2.580708e+00    5.194926e-01   6.872377e-03
  2.582918e+00    5.053558e-01   6.770533e-03
  2.585129e+00    5.141115e-01   6.821191e-03
  2.587339e+00    5.242102e-01   6.880096e-03
  2.589550e+00    5.240133e-01   6.871171e-03
  2.591760e+00    5.210409e-01   6.843866e-03
  2.593971e+00    5.184811e-01   6.819447e-03
  2.596181e+00    5.057706e-01   6.729161e-03
  2.598391e+00    5.012150e-01   6.693641e-03
  2.600602e+00    5.110828e-01   6.753272e-03
  2.602812e+00    5.094773e-01   6.735150e-03
  2.605023e+00    5.000122e-01   6.665164e-03
  2.607233e+00    5.058281e-01   6.696699e-03
  2.609444e+00    5.041841e-01   6.678606e-03
  2.611654e+00    5.018223e-01   6.655648e-03
  2.613865e+00    5.104940e-01   6.705843e-03
  2.616075e+00    5.122845e-01   6.710411e-03
  2.618286e+00    5.169816e-01   6.734039e-03
  2.620496e+00    5.044050e-01   6.644933e-03
  2.622706e+00    5.025095e-01   6.626707e-03
  2.624917e+00    5.027802e-01   6.622646e-03
  2.627127e+00    4.980605e-01   6.585790e-03
  2.629338e+00    4.964757e-01   6.569362e-03
  2.631548e+00    4.892607e-01   6.515380e-03
  2.633759e+00    4.966111e-01   6.557018e-03
  2.635969e+00    5.093373e-01   6.633763e-03
  2.638180e+00    5.028562e-01   6.584450e-03
  2.640390e+00    4.967307e-01   6.537632e-03
  2.642601e+00    4.929054e-01   6.505815e-03
  2.644811e+00    4.918507e-01   6.491814e-03
  2.647021e+00    5.165132e-01   6.645915e-03
  2.649232e+00    5.047176e-01   6.562849e-03
  2.651442e+00    4.967741e-01   6.504503e-03
  2.653653e+00    4.995401e-01   6.515798e-03
  2.655863e+00    5.030301e-01   6.531798e-03
  2.658074e+00    4.860302e-01   6.413952e-03
  2.660284e+00    4.896337e-01   6.431376e-03
  2.662495e+00    4.964925e-01   6.469508e-03
  2.664705e+00    5.039675e-01   6.511420e-03
  2.666916e+00    5.074212e-01   6.527166e-03
  2.669126e+00    4.981901e-01   6.461043e-03
  2.671337e+00    4.991286e-01   6.460522e-03
  2.673547e+00    4.971275e-01   6.441164e-03
  2.675757e+00    4.908396e-01   6.393874e-03
  2.677968e+00    4.944324e-01   6.410711e-03
  2.680178e+00    5.009627e-01   6.446459e-03
  2.682389e+00    4.996310e-01   6.431443e-03
  2.684599e+00    4.889650e-01   6.356276e-03
  2.686810e+00    4.981407e-01   6.408981e-03
  2.689020e+00    4.820593e-01   6.298455e-03
  2.691231e+00    4.976074e-01   6.392882e-03
  2.693441e+00    5.072151e-01   6.448072e-03
  2.695652e+00    4.765331e-01   6.243586e-03
  2.697862e+00    4.898933e-01   6.324127e-03
  2.700072e+00    4.879127e-01   6.305292e-03
  2.702283e+00    4.908065e-01   6.317724e-03
  2.704493e+00    4.999666e-01   6.370037e-03
  2.706704e+00    5.043948e-01   6.391695e-03
  2.708914e+00    4.873571e-01   6.276858e-03
  2.711125e+00    4.911772e-01   6.295130e-03
  2.713335e+00    4.795670e-01   6.214252e-03
  2.715546e+00    4.872671e-01   6.257469e-03
  2.717756e+00    4.941277e-01   6.295437e-03
  2.719967e+00    4.811638e-01   6.206139e-03
  2.722177e+00    4.869573e-01   6.237234e-03
  2.724387e+00    4.943180e-01   6.278045e-03
  2.726598e+00    4.908605e-01   6.249967e-03
  2.728808e+00    4.852417e-01   6.207933e-03
  2.731019e+00    4.887460e-01   6.224161e-03
  2.733229e+00    4.903307e-01   6.228405e-03
  2.735440e+00    4.905929e-01   6.223756e-03
  2.737650e+00    4.848076e-01   6.180935e-03
  2.739861e+00    4.925276e-01   6.223818e-03
  2.742071e+00    4.797104e-01   6.136578e-03
  2.744282e+00    4.745179e-01   6.097090e-03
  2.746492e+00    4.818389e-01   6.137898e-03
  2.748702e+00    4.734584e-01   6.078452e-03
  2.750913e+00    4.811755e-01   6.121980e-03
  2.753123e+00    4.859644e-01   6.146225e-03
  2.755334e+00    4.930514e-01   6.184738e-03
  2.757544e+00    4.968211e-01   6.202501e-03
  2.759755e+00    4.728218e-01   6.045009e-03
  2.761965e+00    4.688963e-01   6.013943e-03
  2.764176e+00    4.810240e-01   6.085216e-03
  2.766386e+00    4.756268e-01   6.045236e-03
  2.768597e+00    4.765321e-01   6.045125e-03
  2.770807e+00    4.779007e-01   6.047939e-03
  2.773017e+00    4.803692e-01   6.057563e-03
  2.775228e+00    4.664318e-01   5.963321e-03
  2.777438e+00    4.775959e-01   6.028480e-03
  2.779649e+00    4.746688e-01   6.004093e-03
  2.781859e+00    4.837157e-01   6.055235e-03
  2.784070e+00    4.790658e-01   6.020207e-03
  2.786280e+00    4.819668e-01   6.032596e-03
  2.788491e+00    4.777851e-01   6.000546e-03
  2.790701e+00    4.697817e-01   5.944445e-03
  2.792912e+00    4.842451e-01   6.029264e-03
  2.795122e+00    4.851998e-01   6.029398e-03
  2.797333e+00    4.782542e-01   5.980533e-03
  2.799543e+00    4.777901e-01   5.971735e-03
  2.801753e+00    4.810446e-01   5.986173e-03
  2.803964e+00    4.636293e-01   5.871205e-03
  2.806174e+00    4.810090e-01   5.974043e-03
  2.808385e+00    4.806963e-01   5.965285e-03
  2.810595e+00    4.841797e-01   5.979910e-03
  2.812806e+00    4.765762e-01   5.926155e-03
  2.815016e+00    4.666957e-01   5.859700e-03
  2.817227e+00    4.758331e-01   5.942744e-03
  2.819437e+00    4.789643e-01   5.973425e-03
  2.821648e+00    4.637731e-01   5.880200e-03
  2.823858e+00    4.689541e-01   5.918246e-03
  2.826068e+00    4.675378e-01   5.914272e-03
  2.828279e+00    4.698172e-01   5.932682e-03
  2.830489e+00    4.885721e-01   6.053343e-03
  2.832700e+00    4.670569e-01   5.921114e-03
  2.834910e+00    4.652607e-01   5.911748e-03
  2.837121e+00    4.690195e-01   5.937304e-03
  2.839331e+00    4.697396e-01   5.943068e-03
  2.841542e+00    4.750837e-01   5.977814e-03
  2.843752e+00    4.674007e-01   5.930050e-03
  2.845963e+00    4.790803e-01   6.004095e-03
  2.848173e+00    4.732027e-01   5.967238e-03
  2.850383e+00    4.670697e-01   5.928742e-03
  2.852594e+00    4.597076e-01   5.881745e-03
  2.854804e+00    4.640886e-01   5.909187e-03
  2.857015e+00    4.762060e-01   5.985420e-03
  2.859225e+00    4.737044e-01   5.969412e-03
  2.861436e+00    4.735283e-01   5.967658e-03
  2.863646e+00    4.678845e-01   5.932019e-03
  2.865857e+00    4.703148e-01   5.947740e-03
  2.868067e+00    4.733578e-01   5.967178e-03
  2.870278e+00    4.651479e-01   5.914859e-03
  2.872488e+00    4.714442e-01   5.953581e-03
  2.874698e+00    4.596563e-01   5.877637e-03
  2.876909e+00    4.709108e-01   5.947821e-03
  2.879119e+00    4.612750e-01   5.885041e-03
  2.881330e+00    4.527315e-01   5.828818e-03
  2.883540e+00    4.710387e-01   5.944105e-03
  2.885751e+00    4.649651e-01   5.904003e-03
  2.887961e+00    4.799600e-01   5.996536e-03
  2.890172e+00    4.741121e-01   5.958267e-03
  2.892382e+00    4.732952e-01   5.951306e-03
  2.894593e+00    4.683133e-01   5.918063e-03
  2.896803e+00    4.756577e-01   5.962287e-03
  2.899014e+00    4.642220e-01   5.888256e-03
  2.901224e+00    4.626136e-01   5.876041e-03
  2.903434e+00    4.689852e-01   5.914414e-03
  2.905645e+00    4.607073e-01   5.859752e-03
  2.907855e+00    4.552161e-01   5.822636e-03
  2.910066e+00    4.757334e-01   5.950285e-03
  2.912276e+00    4.693742e-01   5.908248e-03
  2.914487e+00    4.755209e-01   5.944310e-03
  2.916697e+00    4.603491e-01   5.846480e-03
  2.918908e+00    4.490467e-01   5.772285e-03
  2.921118e+00    4.537581e-01   5.799797e-03
  2.923329e+00    4.522544e-01   5.787873e-03
  2.925539e+00    4.588576e-01   5.827702e-03
  2.927749e+00    4.484079e-01   5.758671e-03
  2.929960e+00    4.603584e-01   5.832099e-03
  2.932170e+00    4.571686e-01   5.809556e-03
  2.934381e+00    4.571097e-01   5.806721e-03
  2.936591e+00    4.638288e-01   5.846649e-03
  2.938802e+00    4.525652e-01   5.772534e-03
  2.941012e+00    4.530596e-01   5.773346e-03
  2.943223e+00    4.497502e-01   5.749538e-03
  2.945433e+00    4.612737e-01   5.818978e-03
  2.947644e+00    4.626772e-01   5.823658e-03
  2.949854e+00    4.659479e-01   5.839876e-03
  2.952064e+00    4.499016e-01   5.734272e-03
  2.954275e+00    4.457806e-01   5.703556e-03
  2.956485e+00    4.617485e-01   5.800582e-03
  2.958696e+00    4.610275e-01   5.791664e-03
  2.960906e+00    4.541826e-01   5.744330e-03
  2.963117e+00    4.698405e-01   5.837935e-03
  2.965327e+00    4.598313e-01   5.771518e-03
  2.967538e+00    4.507132e-01   5.711092e-03
  2.969748e+00    4.547202e-01   5.733606e-03
  2.971959e+00    4.663731e-01   5.803431e-03
  2.974169e+00    4.592548e-01   5.756380e-03
  2.976379e+00    4.541995e-01   5.721687e-03
  2.978590e+00    4.607164e-01   5.759421e-03
  2.980800e+00    4.673648e-01   5.798001e-03
  2.983011e+00    4.525220e-01   5.702391e-03
  2.985221e+00    4.690117e-01   5.802164e-03
  2.987432e+00    4.452427e-01   5.650148e-03
  2.989642e+00    4.562848e-01   5.717134e-03
  2.991853e+00    4.673407e-01   5.782667e-03
  2.994063e+00    4.548606e-01   5.702026e-03
  2.996274e+00    4.543862e-01   5.695856e-03
  2.998484e+00    4.467132e-01   5.644897e-03
  3.000694e+00    4.543615e-01   5.689540e-03
  3.002905e+00    4.651573e-01   5.753767e-03
  3.005115e+00    4.538085e-01   5.680163e-03
  3.007326e+00    4.592390e-01   5.710872e-03
  3.009536e+00    4.685376e-01   5.765086e-03
  3.011747e+00    4.632545e-01   5.729571e-03
  3.013957e+00    4.491293e-01   5.638347e-03
  3.016168e+00    4.500307e-01   5.640772e-03
  3.018378e+00    4.582058e-01   5.688707e-03
  3.020589e+00    4.564096e-01   5.674330e-03
  3.022799e+00    4.398280e-01   5.567182e-03
  3.025010e+00    4.506332e-01   5.631910e-03
  3.027220e+00    4.575461e-01   5.671820e-03
  3.029430e+00    4.527515e-01   5.638775e-03
  3.031641e+00    4.527715e-01   5.635758e-03
  3.033851e+00    4.514820e-01   5.624214e-03
  3.036062e+00    4.526004e-01   5.628400e-03
  3.038272e+00    4.443339e-01   5.573200e-03
  3.040483e+00    4.535313e-01   5.627366e-03
  3.042693e+00    4.505917e-01   5.605832e-03
  3.044904e+00    4.641629e-01   5.685542e-03
  3.047114e+00    4.612616e-01   5.662894e-03
  3.049325e+00    4.534038e-01   5.610046e-03
  3.051535e+00    4.486927e-01   5.576433e-03
  3.053745e+00    4.550749e-01   5.611180e-03
  3.055956e+00    4.570959e-01   5.619035e-03
  3.058166e+00    4.406155e-01   5.512570e-03
  3.060377e+00    4.527444e-01   5.583163e-03
  3.062587e+00    4.465019e-01   5.539925e-03
  3.064798e+00    4.511713e-01   5.564548e-03
  3.067008e+00    4.520779e-01   5.565403e-03
  3.069219e+00    4.475251e-01   5.532805e-03
  3.071429e+00    4.427153e-01   5.499508e-03
  3.073640e+00    4.499966e-01   5.541206e-03
  3.075850e+00    4.593850e-01   5.595098e-03
  3.078060e+00    4.493705e-01   5.530668e-03
  3.080271e+00    4.486088e-01   5.522508e-03
  3.082481e+00    4.377423e-01   5.451796e-03
  3.084692e+00    4.509783e-01   5.530235e-03
  3.086902e+00    4.414770e-01   5.468431e-03
  3.089113e+00    4.502169e-01   5.518724e-03
  3.091323e+00    4.472088e-01   5.496897e-03
  3.093534e+00    4.406052e-01   5.452804e-03
  3.095744e+00    4.415681e-01   5.455418e-03
  3.097955e+00    4.368073e-01   5.422405e-03
  3.100165e+00    4.502955e-01   5.502148e-03
  3.102375e+00    4.647020e-01   5.585981e-03
  3.104586e+00    4.687515e-01   5.606710e-03
  3.106796e+00    4.501087e-01   5.490546e-03
  3.109007e+00    4.588813e-01   5.540525e-03
  3.111217e+00    4.491920e-01   5.478011e-03
  3.113428e+00    4.483758e-01   5.469615e-03
  3.115638e+00    4.395397e-01   5.412238e-03
  3.117849e+00    4.377660e-01   5.397612e-03
  3.120059e+00    4.493668e-01   5.465164e-03
  3.122270e+00    4.540536e-01   5.490331e-03
  3.124480e+00    4.565830e-01   5.501849e-03
  3.126691e+00    4.524790e-01   5.473491e-03
  3.128901e+00    4.551661e-01   5.486543e-03
  3.131111e+00    4.422258e-01   5.404169e-03
  3.133322e+00    4.523746e-01   5.462345e-03
  3.135532e+00    4.534694e-01   5.465508e-03
  3.137743e+00    4.488433e-01   5.434090e-03
  3.139953e+00    4.442888e-01   5.402720e-03
  3.142164e+00    4.335947e-01   5.349226e-03
  3.144374e+00    4.451697e-01   5.448617e-03
  3.146585e+00    4.570424e-01   5.535623e-03
  3.148795e+00    4.378288e-01   5.428740e-03
  3.151006e+00    4.211888e-01   5.332928e-03
  3.153216e+00    4.539538e-01   5.543657e-03
  3.155426e+00    4.521360e-01   5.538988e-03
  3.157637e+00    4.438899e-01   5.493770e-03
  3.159847e+00    4.456013e-01   5.509252e-03
  3.162058e+00    4.453130e-01   5.511928e-03
  3.164268e+00    4.479544e-01   5.532359e-03
  3.166479e+00    4.336392e-01   5.446860e-03
  3.168689e+00    4.478504e-01   5.538805e-03
  3.170900e+00    4.291270e-01   5.424905e-03
  3.173110e+00    4.396966e-01   5.494184e-03
  3.175321e+00    4.409277e-01   5.504370e-03
  3.177531e+00    4.569163e-01   5.606076e-03
  3.179741e+00    4.631797e-01   5.646516e-03
  3.181952e+00    4.363680e-01   5.482763e-03
  3.184162e+00    4.412254e-01   5.515389e-03
  3.186373e+00    4.245525e-01   5.411743e-03
  3.188583e+00    4.434346e-01   5.532583e-03
  3.190794e+00    4.317087e-01   5.460697e-03
  3.193004e+00    4.390436e-01   5.508129e-03
  3.195215e+00    4.283305e-01   5.442011e-03
  3.197425e+00    4.343003e-01   5.481008e-03
  3.199636e+00    4.199322e-01   5.388823e-03
  3.201846e+00    4.324879e-01   5.468185e-03
  3.204056e+00    4.405895e-01   5.520063e-03
  3.206267e+00    4.463399e-01   5.556820e-03
  3.208477e+00    4.438453e-01   5.542214e-03
  3.210688e+00    4.416120e-01   5.529108e-03
  3.212898e+00    4.324251e-01   5.471865e-03
  3.215109e+00    4.460275e-01   5.558016e-03
  3.217319e+00    4.473653e-01   5.567019e-03
  3.219530e+00    4.295410e-01   5.455365e-03
  3.221740e+00    4.141858e-01   5.357519e-03
  3.223951e+00    4.335054e-01   5.481512e-03
  3.226161e+00    4.240584e-01   5.421652e-03
  3.228372e+00    4.216677e-01   5.406869e-03
  3.230582e+00    4.361658e-01   5.499156e-03
  3.232792e+00    4.343578e-01   5.487995e-03
  3.235003e+00    4.372066e-01   5.506207e-03
  3.237213e+00    4.320378e-01   5.473664e-03
  3.239424e+00    4.322079e-01   5.474742e-03
  3.241634e+00    4.266050e-01   5.439266e-03
  3.243845e+00    4.400670e-01   5.524478e-03
  3.246055e+00    4.457664e-01   5.559860e-03
  3.248266e+00    4.333347e-01   5.482010e-03
  3.250476e+00    4.377718e-01   5.509674e-03
  3.252687e+00    4.338161e-01   5.484669e-03
  3.254897e+00    4.235818e-01   5.419451e-03
  3.257107e+00    4.220137e-01   5.409098e-03
  3.259318e+00    4.364475e-01   5.500589e-03
  3.261528e+00    4.220148e-01   5.408745e-03
  3.263739e+00    4.381356e-01   5.510504e-03
  3.265949e+00    4.190427e-01   5.388975e-03
  3.268160e+00    4.329150e-01   5.477047e-03
  3.270370e+00    4.185396e-01   5.384828e-03
  3.272581e+00    4.197603e-01   5.392399e-03
  3.274791e+00    4.123023e-01   5.343767e-03
  3.277002e+00    4.245589e-01   5.422037e-03
  3.279212e+00    4.167561e-01   5.371618e-03
  3.281422e+00    4.122776e-01   5.342092e-03
  3.283633e+00    4.297224e-01   5.453263e-03
  3.285843e+00    4.339374e-01   5.479612e-03
  3.288054e+00    4.283070e-01   5.443002e-03
  3.290264e+00    4.202672e-01   5.391362e-03
  3.292475e+00    4.229444e-01   5.407677e-03
  3.294685e+00    4.280448e-01   5.439526e-03
  3.296896e+00    4.330662e-01   5.470601e-03
  3.299106e+00    4.318548e-01   5.462357e-03
  3.301317e+00    4.320743e-01   5.462728e-03
  3.303527e+00    4.206674e-01   5.389673e-03
  3.305737e+00    4.355727e-01   5.483251e-03
  3.307948e+00    4.383388e-01   5.499960e-03
  3.310158e+00    4.291590e-01   5.441222e-03
  3.312369e+00    4.162536e-01   5.357893e-03
  3.314579e+00    4.259261e-01   5.418862e-03
  3.316790e+00    4.418602e-01   5.518582e-03
  3.319000e+00    4.274997e-01   5.426995e-03
  3.321211e+00    4.177859e-01   5.364354e-03
  3.323421e+00    4.305389e-01   5.444385e-03
  3.325632e+00    4.463150e-01   5.542341e-03
  3.327842e+00    4.293008e-01   5.434769e-03
  3.330052e+00    4.224460e-01   5.390111e-03
  3.332263e+00    4.326542e-01   5.453818e-03
  3.334473e+00    4.234141e-01   5.394364e-03
  3.336684e+00    4.183381e-01   5.360666e-03
  3.338894e+00    4.177139e-01   5.355816e-03
  3.341105e+00    4.232935e-01   5.390270e-03
  3.343315e+00    4.143999e-01   5.332214e-03
  3.345526e+00    4.221489e-01   5.380902e-03
  3.347736e+00    4.223858e-01   5.381054e-03
  3.349947e+00    4.145317e-01   5.329825e-03
  3.352157e+00    4.203618e-01   5.366001e-03
  3.354368e+00    4.404785e-01   5.491598e-03
  3.356578e+00    4.131355e-01   5.317379e-03
  3.358788e+00    4.266589e-01   5.402385e-03
  3.360999e+00    4.178707e-01   5.345203e-03
  3.363209e+00    4.113762e-01   5.302506e-03
  3.365420e+00    4.145576e-01   5.321448e-03
  3.367630e+00    4.215380e-01   5.365040e-03
  3.369841e+00    4.140705e-01   5.315894e-03
  3.372051e+00    4.188467e-01   5.344482e-03
  3.374262e+00    4.060466e-01   5.259776e-03
  3.376472e+00    4.181943e-01   5.335416e-03
  3.378683e+00    4.210662e-01   5.351176e-03
  3.380893e+00    4.176703e-01   5.327248e-03
  3.383103e+00    4.159010e-01   5.313209e-03
  3.385314e+00    4.130165e-01   5.292544e-03
  3.387524e+00    4.159319e-01   5.308462e-03
  3.389735e+00    4.171105e-01   5.313333e-03
  3.391945e+00    4.111596e-01   5.271632e-03
  3.394156e+00    4.155992e-01   5.295775e-03
  3.396366e+00    4.181177e-01   5.308359e-03
  3.398577e+00    4.246621e-01   5.346654e-03
  3.400787e+00    4.176879e-01   5.314576e-03
  3.402998e+00    4.189445e-01   5.361045e-03
  3.405208e+00    4.092531e-01   5.319429e-03
  3.407418e+00    4.013092e-01   5.283353e-03
  3.409629e+00    4.025456e-01   5.305443e-03
  3.411839e+00    3.982342e-01   5.288732e-03
  3.414050e+00    3.975802e-01   5.295401e-03
  3.416260e+00    3.934931e-01   5.277712e-03
  3.418471e+00    4.152731e-01   5.431480e-03
  3.420681e+00    4.035173e-01   5.362689e-03
  3.422892e+00    4.028146e-01   5.366138e-03
  3.425102e+00    3.893586e-01   5.283553e-03
  3.427313e+00    3.837889e-01   5.252766e-03
  3.429523e+00    3.974499e-01   5.352595e-03
  3.431733e+00    3.828385e-01   5.259934e-03
  3.433944e+00    3.807816e-01   5.252241e-03
  3.436154e+00    3.702211e-01   5.185008e-03
  3.438365e+00    3.830093e-01   5.279747e-03
  3.440575e+00    3.746037e-01   5.227383e-03
  3.442786e+00    3.897359e-01   5.337580e-03
  3.444996e+00    3.837103e-01   5.301733e-03
  3.447207e+00    3.789648e-01   5.274159e-03
  3.449417e+00    3.667796e-01   5.229230e-03
  3.451628e+00    3.713277e-01   5.291071e-03
  3.453838e+00    3.723326e-01   5.319545e-03
  3.456049e+00    3.499904e-01   5.180833e-03
  3.458259e+00    3.557617e-01   5.244930e-03
  3.460469e+00    3.705862e-01   5.373008e-03
  3.462680e+00    3.686136e-01   5.377840e-03
  3.464890e+00    3.630354e-01   5.354683e-03
  3.467101e+00    3.789610e-01   5.488611e-03
  3.469311e+00    3.814451e-01   5.523361e-03
  3.471522e+00    3.907034e-01   5.606734e-03
  3.473732e+00    3.994429e-01   5.685487e-03
  3.475943e+00    3.936252e-01   5.659837e-03
  3.478153e+00    4.126484e-01   5.810943e-03
  3.480364e+00    4.069203e-01   5.785857e-03
  3.482574e+00    4.031472e-01   5.774293e-03
  3.484784e+00    4.332488e-01   6.001257e-03
  3.486995e+00    4.353432e-01   6.031225e-03
  3.489205e+00    4.325073e-01   6.026341e-03
  3.491416e+00    4.475066e-01   6.145248e-03
  3.493626e+00    4.352298e-01   6.074942e-03
  3.495837e+00    4.483016e-01   6.180388e-03
  3.498047e+00    4.614417e-01   6.285067e-03
  3.500258e+00    4.592874e-01   6.285088e-03
  3.502468e+00    4.576788e-01   6.288530e-03
  3.504679e+00    4.788261e-01   6.446949e-03
  3.506889e+00    4.709577e-01   6.408284e-03
  3.509099e+00    4.806091e-01   6.488105e-03
  3.511310e+00    4.926601e-01   6.583677e-03
  3.513520e+00    4.961943e-01   6.621858e-03
  3.515731e+00    4.958987e-01   6.634414e-03
  3.517941e+00    4.990038e-01   6.669636e-03
  3.520152e+00    5.104879e-01   6.760516e-03
  3.522362e+00    5.052826e-01   6.740488e-03
  3.524573e+00    5.295716e-01   6.915170e-03
  3.526783e+00    5.351035e-01   6.964921e-03
  3.528994e+00    5.197094e-01   6.876270e-03
  3.531204e+00    5.207953e-01   6.895879e-03
  3.533414e+00    5.351250e-01   7.002282e-03
  3.535625e+00    5.581079e-01   7.163832e-03
  3.537835e+00    5.400708e-01   7.059296e-03
  3.540046e+00    5.394796e-01   7.064383e-03
  3.542256e+00    5.562506e-01   7.181062e-03
  3.544467e+00    5.496455e-01   7.145982e-03
  3.546677e+00    5.429724e-01   7.110124e-03
  3.548888e+00    5.305104e-01   7.035530e-03
  3.551098e+00    5.235744e-01   6.996533e-03
  3.553309e+00    5.376599e-01   7.098236e-03
  3.555519e+00    5.266073e-01   7.036098e-03
  3.557729e+00    5.307964e-01   7.075669e-03
  3.559940e+00    5.412858e-01   7.156855e-03
  3.562150e+00    5.279271e-01   7.079642e-03
  3.564361e+00    5.358393e-01   7.145771e-03
  3.566571e+00    5.403554e-01   7.189736e-03
  3.568782e+00    5.333330e-01   7.156928e-03
  3.570992e+00    5.304866e-01   7.151511e-03
  3.573203e+00    5.276331e-01   7.146252e-03
  3.575413e+00    5.387579e-01   7.235001e-03
  3.577624e+00    5.577825e-01   7.376075e-03
  3.579834e+00    5.529568e-01   7.358202e-03
  3.582045e+00    5.211610e-01   7.157338e-03
  3.584255e+00    5.539539e-01   7.393357e-03
  3.586465e+00    5.365685e-01   7.290394e-03
  3.588676e+00    5.303640e-01   7.262209e-03
  3.590886e+00    5.427516e-01   7.360335e-03
  3.593097e+00    5.430787e-01   7.377128e-03
  3.595307e+00    5.561318e-01   7.479481e-03
  3.597518e+00    5.472332e-01   7.433766e-03
  3.599728e+00    5.463105e-01   7.441700e-03
  3.601939e+00    5.518529e-01   7.493678e-03
  3.604149e+00    5.561044e-01   7.537118e-03
  3.606360e+00    5.477245e-01   7.494481e-03
  3.608570e+00    5.459353e-01   7.496467e-03
  3.610780e+00    5.581746e-01   7.591391e-03
  3.612991e+00    5.394236e-01   7.472814e-03
  3.615201e+00    5.497825e-01   7.554154e-03
  3.617412e+00    5.393356e-01   7.489356e-03
  3.619622e+00    5.403284e-01   7.502247e-03
  3.621833e+00    5.261686e-01   7.409942e-03
  3.624043e+00    5.382454e-01   7.504000e-03
  3.626254e+00    5.532409e-01   7.617701e-03
  3.628464e+00    5.435506e-01   7.561801e-03
  3.630675e+00    5.407880e-01   7.556752e-03
  3.632885e+00    5.330917e-01   7.517205e-03
  3.635095e+00    5.381407e-01   7.567199e-03
  3.637306e+00    5.264229e-01   7.498617e-03
  3.639516e+00    5.360941e-01   7.581761e-03
  3.641727e+00    5.257144e-01   7.522473e-03
  3.643937e+00    5.268304e-01   7.544897e-03
  3.646148e+00    5.707936e-01   7.868508e-03
  3.648358e+00    5.453877e-01   7.706454e-03
  3.650569e+00    5.360971e-01   7.655308e-03
  3.652779e+00    5.324922e-01   7.644298e-03
  3.654990e+00    5.443698e-01   7.744103e-03
  3.657200e+00    5.588530e-01   7.861731e-03
  3.659410e+00    5.480947e-01   7.800895e-03
  3.661621e+00    5.454538e-01   7.797380e-03
  3.663831e+00    5.195667e-01   7.625027e-03
  3.666042e+00    5.496369e-01   7.857960e-03
  3.668252e+00    5.508652e-01   7.882283e-03
  3.670463e+00    5.411015e-01   7.827523e-03
  3.672673e+00    5.202246e-01   7.690277e-03
  3.674884e+00    5.244806e-01   7.736964e-03
  3.677094e+00    5.313914e-01   7.803322e-03
  3.679305e+00    5.248103e-01   7.770297e-03
  3.681515e+00    5.358250e-01   7.867138e-03
  3.683726e+00    5.273245e-01   7.820220e-03
  3.685936e+00    5.461042e-01   7.974224e-03
  3.688146e+00    5.558163e-01   8.061037e-03
  3.690357e+00    5.381017e-01   7.947626e-03
  3.692567e+00    5.396920e-01   7.975673e-03
  3.694778e+00    5.256327e-01   7.887136e-03
  3.696988e+00    5.336238e-01   7.962952e-03
  3.699199e+00    5.290467e-01   7.945032e-03
  3.701409e+00    5.235114e-01   7.919719e-03
  3.703620e+00    5.264447e-01   7.958203e-03
  3.705830e+00    5.152496e-01   7.889397e-03
  3.708041e+00    5.196391e-01   7.939413e-03
  3.710251e+00    5.458350e-01   8.154149e-03
  3.712461e+00    5.752841e-01   8.388830e-03
  3.714672e+00    5.364869e-01   8.117968e-03
  3.716882e+00    5.309019e-01   8.092470e-03
  3.719093e+00    5.302948e-01   8.105130e-03
  3.721303e+00    5.385233e-01   8.185063e-03
  3.723514e+00    5.251690e-01   8.100310e-03
  3.725724e+00    5.239553e-01   8.108172e-03
  3.727935e+00    5.033765e-01   7.964577e-03
  3.730145e+00    5.288365e-01   8.181016e-03
  3.732356e+00    5.270032e-01   8.184523e-03
  3.734566e+00    5.329424e-01   8.248363e-03
  3.736776e+00    5.341105e-01   8.275515e-03
  3.738987e+00    5.145307e-01   8.140139e-03
  3.741197e+00    5.230686e-01   8.225594e-03
  3.743408e+00    5.100635e-01   8.140619e-03
  3.745618e+00    5.236263e-01   8.266713e-03
  3.747829e+00    5.234395e-01   8.283533e-03
  3.750039e+00    5.034071e-01   8.141718e-03
  3.752250e+00    5.070604e-01   8.189563e-03
  3.754460e+00    4.919825e-01   8.085129e-03
  3.756671e+00    5.187007e-01   8.320702e-03
  3.758881e+00    5.303414e-01   8.432594e-03
  3.761091e+00    5.074624e-01   8.267835e-03
  3.763302e+00    5.131720e-01   8.333393e-03
  3.765512e+00    5.076978e-01   8.308068e-03
  3.767723e+00    4.973039e-01   8.241739e-03
  3.769933e+00    5.259293e-01   8.495330e-03
  3.772144e+00    5.198150e-01   8.465660e-03
  3.774354e+00    4.993216e-01   8.316838e-03
  3.776565e+00    5.133888e-01   8.453134e-03
  3.778775e+00    5.270375e-01   8.585170e-03
  3.780986e+00    5.228739e-01   8.571946e-03
  3.783196e+00    5.076061e-01   8.466125e-03
  3.785407e+00    5.127545e-01   8.529597e-03
  3.787617e+00    5.192872e-01   8.604824e-03
  3.789827e+00    5.103261e-01   8.551014e-03
  3.792038e+00    5.142402e-01   8.604756e-03
  3.794248e+00    5.396815e-01   8.837038e-03
  3.796459e+00    5.107380e-01   8.618418e-03
  3.798669e+00    5.023100e-01   8.568324e-03
  3.800880e+00    5.096273e-01   8.652233e-03
  3.803090e+00    5.086764e-01   8.666080e-03
  3.805301e+00    4.979870e-01   8.596638e-03
  3.807511e+00    5.118667e-01   8.737851e-03
  3.809722e+00    5.142000e-01   8.780306e-03
  3.811932e+00    5.130119e-01   8.792643e-03
  3.814142e+00    5.123210e-01   8.809965e-03
  3.816353e+00    4.813397e-01   8.561851e-03
  3.818563e+00    4.817519e-01   8.588159e-03
  3.820774e+00    5.253006e-01   8.991714e-03
  3.822984e+00    5.081244e-01   8.867188e-03
  3.825195e+00    4.884811e-01   8.717554e-03
  3.827405e+00    5.127474e-01   8.955655e-03
  3.829616e+00    5.005579e-01   8.872782e-03
  3.831826e+00    4.962201e-01   8.858426e-03
  3.834037e+00    4.663507e-01   8.611291e-03
  3.836247e+00    5.220081e-01   9.136032e-03
  3.838457e+00    4.973398e-01   8.942601e-03
  3.840668e+00    5.169472e-01   9.142923e-03
  3.842878e+00    5.121254e-01   9.126083e-03
  3.845089e+00    4.866014e-01   8.921099e-03
  3.847299e+00    4.998296e-01   9.067447e-03
  3.849510e+00    5.106840e-01   9.191629e-03
  3.851720e+00    5.007273e-01   9.123139e-03
  3.853931e+00    5.097396e-01   9.224127e-03
  3.856141e+00    4.991703e-01   9.147113e-03
  3.858352e+00    4.836967e-01   9.023250e-03
  3.860562e+00    5.121610e-01   9.304614e-03
  3.862772e+00    5.050946e-01   9.260013e-03
  3.864983e+00    4.793425e-01   9.040252e-03
  3.867193e+00    5.025510e-01   9.276472e-03
  3.869404e+00    5.012953e-01   9.284798e-03
  3.871614e+00    4.778001e-01   9.084312e-03
  3.873825e+00    4.921153e-01   9.239687e-03
  3.876035e+00    4.855725e-01   9.198470e-03
  3.878246e+00    4.856721e-01   9.225002e-03
  3.880456e+00    4.985619e-01   9.375741e-03
  3.882667e+00    5.020429e-01   9.438159e-03
  3.884877e+00    4.838244e-01   9.294732e-03
  3.887087e+00    5.045014e-01   9.521634e-03
  3.889298e+00    4.899481e-01   9.413648e-03
  3.891508e+00    4.910769e-01   9.454969e-03
  3.893719e+00    4.894133e-01   9.469944e-03
  3.895929e+00    5.012363e-01   9.615332e-03
  3.898140e+00    5.103668e-01   9.734903e-03
  3.900350e+00    5.160460e-01   9.821893e-03
  3.902561e+00    4.916054e-01   9.618869e-03
  3.904771e+00    4.844680e-01   9.581433e-03
  3.906982e+00    5.106280e-01   9.870517e-03
  3.909192e+00    5.185593e-01   9.981443e-03
  3.911403e+00    5.007652e-01   9.843110e-03
  3.913613e+00    4.913286e-01   9.784234e-03
  3.915823e+00    4.952121e-01   9.857888e-03
  3.918034e+00    4.947890e-01   9.889155e-03
  3.920244e+00    4.785337e-01   9.760794e-03
  3.922455e+00    4.925590e-01   9.938935e-03
  3.924665e+00    5.085324e-01   1.013605e-02
  3.926876e+00    5.228603e-01   1.031621e-02
  3.929086e+00    5.022818e-01   1.014919e-02
  3.931297e+00    5.002698e-01   1.016398e-02
  3.933507e+00    5.123842e-01   1.031613e-02
  3.935718e+00    5.002054e-01   1.022175e-02
  3.937928e+00    5.133691e-01   1.038569e-02
  3.940138e+00    4.871815e-01   1.014669e-02
  3.942349e+00    4.682104e-01   9.976382e-03
  3.944559e+00    5.025437e-01   1.036615e-02
  3.946770e+00    4.975958e-01   1.034554e-02
  3.948980e+00    4.681963e-01   1.006545e-02
  3.951191e+00    4.986622e-01   1.041885e-02
  3.953401e+00    5.105974e-01   1.057502e-02
  3.955612e+00    4.849795e-01   1.033799e-02
  3.957822e+00    4.654812e-01   1.015896e-02
  3.960033e+00    4.794250e-01   1.034238e-02
  3.962243e+00    4.869354e-01   1.045602e-02
  3.964453e+00    5.027584e-01   1.065822e-02
  3.966664e+00    5.008924e-01   1.067232e-02
  3.968874e+00    4.946254e-01   1.063402e-02
  3.971085e+00    4.981532e-01   1.069410e-02
  3.973295e+00    4.689299e-01   1.039680e-02
  3.975506e+00    4.838520e-01   1.058246e-02
  3.977716e+00    4.678243e-01   1.042727e-02
  3.979927e+00    4.814495e-01   1.060008e-02
  3.982137e+00    5.063447e-01   1.089350e-02
  3.984348e+00    4.653643e-01   1.046547e-02
  3.986558e+00    4.843982e-01   1.069959e-02
  3.988768e+00    4.864159e-01   1.074489e-02
  3.990979e+00    4.727474e-01   1.061538e-02
  3.993189e+00    4.854763e-01   1.078035e-02
  3.995400e+00    4.935206e-01   1.089309e-02
  3.997610e+00    4.896778e-01   1.088051e-02
  3.999821e+00    5.101264e-01   1.114390e-02
  4.002031e+00    4.925210e-01   1.098861e-02
  4.004242e+00    4.791750e-01   1.087693e-02
  4.006452e+00    4.892460e-01   1.103020e-02
  4.008663e+00    4.846527e-01   1.101836e-02
  4.010873e+00    4.873780e-01   1.108937e-02
  4.013084e+00    4.759654e-01   1.099924e-02
  4.015294e+00    4.956681e-01   1.126613e-02
  4.017504e+00    5.333917e-01   1.173085e-02
  4.019715e+00    4.900302e-01   1.128678e-02
  4.021925e+00    4.972905e-01   1.141359e-02
  4.024136e+00    4.929050e-01   1.140720e-02
  4.026346e+00    4.781430e-01   1.127903e-02
  4.028557e+00    4.549214e-01   1.104459e-02
  4.030767e+00    5.010359e-01   1.163742e-02
  4.032978e+00    4.911264e-01   1.156847e-02
  4.035188e+00    4.571775e-01   1.120626e-02
  4.037399e+00    5.012836e-01   1.178285e-02
  4.039609e+00    5.116368e-01   1.195302e-02
  4.041819e+00    5.100901e-01   1.198503e-02
  4.044030e+00    4.972146e-01   1.188346e-02
  4.046240e+00    5.072541e-01   1.205386e-02
  4.048451e+00    4.690989e-01   1.164198e-02
  4.050661e+00    4.667424e-01   1.166316e-02
  4.052872e+00    5.133664e-01   1.228622e-02
  4.055082e+00    4.703749e-01   1.181339e-02
  4.057293e+00    4.306531e-01   1.135431e-02
  4.059503e+00    4.926507e-01   1.219930e-02
  4.061714e+00    4.853037e-01   1.216490e-02
  4.063924e+00    4.733039e-01   1.206950e-02
  4.066134e+00    4.899701e-01   1.233825e-02
  4.068345e+00    4.467308e-01   1.183788e-02
  4.070555e+00    4.983517e-01   1.256357e-02
  4.072766e+00    4.616536e-01   1.215153e-02
  4.074976e+00    4.896806e-01   1.257739e-02
  4.077187e+00    5.091255e-01   1.288850e-02
  4.079397e+00    4.979704e-01   1.281163e-02
  4.081608e+00    5.002359e-01   1.290750e-02
  4.083818e+00    4.917078e-01   1.286345e-02
  4.086029e+00    5.066307e-01   1.312626e-02
  4.088239e+00    4.568295e-01   1.253148e-02
  4.090449e+00    4.919081e-01   1.307406e-02
  4.092660e+00    4.906746e-01   1.312970e-02
  4.094870e+00    4.831753e-01   1.310130e-02
  4.097081e+00    5.520999e-01   1.408130e-02
  4.099291e+00    4.722859e-01   1.307791e-02
  4.101502e+00    4.550358e-01   1.288450e-02
  4.103712e+00    4.558773e-01   1.294449e-02
  4.105923e+00    4.998719e-01   1.360730e-02
  4.108133e+00    4.757839e-01   1.332645e-02
  4.110344e+00    4.884630e-01   1.355452e-02
  4.112554e+00    4.703753e-01   1.335372e-02
  4.114764e+00    4.902436e-01   1.368778e-02
  4.116975e+00    5.034443e-01   1.392524e-02
  4.119185e+00    5.019616e-01   1.396147e-02
  4.121396e+00    4.748449e-01   1.363496e-02
  4.123606e+00    4.831042e-01   1.380960e-02
  4.125817e+00    5.158247e-01   1.432928e-02
  4.128027e+00    4.999731e-01   1.416698e-02
  4.130238e+00    4.905898e-01   1.409348e-02
  4.132448e+00    4.780262e-01   1.397227e-02
  4.134659e+00    5.153696e-01   1.457002e-02
  4.136869e+00    5.472664e-01   1.508131e-02
  4.139080e+00    5.041674e-01   1.454049e-02
  4.141290e+00    5.223939e-01   1.486647e-02
  4.143500e+00    4.955783e-01   1.454665e-02
  4.145711e+00    5.240604e-01   1.502882e-02
  4.147921e+00    4.803331e-01   1.445405e-02
  4.150132e+00    4.778771e-01   1.448600e-02
  4.152342e+00    5.097591e-01   1.503375e-02
  4.154553e+00    4.645146e-01   1.441947e-02
  4.156763e+00    4.979809e-01   1.500355e-02
  4.158974e+00    5.133104e-01   1.530947e-02
  4.161184e+00    4.637636e-01   1.462406e-02
  4.163395e+00    4.601509e-01   1.464122e-02
  4.165605e+00    5.207052e-01   1.565571e-02
  4.167815e+00    4.602083e-01   1.479542e-02
  4.170026e+00    4.825826e-01   1.523018e-02
  4.172236e+00    4.957020e-01   1.551945e-02
  4.174447e+00    4.750393e-01   1.527521e-02
  4.176657e+00    4.835716e-01   1.549591e-02
  4.178868e+00    5.010754e-01   1.586333e-02
  4.181078e+00    5.695504e-01   1.700765e-02
  4.183289e+00    5.431169e-01   1.670345e-02
  4.185499e+00    5.205610e-01   1.644943e-02
  4.187710e+00    4.669278e-01   1.567035e-02
  4.189920e+00    4.717848e-01   1.584639e-02
  4.192130e+00    5.062782e-01   1.651589e-02
  4.194341e+00    4.281754e-01   1.528146e-02
  4.196551e+00    5.135297e-01   1.684153e-02
  4.198762e+00    5.050405e-01   1.680793e-02
  4.200972e+00    4.539773e-01   1.603868e-02
  4.203183e+00    4.781784e-01   1.656902e-02
  4.205393e+00    5.277557e-01   1.752277e-02
  4.207604e+00    4.879261e-01   1.696349e-02
  4.209814e+00    5.061855e-01   1.739643e-02
  4.212025e+00    4.558584e-01   1.662602e-02
  4.214235e+00    5.478601e-01   1.835594e-02
  4.216445e+00    4.619268e-01   1.697690e-02
  4.218656e+00    4.857074e-01   1.753869e-02
  4.220866e+00    5.144504e-01   1.818404e-02
  4.223077e+00    5.289288e-01   1.857990e-02
  4.225287e+00    4.415928e-01   1.711036e-02
  4.227498e+00    4.648105e-01   1.769204e-02
  4.229708e+00    4.374068e-01   1.730218e-02
  4.231919e+00    4.702435e-01   1.808819e-02
  4.234129e+00    5.069669e-01   1.893884e-02
  4.236340e+00    4.432517e-01   1.786016e-02
  4.238550e+00    4.860114e-01   1.886703e-02
  4.240761e+00    4.820578e-01   1.895623e-02
  4.242971e+00    4.647417e-01   1.878282e-02
  4.245181e+00    4.577855e-01   1.881716e-02
  4.247392e+00    4.801953e-01   1.945240e-02
  4.249602e+00    4.597372e-01   1.922232e-02
  4.251813e+00    4.780020e-01   1.979396e-02
  4.254023e+00    3.976166e-01   1.823465e-02
  4.256234e+00    5.216630e-01   2.110926e-02
  4.258444e+00    4.809695e-01   2.048176e-02
  4.260655e+00    4.943503e-01   2.099252e-02
  4.262865e+00    5.027658e-01   2.141094e-02
  4.265076e+00    4.320624e-01   2.007423e-02
  4.267286e+00    4.530402e-01   2.079898e-02
  4.269496e+00    4.869965e-01   2.182805e-02
  4.271707e+00    4.690820e-01   2.168736e-02
  4.273917e+00    4.748947e-01   2.210334e-02
  4.276128e+00    4.503844e-01   2.181148e-02
  4.278338e+00    4.596782e-01   2.232961e-02
  4.280549e+00    4.041806e-01   2.123840e-02
  4.282759e+00    4.402503e-01   2.248435e-02
  4.284970e+00    4.261659e-01   2.244975e-02
  4.287180e+00    4.212650e-01   2.258723e-02
  4.289391e+00    4.553774e-01   2.366032e-02
  4.291601e+00    5.489522e-01   2.618503e-02
  4.293811e+00    5.224010e-01   2.574443e-02
  4.296022e+00    4.842144e-01   2.498408e-02
  4.298232e+00    4.788858e-01   2.505476e-02
  4.300443e+00    4.929354e-01   2.562905e-02
  4.302653e+00    4.725677e-01   2.531156e-02
  4.304864e+00    5.048462e-01   2.638803e-02
  4.307074e+00    4.748974e-01   2.582318e-02
  4.309285e+00    5.003589e-01   2.674786e-02
  4.311495e+00    4.599620e-01   2.588475e-02
  4.313706e+00    4.675328e-01   2.634238e-02
  4.315916e+00    4.455692e-01   2.596955e-02
  4.318126e+00    3.941346e-01   2.466592e-02
  4.320337e+00    5.149924e-01   2.848002e-02
  4.322547e+00    4.682662e-01   2.744649e-02
  4.324758e+00    5.056359e-01   2.881504e-02
  4.326968e+00    6.381290e-01   3.273756e-02
  4.329179e+00    4.561426e-01   2.798344e-02
  4.331389e+00    4.506004e-01   2.813337e-02
  4.333600e+00    3.831944e-01   2.625333e-02
  4.335810e+00    4.780073e-01   2.967033e-02
  4.338021e+00    4.821238e-01   3.017998e-02
  4.340231e+00    4.357973e-01   2.905332e-02
  4.342442e+00    4.458553e-01   2.978093e-02
  4.344652e+00    4.752192e-01   3.116409e-02
  4.346862e+00    3.640514e-01   2.765791e-02
  4.349073e+00    5.221785e-01   3.360622e-02
  4.351283e+00    4.836846e-01   3.282720e-02
  4.353494e+00    4.101663e-01   3.069653e-02
  4.355704e+00    3.604294e-01   2.923997e-02
  4.357915e+00    3.505893e-01   2.931679e-02
  4.360125e+00    4.741039e-01   3.467293e-02
  4.362336e+00    4.321074e-01   3.370462e-02
  4.364546e+00    6.134883e-01   4.089392e-02
  4.366757e+00    4.274908e-01   3.481448e-02
  4.368967e+00    4.161208e-01   3.503544e-02
  4.371177e+00    4.008072e-01   3.511377e-02
  4.373388e+00    4.356359e-01   3.742621e-02
  4.375598e+00    4.340680e-01   3.821158e-02
  4.377809e+00    4.010159e-01   3.765675e-02
  4.380019e+00    3.764163e-01   3.740108e-02
  4.382230e+00    4.938813e-01   4.403747e-02
  4.384440e+00    4.048100e-01   4.101676e-02
  4.386651e+00    3.150050e-01   3.729666e-02
  4.388861e+00    3.715283e-01   4.186269e-02
  4.391072e+00    4.622663e-01   4.833898e-02
  4.393282e+00    6.382810e-01   5.899800e-02
  4.395492e+00    3.419408e-01   4.497677e-02
  4.397703e+00    2.321713e-01   3.875441e-02
  4.399913e+00    3.893292e-01   5.272508e-02
  4.402124e+00    3.228845e-01   5.073729e-02
  4.404334e+00    7.719150e-01   8.338957e-02
  4.406545e+00    3.977472e-01   6.431560e-02
  4.408755e+00    3.907077e-01   6.913584e-02
  4.410966e+00    2.263789e-01   5.824032e-02
  4.413176e+00    2.873558e-01   7.427929e-02
  4.415387e+00   -8.437814e-01            nan
  4.417597e+00   -1.883938e+00            nan
  4.419807e+00   -1.824666e-01            nan
