# == pyFAI calibration ==
# Distance Sample to Detector: 0.216 m
# PONI: 1.166e-01, 1.308e-01 m
# Rotations: 0.000000 0.000000 0.000000 rad
# 
# == Fit2d calibration ==
# Distance Sample-beamCenter: 216.000 mm
# Center: x=1744.293, y=1555.000 pix
# Tilt: 0.000 deg  TiltPlanRot: 0.000 deg
# 
# Detector Eiger 9M	 PixelSize= 7.500e-05, 7.500e-05 m
#    Detector has a mask: True 
#    Detector has a dark current: False 
#    detector has a flat field: False 
# 
# Wavelength: 9.8e-11 m
# Mask applied: from detector
# Dark current applied: False
# Flat field applied: False
# Polarization factor: None
# Normalization factor: 1.0
# 
# Headers of the input frame:
# {
# "_array_data.header_convention": "SLS_1.0",
# "_array_data.header_contents": "# Detector: Dectris Eiger 9M, S/N E-18-0102\r\n# Pixel_size 75e-6 m x 75e-6 m\r\n# Silicon sensor, thickness 0.000450 m\r\n# Exposure_time 0.024997 s\r\n# Exposure_period 0.025000 s\r\n# Count_cutoff 62318 counts\r\n# Wavelength 0.980106 A\r\n# Detector_distance 0.215992 m\r\n# Beam_xy (1555, 1744) pixels\r\n# Start_angle 0.000000 deg.\r\n# Angle_increment 0.000000 deg.",
# "Content-Type": "application/octet-stream;",
# "conversions": "x-CBF_BYTE_OFFSET",
# "Content-Transfer-Encoding": "BINARY",
# "X-Binary-Size": "10166602",
# "X-Binary-ID": "1",
# "X-Binary-Element-Type": "signed 32-bit integer",
# "X-Binary-Element-Byte-Order": "LITTLE_ENDIAN",
# "Content-MD5": "R8QgExzu06ovTHOBdpkIXw==",
# "X-Binary-Number-of-Elements": "10166590",
# "X-Binary-Size-Fastest-Dimension": "3110",
# "X-Binary-Size-Second-Dimension": "3269",
# "X-Binary-Size-Padding": "4095"
# }
# --> H:/Proxima2a_2019-04-05/RAW_DATA/C5_gel17_position5/C5_mesh_1_data.cbf/C5_mesh_1_data.cbf000104.dat
#        q_A^-1              I           sigma 
  1.105228e-03    1.128390e+00   5.747999e-01
  3.315685e-03    1.161018e+00   3.544582e-01
  5.526141e-03    1.715543e+00   3.331753e-01
  7.736597e-03    1.635703e+00   2.748353e-01
  9.947054e-03    1.385546e+00   2.229909e-01
  1.215751e-02    1.329045e+00   1.974869e-01
  1.436797e-02    1.242227e+00   1.756209e-01
  1.657842e-02    1.480072e+00   1.784373e-01
  1.878888e-02    1.490838e+00   1.682204e-01
  2.099934e-02    1.318236e+00   1.496575e-01
  2.320979e-02    1.422027e+00   1.478382e-01
  2.542025e-02    1.448116e+00   1.425644e-01
  2.763070e-02    1.246391e+00   1.268579e-01
  2.984116e-02    1.478710e+00   1.329591e-01
  3.205162e-02    1.511844e+00   1.297298e-01
  3.426207e-02    1.373681e+00   1.195963e-01
  3.647253e-02    1.578360e+00   1.242490e-01
  3.868299e-02    1.536880e+00   1.190599e-01
  4.089344e-02    1.551953e+00   1.163644e-01
  4.310390e-02    1.356282e+00   1.059495e-01
  4.531436e-02    1.492028e+00   1.083813e-01
  4.752481e-02    1.457945e+00   1.046139e-01
  4.973527e-02    1.393911e+00   9.999295e-02
  5.194572e-02    1.608240e+00   1.050941e-01
  5.415618e-02    1.487724e+00   9.899200e-02
  5.636664e-02    1.369939e+00   9.311415e-02
  5.857709e-02    1.569634e+00   9.777185e-02
  6.078755e-02    1.468384e+00   9.282760e-02
  6.299801e-02    1.440557e+00   9.031539e-02
  6.520846e-02    1.459282e+00   8.934706e-02
  6.741892e-02    1.543852e+00   9.037592e-02
  6.962938e-02    1.381064e+00   8.411498e-02
  7.183983e-02    1.459733e+00   8.513512e-02
  7.405029e-02    1.546114e+00   8.629827e-02
  7.626074e-02    1.576150e+00   8.585965e-02
  7.847120e-02    1.556282e+00   8.410431e-02
  8.068166e-02    1.557986e+00   8.298891e-02
  8.289211e-02    1.546642e+00   8.157584e-02
  8.510257e-02    1.488092e+00   7.897042e-02
  8.731303e-02    1.381235e+00   7.511013e-02
  8.952348e-02    1.538803e+00   7.829590e-02
  9.173394e-02    1.555405e+00   7.775988e-02
  9.394439e-02    1.474275e+00   7.480635e-02
  9.615485e-02    1.550724e+00   7.583278e-02
  9.836531e-02    1.513436e+00   7.406692e-02
  1.005758e-01    1.569439e+00   7.459190e-02
  1.027862e-01    1.462158e+00   7.121722e-02
  1.049967e-01    1.438554e+00   6.989128e-02
  1.072071e-01    1.523987e+00   7.119039e-02
  1.094176e-01    1.543741e+00   7.092178e-02
  1.116280e-01    1.547480e+00   7.029948e-02
  1.138385e-01    1.529979e+00   6.921753e-02
  1.160490e-01    1.573673e+00   6.952630e-02
  1.182594e-01    1.619526e+00   6.986816e-02
  1.204699e-01    1.609668e+00   6.901268e-02
  1.226803e-01    1.567724e+00   6.748840e-02
  1.248908e-01    1.563025e+00   6.678740e-02
  1.271012e-01    1.615821e+00   6.731159e-02
  1.293117e-01    1.599937e+00   6.640417e-02
  1.315222e-01    1.570912e+00   6.524227e-02
  1.337326e-01    1.574752e+00   6.477862e-02
  1.359431e-01    1.601596e+00   6.536667e-02
  1.381535e-01    1.577999e+00   6.575426e-02
  1.403640e-01    1.616526e+00   6.683949e-02
  1.425744e-01    1.558076e+00   6.572480e-02
  1.447849e-01    1.523226e+00   6.500055e-02
  1.469953e-01    1.504478e+00   6.455887e-02
  1.492058e-01    1.463383e+00   6.359704e-02
  1.514163e-01    1.426171e+00   6.267898e-02
  1.536267e-01    1.503309e+00   6.422607e-02
  1.558372e-01    1.604611e+00   6.620829e-02
  1.580476e-01    1.634060e+00   6.665094e-02
  1.602581e-01    1.642397e+00   6.665106e-02
  1.624685e-01    1.630808e+00   6.623364e-02
  1.646790e-01    1.707917e+00   6.758679e-02
  1.668895e-01    1.707951e+00   6.739227e-02
  1.690999e-01    1.724268e+00   6.751007e-02
  1.713104e-01    1.818660e+00   6.911816e-02
  1.735208e-01    1.771922e+00   6.801210e-02
  1.757313e-01    1.759712e+00   6.756495e-02
  1.779417e-01    1.720121e+00   6.658268e-02
  1.801522e-01    1.836396e+00   6.857716e-02
  1.823626e-01    1.934898e+00   7.015802e-02
  1.845731e-01    1.892966e+00   6.916885e-02
  1.867836e-01    1.943954e+00   6.985767e-02
  1.889940e-01    1.910512e+00   6.902787e-02
  1.912045e-01    1.955238e+00   6.959800e-02
  1.934149e-01    1.927556e+00   6.887226e-02
  1.956254e-01    1.993992e+00   6.981807e-02
  1.978358e-01    1.967836e+00   6.912097e-02
  2.000463e-01    1.962748e+00   6.880277e-02
  2.022568e-01    2.019362e+00   6.955894e-02
  2.044672e-01    2.021251e+00   6.935308e-02
  2.066777e-01    1.948441e+00   6.786649e-02
  2.088881e-01    2.030740e+00   6.905825e-02
  2.110986e-01    2.004619e+00   6.837741e-02
  2.133090e-01    1.963122e+00   6.744599e-02
  2.155195e-01    1.983913e+00   6.757731e-02
  2.177300e-01    1.925712e+00   6.605563e-02
  2.199404e-01    1.975753e+00   6.514537e-02
  2.221509e-01    1.932764e+00   6.337474e-02
  2.243613e-01    1.961149e+00   6.302907e-02
  2.265718e-01    2.070492e+00   6.404853e-02
  2.287822e-01    2.084696e+00   6.363174e-02
  2.309927e-01    2.104740e+00   6.335445e-02
  2.332031e-01    2.188030e+00   6.404296e-02
  2.354136e-01    2.185673e+00   6.348969e-02
  2.376241e-01    2.134815e+00   6.225967e-02
  2.398345e-01    2.085439e+00   6.108002e-02
  2.420450e-01    2.066227e+00   6.036354e-02
  2.442554e-01    2.142104e+00   6.103843e-02
  2.464659e-01    2.222584e+00   6.175708e-02
  2.486763e-01    2.188670e+00   6.088126e-02
  2.508868e-01    2.162237e+00   6.013077e-02
  2.530973e-01    2.160399e+00   5.973257e-02
  2.553077e-01    2.195397e+00   5.984920e-02
  2.575182e-01    2.145386e+00   5.881358e-02
  2.597286e-01    2.079472e+00   5.756644e-02
  2.619391e-01    2.034093e+00   5.660708e-02
  2.641495e-01    2.006141e+00   5.590565e-02
  2.663600e-01    2.007619e+00   5.561868e-02
  2.685704e-01    2.009996e+00   5.534993e-02
  2.707809e-01    1.996987e+00   5.487768e-02
  2.729914e-01    1.978178e+00   5.433397e-02
  2.752018e-01    1.972389e+00   5.397205e-02
  2.774123e-01    2.064691e+00   5.493839e-02
  2.796227e-01    2.082975e+00   5.490816e-02
  2.818332e-01    2.163147e+00   5.567574e-02
  2.840436e-01    2.084698e+00   5.439190e-02
  2.862541e-01    2.012908e+00   5.319025e-02
  2.884646e-01    1.954780e+00   5.216783e-02
  2.906750e-01    1.991609e+00   5.240731e-02
  2.928855e-01    1.974009e+00   5.193347e-02
  2.950959e-01    2.042398e+00   5.258278e-02
  2.973064e-01    1.969850e+00   5.140832e-02
  2.995168e-01    2.026074e+00   5.190072e-02
  3.017273e-01    1.889645e+00   4.990186e-02
  3.039377e-01    1.928389e+00   5.019010e-02
  3.061482e-01    1.975000e+00   5.057333e-02
  3.083587e-01    1.936533e+00   4.986163e-02
  3.105691e-01    1.990986e+00   5.034185e-02
  3.127796e-01    1.981378e+00   5.000911e-02
  3.149900e-01    1.914776e+00   4.895658e-02
  3.172005e-01    1.977987e+00   4.955463e-02
  3.194109e-01    1.873650e+00   4.803088e-02
  3.216214e-01    1.817934e+00   4.711827e-02
  3.238319e-01    1.830832e+00   4.709779e-02
  3.260423e-01    1.857170e+00   4.724641e-02
  3.282528e-01    1.813548e+00   4.650239e-02
  3.304632e-01    1.853262e+00   4.682666e-02
  3.326737e-01    1.868866e+00   4.683993e-02
  3.348841e-01    1.864040e+00   4.659799e-02
  3.370946e-01    1.875609e+00   4.656651e-02
  3.393050e-01    1.878663e+00   4.642789e-02
  3.415155e-01    1.840600e+00   4.578235e-02
  3.437260e-01    1.839060e+00   4.559357e-02
  3.459364e-01    1.875643e+00   4.587449e-02
  3.481469e-01    1.875133e+00   4.570083e-02
  3.503573e-01    1.843306e+00   4.514628e-02
  3.525678e-01    1.824738e+00   4.475821e-02
  3.547782e-01    1.874072e+00   4.519529e-02
  3.569887e-01    1.809711e+00   4.425508e-02
  3.591992e-01    1.800928e+00   4.399136e-02
  3.614096e-01    1.805264e+00   4.389156e-02
  3.636201e-01    1.801468e+00   4.369131e-02
  3.658305e-01    1.807986e+00   4.362099e-02
  3.680410e-01    1.820019e+00   4.361537e-02
  3.702514e-01    1.810924e+00   4.335997e-02
  3.724619e-01    1.727922e+00   4.221039e-02
  3.746724e-01    1.845445e+00   4.347664e-02
  3.768828e-01    1.831432e+00   4.316558e-02
  3.790933e-01    1.785528e+00   4.248228e-02
  3.813037e-01    1.798826e+00   4.250067e-02
  3.835142e-01    1.764723e+00   4.195761e-02
  3.857246e-01    1.831974e+00   4.261124e-02
  3.879351e-01    1.832357e+00   4.247778e-02
  3.901455e-01    1.757280e+00   4.146601e-02
  3.923560e-01    1.796793e+00   4.179635e-02
  3.945665e-01    1.788287e+00   4.156506e-02
  3.967769e-01    1.795574e+00   4.151924e-02
  3.989874e-01    1.784853e+00   4.126584e-02
  4.011978e-01    1.803483e+00   4.135310e-02
  4.034083e-01    1.768026e+00   4.081887e-02
  4.056187e-01    1.776960e+00   4.079580e-02
  4.078292e-01    1.790945e+00   4.083208e-02
  4.100397e-01    1.790567e+00   4.070312e-02
  4.122501e-01    1.809807e+00   4.079879e-02
  4.144606e-01    1.841822e+00   4.103600e-02
  4.166710e-01    1.836818e+00   4.085838e-02
  4.188815e-01    1.868802e+00   4.109082e-02
  4.210919e-01    1.855704e+00   4.082659e-02
  4.233024e-01    1.847508e+00   4.061650e-02
  4.255128e-01    1.816206e+00   4.015455e-02
  4.277233e-01    1.838624e+00   4.028552e-02
  4.299338e-01    1.795903e+00   3.970019e-02
  4.321442e-01    1.796306e+00   3.959103e-02
  4.343547e-01    1.809131e+00   3.961976e-02
  4.365651e-01    1.813081e+00   3.955029e-02
  4.387756e-01    1.773829e+00   3.901032e-02
  4.409860e-01    1.725319e+00   3.836659e-02
  4.431965e-01    1.737585e+00   3.839627e-02
  4.454070e-01    1.767906e+00   3.862207e-02
  4.476174e-01    1.801991e+00   3.888554e-02
  4.498279e-01    1.770460e+00   3.843898e-02
  4.520383e-01    1.761098e+00   3.823201e-02
  4.542488e-01    1.735417e+00   3.784988e-02
  4.564592e-01    1.753157e+00   3.794079e-02
  4.586697e-01    1.743645e+00   3.773731e-02
  4.608801e-01    1.733937e+00   3.753130e-02
  4.630906e-01    1.720397e+00   3.728547e-02
  4.653011e-01    1.732227e+00   3.731507e-02
  4.675115e-01    1.735160e+00   3.724828e-02
  4.697220e-01    1.769810e+00   3.751987e-02
  4.719324e-01    1.707790e+00   3.676127e-02
  4.741429e-01    1.674419e+00   3.630652e-02
  4.763533e-01    1.744172e+00   3.696004e-02
  4.785638e-01    1.746937e+00   3.689377e-02
  4.807743e-01    1.737166e+00   3.669690e-02
  4.829847e-01    1.696868e+00   3.617714e-02
  4.851952e-01    1.726139e+00   3.639549e-02
  4.874056e-01    1.717071e+00   3.620824e-02
  4.896161e-01    1.713822e+00   3.608426e-02
  4.918265e-01    1.739857e+00   3.626702e-02
  4.940370e-01    1.755003e+00   3.633462e-02
  4.962475e-01    1.763601e+00   3.633356e-02
  4.984579e-01    1.724512e+00   3.584012e-02
  5.006684e-01    1.674527e+00   3.523076e-02
  5.028788e-01    1.714816e+00   3.556567e-02
  5.050893e-01    1.722906e+00   3.556278e-02
  5.072997e-01    1.699158e+00   3.523153e-02
  5.095102e-01    1.668034e+00   3.482376e-02
  5.117206e-01    1.718585e+00   3.526344e-02
  5.139311e-01    1.711363e+00   3.510601e-02
  5.161416e-01    1.705859e+00   3.496667e-02
  5.183520e-01    1.688213e+00   3.470270e-02
  5.205625e-01    1.652001e+00   3.424806e-02
  5.227729e-01    1.678536e+00   3.444150e-02
  5.249834e-01    1.708388e+00   3.466575e-02
  5.271938e-01    1.714883e+00   3.465054e-02
  5.294043e-01    1.780113e+00   3.522193e-02
  5.316148e-01    1.754866e+00   3.489118e-02
  5.338252e-01    1.800701e+00   3.526311e-02
  5.360357e-01    1.826887e+00   3.543774e-02
  5.382461e-01    1.786289e+00   3.496255e-02
  5.404566e-01    1.777419e+00   3.479629e-02
  5.426670e-01    1.734583e+00   3.429697e-02
  5.448775e-01    1.744287e+00   3.431594e-02
  5.470879e-01    1.756024e+00   3.435441e-02
  5.492984e-01    1.758937e+00   3.430643e-02
  5.515089e-01    1.786758e+00   3.449999e-02
  5.537193e-01    1.814198e+00   3.468731e-02
  5.559298e-01    1.795515e+00   3.443255e-02
  5.581402e-01    1.799424e+00   3.439469e-02
  5.603507e-01    1.778090e+00   3.411579e-02
  5.625611e-01    1.852549e+00   3.474718e-02
  5.647716e-01    1.851452e+00   3.466149e-02
  5.669821e-01    1.831087e+00   3.439604e-02
  5.691925e-01    1.777326e+00   3.381459e-02
  5.714030e-01    1.767330e+00   3.364748e-02
  5.736134e-01    1.736142e+00   3.327834e-02
  5.758239e-01    1.743226e+00   3.327497e-02
  5.780343e-01    1.758789e+00   3.335248e-02
  5.802448e-01    1.724361e+00   3.295531e-02
  5.824552e-01    1.673164e+00   3.239429e-02
  5.846657e-01    1.637051e+00   3.197599e-02
  5.868762e-01    1.653059e+00   3.206504e-02
  5.890866e-01    1.649833e+00   3.196728e-02
  5.912971e-01    1.671231e+00   3.210730e-02
  5.935075e-01    1.674037e+00   3.206782e-02
  5.957180e-01    1.678244e+00   3.204223e-02
  5.979284e-01    1.657713e+00   3.178062e-02
  6.001389e-01    1.663158e+00   3.176796e-02
  6.023494e-01    1.627181e+00   3.135867e-02
  6.045598e-01    1.644741e+00   3.146321e-02
  6.067703e-01    1.700827e+00   3.193084e-02
  6.089807e-01    1.688383e+00   3.174987e-02
  6.111912e-01    1.685522e+00   3.165961e-02
  6.134016e-01    1.718239e+00   3.190162e-02
  6.156121e-01    1.703152e+00   3.169814e-02
  6.178226e-01    1.703994e+00   3.164320e-02
  6.200330e-01    1.677365e+00   3.133306e-02
  6.222435e-01    1.704893e+00   3.152653e-02
  6.244539e-01    1.728026e+00   3.167756e-02
  6.266644e-01    1.693210e+00   3.129565e-02
  6.288748e-01    1.705329e+00   3.134630e-02
  6.310853e-01    1.743633e+00   3.163486e-02
  6.332957e-01    1.710459e+00   3.127198e-02
  6.355062e-01    1.726986e+00   3.136165e-02
  6.377167e-01    1.715666e+00   3.119873e-02
  6.399271e-01    1.697765e+00   3.097606e-02
  6.421376e-01    1.738188e+00   3.128284e-02
  6.443480e-01    1.692356e+00   3.080894e-02
  6.465585e-01    1.667396e+00   3.052296e-02
  6.487689e-01    1.690014e+00   3.067125e-02
  6.509794e-01    1.689637e+00   3.061001e-02
  6.531899e-01    1.628772e+00   2.999710e-02
  6.554003e-01    1.618206e+00   2.984343e-02
  6.576108e-01    1.627324e+00   2.987166e-02
  6.598212e-01    1.611763e+00   2.967327e-02
  6.620317e-01    1.596314e+00   2.947597e-02
  6.642421e-01    1.661479e+00   3.001595e-02
  6.664526e-01    1.623942e+00   2.962030e-02
  6.686630e-01    1.612053e+00   2.945708e-02
  6.708735e-01    1.659415e+00   2.983186e-02
  6.730840e-01    1.618943e+00   2.941211e-02
  6.752944e-01    1.628090e+00   2.944142e-02
  6.775049e-01    1.641819e+00   2.951165e-02
  6.797153e-01    1.602211e+00   2.910068e-02
  6.819258e-01    1.644756e+00   2.943134e-02
  6.841362e-01    1.641984e+00   2.935367e-02
  6.863467e-01    1.641806e+00   2.929949e-02
  6.885572e-01    1.661724e+00   2.942387e-02
  6.907676e-01    1.633049e+00   2.911663e-02
  6.929781e-01    1.609387e+00   2.885354e-02
  6.951885e-01    1.624285e+00   2.893543e-02
  6.973990e-01    1.614449e+00   2.879670e-02
  6.996094e-01    1.597116e+00   2.859131e-02
  7.018199e-01    1.579519e+00   2.838345e-02
  7.040303e-01    1.603914e+00   2.855154e-02
  7.062408e-01    1.623301e+00   2.867328e-02
  7.084513e-01    1.591798e+00   2.834429e-02
  7.106617e-01    1.617134e+00   2.851933e-02
  7.128722e-01    1.623444e+00   2.852549e-02
  7.150826e-01    1.606964e+00   2.833141e-02
  7.172931e-01    1.587758e+00   2.811307e-02
  7.195035e-01    1.580351e+00   2.799917e-02
  7.217140e-01    1.591855e+00   2.815064e-02
  7.239245e-01    1.607950e+00   2.852168e-02
  7.261349e-01    1.615153e+00   2.869552e-02
  7.283454e-01    1.585068e+00   2.849965e-02
  7.305558e-01    1.594777e+00   2.864114e-02
  7.327663e-01    1.581238e+00   2.856190e-02
  7.349767e-01    1.576378e+00   2.853435e-02
  7.371872e-01    1.547688e+00   2.826240e-02
  7.393976e-01    1.592659e+00   2.865572e-02
  7.416081e-01    1.564129e+00   2.838182e-02
  7.438186e-01    1.552283e+00   2.813081e-02
  7.460290e-01    1.583710e+00   2.811908e-02
  7.482395e-01    1.564109e+00   2.777392e-02
  7.504499e-01    1.597947e+00   2.793548e-02
  7.526604e-01    1.587728e+00   2.772896e-02
  7.548708e-01    1.602815e+00   2.777019e-02
  7.570813e-01    1.601327e+00   2.770589e-02
  7.592918e-01    1.596284e+00   2.762683e-02
  7.615022e-01    1.569785e+00   2.736280e-02
  7.637127e-01    1.536259e+00   2.703665e-02
  7.659231e-01    1.563992e+00   2.724769e-02
  7.681336e-01    1.590355e+00   2.744462e-02
  7.703440e-01    1.595391e+00   2.745663e-02
  7.725545e-01    1.607752e+00   2.753156e-02
  7.747650e-01    1.650427e+00   2.785547e-02
  7.769754e-01    1.596354e+00   2.734232e-02
  7.791859e-01    1.555382e+00   2.693599e-02
  7.813963e-01    1.593021e+00   2.720711e-02
  7.836068e-01    1.618579e+00   2.737197e-02
  7.858172e-01    1.624098e+00   2.736733e-02
  7.880277e-01    1.594452e+00   2.706483e-02
  7.902381e-01    1.568444e+00   2.679439e-02
  7.924486e-01    1.621260e+00   2.719134e-02
  7.946591e-01    1.626671e+00   2.718799e-02
  7.968695e-01    1.635619e+00   2.721389e-02
  7.990800e-01    1.674536e+00   2.748652e-02
  8.012904e-01    1.709314e+00   2.772243e-02
  8.035009e-01    1.797861e+00   2.838085e-02
  8.057113e-01    1.765109e+00   2.807254e-02
  8.079218e-01    1.688462e+00   2.740889e-02
  8.101323e-01    1.671619e+00   2.722551e-02
  8.123427e-01    1.726427e+00   2.762106e-02
  8.145532e-01    1.721353e+00   2.753329e-02
  8.167636e-01    1.662214e+00   2.701067e-02
  8.189741e-01    1.648026e+00   2.685031e-02
  8.211845e-01    1.658382e+00   2.688939e-02
  8.233950e-01    1.701386e+00   2.719152e-02
  8.256054e-01    1.692839e+00   2.707818e-02
  8.278159e-01    1.677553e+00   2.691117e-02
  8.300264e-01    1.656278e+00   2.669663e-02
  8.322368e-01    1.665581e+00   2.672803e-02
  8.344473e-01    1.689990e+00   2.687912e-02
  8.366577e-01    1.686012e+00   2.680429e-02
  8.388682e-01    1.646231e+00   2.644384e-02
  8.410786e-01    1.635457e+00   2.631515e-02
  8.432891e-01    1.611797e+00   2.608261e-02
  8.454996e-01    1.635312e+00   2.623060e-02
  8.477100e-01    1.619278e+00   2.606027e-02
  8.499205e-01    1.619303e+00   2.601955e-02
  8.521309e-01    1.635520e+00   2.610873e-02
  8.543414e-01    1.655807e+00   2.622917e-02
  8.565518e-01    1.665042e+00   2.626128e-02
  8.587623e-01    1.639049e+00   2.601491e-02
  8.609727e-01    1.637005e+00   2.595837e-02
  8.631832e-01    1.644721e+00   2.597935e-02
  8.653937e-01    1.669019e+00   2.613035e-02
  8.676041e-01    1.649623e+00   2.593888e-02
  8.698146e-01    1.634462e+00   2.577993e-02
  8.720250e-01    1.608634e+00   2.553646e-02
  8.742355e-01    1.619800e+00   2.558592e-02
  8.764459e-01    1.610385e+00   2.547254e-02
  8.786564e-01    1.588393e+00   2.526030e-02
  8.808669e-01    1.604070e+00   2.534616e-02
  8.830773e-01    1.570144e+00   2.503896e-02
  8.852878e-01    1.567895e+00   2.498347e-02
  8.874982e-01    1.602219e+00   2.521882e-02
  8.897087e-01    1.581906e+00   2.502100e-02
  8.919191e-01    1.612439e+00   2.522340e-02
  8.941296e-01    1.611053e+00   2.517517e-02
  8.963401e-01    1.599885e+00   2.505133e-02
  8.985505e-01    1.606103e+00   2.506293e-02
  9.007610e-01    1.603881e+00   2.500880e-02
  9.029714e-01    1.594561e+00   2.490025e-02
  9.051819e-01    1.623986e+00   2.509145e-02
  9.073923e-01    1.607020e+00   2.492339e-02
  9.096028e-01    1.601291e+00   2.484399e-02
  9.118132e-01    1.591408e+00   2.473108e-02
  9.140237e-01    1.593145e+00   2.470803e-02
  9.162342e-01    1.641271e+00   2.504343e-02
  9.184446e-01    1.634953e+00   2.495906e-02
  9.206551e-01    1.599337e+00   2.465011e-02
  9.228655e-01    1.644844e+00   2.496259e-02
  9.250760e-01    1.677008e+00   2.516933e-02
  9.272864e-01    1.646215e+00   2.490246e-02
  9.294969e-01    1.666336e+00   2.501765e-02
  9.317074e-01    1.661585e+00   2.494667e-02
  9.339178e-01    1.647329e+00   2.480550e-02
  9.361283e-01    1.640411e+00   2.471687e-02
  9.383387e-01    1.624803e+00   2.456555e-02
  9.405492e-01    1.640547e+00   2.464979e-02
  9.427596e-01    1.640430e+00   2.461344e-02
  9.449701e-01    1.646191e+00   2.462310e-02
  9.471805e-01    1.670605e+00   2.476989e-02
  9.493910e-01    1.671780e+00   2.474461e-02
  9.516015e-01    1.674877e+00   2.473292e-02
  9.538119e-01    1.732733e+00   2.512201e-02
  9.560224e-01    1.746340e+00   2.518496e-02
  9.582328e-01    1.761363e+00   2.525913e-02
  9.604433e-01    1.750820e+00   2.514776e-02
  9.626537e-01    1.755830e+00   2.514985e-02
  9.648642e-01    1.766289e+00   2.519008e-02
  9.670747e-01    1.790779e+00   2.532913e-02
  9.692851e-01    1.838699e+00   2.563169e-02
  9.714956e-01    1.813475e+00   2.541939e-02
  9.737060e-01    1.815311e+00   2.539882e-02
  9.759165e-01    1.815800e+00   2.536643e-02
  9.781269e-01    1.841030e+00   2.550863e-02
  9.803374e-01    1.840461e+00   2.546944e-02
  9.825478e-01    1.801867e+00   2.516773e-02
  9.847583e-01    1.826885e+00   2.530742e-02
  9.869688e-01    1.809113e+00   2.515033e-02
  9.891792e-01    1.796202e+00   2.502711e-02
  9.913897e-01    1.756630e+00   2.471651e-02
  9.936001e-01    1.700446e+00   2.428618e-02
  9.958106e-01    1.710179e+00   2.432249e-02
  9.980210e-01    1.662769e+00   2.395185e-02
  1.000231e+00    1.662130e+00   2.407843e-02
  1.002442e+00    1.650769e+00   2.412350e-02
  1.004652e+00    1.618293e+00   2.395167e-02
  1.006863e+00    1.606848e+00   2.391633e-02
  1.009073e+00    1.606699e+00   2.395183e-02
  1.011284e+00    1.605788e+00   2.397706e-02
  1.013494e+00    1.597302e+00   2.393733e-02
  1.015705e+00    1.564703e+00   2.371420e-02
  1.017915e+00    1.551242e+00   2.362825e-02
  1.020126e+00    1.526292e+00   2.345329e-02
  1.022336e+00    1.563524e+00   2.374932e-02
  1.024547e+00    1.526328e+00   2.347625e-02
  1.026757e+00    1.521578e+00   2.344800e-02
  1.028967e+00    1.518929e+00   2.343518e-02
  1.031178e+00    1.544470e+00   2.363758e-02
  1.033388e+00    1.555574e+00   2.372749e-02
  1.035599e+00    1.613597e+00   2.416947e-02
  1.037809e+00    1.664307e+00   2.454973e-02
  1.040020e+00    1.608884e+00   2.413884e-02
  1.042230e+00    1.551658e+00   2.370761e-02
  1.044441e+00    1.517160e+00   2.344237e-02
  1.046651e+00    1.497499e+00   2.329013e-02
  1.048862e+00    1.501118e+00   2.331746e-02
  1.051072e+00    1.549622e+00   2.368876e-02
  1.053282e+00    1.621472e+00   2.423075e-02
  1.055493e+00    1.594213e+00   2.402179e-02
  1.057703e+00    1.599308e+00   2.405855e-02
  1.059914e+00    1.565160e+00   2.379599e-02
  1.062124e+00    1.508085e+00   2.335398e-02
  1.064335e+00    1.490191e+00   2.321159e-02
  1.066545e+00    1.484980e+00   2.316494e-02
  1.068756e+00    1.548523e+00   2.365153e-02
  1.070966e+00    1.588324e+00   2.394680e-02
  1.073177e+00    1.659170e+00   2.446858e-02
  1.075387e+00    1.694211e+00   2.472006e-02
  1.077597e+00    1.565616e+00   2.375592e-02
  1.079808e+00    1.511550e+00   2.320722e-02
  1.082018e+00    1.485508e+00   2.281592e-02
  1.084229e+00    1.498946e+00   2.280738e-02
  1.086439e+00    1.504259e+00   2.275888e-02
  1.088650e+00    1.521813e+00   2.281386e-02
  1.090860e+00    1.514868e+00   2.269275e-02
  1.093071e+00    1.460443e+00   2.221900e-02
  1.095281e+00    1.441680e+00   2.201862e-02
  1.097492e+00    1.426247e+00   2.184591e-02
  1.099702e+00    1.406788e+00   2.164557e-02
  1.101912e+00    1.441472e+00   2.186188e-02
  1.104123e+00    1.432796e+00   2.174785e-02
  1.106333e+00    1.404172e+00   2.148552e-02
  1.108544e+00    1.442033e+00   2.172882e-02
  1.110754e+00    1.428992e+00   2.158729e-02
  1.112965e+00    1.429941e+00   2.155381e-02
  1.115175e+00    1.416252e+00   2.140928e-02
  1.117386e+00    1.416407e+00   2.137115e-02
  1.119596e+00    1.360324e+00   2.090663e-02
  1.121807e+00    1.359866e+00   2.086496e-02
  1.124017e+00    1.415636e+00   2.125173e-02
  1.126228e+00    1.440491e+00   2.140132e-02
  1.128438e+00    1.392230e+00   2.100310e-02
  1.130648e+00    1.416799e+00   2.115306e-02
  1.132859e+00    1.417536e+00   2.112396e-02
  1.135069e+00    1.402235e+00   2.097479e-02
  1.137280e+00    1.376413e+00   2.074794e-02
  1.139490e+00    1.376639e+00   2.071670e-02
  1.141701e+00    1.381994e+00   2.072386e-02
  1.143911e+00    1.384996e+00   2.071448e-02
  1.146122e+00    1.375983e+00   2.061503e-02
  1.148332e+00    1.367543e+00   2.051996e-02
  1.150543e+00    1.348702e+00   2.034760e-02
  1.152753e+00    1.368542e+00   2.046596e-02
  1.154963e+00    1.371843e+00   2.045960e-02
  1.157174e+00    1.373969e+00   2.044528e-02
  1.159384e+00    1.391133e+00   2.054253e-02
  1.161595e+00    1.417170e+00   2.070353e-02
  1.163805e+00    1.389735e+00   2.047267e-02
  1.166016e+00    1.454624e+00   2.091479e-02
  1.168226e+00    1.557266e+00   2.160919e-02
  1.170437e+00    1.541875e+00   2.147181e-02
  1.172647e+00    1.457539e+00   2.084646e-02
  1.174858e+00    1.422455e+00   2.056534e-02
  1.177068e+00    1.424429e+00   2.055069e-02
  1.179278e+00    1.530275e+00   2.127025e-02
  1.181489e+00    1.560290e+00   2.144893e-02
  1.183699e+00    1.514905e+00   2.110558e-02
  1.185910e+00    1.432191e+00   2.049279e-02
  1.188120e+00    1.375682e+00   2.005755e-02
  1.190331e+00    1.346216e+00   1.981490e-02
  1.192541e+00    1.357786e+00   1.987244e-02
  1.194752e+00    1.364478e+00   1.989421e-02
  1.196962e+00    1.345961e+00   1.973306e-02
  1.199173e+00    1.364885e+00   1.984465e-02
  1.201383e+00    1.356490e+00   1.975631e-02
  1.203593e+00    1.354180e+00   1.971462e-02
  1.205804e+00    1.341610e+00   1.959706e-02
  1.208014e+00    1.346959e+00   1.960927e-02
  1.210225e+00    1.371952e+00   1.976483e-02
  1.212435e+00    1.382026e+00   1.981219e-02
  1.214646e+00    1.382462e+00   1.978889e-02
  1.216856e+00    1.379364e+00   1.974095e-02
  1.219067e+00    1.416183e+00   1.997763e-02
  1.221277e+00    1.392702e+00   1.978591e-02
  1.223488e+00    1.385353e+00   1.970754e-02
  1.225698e+00    1.362258e+00   1.951558e-02
  1.227909e+00    1.350395e+00   1.940021e-02
  1.230119e+00    1.432232e+00   1.994660e-02
  1.232329e+00    1.447587e+00   2.002146e-02
  1.234540e+00    1.387954e+00   1.957403e-02
  1.236750e+00    1.368808e+00   1.940806e-02
  1.238961e+00    1.360709e+00   1.932348e-02
  1.241171e+00    1.350475e+00   1.922650e-02
  1.243382e+00    1.326598e+00   1.903246e-02
  1.245592e+00    1.329829e+00   1.903170e-02
  1.247803e+00    1.384249e+00   1.939325e-02
  1.250013e+00    1.373698e+00   1.929546e-02
  1.252224e+00    1.351070e+00   1.911264e-02
  1.254434e+00    1.319703e+00   1.886598e-02
  1.256644e+00    1.338843e+00   1.897918e-02
  1.258855e+00    1.373230e+00   1.919790e-02
  1.261065e+00    1.366590e+00   1.912793e-02
  1.263276e+00    1.336430e+00   1.889286e-02
  1.265486e+00    1.324602e+00   1.878639e-02
  1.267697e+00    1.340047e+00   1.887268e-02
  1.269907e+00    1.331617e+00   1.879067e-02
  1.272118e+00    1.338048e+00   1.881353e-02
  1.274328e+00    1.347588e+00   1.885775e-02
  1.276539e+00    1.347538e+00   1.883465e-02
  1.278749e+00    1.338589e+00   1.874979e-02
  1.280959e+00    1.351064e+00   1.881443e-02
  1.283170e+00    1.345776e+00   1.875519e-02
  1.285380e+00    1.338138e+00   1.867951e-02
  1.287591e+00    1.343049e+00   1.869180e-02
  1.289801e+00    1.341853e+00   1.866231e-02
  1.292012e+00    1.363387e+00   1.879428e-02
  1.294222e+00    1.339656e+00   1.861382e-02
  1.296433e+00    1.342148e+00   1.861557e-02
  1.298643e+00    1.371882e+00   1.880403e-02
  1.300854e+00    1.378367e+00   1.883185e-02
  1.303064e+00    1.377449e+00   1.880616e-02
  1.305274e+00    1.374350e+00   1.876336e-02
  1.307485e+00    1.354101e+00   1.860305e-02
  1.309695e+00    1.346307e+00   1.852722e-02
  1.311906e+00    1.334824e+00   1.842646e-02
  1.314116e+00    1.367003e+00   1.862630e-02
  1.316327e+00    1.364856e+00   1.858988e-02
  1.318537e+00    1.359084e+00   1.852857e-02
  1.320748e+00    1.370453e+00   1.858417e-02
  1.322958e+00    1.381849e+00   1.864053e-02
  1.325169e+00    1.394780e+00   1.870617e-02
  1.327379e+00    1.378763e+00   1.857642e-02
  1.329589e+00    1.412767e+00   1.878252e-02
  1.331800e+00    1.477157e+00   1.918415e-02
  1.334010e+00    1.450888e+00   1.899143e-02
  1.336221e+00    1.399832e+00   1.863212e-02
  1.338431e+00    1.400372e+00   1.861445e-02
  1.340642e+00    1.391988e+00   1.862380e-02
  1.342852e+00    1.392718e+00   1.873093e-02
  1.345063e+00    1.362510e+00   1.857641e-02
  1.347273e+00    1.368058e+00   1.864966e-02
  1.349484e+00    1.371275e+00   1.869945e-02
  1.351694e+00    1.390031e+00   1.884996e-02
  1.353905e+00    1.363997e+00   1.869071e-02
  1.356115e+00    1.362189e+00   1.869340e-02
  1.358325e+00    1.349507e+00   1.861953e-02
  1.360536e+00    1.339429e+00   1.856143e-02
  1.362746e+00    1.335805e+00   1.854583e-02
  1.364957e+00    1.336847e+00   1.856069e-02
  1.367167e+00    1.362817e+00   1.874728e-02
  1.369378e+00    1.336885e+00   1.857408e-02
  1.371588e+00    1.340356e+00   1.860329e-02
  1.373799e+00    1.332386e+00   1.855158e-02
  1.376009e+00    1.319275e+00   1.846342e-02
  1.378220e+00    1.309931e+00   1.840045e-02
  1.380430e+00    1.284650e+00   1.822467e-02
  1.382640e+00    1.279309e+00   1.818763e-02
  1.384851e+00    1.289683e+00   1.826209e-02
  1.387061e+00    1.281031e+00   1.820103e-02
  1.389272e+00    1.275123e+00   1.815921e-02
  1.391482e+00    1.280139e+00   1.819421e-02
  1.393693e+00    1.293325e+00   1.828681e-02
  1.395903e+00    1.304136e+00   1.836158e-02
  1.398114e+00    1.273738e+00   1.814495e-02
  1.400324e+00    1.283538e+00   1.821248e-02
  1.402535e+00    1.273289e+00   1.813731e-02
  1.404745e+00    1.283524e+00   1.820769e-02
  1.406955e+00    1.286459e+00   1.822579e-02
  1.409166e+00    1.275196e+00   1.814252e-02
  1.411376e+00    1.277855e+00   1.815829e-02
  1.413587e+00    1.277036e+00   1.814866e-02
  1.415797e+00    1.294149e+00   1.826627e-02
  1.418008e+00    1.298533e+00   1.825484e-02
  1.420218e+00    1.291514e+00   1.805447e-02
  1.422429e+00    1.281299e+00   1.789722e-02
  1.424639e+00    1.271809e+00   1.776609e-02
  1.426850e+00    1.285282e+00   1.780492e-02
  1.429060e+00    1.269222e+00   1.764436e-02
  1.431270e+00    1.277787e+00   1.765934e-02
  1.433481e+00    1.289443e+00   1.769843e-02
  1.435691e+00    1.284350e+00   1.762482e-02
  1.437902e+00    1.272668e+00   1.750795e-02
  1.440112e+00    1.304160e+00   1.768746e-02
  1.442323e+00    1.264795e+00   1.738549e-02
  1.444533e+00    1.243239e+00   1.720448e-02
  1.446744e+00    1.246798e+00   1.719825e-02
  1.448954e+00    1.266511e+00   1.730352e-02
  1.451165e+00    1.266843e+00   1.727608e-02
  1.453375e+00    1.275948e+00   1.730992e-02
  1.455586e+00    1.283878e+00   1.733533e-02
  1.457796e+00    1.287484e+00   1.733195e-02
  1.460006e+00    1.284418e+00   1.728390e-02
  1.462217e+00    1.285812e+00   1.726688e-02
  1.464427e+00    1.268318e+00   1.712344e-02
  1.466638e+00    1.259145e+00   1.703617e-02
  1.468848e+00    1.275218e+00   1.711916e-02
  1.471059e+00    1.268567e+00   1.704939e-02
  1.473269e+00    1.266881e+00   1.701369e-02
  1.475480e+00    1.266240e+00   1.698565e-02
  1.477690e+00    1.278899e+00   1.704640e-02
  1.479901e+00    1.261476e+00   1.690613e-02
  1.482111e+00    1.252895e+00   1.682531e-02
  1.484321e+00    1.266788e+00   1.689525e-02
  1.486532e+00    1.256840e+00   1.680652e-02
  1.488742e+00    1.270025e+00   1.687175e-02
  1.490953e+00    1.289319e+00   1.697659e-02
  1.493163e+00    1.289047e+00   1.695231e-02
  1.495374e+00    1.286860e+00   1.691621e-02
  1.497584e+00    1.302438e+00   1.699630e-02
  1.499795e+00    1.333055e+00   1.717263e-02
  1.502005e+00    1.379681e+00   1.744771e-02
  1.504216e+00    1.321607e+00   1.705501e-02
  1.506426e+00    1.306807e+00   1.693801e-02
  1.508636e+00    1.329447e+00   1.706309e-02
  1.510847e+00    1.263444e+00   1.661227e-02
  1.513057e+00    1.254130e+00   1.652583e-02
  1.515268e+00    1.287974e+00   1.672127e-02
  1.517478e+00    1.294002e+00   1.673483e-02
  1.519689e+00    1.267764e+00   1.653918e-02
  1.521899e+00    1.279294e+00   1.659089e-02
  1.524110e+00    1.264035e+00   1.647123e-02
  1.526320e+00    1.240898e+00   1.630027e-02
  1.528531e+00    1.269292e+00   1.646581e-02
  1.530741e+00    1.257121e+00   1.636748e-02
  1.532951e+00    1.240780e+00   1.624122e-02
  1.535162e+00    1.242950e+00   1.634180e-02
  1.537372e+00    1.253357e+00   1.647708e-02
  1.539583e+00    1.248173e+00   1.647722e-02
  1.541793e+00    1.236316e+00   1.640567e-02
  1.544004e+00    1.251280e+00   1.650491e-02
  1.546214e+00    1.246223e+00   1.647004e-02
  1.548425e+00    1.220960e+00   1.630250e-02
  1.550635e+00    1.237612e+00   1.642292e-02
  1.552846e+00    1.268630e+00   1.663722e-02
  1.555056e+00    1.241603e+00   1.641762e-02
  1.557266e+00    1.227339e+00   1.621335e-02
  1.559477e+00    1.230448e+00   1.617507e-02
  1.561687e+00    1.272111e+00   1.641564e-02
  1.563898e+00    1.257202e+00   1.630192e-02
  1.566108e+00    1.248066e+00   1.622661e-02
  1.568319e+00    1.245721e+00   1.619570e-02
  1.570529e+00    1.252617e+00   1.621527e-02
  1.572740e+00    1.231590e+00   1.605112e-02
  1.574950e+00    1.234854e+00   1.604616e-02
  1.577161e+00    1.244983e+00   1.608635e-02
  1.579371e+00    1.242385e+00   1.604591e-02
  1.581582e+00    1.269168e+00   1.619799e-02
  1.583792e+00    1.244043e+00   1.601885e-02
  1.586002e+00    1.225456e+00   1.588123e-02
  1.588213e+00    1.243038e+00   1.597753e-02
  1.590423e+00    1.242029e+00   1.595098e-02
  1.592634e+00    1.234134e+00   1.587868e-02
  1.594844e+00    1.244656e+00   1.592480e-02
  1.597055e+00    1.234411e+00   1.583871e-02
  1.599265e+00    1.219558e+00   1.572259e-02
  1.601476e+00    1.229777e+00   1.576809e-02
  1.603686e+00    1.249422e+00   1.587371e-02
  1.605897e+00    1.228533e+00   1.572040e-02
  1.608107e+00    1.217174e+00   1.562813e-02
  1.610317e+00    1.228760e+00   1.568310e-02
  1.612528e+00    1.209407e+00   1.554015e-02
  1.614738e+00    1.208912e+00   1.551817e-02
  1.616949e+00    1.228036e+00   1.562144e-02
  1.619159e+00    1.229449e+00   1.561167e-02
  1.621370e+00    1.228557e+00   1.558747e-02
  1.623580e+00    1.200314e+00   1.538904e-02
  1.625791e+00    1.202882e+00   1.538726e-02
  1.628001e+00    1.200683e+00   1.535496e-02
  1.630212e+00    1.156971e+00   1.505538e-02
  1.632422e+00    1.162307e+00   1.507232e-02
  1.634632e+00    1.165050e+00   1.507293e-02
  1.636843e+00    1.170367e+00   1.508979e-02
  1.639053e+00    1.157825e+00   1.499156e-02
  1.641264e+00    1.138033e+00   1.484601e-02
  1.643474e+00    1.150478e+00   1.490964e-02
  1.645685e+00    1.176887e+00   1.506301e-02
  1.647895e+00    1.143238e+00   1.482961e-02
  1.650106e+00    1.130276e+00   1.472845e-02
  1.652316e+00    1.134536e+00   1.473979e-02
  1.654527e+00    1.116513e+00   1.460577e-02
  1.656737e+00    1.116456e+00   1.458897e-02
  1.658947e+00    1.129968e+00   1.466073e-02
  1.661158e+00    1.098657e+00   1.444013e-02
  1.663368e+00    1.104319e+00   1.446138e-02
  1.665579e+00    1.120936e+00   1.455363e-02
  1.667789e+00    1.112834e+00   1.448473e-02
  1.670000e+00    1.093247e+00   1.434133e-02
  1.672210e+00    1.076409e+00   1.421483e-02
  1.674421e+00    1.092229e+00   1.430364e-02
  1.676631e+00    1.108441e+00   1.439350e-02
  1.678842e+00    1.091810e+00   1.426940e-02
  1.681052e+00    1.094191e+00   1.426955e-02
  1.683263e+00    1.061771e+00   1.404164e-02
  1.685473e+00    1.082655e+00   1.416390e-02
  1.687683e+00    1.069148e+00   1.405997e-02
  1.689894e+00    1.070100e+00   1.405053e-02
  1.692104e+00    1.080540e+00   1.410395e-02
  1.694315e+00    1.075551e+00   1.405684e-02
  1.696525e+00    1.070719e+00   1.401007e-02
  1.698736e+00    1.041584e+00   1.380348e-02
  1.700946e+00    1.019803e+00   1.364354e-02
  1.703157e+00    1.041934e+00   1.377625e-02
  1.705367e+00    1.047712e+00   1.379995e-02
  1.707578e+00    1.028950e+00   1.366138e-02
  1.709788e+00    1.033293e+00   1.367616e-02
  1.711998e+00    1.007263e+00   1.348805e-02
  1.714209e+00    9.950991e-01   1.339223e-02
  1.716419e+00    9.982029e-01   1.339907e-02
  1.718630e+00    1.007062e+00   1.344430e-02
  1.720840e+00    9.949971e-01   1.334960e-02
  1.723051e+00    9.841465e-01   1.326299e-02
  1.725261e+00    1.009216e+00   1.341628e-02
  1.727472e+00    1.008972e+00   1.340053e-02
  1.729682e+00    1.014548e+00   1.342408e-02
  1.731893e+00    1.015074e+00   1.341359e-02
  1.734103e+00    1.066599e+00   1.373564e-02
  1.736313e+00    1.041835e+00   1.356104e-02
  1.738524e+00    9.934133e-01   1.322836e-02
  1.740734e+00    9.912891e-01   1.320056e-02
  1.742945e+00    9.856825e-01   1.314979e-02
  1.745155e+00    9.934828e-01   1.318827e-02
  1.747366e+00    9.951429e-01   1.318540e-02
  1.749576e+00    1.011424e+00   1.327900e-02
  1.751787e+00    1.001008e+00   1.319698e-02
  1.753997e+00    9.850587e-01   1.307801e-02
  1.756208e+00    9.884018e-01   1.308688e-02
  1.758418e+00    1.002369e+00   1.316571e-02
  1.760628e+00    9.679537e-01   1.292439e-02
  1.762839e+00    9.534282e-01   1.281389e-02
  1.765049e+00    9.607856e-01   1.285013e-02
  1.767260e+00    9.708421e-01   1.290433e-02
  1.769470e+00    9.463471e-01   1.272757e-02
  1.771681e+00    9.376419e-01   1.265587e-02
  1.773891e+00    9.104115e-01   1.245796e-02
  1.776102e+00    9.219045e-01   1.252363e-02
  1.778312e+00    9.193875e-01   1.249399e-02
  1.780523e+00    9.334460e-01   1.257644e-02
  1.782733e+00    9.974052e-01   1.298710e-02
  1.784944e+00    1.005782e+00   1.302818e-02
  1.787154e+00    9.534914e-01   1.267234e-02
  1.789364e+00    9.237269e-01   1.246052e-02
  1.791575e+00    9.389588e-01   1.255020e-02
  1.793785e+00    9.770616e-01   1.278957e-02
  1.795996e+00    9.771386e-01   1.277716e-02
  1.798206e+00    1.041683e+00   1.317909e-02
  1.800417e+00    1.055435e+00   1.325221e-02
  1.802627e+00    9.876278e-01   1.280704e-02
  1.804838e+00    9.370297e-01   1.246239e-02
  1.807048e+00    9.154525e-01   1.230515e-02
  1.809259e+00    9.608759e-01   1.259273e-02
  1.811469e+00    1.040555e+00   1.308841e-02
  1.813679e+00    1.019367e+00   1.293859e-02
  1.815890e+00    9.026840e-01   1.216079e-02
  1.818100e+00    8.802164e-01   1.199351e-02
  1.820311e+00    8.584887e-01   1.183009e-02
  1.822521e+00    8.554794e-01   1.179477e-02
  1.824732e+00    8.741949e-01   1.190841e-02
  1.826942e+00    8.963581e-01   1.204603e-02
  1.829153e+00    8.818056e-01   1.193618e-02
  1.831363e+00    8.904933e-01   1.198274e-02
  1.833574e+00    9.015800e-01   1.204529e-02
  1.835784e+00    9.475378e-01   1.233660e-02
  1.837994e+00    9.656767e-01   1.244188e-02
  1.840205e+00    9.071015e-01   1.204725e-02
  1.842415e+00    8.710970e-01   1.179397e-02
  1.844626e+00    8.589374e-01   1.169989e-02
  1.846836e+00    8.616771e-01   1.170715e-02
  1.849047e+00    8.445916e-01   1.157903e-02
  1.851257e+00    8.603414e-01   1.167694e-02
  1.853468e+00    8.643426e-01   1.169524e-02
  1.855678e+00    8.524432e-01   1.160564e-02
  1.857889e+00    8.533428e-01   1.160326e-02
  1.860099e+00    8.591347e-01   1.163396e-02
  1.862309e+00    8.345329e-01   1.145776e-02
  1.864520e+00    8.421121e-01   1.150116e-02
  1.866730e+00    8.403696e-01   1.147996e-02
  1.868941e+00    8.447153e-01   1.149871e-02
  1.871151e+00    8.691457e-01   1.165229e-02
  1.873362e+00    8.764860e-01   1.168988e-02
  1.875572e+00    8.664731e-01   1.161187e-02
  1.877783e+00    8.719743e-01   1.163708e-02
  1.879993e+00    9.050369e-01   1.184410e-02
  1.882204e+00    8.972204e-01   1.178165e-02
  1.884414e+00    8.722691e-01   1.160541e-02
  1.886624e+00    8.408926e-01   1.138372e-02
  1.888835e+00    8.145772e-01   1.119337e-02
  1.891045e+00    8.172274e-01   1.120082e-02
  1.893256e+00    8.269848e-01   1.125649e-02
  1.895466e+00    8.219004e-01   1.121076e-02
  1.897677e+00    8.273299e-01   1.123685e-02
  1.899887e+00    8.353043e-01   1.127990e-02
  1.902098e+00    8.250338e-01   1.119954e-02
  1.904308e+00    8.488360e-01   1.134923e-02
  1.906519e+00    8.494021e-01   1.134206e-02
  1.908729e+00    9.040932e-01   1.169041e-02
  1.910940e+00    8.739358e-01   1.148241e-02
  1.913150e+00    8.265945e-01   1.115646e-02
  1.915360e+00    8.259575e-01   1.114151e-02
  1.917571e+00    8.398992e-01   1.122417e-02
  1.919781e+00    8.560737e-01   1.132081e-02
  1.921992e+00    8.516784e-01   1.128091e-02
  1.924202e+00    8.402123e-01   1.119380e-02
  1.926413e+00    8.260225e-01   1.108852e-02
  1.928623e+00    8.181274e-01   1.102481e-02
  1.930834e+00    8.314940e-01   1.110397e-02
  1.933044e+00    8.157535e-01   1.098769e-02
  1.935255e+00    7.974773e-01   1.085365e-02
  1.937465e+00    7.798250e-01   1.072264e-02
  1.939675e+00    7.800069e-01   1.071322e-02
  1.941886e+00    7.902811e-01   1.077336e-02
  1.944096e+00    8.000424e-01   1.082952e-02
  1.946307e+00    8.162452e-01   1.092821e-02
  1.948517e+00    8.097543e-01   1.087417e-02
  1.950728e+00    7.983169e-01   1.078686e-02
  1.952938e+00    7.893212e-01   1.071586e-02
  1.955149e+00    7.869620e-01   1.068966e-02
  1.957359e+00    8.037682e-01   1.079313e-02
  1.959570e+00    7.773466e-01   1.060349e-02
  1.961780e+00    7.826318e-01   1.062962e-02
  1.963990e+00    7.862257e-01   1.064393e-02
  1.966201e+00    7.685707e-01   1.051381e-02
  1.968411e+00    7.793728e-01   1.057736e-02
  1.970622e+00    8.011623e-01   1.071401e-02
  1.972832e+00    7.847722e-01   1.059392e-02
  1.975043e+00    7.775229e-01   1.053487e-02
  1.977253e+00    7.705671e-01   1.047779e-02
  1.979464e+00    7.662521e-01   1.043848e-02
  1.981674e+00    7.950227e-01   1.062230e-02
  1.983885e+00    7.845855e-01   1.054231e-02
  1.986095e+00    7.961058e-01   1.060962e-02
  1.988305e+00    7.850879e-01   1.052603e-02
  1.990516e+00    7.773606e-01   1.046418e-02
  1.992726e+00    7.786535e-01   1.046320e-02
  1.994937e+00    7.920165e-01   1.054239e-02
  1.997147e+00    7.631460e-01   1.033881e-02
  1.999358e+00    7.668399e-01   1.035400e-02
  2.001568e+00    7.732434e-01   1.038632e-02
  2.003779e+00    7.692187e-01   1.034737e-02
  2.005989e+00    7.758573e-01   1.037987e-02
  2.008200e+00    7.629975e-01   1.028202e-02
  2.010410e+00    7.566674e-01   1.022762e-02
  2.012621e+00    7.705901e-01   1.030957e-02
  2.014831e+00    7.725978e-01   1.031148e-02
  2.017041e+00    7.677255e-01   1.026852e-02
  2.019252e+00    7.748539e-01   1.030606e-02
  2.021462e+00    7.762292e-01   1.030563e-02
  2.023673e+00    7.821329e-01   1.033526e-02
  2.025883e+00    7.627750e-01   1.019704e-02
  2.028094e+00    7.497582e-01   1.010011e-02
  2.030304e+00    7.425924e-01   1.004228e-02
  2.032515e+00    7.738413e-01   1.024202e-02
  2.034725e+00    7.637216e-01   1.016539e-02
  2.036936e+00    7.572087e-01   1.011260e-02
  2.039146e+00    7.673532e-01   1.017048e-02
  2.041356e+00    7.642844e-01   1.014045e-02
  2.043567e+00    7.439668e-01   9.995501e-03
  2.045777e+00    7.609183e-01   1.009946e-02
  2.047988e+00    7.603794e-01   1.008647e-02
  2.050198e+00    7.688493e-01   1.013399e-02
  2.052409e+00    7.429593e-01   9.954296e-03
  2.054619e+00    7.494145e-01   9.990083e-03
  2.056830e+00    7.390007e-01   9.913310e-03
  2.059040e+00    7.502319e-01   9.980838e-03
  2.061251e+00    7.535477e-01   9.995612e-03
  2.063461e+00    7.370938e-01   9.878367e-03
  2.065671e+00    7.555838e-01   9.992694e-03
  2.067882e+00    7.721701e-01   1.009267e-02
  2.070092e+00    7.369883e-01   9.850938e-03
  2.072303e+00    7.418761e-01   9.874421e-03
  2.074513e+00    7.574746e-01   9.968301e-03
  2.076724e+00    7.467188e-01   9.887801e-03
  2.078934e+00    7.401270e-01   9.835088e-03
  2.081145e+00    7.259753e-01   9.731618e-03
  2.083355e+00    7.235419e-01   9.706229e-03
  2.085566e+00    7.365205e-01   9.784021e-03
  2.087776e+00    7.305806e-01   9.735025e-03
  2.089986e+00    7.477877e-01   9.840175e-03
  2.092197e+00    7.349749e-01   9.746560e-03
  2.094407e+00    7.392041e-01   9.765331e-03
  2.096618e+00    7.209181e-01   9.634960e-03
  2.098828e+00    7.231183e-01   9.640430e-03
  2.101039e+00    7.189447e-01   9.603666e-03
  2.103249e+00    7.068095e-01   9.513748e-03
  2.105460e+00    7.157449e-01   9.564770e-03
  2.107670e+00    7.165550e-01   9.561512e-03
  2.109881e+00    7.229344e-01   9.594847e-03
  2.112091e+00    7.177675e-01   9.551570e-03
  2.114301e+00    7.270364e-01   9.604223e-03
  2.116512e+00    7.326165e-01   9.632181e-03
  2.118722e+00    7.162807e-01   9.515401e-03
  2.120933e+00    7.119216e-01   9.477584e-03
  2.123143e+00    7.084086e-01   9.445327e-03
  2.125354e+00    7.046966e-01   9.412098e-03
  2.127564e+00    7.138546e-01   9.464350e-03
  2.129775e+00    7.106164e-01   9.434150e-03
  2.131985e+00    7.322672e-01   9.567620e-03
  2.134196e+00    7.133538e-01   9.434682e-03
  2.136406e+00    7.094631e-01   9.400181e-03
  2.138617e+00    7.110683e-01   9.402349e-03
  2.140827e+00    7.096492e-01   9.409034e-03
  2.143037e+00    6.981664e-01   9.377789e-03
  2.145248e+00    7.056262e-01   9.449743e-03
  2.147458e+00    6.971245e-01   9.407722e-03
  2.149669e+00    7.068788e-01   9.485163e-03
  2.151879e+00    7.104939e-01   9.518687e-03
  2.154090e+00    7.195902e-01   9.586833e-03
  2.156300e+00    6.933054e-01   9.416695e-03
  2.158511e+00    6.960279e-01   9.440441e-03
  2.160721e+00    6.909743e-01   9.410903e-03
  2.162932e+00    6.955468e-01   9.445725e-03
  2.165142e+00    6.993822e-01   9.474750e-03
  2.167352e+00    6.958463e-01   9.453694e-03
  2.169563e+00    6.896013e-01   9.413112e-03
  2.171773e+00    6.925069e-01   9.435377e-03
  2.173984e+00    7.075061e-01   9.538407e-03
  2.176194e+00    7.194152e-01   9.619608e-03
  2.178405e+00    7.136471e-01   9.581659e-03
  2.180615e+00    6.978175e-01   9.475495e-03
  2.182826e+00    6.859822e-01   9.395464e-03
  2.185036e+00    6.848689e-01   9.387895e-03
  2.187247e+00    6.804481e-01   9.357485e-03
  2.189457e+00    6.892920e-01   9.417688e-03
  2.191667e+00    6.766471e-01   9.330759e-03
  2.193878e+00    6.693323e-01   9.279591e-03
  2.196088e+00    6.933048e-01   9.443633e-03
  2.198299e+00    6.986740e-01   9.479031e-03
  2.200509e+00    6.774781e-01   9.333095e-03
  2.202720e+00    6.887445e-01   9.409214e-03
  2.204930e+00    6.937581e-01   9.442146e-03
  2.207141e+00    6.860197e-01   9.388222e-03
  2.209351e+00    6.876369e-01   9.397390e-03
  2.211562e+00    6.842284e-01   9.372441e-03
  2.213772e+00    6.736688e-01   9.244485e-03
  2.215982e+00    6.739183e-01   9.202058e-03
  2.218193e+00    6.566446e-01   9.054148e-03
  2.220403e+00    6.809322e-01   9.195355e-03
  2.222614e+00    6.869918e-01   9.215045e-03
  2.224824e+00    6.748578e-01   9.113897e-03
  2.227035e+00    6.798809e-01   9.130211e-03
  2.229245e+00    6.740247e-01   9.073819e-03
  2.231456e+00    6.662366e-01   9.005684e-03
  2.233666e+00    6.566954e-01   8.926030e-03
  2.235877e+00    6.664463e-01   8.977822e-03
  2.238087e+00    6.689280e-01   8.981061e-03
  2.240298e+00    6.681556e-01   8.962125e-03
  2.242508e+00    6.722996e-01   8.974690e-03
  2.244718e+00    6.764566e-01   8.986504e-03
  2.246929e+00    6.890691e-01   9.055243e-03
  2.249139e+00    6.796794e-01   8.980858e-03
  2.251350e+00    6.727526e-01   8.923203e-03
  2.253560e+00    6.966814e-01   9.068684e-03
  2.255771e+00    7.128058e-01   9.161220e-03
  2.257981e+00    7.432711e-01   9.343132e-03
  2.260192e+00    7.401552e-01   9.311810e-03
  2.262402e+00    7.311758e-01   9.243775e-03
  2.264613e+00    7.541898e-01   9.376550e-03
  2.266823e+00    7.640383e-01   9.426439e-03
  2.269033e+00    7.383169e-01   9.255460e-03
  2.271244e+00    7.003163e-01   9.003437e-03
  2.273454e+00    7.277924e-01   9.167572e-03
  2.275665e+00    7.610965e-01   9.363949e-03
  2.277875e+00    7.374243e-01   9.206726e-03
  2.280086e+00    6.909297e-01   8.901468e-03
  2.282296e+00    6.791192e-01   8.815511e-03
  2.284507e+00    6.614644e-01   8.690022e-03
  2.286717e+00    6.732354e-01   8.757398e-03
  2.288928e+00    6.640785e-01   8.687754e-03
  2.291138e+00    6.489968e-01   8.579151e-03
  2.293348e+00    6.422166e-01   8.524777e-03
  2.295559e+00    6.703979e-01   8.700373e-03
  2.297769e+00    6.639561e-01   8.649194e-03
  2.299980e+00    6.320074e-01   8.429338e-03
  2.302190e+00    6.632247e-01   8.625793e-03
  2.304401e+00    6.656808e-01   8.632364e-03
  2.306611e+00    6.452625e-01   8.489776e-03
  2.308822e+00    6.640547e-01   8.604039e-03
  2.311032e+00    6.717319e-01   8.647097e-03
  2.313243e+00    6.472523e-01   8.481807e-03
  2.315453e+00    6.523479e-01   8.507536e-03
  2.317663e+00    6.486648e-01   8.474352e-03
  2.319874e+00    6.472334e-01   8.456265e-03
  2.322084e+00    6.454736e-01   8.435797e-03
  2.324295e+00    6.396675e-01   8.389578e-03
  2.326505e+00    6.500248e-01   8.448135e-03
  2.328716e+00    6.514722e-01   8.448933e-03
  2.330926e+00    6.499513e-01   8.430226e-03
  2.333137e+00    6.432961e-01   8.378569e-03
  2.335347e+00    6.348806e-01   8.314764e-03
  2.337558e+00    6.425031e-01   8.356279e-03
  2.339768e+00    6.406643e-01   8.335731e-03
  2.341979e+00    6.610733e-01   8.458956e-03
  2.344189e+00    6.390656e-01   8.308562e-03
  2.346399e+00    6.335720e-01   8.264300e-03
  2.348610e+00    6.330885e-01   8.252696e-03
  2.350820e+00    6.407390e-01   8.294182e-03
  2.353031e+00    6.437818e-01   8.305524e-03
  2.355241e+00    6.462511e-01   8.313274e-03
  2.357452e+00    6.584677e-01   8.382929e-03
  2.359662e+00    6.274968e-01   8.175198e-03
  2.361873e+00    6.145815e-01   8.082502e-03
  2.364083e+00    6.342987e-01   8.203094e-03
  2.366294e+00    6.289800e-01   8.160531e-03
  2.368504e+00    6.360105e-01   8.197865e-03
  2.370714e+00    6.283244e-01   8.140119e-03
  2.372925e+00    6.030070e-01   7.966526e-03
  2.375135e+00    6.138958e-01   8.030131e-03
  2.377346e+00    6.105170e-01   8.000148e-03
  2.379556e+00    6.258601e-01   8.092125e-03
  2.381767e+00    6.211892e-01   8.054026e-03
  2.383977e+00    6.085420e-01   7.963750e-03
  2.386188e+00    6.176966e-01   8.015524e-03
  2.388398e+00    6.296229e-01   8.084509e-03
  2.390609e+00    6.181242e-01   8.002621e-03
  2.392819e+00    6.112669e-01   7.950368e-03
  2.395029e+00    6.076564e-01   7.919230e-03
  2.397240e+00    6.103917e-01   7.929188e-03
  2.399450e+00    6.233271e-01   8.004902e-03
  2.401661e+00    6.122548e-01   7.925807e-03
  2.403871e+00    6.265244e-01   8.009779e-03
  2.406082e+00    6.177871e-01   7.946262e-03
  2.408292e+00    6.033133e-01   7.844869e-03
  2.410503e+00    5.935101e-01   7.773469e-03
  2.412713e+00    6.074731e-01   7.856572e-03
  2.414924e+00    6.101971e-01   7.866674e-03
  2.417134e+00    6.063008e-01   7.833863e-03
  2.419344e+00    6.164280e-01   7.891518e-03
  2.421555e+00    6.062655e-01   7.818691e-03
  2.423765e+00    5.958177e-01   7.743643e-03
  2.425976e+00    5.891898e-01   7.692697e-03
  2.428186e+00    5.871645e-01   7.672334e-03
  2.430397e+00    5.761167e-01   7.592460e-03
  2.432607e+00    5.936868e-01   7.700086e-03
  2.434818e+00    5.908413e-01   7.674118e-03
  2.437028e+00    5.761826e-01   7.571278e-03
  2.439239e+00    5.852072e-01   7.622725e-03
  2.441449e+00    6.007019e-01   7.715740e-03
  2.443659e+00    5.883070e-01   7.628399e-03
  2.445870e+00    5.759264e-01   7.559820e-03
  2.448080e+00    5.683775e-01   7.544456e-03
  2.450291e+00    5.739643e-01   7.597998e-03
  2.452501e+00    5.845447e-01   7.678965e-03
  2.454712e+00    5.789230e-01   7.650428e-03
  2.456922e+00    5.524381e-01   7.479892e-03
  2.459133e+00    5.559657e-01   7.509099e-03
  2.461343e+00    5.632377e-01   7.562399e-03
  2.463554e+00    5.597983e-01   7.542716e-03
  2.465764e+00    5.621677e-01   7.561811e-03
  2.467975e+00    5.501870e-01   7.483065e-03
  2.470185e+00    5.451807e-01   7.451145e-03
  2.472395e+00    5.571145e-01   7.533506e-03
  2.474606e+00    5.507078e-01   7.491601e-03
  2.476816e+00    5.622486e-01   7.570450e-03
  2.479027e+00    5.416456e-01   7.431302e-03
  2.481237e+00    5.436644e-01   7.445386e-03
  2.483448e+00    5.593884e-01   7.552609e-03
  2.485658e+00    5.471827e-01   7.469614e-03
  2.487869e+00    5.532795e-01   7.511152e-03
  2.490079e+00    5.414094e-01   7.429622e-03
  2.492290e+00    5.383564e-01   7.408218e-03
  2.494500e+00    5.310435e-01   7.357000e-03
  2.496710e+00    5.190418e-01   7.272704e-03
  2.498921e+00    5.348994e-01   7.381953e-03
  2.501131e+00    5.387538e-01   7.407573e-03
  2.503342e+00    5.345896e-01   7.377616e-03
  2.505552e+00    5.350152e-01   7.379418e-03
  2.507763e+00    5.290009e-01   7.336418e-03
  2.509973e+00    5.238721e-01   7.299372e-03
  2.512184e+00    5.152600e-01   7.237519e-03
  2.514394e+00    5.387105e-01   7.390923e-03
  2.516605e+00    5.217894e-01   7.227072e-03
  2.518815e+00    5.271029e-01   7.235424e-03
  2.521025e+00    5.230622e-01   7.186729e-03
  2.523236e+00    5.118428e-01   7.091477e-03
  2.525446e+00    5.367681e-01   7.246316e-03
  2.527657e+00    5.396649e-01   7.251051e-03
  2.529867e+00    5.420244e-01   7.252479e-03
  2.532078e+00    5.412983e-01   7.232352e-03
  2.534288e+00    5.152746e-01   7.042616e-03
  2.536499e+00    5.306186e-01   7.134655e-03
  2.538709e+00    5.320110e-01   7.132968e-03
  2.540920e+00    5.226601e-01   7.059364e-03
  2.543130e+00    5.210617e-01   7.038224e-03
  2.545340e+00    5.222955e-01   7.036513e-03
  2.547551e+00    5.255997e-01   7.048751e-03
  2.549761e+00    5.217342e-01   7.013225e-03
  2.551972e+00    5.046118e-01   6.887981e-03
  2.554182e+00    5.125412e-01   6.932777e-03
  2.556393e+00    5.277306e-01   7.025599e-03
  2.558603e+00    5.144113e-01   6.927380e-03
  2.560814e+00    5.154471e-01   6.925655e-03
  2.563024e+00    5.186719e-01   6.938731e-03
  2.565235e+00    5.181674e-01   6.925846e-03
  2.567445e+00    5.212133e-01   6.936605e-03
  2.569656e+00    5.188071e-01   6.910813e-03
  2.571866e+00    5.131691e-01   6.863860e-03
  2.574076e+00    5.132961e-01   6.855462e-03
  2.576287e+00    5.161889e-01   6.866422e-03
  2.578497e+00    5.306646e-01   6.954079e-03
  2.580708e+00    5.173088e-01   6.857933e-03
  2.582918e+00    5.162394e-01   6.843042e-03
  2.585129e+00    5.129134e-01   6.813242e-03
  2.587339e+00    5.122094e-01   6.800894e-03
  2.589550e+00    5.099971e-01   6.778662e-03
  2.591760e+00    5.161723e-01   6.811805e-03
  2.593971e+00    5.175698e-01   6.813455e-03
  2.596181e+00    5.186337e-01   6.814175e-03
  2.598391e+00    5.242988e-01   6.846054e-03
  2.600602e+00    5.116720e-01   6.757175e-03
  2.602812e+00    5.179237e-01   6.790736e-03
  2.605023e+00    5.094072e-01   6.727501e-03
  2.607233e+00    5.005349e-01   6.661577e-03
  2.609444e+00    4.995822e-01   6.648045e-03
  2.611654e+00    5.107809e-01   6.714790e-03
  2.613865e+00    5.137326e-01   6.727094e-03
  2.616075e+00    5.004054e-01   6.632162e-03
  2.618286e+00    5.020182e-01   6.635859e-03
  2.620496e+00    5.064758e-01   6.658562e-03
  2.622706e+00    5.141478e-01   6.702994e-03
  2.624917e+00    5.020752e-01   6.618017e-03
  2.627127e+00    5.035806e-01   6.622173e-03
  2.629338e+00    5.085288e-01   6.648629e-03
  2.631548e+00    5.074273e-01   6.635236e-03
  2.633759e+00    5.016571e-01   6.590253e-03
  2.635969e+00    4.987164e-01   6.564242e-03
  2.638180e+00    4.957131e-01   6.537508e-03
  2.640390e+00    4.969594e-01   6.539140e-03
  2.642601e+00    5.148721e-01   6.649180e-03
  2.644811e+00    5.070395e-01   6.591318e-03
  2.647021e+00    4.886259e-01   6.464020e-03
  2.649232e+00    4.976056e-01   6.516424e-03
  2.651442e+00    5.070328e-01   6.571331e-03
  2.653653e+00    5.032807e-01   6.540136e-03
  2.655863e+00    5.054506e-01   6.547499e-03
  2.658074e+00    5.003340e-01   6.507642e-03
  2.660284e+00    5.071027e-01   6.545100e-03
  2.662495e+00    5.094102e-01   6.553129e-03
  2.664705e+00    5.009509e-01   6.491915e-03
  2.666916e+00    5.058317e-01   6.516922e-03
  2.669126e+00    5.124640e-01   6.552945e-03
  2.671337e+00    5.076575e-01   6.515482e-03
  2.673547e+00    5.047356e-01   6.490279e-03
  2.675757e+00    4.901720e-01   6.389521e-03
  2.677968e+00    5.074959e-01   6.494846e-03
  2.680178e+00    4.920070e-01   6.388588e-03
  2.682389e+00    4.967523e-01   6.412878e-03
  2.684599e+00    4.992060e-01   6.422495e-03
  2.686810e+00    4.935579e-01   6.379442e-03
  2.689020e+00    4.921899e-01   6.364288e-03
  2.691231e+00    4.880203e-01   6.331012e-03
  2.693441e+00    4.872085e-01   6.319614e-03
  2.695652e+00    4.834386e-01   6.288644e-03
  2.697862e+00    5.082583e-01   6.441583e-03
  2.700072e+00    5.047191e-01   6.412970e-03
  2.702283e+00    4.906013e-01   6.316404e-03
  2.704493e+00    4.893602e-01   6.302122e-03
  2.706704e+00    4.980586e-01   6.351415e-03
  2.708914e+00    4.841444e-01   6.256129e-03
  2.711125e+00    4.908373e-01   6.292949e-03
  2.713335e+00    4.909456e-01   6.287536e-03
  2.715546e+00    4.930030e-01   6.294199e-03
  2.717756e+00    4.885316e-01   6.259683e-03
  2.719967e+00    4.938590e-01   6.287472e-03
  2.722177e+00    4.925453e-01   6.272926e-03
  2.724387e+00    4.869878e-01   6.231331e-03
  2.726598e+00    4.893205e-01   6.240149e-03
  2.728808e+00    4.870506e-01   6.219490e-03
  2.731019e+00    4.934267e-01   6.253896e-03
  2.733229e+00    4.978348e-01   6.275890e-03
  2.735440e+00    4.760038e-01   6.130524e-03
  2.737650e+00    4.857081e-01   6.186656e-03
  2.739861e+00    4.941829e-01   6.234264e-03
  2.742071e+00    4.992232e-01   6.260141e-03
  2.744282e+00    4.848027e-01   6.162812e-03
  2.746492e+00    4.914229e-01   6.198642e-03
  2.748702e+00    4.873534e-01   6.167004e-03
  2.750913e+00    4.783738e-01   6.104140e-03
  2.753123e+00    4.817274e-01   6.119383e-03
  2.755334e+00    4.736790e-01   6.062020e-03
  2.757544e+00    4.782232e-01   6.085290e-03
  2.759755e+00    4.853967e-01   6.124851e-03
  2.761965e+00    4.870422e-01   6.129220e-03
  2.764176e+00    4.760058e-01   6.053394e-03
  2.766386e+00    4.687511e-01   6.001385e-03
  2.768597e+00    4.690192e-01   5.997289e-03
  2.770807e+00    4.763858e-01   6.038339e-03
  2.773017e+00    4.770748e-01   6.036752e-03
  2.775228e+00    4.918275e-01   6.123504e-03
  2.777438e+00    5.035304e-01   6.189995e-03
  2.779649e+00    4.861711e-01   6.076409e-03
  2.781859e+00    4.842300e-01   6.058466e-03
  2.784070e+00    4.825053e-01   6.041761e-03
  2.786280e+00    4.843751e-01   6.047667e-03
  2.788491e+00    4.795315e-01   6.011481e-03
  2.790701e+00    4.905929e-01   6.074698e-03
  2.792912e+00    4.873234e-01   6.048394e-03
  2.795122e+00    4.840557e-01   6.022304e-03
  2.797333e+00    4.827270e-01   6.008409e-03
  2.799543e+00    4.864471e-01   6.025616e-03
  2.801753e+00    4.626861e-01   5.870825e-03
  2.803964e+00    4.638748e-01   5.872760e-03
  2.806174e+00    4.680447e-01   5.892999e-03
  2.808385e+00    4.696172e-01   5.896124e-03
  2.810595e+00    4.755320e-01   5.926276e-03
  2.812806e+00    4.687521e-01   5.877311e-03
  2.815016e+00    4.747566e-01   5.910069e-03
  2.817227e+00    4.784156e-01   5.958857e-03
  2.819437e+00    4.896376e-01   6.039613e-03
  2.821648e+00    4.724885e-01   5.935190e-03
  2.823858e+00    4.689256e-01   5.918081e-03
  2.826068e+00    4.782670e-01   5.981737e-03
  2.828279e+00    4.685973e-01   5.924985e-03
  2.830489e+00    4.684474e-01   5.927369e-03
  2.832700e+00    4.675788e-01   5.924405e-03
  2.834910e+00    4.699884e-01   5.941722e-03
  2.837121e+00    4.688494e-01   5.936210e-03
  2.839331e+00    4.738532e-01   5.969036e-03
  2.841542e+00    4.681892e-01   5.934285e-03
  2.843752e+00    4.646730e-01   5.912730e-03
  2.845963e+00    4.726076e-01   5.963396e-03
  2.848173e+00    4.658809e-01   5.920884e-03
  2.850383e+00    4.760766e-01   5.985633e-03
  2.852594e+00    4.589875e-01   5.877137e-03
  2.854804e+00    4.684739e-01   5.937044e-03
  2.857015e+00    4.701264e-01   5.947085e-03
  2.859225e+00    4.658030e-01   5.919427e-03
  2.861436e+00    4.721303e-01   5.958841e-03
  2.863646e+00    4.648543e-01   5.912772e-03
  2.865857e+00    4.688919e-01   5.938746e-03
  2.868067e+00    4.683899e-01   5.935775e-03
  2.870278e+00    4.690304e-01   5.939493e-03
  2.872488e+00    4.757886e-01   5.980943e-03
  2.874698e+00    4.745292e-01   5.971980e-03
  2.876909e+00    4.572863e-01   5.861148e-03
  2.879119e+00    4.645773e-01   5.906058e-03
  2.881330e+00    4.530729e-01   5.831030e-03
  2.883540e+00    4.545669e-01   5.839250e-03
  2.885751e+00    4.674179e-01   5.919556e-03
  2.887961e+00    4.556323e-01   5.842594e-03
  2.890172e+00    4.623964e-01   5.884181e-03
  2.892382e+00    4.580825e-01   5.854886e-03
  2.894593e+00    4.703991e-01   5.931218e-03
  2.896803e+00    4.723026e-01   5.941218e-03
  2.899014e+00    4.698485e-01   5.923829e-03
  2.901224e+00    4.697937e-01   5.921469e-03
  2.903434e+00    4.570255e-01   5.838526e-03
  2.905645e+00    4.449470e-01   5.758645e-03
  2.907855e+00    4.665379e-01   5.894594e-03
  2.910066e+00    4.613201e-01   5.859466e-03
  2.912276e+00    4.638606e-01   5.873435e-03
  2.914487e+00    4.659918e-01   5.884455e-03
  2.916697e+00    4.537203e-01   5.804238e-03
  2.918908e+00    4.471844e-01   5.760289e-03
  2.921118e+00    4.546303e-01   5.805370e-03
  2.923329e+00    4.438230e-01   5.733692e-03
  2.925539e+00    4.503272e-01   5.773250e-03
  2.927749e+00    4.690572e-01   5.889760e-03
  2.929960e+00    4.680184e-01   5.880453e-03
  2.932170e+00    4.493400e-01   5.759581e-03
  2.934381e+00    4.505852e-01   5.765144e-03
  2.936591e+00    4.660564e-01   5.860663e-03
  2.938802e+00    4.656748e-01   5.855532e-03
  2.941012e+00    4.659666e-01   5.855013e-03
  2.943223e+00    4.608114e-01   5.819808e-03
  2.945433e+00    4.709752e-01   5.879860e-03
  2.947644e+00    4.491173e-01   5.737686e-03
  2.949854e+00    4.616254e-01   5.812730e-03
  2.952064e+00    4.598183e-01   5.797102e-03
  2.954275e+00    4.655661e-01   5.828770e-03
  2.956485e+00    4.614167e-01   5.798502e-03
  2.958696e+00    4.584929e-01   5.775730e-03
  2.960906e+00    4.507658e-01   5.722681e-03
  2.963117e+00    4.544773e-01   5.741703e-03
  2.965327e+00    4.588600e-01   5.765400e-03
  2.967538e+00    4.640346e-01   5.794882e-03
  2.969748e+00    4.630959e-01   5.786168e-03
  2.971959e+00    4.707641e-01   5.830682e-03
  2.974169e+00    4.644541e-01   5.788870e-03
  2.976379e+00    4.659966e-01   5.795523e-03
  2.978590e+00    4.558306e-01   5.728815e-03
  2.980800e+00    4.546778e-01   5.718756e-03
  2.983011e+00    4.552015e-01   5.719254e-03
  2.985221e+00    4.508109e-01   5.688468e-03
  2.987432e+00    4.457265e-01   5.653209e-03
  2.989642e+00    4.526286e-01   5.694183e-03
  2.991853e+00    4.584537e-01   5.727427e-03
  2.994063e+00    4.495292e-01   5.668505e-03
  2.996274e+00    4.493890e-01   5.664457e-03
  2.998484e+00    4.516392e-01   5.675918e-03
  3.000694e+00    4.577551e-01   5.710759e-03
  3.002905e+00    4.464461e-01   5.636855e-03
  3.005115e+00    4.657402e-01   5.754349e-03
  3.007326e+00    4.567001e-01   5.695065e-03
  3.009536e+00    4.695343e-01   5.771225e-03
  3.011747e+00    4.606816e-01   5.713621e-03
  3.013957e+00    4.585197e-01   5.696998e-03
  3.016168e+00    4.551081e-01   5.672493e-03
  3.018378e+00    4.701125e-01   5.762152e-03
  3.020589e+00    4.529920e-01   5.653040e-03
  3.022799e+00    4.434514e-01   5.590069e-03
  3.025010e+00    4.530868e-01   5.647210e-03
  3.027220e+00    4.622245e-01   5.700748e-03
  3.029430e+00    4.659343e-01   5.720283e-03
  3.031641e+00    4.512636e-01   5.626358e-03
  3.033851e+00    4.659877e-01   5.713858e-03
  3.036062e+00    4.513380e-01   5.620542e-03
  3.038272e+00    4.476749e-01   5.594123e-03
  3.040483e+00    4.406680e-01   5.546984e-03
  3.042693e+00    4.496756e-01   5.600133e-03
  3.044904e+00    4.556096e-01   5.632921e-03
  3.047114e+00    4.586998e-01   5.647137e-03
  3.049325e+00    4.513283e-01   5.597198e-03
  3.051535e+00    4.424804e-01   5.537693e-03
  3.053745e+00    4.586629e-01   5.633253e-03
  3.055956e+00    4.584971e-01   5.627636e-03
  3.058166e+00    4.475751e-01   5.555952e-03
  3.060377e+00    4.454494e-01   5.537985e-03
  3.062587e+00    4.600005e-01   5.623037e-03
  3.064798e+00    4.735826e-01   5.701086e-03
  3.067008e+00    4.505799e-01   5.556183e-03
  3.069219e+00    4.464709e-01   5.526276e-03
  3.071429e+00    4.520007e-01   5.556877e-03
  3.073640e+00    4.553221e-01   5.573915e-03
  3.075850e+00    4.335557e-01   5.435527e-03
  3.078060e+00    4.533120e-01   5.554858e-03
  3.080271e+00    4.736744e-01   5.674682e-03
  3.082481e+00    4.722546e-01   5.662649e-03
  3.084692e+00    4.527871e-01   5.541319e-03
  3.086902e+00    4.553436e-01   5.553648e-03
  3.089113e+00    4.534334e-01   5.538397e-03
  3.091323e+00    4.655023e-01   5.608200e-03
  3.093534e+00    4.419279e-01   5.460987e-03
  3.095744e+00    4.477355e-01   5.493373e-03
  3.097955e+00    4.460937e-01   5.479752e-03
  3.100165e+00    4.458691e-01   5.475052e-03
  3.102375e+00    4.454103e-01   5.468808e-03
  3.104586e+00    4.406261e-01   5.435904e-03
  3.106796e+00    4.377815e-01   5.414830e-03
  3.109007e+00    4.472562e-01   5.469891e-03
  3.111217e+00    4.419588e-01   5.433731e-03
  3.113428e+00    4.502833e-01   5.481227e-03
  3.115638e+00    4.442282e-01   5.441034e-03
  3.117849e+00    4.366133e-01   5.390495e-03
  3.120059e+00    4.505983e-01   5.472665e-03
  3.122270e+00    4.482975e-01   5.455405e-03
  3.124480e+00    4.486159e-01   5.453640e-03
  3.126691e+00    4.566397e-01   5.498584e-03
  3.128901e+00    4.423312e-01   5.408654e-03
  3.131111e+00    4.465523e-01   5.430522e-03
  3.133322e+00    4.517985e-01   5.458878e-03
  3.135532e+00    4.529281e-01   5.462238e-03
  3.137743e+00    4.581501e-01   5.490123e-03
  3.139953e+00    4.596930e-01   5.495592e-03
  3.142164e+00    4.530335e-01   5.467809e-03
  3.144374e+00    4.607719e-01   5.543287e-03
  3.146585e+00    4.562130e-01   5.530600e-03
  3.148795e+00    4.581008e-01   5.552976e-03
  3.151006e+00    4.525569e-01   5.527944e-03
  3.153216e+00    4.514132e-01   5.528159e-03
  3.155426e+00    4.462494e-01   5.502806e-03
  3.157637e+00    4.405106e-01   5.472808e-03
  3.159847e+00    4.494358e-01   5.532911e-03
  3.162058e+00    4.488398e-01   5.533721e-03
  3.164268e+00    4.373219e-01   5.466299e-03
  3.166479e+00    4.518352e-01   5.559958e-03
  3.168689e+00    4.528822e-01   5.569824e-03
  3.170900e+00    4.476353e-01   5.540668e-03
  3.173110e+00    4.424841e-01   5.511572e-03
  3.175321e+00    4.442505e-01   5.525083e-03
  3.177531e+00    4.504864e-01   5.566499e-03
  3.179741e+00    4.427017e-01   5.520281e-03
  3.181952e+00    4.496137e-01   5.565335e-03
  3.184162e+00    4.470317e-01   5.551568e-03
  3.186373e+00    4.389803e-01   5.502940e-03
  3.188583e+00    4.383301e-01   5.500650e-03
  3.190794e+00    4.373288e-01   5.496130e-03
  3.193004e+00    4.225982e-01   5.403986e-03
  3.195215e+00    4.288231e-01   5.445136e-03
  3.197425e+00    4.240409e-01   5.415889e-03
  3.199636e+00    4.275037e-01   5.437173e-03
  3.201846e+00    4.380130e-01   5.503009e-03
  3.204056e+00    4.365423e-01   5.494653e-03
  3.206267e+00    4.251626e-01   5.423390e-03
  3.208477e+00    4.393833e-01   5.514287e-03
  3.210688e+00    4.396641e-01   5.516876e-03
  3.212898e+00    4.479342e-01   5.569152e-03
  3.215109e+00    4.249963e-01   5.425401e-03
  3.217319e+00    4.420569e-01   5.533871e-03
  3.219530e+00    4.334876e-01   5.480368e-03
  3.221740e+00    4.392867e-01   5.517482e-03
  3.223951e+00    4.367269e-01   5.501832e-03
  3.226161e+00    4.386425e-01   5.514093e-03
  3.228372e+00    4.227047e-01   5.413512e-03
  3.230582e+00    4.346303e-01   5.489483e-03
  3.232792e+00    4.373777e-01   5.507036e-03
  3.235003e+00    4.368718e-01   5.504090e-03
  3.237213e+00    4.390623e-01   5.517987e-03
  3.239424e+00    4.270864e-01   5.442211e-03
  3.241634e+00    4.245537e-01   5.426181e-03
  3.243845e+00    4.205729e-01   5.400725e-03
  3.246055e+00    4.334508e-01   5.482517e-03
  3.248266e+00    4.444630e-01   5.551947e-03
  3.250476e+00    4.309519e-01   5.466597e-03
  3.252687e+00    4.291531e-01   5.455106e-03
  3.254897e+00    4.368348e-01   5.503580e-03
  3.257107e+00    4.405287e-01   5.526475e-03
  3.259318e+00    4.365432e-01   5.501206e-03
  3.261528e+00    4.203976e-01   5.398368e-03
  3.263739e+00    4.244526e-01   5.423781e-03
  3.265949e+00    4.245649e-01   5.424365e-03
  3.268160e+00    4.212286e-01   5.402617e-03
  3.270370e+00    4.151480e-01   5.362957e-03
  3.272581e+00    4.317766e-01   5.469028e-03
  3.274791e+00    4.425662e-01   5.536415e-03
  3.277002e+00    4.274515e-01   5.440486e-03
  3.279212e+00    4.269805e-01   5.437098e-03
  3.281422e+00    4.310123e-01   5.462141e-03
  3.283633e+00    4.327719e-01   5.472573e-03
  3.285843e+00    4.304642e-01   5.457635e-03
  3.288054e+00    4.366874e-01   5.495986e-03
  3.290264e+00    4.402370e-01   5.517970e-03
  3.292475e+00    4.242535e-01   5.416028e-03
  3.294685e+00    4.446522e-01   5.544056e-03
  3.296896e+00    4.309520e-01   5.457233e-03
  3.299106e+00    4.226545e-01   5.403877e-03
  3.301317e+00    4.316094e-01   5.459770e-03
  3.303527e+00    4.347313e-01   5.479032e-03
  3.305737e+00    4.214304e-01   5.393516e-03
  3.307948e+00    4.217441e-01   5.394829e-03
  3.310158e+00    4.355940e-01   5.481857e-03
  3.312369e+00    4.308376e-01   5.450946e-03
  3.314579e+00    4.361840e-01   5.483738e-03
  3.316790e+00    4.343958e-01   5.471789e-03
  3.319000e+00    4.153382e-01   5.349212e-03
  3.321211e+00    4.357994e-01   5.478786e-03
  3.323421e+00    4.302403e-01   5.442511e-03
  3.325632e+00    4.304777e-01   5.443123e-03
  3.327842e+00    4.291527e-01   5.433809e-03
  3.330052e+00    4.290868e-01   5.432317e-03
  3.332263e+00    4.292536e-01   5.432340e-03
  3.334473e+00    4.390118e-01   5.492823e-03
  3.336684e+00    4.320059e-01   5.447521e-03
  3.338894e+00    4.227270e-01   5.387892e-03
  3.341105e+00    4.192947e-01   5.364723e-03
  3.343315e+00    4.251856e-01   5.401165e-03
  3.345526e+00    4.247886e-01   5.397728e-03
  3.347736e+00    4.299272e-01   5.428846e-03
  3.349947e+00    4.281076e-01   5.416420e-03
  3.352157e+00    4.228553e-01   5.381886e-03
  3.354368e+00    4.302810e-01   5.427658e-03
  3.356578e+00    4.220714e-01   5.374574e-03
  3.358788e+00    4.396047e-01   5.483730e-03
  3.360999e+00    4.248446e-01   5.389634e-03
  3.363209e+00    4.213144e-01   5.366161e-03
  3.365420e+00    4.107744e-01   5.297125e-03
  3.367630e+00    4.268246e-01   5.398574e-03
  3.369841e+00    4.278300e-01   5.403492e-03
  3.372051e+00    4.245307e-01   5.380616e-03
  3.374262e+00    4.269582e-01   5.393524e-03
  3.376472e+00    4.145250e-01   5.311980e-03
  3.378683e+00    4.123653e-01   5.295592e-03
  3.380893e+00    4.153544e-01   5.312450e-03
  3.383103e+00    4.170310e-01   5.320430e-03
  3.385314e+00    4.170248e-01   5.318162e-03
  3.387524e+00    4.240242e-01   5.359849e-03
  3.389735e+00    4.266898e-01   5.374005e-03
  3.391945e+00    4.227237e-01   5.345232e-03
  3.394156e+00    4.339231e-01   5.411262e-03
  3.396366e+00    4.368894e-01   5.426217e-03
  3.398577e+00    4.431313e-01   5.461684e-03
  3.400787e+00    4.377947e-01   5.440990e-03
  3.402998e+00    4.312025e-01   5.438922e-03
  3.405208e+00    4.172771e-01   5.371317e-03
  3.407418e+00    4.021147e-01   5.288657e-03
  3.409629e+00    3.994803e-01   5.285213e-03
  3.411839e+00    4.004518e-01   5.303439e-03
  3.414050e+00    3.925984e-01   5.262109e-03
  3.416260e+00    3.995885e-01   5.318447e-03
  3.418471e+00    3.866616e-01   5.241046e-03
  3.420681e+00    3.946179e-01   5.303204e-03
  3.422892e+00    3.983264e-01   5.336158e-03
  3.425102e+00    3.987550e-01   5.346913e-03
  3.427313e+00    3.904169e-01   5.297957e-03
  3.429523e+00    3.984868e-01   5.359559e-03
  3.431733e+00    3.909304e-01   5.315233e-03
  3.433944e+00    3.764425e-01   5.222210e-03
  3.436154e+00    3.911396e-01   5.329511e-03
  3.438365e+00    3.720512e-01   5.203652e-03
  3.440575e+00    3.872813e-01   5.315098e-03
  3.442786e+00    3.766724e-01   5.247383e-03
  3.444996e+00    3.840169e-01   5.303832e-03
  3.447207e+00    3.712686e-01   5.220344e-03
  3.449417e+00    3.724703e-01   5.269618e-03
  3.451628e+00    3.628523e-01   5.230363e-03
  3.453838e+00    3.692164e-01   5.297220e-03
  3.456049e+00    3.647324e-01   5.288798e-03
  3.458259e+00    3.707463e-01   5.354266e-03
  3.460469e+00    3.814751e-01   5.451386e-03
  3.462680e+00    3.749834e-01   5.424092e-03
  3.464890e+00    3.845526e-01   5.511099e-03
  3.467101e+00    3.665572e-01   5.398029e-03
  3.469311e+00    3.776252e-01   5.495659e-03
  3.471522e+00    3.888198e-01   5.593197e-03
  3.473732e+00    3.940773e-01   5.647158e-03
  3.475943e+00    3.827219e-01   5.580918e-03
  3.478153e+00    4.073652e-01   5.773602e-03
  3.480364e+00    4.140906e-01   5.836617e-03
  3.482574e+00    4.165255e-01   5.869325e-03
  3.484784e+00    4.104890e-01   5.841524e-03
  3.486995e+00    4.116574e-01   5.864831e-03
  3.489205e+00    4.349987e-01   6.043681e-03
  3.491416e+00    4.540182e-01   6.189777e-03
  3.493626e+00    4.415415e-01   6.118841e-03
  3.495837e+00    4.457236e-01   6.162593e-03
  3.498047e+00    4.432066e-01   6.159632e-03
  3.500258e+00    4.646501e-01   6.321661e-03
  3.502468e+00    4.554729e-01   6.273378e-03
  3.504679e+00    4.548951e-01   6.283776e-03
  3.506889e+00    4.665541e-01   6.378239e-03
  3.509099e+00    4.751540e-01   6.451205e-03
  3.511310e+00    4.888502e-01   6.558139e-03
  3.513520e+00    4.842448e-01   6.541658e-03
  3.515731e+00    4.939397e-01   6.621295e-03
  3.517941e+00    5.003412e-01   6.678569e-03
  3.520152e+00    4.853789e-01   6.592142e-03
  3.522362e+00    5.021249e-01   6.719394e-03
  3.524573e+00    5.040587e-01   6.746577e-03
  3.526783e+00    5.246900e-01   6.896786e-03
  3.528994e+00    5.306894e-01   6.948507e-03
  3.531204e+00    5.390477e-01   7.015684e-03
  3.533414e+00    5.361230e-01   7.008856e-03
  3.535625e+00    5.232830e-01   6.936708e-03
  3.537835e+00    5.424068e-01   7.074515e-03
  3.540046e+00    5.441489e-01   7.094925e-03
  3.542256e+00    5.365472e-01   7.052713e-03
  3.544467e+00    5.472382e-01   7.130314e-03
  3.546677e+00    5.457290e-01   7.128163e-03
  3.548888e+00    5.344713e-01   7.061714e-03
  3.551098e+00    5.378149e-01   7.091072e-03
  3.553309e+00    5.346434e-01   7.078291e-03
  3.555519e+00    5.327857e-01   7.077239e-03
  3.557729e+00    5.335896e-01   7.094284e-03
  3.559940e+00    5.327224e-01   7.100008e-03
  3.562150e+00    5.426906e-01   7.177942e-03
  3.564361e+00    5.401757e-01   7.174637e-03
  3.566571e+00    5.399612e-01   7.187095e-03
  3.568782e+00    5.498034e-01   7.266610e-03
  3.570992e+00    5.158037e-01   7.051846e-03
  3.573203e+00    5.409865e-01   7.236118e-03
  3.575413e+00    5.291445e-01   7.170190e-03
  3.577624e+00    5.377570e-01   7.242447e-03
  3.579834e+00    5.466844e-01   7.316313e-03
  3.582045e+00    5.429112e-01   7.305189e-03
  3.584255e+00    5.402817e-01   7.301550e-03
  3.586465e+00    5.267119e-01   7.223114e-03
  3.588676e+00    5.344114e-01   7.289873e-03
  3.590886e+00    5.321027e-01   7.287756e-03
  3.593097e+00    5.473239e-01   7.405913e-03
  3.595307e+00    5.655885e-01   7.542781e-03
  3.597518e+00    5.598291e-01   7.518850e-03
  3.599728e+00    5.560599e-01   7.507824e-03
  3.601939e+00    5.351052e-01   7.379090e-03
  3.604149e+00    5.247798e-01   7.321793e-03
  3.606360e+00    5.306309e-01   7.376552e-03
  3.608570e+00    5.494840e-01   7.520828e-03
  3.610780e+00    5.340421e-01   7.425463e-03
  3.612991e+00    5.179998e-01   7.322926e-03
  3.615201e+00    5.339438e-01   7.444524e-03
  3.617412e+00    5.505378e-01   7.566753e-03
  3.619622e+00    5.356250e-01   7.469497e-03
  3.621833e+00    5.357600e-01   7.477167e-03
  3.624043e+00    5.319853e-01   7.460264e-03
  3.626254e+00    5.374884e-01   7.508478e-03
  3.628464e+00    5.384848e-01   7.526448e-03
  3.630675e+00    5.299467e-01   7.480638e-03
  3.632885e+00    5.374894e-01   7.548152e-03
  3.635095e+00    5.266430e-01   7.485928e-03
  3.637306e+00    5.303661e-01   7.526649e-03
  3.639516e+00    5.259661e-01   7.509799e-03
  3.641727e+00    5.321836e-01   7.568589e-03
  3.643937e+00    5.318714e-01   7.580926e-03
  3.646148e+00    5.373836e-01   7.634766e-03
  3.648358e+00    5.349573e-01   7.632382e-03
  3.650569e+00    5.548857e-01   7.788305e-03
  3.652779e+00    5.529072e-01   7.789430e-03
  3.654990e+00    5.459322e-01   7.755249e-03
  3.657200e+00    5.368792e-01   7.705649e-03
  3.659410e+00    5.143386e-01   7.556830e-03
  3.661621e+00    5.354756e-01   7.725704e-03
  3.663831e+00    5.457415e-01   7.814709e-03
  3.666042e+00    5.684754e-01   7.991533e-03
  3.668252e+00    5.475851e-01   7.858779e-03
  3.670463e+00    5.409430e-01   7.826362e-03
  3.672673e+00    5.411010e-01   7.843030e-03
  3.674884e+00    5.554644e-01   7.962239e-03
  3.677094e+00    5.602009e-01   8.012053e-03
  3.679305e+00    5.386420e-01   7.872051e-03
  3.681515e+00    5.378713e-01   7.882135e-03
  3.683726e+00    5.495532e-01   7.983364e-03
  3.685936e+00    5.475524e-01   7.984794e-03
  3.688146e+00    5.341257e-01   7.902198e-03
  3.690357e+00    5.303392e-01   7.890081e-03
  3.692567e+00    5.419804e-01   7.992554e-03
  3.694778e+00    5.223260e-01   7.862298e-03
  3.696988e+00    5.247753e-01   7.896654e-03
  3.699199e+00    5.321540e-01   7.968331e-03
  3.701409e+00    5.297469e-01   7.966752e-03
  3.703620e+00    5.239990e-01   7.939661e-03
  3.705830e+00    5.309952e-01   8.009042e-03
  3.708041e+00    5.352739e-01   8.058005e-03
  3.710251e+00    5.326047e-01   8.054730e-03
  3.712461e+00    5.359739e-01   8.097138e-03
  3.714672e+00    5.137455e-01   7.944059e-03
  3.716882e+00    4.971997e-01   7.831375e-03
  3.719093e+00    5.341384e-01   8.134477e-03
  3.721303e+00    5.234312e-01   8.069558e-03
  3.723514e+00    5.055722e-01   7.947713e-03
  3.725724e+00    5.133588e-01   8.025777e-03
  3.727935e+00    5.146462e-01   8.053211e-03
  3.730145e+00    5.213501e-01   8.122928e-03
  3.732356e+00    4.843898e-01   7.846680e-03
  3.734566e+00    5.246596e-01   8.183979e-03
  3.736776e+00    5.350711e-01   8.282932e-03
  3.738987e+00    5.283817e-01   8.248979e-03
  3.741197e+00    5.360191e-01   8.326793e-03
  3.743408e+00    5.206169e-01   8.224444e-03
  3.745618e+00    5.134211e-01   8.185752e-03
  3.747829e+00    5.023265e-01   8.114743e-03
  3.750039e+00    5.233628e-01   8.301479e-03
  3.752250e+00    5.095778e-01   8.209917e-03
  3.754460e+00    4.965503e-01   8.122530e-03
  3.756671e+00    5.226251e-01   8.352131e-03
  3.758881e+00    5.253921e-01   8.393183e-03
  3.761091e+00    5.169632e-01   8.344887e-03
  3.763302e+00    5.136144e-01   8.336936e-03
  3.765512e+00    5.255387e-01   8.452819e-03
  3.767723e+00    5.255328e-01   8.472422e-03
  3.769933e+00    5.078959e-01   8.348431e-03
  3.772144e+00    5.085822e-01   8.373686e-03
  3.774354e+00    5.066760e-01   8.377843e-03
  3.776565e+00    5.090240e-01   8.417142e-03
  3.778775e+00    5.228151e-01   8.550724e-03
  3.780986e+00    5.134393e-01   8.494231e-03
  3.783196e+00    4.985247e-01   8.390065e-03
  3.785407e+00    5.045136e-01   8.460803e-03
  3.787617e+00    5.152100e-01   8.570949e-03
  3.789827e+00    4.940754e-01   8.413767e-03
  3.792038e+00    4.831099e-01   8.340274e-03
  3.794248e+00    4.874551e-01   8.398534e-03
  3.796459e+00    5.107180e-01   8.618200e-03
  3.798669e+00    5.118167e-01   8.649048e-03
  3.800880e+00    5.017610e-01   8.585167e-03
  3.803090e+00    5.052384e-01   8.636802e-03
  3.805301e+00    5.097187e-01   8.697230e-03
  3.807511e+00    5.075083e-01   8.700636e-03
  3.809722e+00    5.079201e-01   8.726502e-03
  3.811932e+00    5.104333e-01   8.770541e-03
  3.814142e+00    5.086094e-01   8.777977e-03
  3.816353e+00    4.995979e-01   8.722725e-03
  3.818563e+00    4.998989e-01   8.748421e-03
  3.820774e+00    4.921593e-01   8.703504e-03
  3.822984e+00    5.137559e-01   8.916114e-03
  3.825195e+00    4.941011e-01   8.767600e-03
  3.827405e+00    4.933563e-01   8.784704e-03
  3.829616e+00    4.810763e-01   8.698412e-03
  3.831826e+00    4.903466e-01   8.805740e-03
  3.834037e+00    5.087559e-01   8.994339e-03
  3.836247e+00    5.080156e-01   9.012759e-03
  3.838457e+00    4.830449e-01   8.813174e-03
  3.840668e+00    4.998227e-01   8.990193e-03
  3.842878e+00    4.931730e-01   8.955613e-03
  3.845089e+00    4.958586e-01   9.005556e-03
  3.847299e+00    4.974619e-01   9.045932e-03
  3.849510e+00    4.879922e-01   8.985120e-03
  3.851720e+00    5.012183e-01   9.127554e-03
  3.853931e+00    5.112200e-01   9.237546e-03
  3.856141e+00    5.198494e-01   9.334672e-03
  3.858352e+00    5.206159e-01   9.361245e-03
  3.860562e+00    5.203018e-01   9.378309e-03
  3.862772e+00    5.022988e-01   9.234345e-03
  3.864983e+00    4.812576e-01   9.058310e-03
  3.867193e+00    5.055650e-01   9.304180e-03
  3.869404e+00    4.935559e-01   9.212930e-03
  3.871614e+00    4.967567e-01   9.262735e-03
  3.873825e+00    5.369716e-01   9.651548e-03
  3.876035e+00    5.328446e-01   9.635847e-03
  3.878246e+00    5.110570e-01   9.463052e-03
  3.880456e+00    5.012819e-01   9.401336e-03
  3.882667e+00    5.061719e-01   9.476798e-03
  3.884877e+00    5.460910e-01   9.874737e-03
  3.887087e+00    5.439195e-01   9.886633e-03
  3.889298e+00    5.167392e-01   9.667615e-03
  3.891508e+00    5.107859e-01   9.642833e-03
  3.893719e+00    5.145335e-01   9.709903e-03
  3.895929e+00    5.140267e-01   9.737276e-03
  3.898140e+00    5.094365e-01   9.726052e-03
  3.900350e+00    5.234362e-01   9.891933e-03
  3.902561e+00    4.785973e-01   9.490786e-03
  3.904771e+00    4.875922e-01   9.612257e-03
  3.906982e+00    5.004682e-01   9.771886e-03
  3.909192e+00    4.952483e-01   9.754457e-03
  3.911403e+00    5.138193e-01   9.970550e-03
  3.913613e+00    5.198508e-01   1.006426e-02
  3.915823e+00    4.793856e-01   9.699103e-03
  3.918034e+00    4.743799e-01   9.683061e-03
  3.920244e+00    4.667449e-01   9.639803e-03
  3.922455e+00    4.610984e-01   9.616291e-03
  3.924665e+00    4.800104e-01   9.847688e-03
  3.926876e+00    4.942879e-01   1.003044e-02
  3.929086e+00    4.792974e-01   9.914165e-03
  3.931297e+00    4.719823e-01   9.872528e-03
  3.933507e+00    4.853527e-01   1.004022e-02
  3.935718e+00    4.942651e-01   1.016096e-02
  3.937928e+00    4.924462e-01   1.017183e-02
  3.940138e+00    4.770831e-01   1.004088e-02
  3.942349e+00    5.250062e-01   1.056417e-02
  3.944559e+00    4.809989e-01   1.014159e-02
  3.946770e+00    5.167019e-01   1.054220e-02
  3.948980e+00    5.064219e-01   1.046828e-02
  3.951191e+00    4.887862e-01   1.031524e-02
  3.953401e+00    5.022081e-01   1.048776e-02
  3.955612e+00    5.125433e-01   1.062767e-02
  3.957822e+00    4.685391e-01   1.019233e-02
  3.960033e+00    4.804628e-01   1.035358e-02
  3.962243e+00    4.819131e-01   1.040195e-02
  3.964453e+00    4.736001e-01   1.034454e-02
  3.966664e+00    4.800604e-01   1.044803e-02
  3.968874e+00    5.032913e-01   1.072673e-02
  3.971085e+00    4.799343e-01   1.049672e-02
  3.973295e+00    4.830974e-01   1.055263e-02
  3.975506e+00    4.894010e-01   1.064297e-02
  3.977716e+00    5.265963e-01   1.106293e-02
  3.979927e+00    4.924931e-01   1.072097e-02
  3.982137e+00    5.036519e-01   1.086442e-02
  3.984348e+00    4.873592e-01   1.070995e-02
  3.986558e+00    5.157515e-01   1.104042e-02
  3.988768e+00    5.227227e-01   1.113873e-02
  3.990979e+00    4.938060e-01   1.084917e-02
  3.993189e+00    4.894209e-01   1.082409e-02
  3.995400e+00    5.222018e-01   1.120513e-02
  3.997610e+00    5.224100e-01   1.123829e-02
  3.999821e+00    4.994306e-01   1.102648e-02
  4.002031e+00    5.122361e-01   1.120631e-02
  4.004242e+00    5.114437e-01   1.123715e-02
  4.006452e+00    5.331936e-01   1.151499e-02
  4.008663e+00    5.052330e-01   1.124989e-02
  4.010873e+00    5.022463e-01   1.125713e-02
  4.013084e+00    4.901113e-01   1.116167e-02
  4.015294e+00    4.786155e-01   1.107055e-02
  4.017504e+00    4.922633e-01   1.126960e-02
  4.019715e+00    4.804945e-01   1.117638e-02
  4.021925e+00    4.573517e-01   1.094568e-02
  4.024136e+00    4.979091e-01   1.146498e-02
  4.026346e+00    4.682980e-01   1.116228e-02
  4.028557e+00    4.910747e-01   1.147516e-02
  4.030767e+00    4.555852e-01   1.109705e-02
  4.032978e+00    4.407721e-01   1.095924e-02
  4.035188e+00    4.935540e-01   1.164357e-02
  4.037399e+00    5.018739e-01   1.178981e-02
  4.039609e+00    4.966305e-01   1.177642e-02
  4.041819e+00    4.485405e-01   1.123878e-02
  4.044030e+00    4.819143e-01   1.169911e-02
  4.046240e+00    5.053187e-01   1.203087e-02
  4.048451e+00    4.907220e-01   1.190718e-02
  4.050661e+00    4.992359e-01   1.206231e-02
  4.052872e+00    5.161883e-01   1.231996e-02
  4.055082e+00    5.103738e-01   1.230542e-02
  4.057293e+00    4.654060e-01   1.180360e-02
  4.059503e+00    5.107670e-01   1.242163e-02
  4.061714e+00    4.631309e-01   1.188369e-02
  4.063924e+00    4.404928e-01   1.164384e-02
  4.066134e+00    4.587312e-01   1.193822e-02
  4.068345e+00    5.001652e-01   1.252591e-02
  4.070555e+00    4.752231e-01   1.226857e-02
  4.072766e+00    4.492666e-01   1.198744e-02
  4.074976e+00    4.362038e-01   1.187087e-02
  4.077187e+00    4.832062e-01   1.255598e-02
  4.079397e+00    5.232990e-01   1.313343e-02
  4.081608e+00    5.333272e-01   1.332757e-02
  4.083818e+00    4.942631e-01   1.289703e-02
  4.086029e+00    4.967059e-01   1.299692e-02
  4.088239e+00    4.777440e-01   1.281510e-02
  4.090449e+00    4.158413e-01   1.202094e-02
  4.092660e+00    4.745050e-01   1.291135e-02
  4.094870e+00    5.081704e-01   1.343588e-02
  4.097081e+00    5.028241e-01   1.343828e-02
  4.099291e+00    5.056256e-01   1.353156e-02
  4.101502e+00    4.684041e-01   1.307245e-02
  4.103712e+00    4.983585e-01   1.353418e-02
  4.105923e+00    4.683983e-01   1.317199e-02
  4.108133e+00    4.567916e-01   1.305772e-02
  4.110344e+00    4.687942e-01   1.327878e-02
  4.112554e+00    5.054668e-01   1.384293e-02
  4.114764e+00    5.044616e-01   1.388470e-02
  4.116975e+00    5.152431e-01   1.408767e-02
  4.119185e+00    5.039716e-01   1.398921e-02
  4.121396e+00    4.842617e-01   1.376963e-02
  4.123606e+00    5.028526e-01   1.408897e-02
  4.125817e+00    5.292944e-01   1.451520e-02
  4.128027e+00    5.145192e-01   1.437153e-02
  4.130238e+00    5.092741e-01   1.435944e-02
  4.132448e+00    5.028360e-01   1.433019e-02
  4.134659e+00    5.018395e-01   1.437757e-02
  4.136869e+00    5.348901e-01   1.490984e-02
  4.139080e+00    5.231141e-01   1.481105e-02
  4.141290e+00    5.579732e-01   1.536460e-02
  4.143500e+00    4.840719e-01   1.437676e-02
  4.145711e+00    5.081608e-01   1.479902e-02
  4.147921e+00    5.101886e-01   1.489648e-02
  4.150132e+00    4.993223e-01   1.480730e-02
  4.152342e+00    5.024238e-01   1.492539e-02
  4.154553e+00    5.176829e-01   1.522215e-02
  4.156763e+00    5.131556e-01   1.523066e-02
  4.158974e+00    4.555503e-01   1.442245e-02
  4.161184e+00    4.932337e-01   1.508137e-02
  4.163395e+00    4.991572e-01   1.524917e-02
  4.165605e+00    5.188537e-01   1.562805e-02
  4.167815e+00    5.267700e-01   1.582885e-02
  4.170026e+00    5.150320e-01   1.573429e-02
  4.172236e+00    4.769425e-01   1.522300e-02
  4.174447e+00    4.523078e-01   1.490519e-02
  4.176657e+00    4.653152e-01   1.520068e-02
  4.178868e+00    4.749604e-01   1.544440e-02
  4.181078e+00    4.928093e-01   1.582041e-02
  4.183289e+00    4.903242e-01   1.587095e-02
  4.185499e+00    4.958709e-01   1.605438e-02
  4.187710e+00    5.809743e-01   1.747947e-02
  4.189920e+00    4.528733e-01   1.552574e-02
  4.192130e+00    5.020301e-01   1.644615e-02
  4.194341e+00    5.097741e-01   1.667446e-02
  4.196551e+00    4.882295e-01   1.642143e-02
  4.198762e+00    5.102666e-01   1.689455e-02
  4.200972e+00    4.658334e-01   1.624689e-02
  4.203183e+00    4.452977e-01   1.598914e-02
  4.205393e+00    4.157896e-01   1.555338e-02
  4.207604e+00    5.073638e-01   1.729804e-02
  4.209814e+00    5.152593e-01   1.755165e-02
  4.212025e+00    4.725693e-01   1.692816e-02
  4.214235e+00    4.904607e-01   1.736759e-02
  4.216445e+00    5.322813e-01   1.822392e-02
  4.218656e+00    4.285191e-01   1.647400e-02
  4.220866e+00    5.299954e-01   1.845670e-02
  4.223077e+00    4.733627e-01   1.757680e-02
  4.225287e+00    4.642267e-01   1.754345e-02
  4.227498e+00    4.736657e-01   1.785975e-02
  4.229708e+00    4.871175e-01   1.825870e-02
  4.231919e+00    4.906015e-01   1.847585e-02
  4.234129e+00    4.890669e-01   1.860131e-02
  4.236340e+00    5.127325e-01   1.920910e-02
  4.238550e+00    4.986961e-01   1.911174e-02
  4.240761e+00    4.948337e-01   1.920552e-02
  4.242971e+00    4.278144e-01   1.802184e-02
  4.245181e+00    4.100013e-01   1.780750e-02
  4.247392e+00    4.690188e-01   1.922465e-02
  4.249602e+00    4.807657e-01   1.965682e-02
  4.251813e+00    4.818856e-01   1.987457e-02
  4.254023e+00    4.017659e-01   1.832931e-02
  4.256234e+00    5.424249e-01   2.152541e-02
  4.258444e+00    5.203961e-01   2.130452e-02
  4.260655e+00    4.644150e-01   2.034734e-02
  4.262865e+00    5.142806e-01   2.165473e-02
  4.265076e+00    4.512511e-01   2.051488e-02
  4.267286e+00    4.583867e-01   2.092193e-02
  4.269496e+00    4.492968e-01   2.096635e-02
  4.271707e+00    4.024934e-01   2.008888e-02
  4.273917e+00    4.798039e-01   2.221721e-02
  4.276128e+00    3.921952e-01   2.035384e-02
  4.278338e+00    4.858902e-01   2.295734e-02
  4.280549e+00    4.768092e-01   2.306815e-02
  4.282759e+00    3.883909e-01   2.111871e-02
  4.284970e+00    5.272714e-01   2.497021e-02
  4.287180e+00    5.102347e-01   2.485865e-02
  4.289391e+00    4.905273e-01   2.455712e-02
  4.291601e+00    4.919302e-01   2.478734e-02
  4.293811e+00    4.948964e-01   2.505747e-02
  4.296022e+00    4.854825e-01   2.501700e-02
  4.298232e+00    4.570313e-01   2.447626e-02
  4.300443e+00    4.869075e-01   2.547161e-02
  4.302653e+00    4.816841e-01   2.555501e-02
  4.304864e+00    4.630091e-01   2.527043e-02
  4.307074e+00    5.219525e-01   2.707286e-02
  4.309285e+00    4.822536e-01   2.625942e-02
  4.311495e+00    4.260190e-01   2.491225e-02
  4.313706e+00    4.487707e-01   2.580774e-02
  4.315916e+00    4.660084e-01   2.655814e-02
  4.318126e+00    4.281852e-01   2.570925e-02
  4.320337e+00    4.680508e-01   2.715147e-02
  4.322547e+00    4.377127e-01   2.653536e-02
  4.324758e+00    3.700931e-01   2.465422e-02
  4.326968e+00    3.830281e-01   2.536228e-02
  4.329179e+00    5.028555e-01   2.938106e-02
  4.331389e+00    3.997668e-01   2.649892e-02
  4.333600e+00    4.450079e-01   2.829145e-02
  4.335810e+00    4.881606e-01   2.998427e-02
  4.338021e+00    4.865111e-01   3.031668e-02
  4.340231e+00    5.916457e-01   3.385236e-02
  4.342442e+00    4.059385e-01   2.841682e-02
  4.344652e+00    3.897825e-01   2.822355e-02
  4.346862e+00    4.542941e-01   3.089641e-02
  4.349073e+00    4.114481e-01   2.983071e-02
  4.351283e+00    5.295462e-01   3.434842e-02
  4.353494e+00    5.969500e-01   3.703148e-02
  4.355704e+00    4.379301e-01   3.222958e-02
  4.357915e+00    4.717894e-01   3.400805e-02
  4.360125e+00    5.589316e-01   3.764871e-02
  4.362336e+00    4.536010e-01   3.453487e-02
  4.364546e+00    3.977034e-01   3.292376e-02
  4.366757e+00    4.672000e-01   3.639715e-02
  4.368967e+00    4.520654e-01   3.651384e-02
  4.371177e+00    6.293207e-01   4.400074e-02
  4.373388e+00    4.073369e-01   3.619124e-02
  4.375598e+00    4.909766e-01   4.063862e-02
  4.377809e+00    5.418401e-01   4.377368e-02
  4.380019e+00    4.585636e-01   4.128141e-02
  4.382230e+00    3.910854e-01   3.918573e-02
  4.384440e+00    3.759724e-01   3.952961e-02
  4.386651e+00    4.757219e-01   4.583468e-02
  4.388861e+00    2.559997e-01   3.475226e-02
  4.391072e+00    6.275125e-01   5.631635e-02
  4.393282e+00    5.255266e-01   5.353617e-02
  4.395492e+00    5.016815e-01   5.447614e-02
  4.397703e+00    3.080828e-01   4.464588e-02
  4.399913e+00    4.532662e-01   5.688963e-02
  4.402124e+00    2.799551e-01   4.724603e-02
  4.404334e+00    4.433127e-01   6.319440e-02
  4.406545e+00    4.081157e-01   6.514745e-02
  4.408755e+00    3.570372e-01   6.608875e-02
  4.410966e+00    5.051659e-02   2.751987e-02
  4.413176e+00    2.551654e-01   6.998803e-02
  4.415387e+00   -4.726600e-01            nan
  4.417597e+00   -1.900416e+00            nan
  4.419807e+00    2.807437e-01   1.902519e-01
