# == pyFAI calibration ==
# Distance Sample to Detector: 0.216 m
# PONI: 1.166e-01, 1.308e-01 m
# Rotations: 0.000000 0.000000 0.000000 rad
# 
# == Fit2d calibration ==
# Distance Sample-beamCenter: 216.000 mm
# Center: x=1744.293, y=1555.000 pix
# Tilt: 0.000 deg  TiltPlanRot: 0.000 deg
# 
# Detector Eiger 9M	 PixelSize= 7.500e-05, 7.500e-05 m
#    Detector has a mask: True 
#    Detector has a dark current: False 
#    detector has a flat field: False 
# 
# Wavelength: 9.8e-11 m
# Mask applied: from detector
# Dark current applied: False
# Flat field applied: False
# Polarization factor: None
# Normalization factor: 1.0
# 
# Headers of the input frame:
# {
# "_array_data.header_convention": "SLS_1.0",
# "_array_data.header_contents": "# Detector: Dectris Eiger 9M, S/N E-18-0102\r\n# Pixel_size 75e-6 m x 75e-6 m\r\n# Silicon sensor, thickness 0.000450 m\r\n# Exposure_time 0.024997 s\r\n# Exposure_period 0.025000 s\r\n# Count_cutoff 62318 counts\r\n# Wavelength 0.980106 A\r\n# Detector_distance 0.215992 m\r\n# Beam_xy (1555, 1744) pixels\r\n# Start_angle 0.000000 deg.\r\n# Angle_increment 0.000000 deg.",
# "Content-Type": "application/octet-stream;",
# "conversions": "x-CBF_BYTE_OFFSET",
# "Content-Transfer-Encoding": "BINARY",
# "X-Binary-Size": "10166594",
# "X-Binary-ID": "1",
# "X-Binary-Element-Type": "signed 32-bit integer",
# "X-Binary-Element-Byte-Order": "LITTLE_ENDIAN",
# "Content-MD5": "GcN6APofyJSVrjNOkNUcew==",
# "X-Binary-Number-of-Elements": "10166590",
# "X-Binary-Size-Fastest-Dimension": "3110",
# "X-Binary-Size-Second-Dimension": "3269",
# "X-Binary-Size-Padding": "4095"
# }
# --> H:/Proxima2a_2019-04-05/RAW_DATA/C5_gel17_position5/C5_mesh_1_data.cbf/C5_mesh_1_data.cbf000139.dat
#        q_A^-1              I           sigma 
  1.105228e-03    4.218611e-01   3.514566e-01
  3.315685e-03    8.470984e-01   3.027697e-01
  5.526141e-03    1.544692e+00   3.161500e-01
  7.736597e-03    1.412838e+00   2.554268e-01
  9.947054e-03    1.316694e+00   2.173797e-01
  1.215751e-02    1.541027e+00   2.126541e-01
  1.436797e-02    1.629682e+00   2.011534e-01
  1.657842e-02    1.527036e+00   1.812463e-01
  1.878888e-02    1.599118e+00   1.742223e-01
  2.099934e-02    1.571360e+00   1.633954e-01
  2.320979e-02    1.500010e+00   1.518378e-01
  2.542025e-02    1.333996e+00   1.368317e-01
  2.763070e-02    1.398501e+00   1.343760e-01
  2.984116e-02    1.402237e+00   1.294754e-01
  3.205162e-02    1.407469e+00   1.251715e-01
  3.426207e-02    1.400319e+00   1.207503e-01
  3.647253e-02    1.546705e+00   1.229967e-01
  3.868299e-02    1.372299e+00   1.125045e-01
  4.089344e-02    1.256704e+00   1.047122e-01
  4.310390e-02    1.352312e+00   1.057943e-01
  4.531436e-02    1.434608e+00   1.062753e-01
  4.752481e-02    1.430910e+00   1.036395e-01
  4.973527e-02    1.303449e+00   9.669385e-02
  5.194572e-02    1.512379e+00   1.019138e-01
  5.415618e-02    1.509092e+00   9.970035e-02
  5.636664e-02    1.356714e+00   9.266363e-02
  5.857709e-02    1.294139e+00   8.877793e-02
  6.078755e-02    1.447085e+00   9.215191e-02
  6.299801e-02    1.415417e+00   8.952386e-02
  6.520846e-02    1.454889e+00   8.921248e-02
  6.741892e-02    1.470987e+00   8.821740e-02
  6.962938e-02    1.502248e+00   8.772779e-02
  7.183983e-02    1.523262e+00   8.696799e-02
  7.405029e-02    1.541877e+00   8.617993e-02
  7.626074e-02    1.410284e+00   8.121639e-02
  7.847120e-02    1.411859e+00   8.010683e-02
  8.068166e-02    1.465044e+00   8.047551e-02
  8.289211e-02    1.510043e+00   8.060489e-02
  8.510257e-02    1.433973e+00   7.752111e-02
  8.731303e-02    1.489581e+00   7.800038e-02
  8.952348e-02    1.474245e+00   7.663593e-02
  9.173394e-02    1.318874e+00   7.160373e-02
  9.394439e-02    1.397971e+00   7.284474e-02
  9.615485e-02    1.589935e+00   7.678554e-02
  9.836531e-02    1.491113e+00   7.351869e-02
  1.005758e-01    1.538262e+00   7.384729e-02
  1.027862e-01    1.577819e+00   7.398037e-02
  1.049967e-01    1.465653e+00   7.054654e-02
  1.072071e-01    1.414314e+00   6.858097e-02
  1.094176e-01    1.507634e+00   7.008746e-02
  1.116280e-01    1.482467e+00   6.880695e-02
  1.138385e-01    1.473925e+00   6.793771e-02
  1.160490e-01    1.524108e+00   6.842265e-02
  1.182594e-01    1.576305e+00   6.892954e-02
  1.204699e-01    1.589878e+00   6.858712e-02
  1.226803e-01    1.450205e+00   6.490964e-02
  1.248908e-01    1.500503e+00   6.543798e-02
  1.271012e-01    1.570644e+00   6.636395e-02
  1.293117e-01    1.598540e+00   6.637517e-02
  1.315222e-01    1.559712e+00   6.500929e-02
  1.337326e-01    1.520008e+00   6.364270e-02
  1.359431e-01    1.610228e+00   6.554256e-02
  1.381535e-01    1.594651e+00   6.610029e-02
  1.403640e-01    1.584088e+00   6.616545e-02
  1.425744e-01    1.566103e+00   6.589388e-02
  1.447849e-01    1.584182e+00   6.628838e-02
  1.469953e-01    1.577229e+00   6.610134e-02
  1.492058e-01    1.560020e+00   6.566334e-02
  1.514163e-01    1.560011e+00   6.555411e-02
  1.536267e-01    1.624656e+00   6.676795e-02
  1.558372e-01    1.640545e+00   6.694551e-02
  1.580476e-01    1.658785e+00   6.715331e-02
  1.602581e-01    1.619221e+00   6.617913e-02
  1.624685e-01    1.621217e+00   6.603860e-02
  1.646790e-01    1.690977e+00   6.725078e-02
  1.668895e-01    1.685979e+00   6.695737e-02
  1.690999e-01    1.683789e+00   6.671295e-02
  1.713104e-01    1.680729e+00   6.644545e-02
  1.735208e-01    1.767446e+00   6.792610e-02
  1.757313e-01    1.876034e+00   6.976232e-02
  1.779417e-01    1.825736e+00   6.859633e-02
  1.801522e-01    1.888232e+00   6.953831e-02
  1.823626e-01    1.880776e+00   6.916985e-02
  1.845731e-01    1.920979e+00   6.967876e-02
  1.867836e-01    1.991822e+00   7.071251e-02
  1.889940e-01    1.932477e+00   6.942353e-02
  1.912045e-01    1.933463e+00   6.920936e-02
  1.934149e-01    1.947206e+00   6.922243e-02
  1.956254e-01    1.912538e+00   6.837717e-02
  1.978358e-01    2.030862e+00   7.021914e-02
  2.000463e-01    1.994901e+00   6.936405e-02
  2.022568e-01    2.014217e+00   6.947027e-02
  2.044672e-01    2.015712e+00   6.925799e-02
  2.066777e-01    2.049508e+00   6.960437e-02
  2.088881e-01    2.052621e+00   6.942933e-02
  2.110986e-01    1.938340e+00   6.723752e-02
  2.133090e-01    1.961381e+00   6.741609e-02
  2.155195e-01    1.981543e+00   6.753691e-02
  2.177300e-01    1.957436e+00   6.659753e-02
  2.199404e-01    1.932417e+00   6.442697e-02
  2.221509e-01    1.884496e+00   6.257838e-02
  2.243613e-01    1.935413e+00   6.261417e-02
  2.265718e-01    2.037283e+00   6.353281e-02
  2.287822e-01    2.128913e+00   6.430302e-02
  2.309927e-01    2.050540e+00   6.253341e-02
  2.332031e-01    2.130807e+00   6.319996e-02
  2.354136e-01    2.190206e+00   6.355551e-02
  2.376241e-01    2.097512e+00   6.171329e-02
  2.398345e-01    2.171360e+00   6.232557e-02
  2.420450e-01    2.174359e+00   6.192290e-02
  2.442554e-01    2.171397e+00   6.145439e-02
  2.464659e-01    2.122672e+00   6.035305e-02
  2.486763e-01    2.116125e+00   5.986378e-02
  2.508868e-01    2.093138e+00   5.916217e-02
  2.530973e-01    2.156559e+00   5.967945e-02
  2.553077e-01    2.110346e+00   5.867846e-02
  2.575182e-01    2.106183e+00   5.827372e-02
  2.597286e-01    2.108431e+00   5.796589e-02
  2.619391e-01    2.082567e+00   5.727759e-02
  2.641495e-01    1.990411e+00   5.568603e-02
  2.663600e-01    2.082897e+00   5.665181e-02
  2.685704e-01    2.067156e+00   5.613143e-02
  2.707809e-01    2.070974e+00   5.588502e-02
  2.729914e-01    2.024279e+00   5.496348e-02
  2.752018e-01    1.928885e+00   5.337351e-02
  2.774123e-01    2.043560e+00   5.465654e-02
  2.796227e-01    1.997093e+00   5.376430e-02
  2.818332e-01    2.020632e+00   5.381044e-02
  2.840436e-01    1.945041e+00   5.253844e-02
  2.862541e-01    1.938483e+00   5.219764e-02
  2.884646e-01    1.986133e+00   5.258454e-02
  2.906750e-01    1.943766e+00   5.177402e-02
  2.928855e-01    1.912615e+00   5.111950e-02
  2.950959e-01    1.949065e+00   5.136726e-02
  2.973064e-01    1.939196e+00   5.100677e-02
  2.995168e-01    1.946921e+00   5.087680e-02
  3.017273e-01    1.890670e+00   4.991539e-02
  3.039377e-01    1.952033e+00   5.049684e-02
  3.061482e-01    1.920147e+00   4.986610e-02
  3.083587e-01    1.926526e+00   4.973263e-02
  3.105691e-01    1.858055e+00   4.863226e-02
  3.127796e-01    1.878672e+00   4.869573e-02
  3.149900e-01    1.928295e+00   4.912909e-02
  3.172005e-01    1.933772e+00   4.899767e-02
  3.194109e-01    1.832234e+00   4.749705e-02
  3.216214e-01    1.821330e+00   4.716227e-02
  3.238319e-01    1.876444e+00   4.768085e-02
  3.260423e-01    1.861988e+00   4.730767e-02
  3.282528e-01    1.845851e+00   4.691470e-02
  3.304632e-01    1.881074e+00   4.717673e-02
  3.326737e-01    1.845658e+00   4.654818e-02
  3.348841e-01    1.859561e+00   4.654200e-02
  3.370946e-01    1.873551e+00   4.654095e-02
  3.393050e-01    1.929315e+00   4.704959e-02
  3.415155e-01    1.882589e+00   4.630163e-02
  3.437260e-01    1.748506e+00   4.445691e-02
  3.459364e-01    1.760859e+00   4.444864e-02
  3.481469e-01    1.787569e+00   4.462101e-02
  3.503573e-01    1.822164e+00   4.488661e-02
  3.525678e-01    1.805889e+00   4.452646e-02
  3.547782e-01    1.826867e+00   4.462246e-02
  3.569887e-01    1.846138e+00   4.469827e-02
  3.591992e-01    1.817077e+00   4.418815e-02
  3.614096e-01    1.770246e+00   4.346379e-02
  3.636201e-01    1.780839e+00   4.344042e-02
  3.658305e-01    1.850992e+00   4.413673e-02
  3.680410e-01    1.784302e+00   4.318531e-02
  3.702514e-01    1.774999e+00   4.292771e-02
  3.724619e-01    1.764316e+00   4.265260e-02
  3.746724e-01    1.750846e+00   4.234769e-02
  3.768828e-01    1.776316e+00   4.251106e-02
  3.790933e-01    1.818378e+00   4.287128e-02
  3.813037e-01    1.768778e+00   4.214421e-02
  3.835142e-01    1.810861e+00   4.250254e-02
  3.857246e-01    1.797655e+00   4.221026e-02
  3.879351e-01    1.777060e+00   4.183190e-02
  3.901455e-01    1.820806e+00   4.220888e-02
  3.923560e-01    1.800225e+00   4.183625e-02
  3.945665e-01    1.775015e+00   4.141055e-02
  3.967769e-01    1.804155e+00   4.161832e-02
  3.989874e-01    1.770125e+00   4.109526e-02
  4.011978e-01    1.741474e+00   4.063594e-02
  4.034083e-01    1.845875e+00   4.170784e-02
  4.056187e-01    1.798792e+00   4.104566e-02
  4.078292e-01    1.772469e+00   4.062093e-02
  4.100397e-01    1.768017e+00   4.044599e-02
  4.122501e-01    1.825200e+00   4.097191e-02
  4.144606e-01    1.807407e+00   4.065083e-02
  4.166710e-01    1.811830e+00   4.057950e-02
  4.188815e-01    1.830674e+00   4.066950e-02
  4.210919e-01    1.816202e+00   4.038971e-02
  4.233024e-01    1.799666e+00   4.008717e-02
  4.255128e-01    1.817869e+00   4.017292e-02
  4.277233e-01    1.735183e+00   3.913591e-02
  4.299338e-01    1.718549e+00   3.883576e-02
  4.321442e-01    1.759335e+00   3.918149e-02
  4.343547e-01    1.729850e+00   3.874191e-02
  4.365651e-01    1.775983e+00   3.914357e-02
  4.387756e-01    1.788354e+00   3.916970e-02
  4.409860e-01    1.772041e+00   3.888262e-02
  4.431965e-01    1.703110e+00   3.801347e-02
  4.454070e-01    1.748773e+00   3.841251e-02
  4.476174e-01    1.741233e+00   3.822438e-02
  4.498279e-01    1.707588e+00   3.775029e-02
  4.520383e-01    1.727782e+00   3.786864e-02
  4.542488e-01    1.720433e+00   3.768612e-02
  4.564592e-01    1.684559e+00   3.719110e-02
  4.586697e-01    1.729100e+00   3.757955e-02
  4.608801e-01    1.710360e+00   3.727527e-02
  4.630906e-01    1.721422e+00   3.729657e-02
  4.653011e-01    1.736606e+00   3.736221e-02
  4.675115e-01    1.759168e+00   3.750508e-02
  4.697220e-01    1.760150e+00   3.741735e-02
  4.719324e-01    1.684659e+00   3.651146e-02
  4.741429e-01    1.722064e+00   3.681945e-02
  4.763533e-01    1.709206e+00   3.658771e-02
  4.785638e-01    1.702072e+00   3.641694e-02
  4.807743e-01    1.718585e+00   3.650010e-02
  4.829847e-01    1.751836e+00   3.675842e-02
  4.851952e-01    1.727383e+00   3.640862e-02
  4.874056e-01    1.685037e+00   3.586891e-02
  4.896161e-01    1.709594e+00   3.603971e-02
  4.918265e-01    1.717124e+00   3.602933e-02
  4.940370e-01    1.703417e+00   3.579662e-02
  4.962475e-01    1.703449e+00   3.570857e-02
  4.984579e-01    1.701253e+00   3.559758e-02
  5.006684e-01    1.668596e+00   3.516832e-02
  5.028788e-01    1.679469e+00   3.519722e-02
  5.050893e-01    1.609634e+00   3.437388e-02
  5.072997e-01    1.614707e+00   3.434481e-02
  5.095102e-01    1.686128e+00   3.501212e-02
  5.117206e-01    1.674414e+00   3.480734e-02
  5.139311e-01    1.658932e+00   3.456404e-02
  5.161416e-01    1.662953e+00   3.452414e-02
  5.183520e-01    1.604417e+00   3.383048e-02
  5.205625e-01    1.592172e+00   3.362218e-02
  5.227729e-01    1.651139e+00   3.415926e-02
  5.249834e-01    1.682231e+00   3.439935e-02
  5.271938e-01    1.670163e+00   3.419574e-02
  5.294043e-01    1.733783e+00   3.476056e-02
  5.316148e-01    1.764889e+00   3.499066e-02
  5.338252e-01    1.799974e+00   3.525602e-02
  5.360357e-01    1.749463e+00   3.467868e-02
  5.382461e-01    1.737484e+00   3.448163e-02
  5.404566e-01    1.746244e+00   3.448976e-02
  5.426670e-01    1.762897e+00   3.457576e-02
  5.448775e-01    1.715718e+00   3.403376e-02
  5.470879e-01    1.685293e+00   3.365541e-02
  5.492984e-01    1.778676e+00   3.449838e-02
  5.515089e-01    1.797140e+00   3.460008e-02
  5.537193e-01    1.760994e+00   3.417492e-02
  5.559298e-01    1.764196e+00   3.413092e-02
  5.581402e-01    1.800093e+00   3.440108e-02
  5.603507e-01    1.821840e+00   3.453295e-02
  5.625611e-01    1.811160e+00   3.435685e-02
  5.647716e-01    1.877909e+00   3.490826e-02
  5.669821e-01    1.829306e+00   3.437931e-02
  5.691925e-01    1.765271e+00   3.369971e-02
  5.714030e-01    1.784586e+00   3.381134e-02
  5.736134e-01    1.737718e+00   3.329346e-02
  5.758239e-01    1.701214e+00   3.287156e-02
  5.780343e-01    1.723433e+00   3.301555e-02
  5.802448e-01    1.718220e+00   3.289658e-02
  5.824552e-01    1.671227e+00   3.237552e-02
  5.846657e-01    1.684386e+00   3.243498e-02
  5.868762e-01    1.668104e+00   3.221064e-02
  5.890866e-01    1.644864e+00   3.191910e-02
  5.912971e-01    1.647338e+00   3.187695e-02
  5.935075e-01    1.679181e+00   3.211708e-02
  5.957180e-01    1.613350e+00   3.141663e-02
  5.979284e-01    1.634404e+00   3.155639e-02
  6.001389e-01    1.662127e+00   3.175810e-02
  6.023494e-01    1.652255e+00   3.159936e-02
  6.045598e-01    1.629724e+00   3.131927e-02
  6.067703e-01    1.657995e+00   3.152622e-02
  6.089807e-01    1.650304e+00   3.138978e-02
  6.111912e-01    1.676877e+00   3.157830e-02
  6.134016e-01    1.644783e+00   3.121229e-02
  6.156121e-01    1.694425e+00   3.161681e-02
  6.178226e-01    1.684799e+00   3.146448e-02
  6.200330e-01    1.691085e+00   3.146091e-02
  6.222435e-01    1.744948e+00   3.189474e-02
  6.244539e-01    1.716396e+00   3.157079e-02
  6.266644e-01    1.681473e+00   3.118700e-02
  6.288748e-01    1.721522e+00   3.149477e-02
  6.310853e-01    1.754521e+00   3.173349e-02
  6.332957e-01    1.706546e+00   3.123619e-02
  6.355062e-01    1.669525e+00   3.083550e-02
  6.377167e-01    1.678552e+00   3.085942e-02
  6.399271e-01    1.698216e+00   3.098018e-02
  6.421376e-01    1.711395e+00   3.104080e-02
  6.443480e-01    1.667506e+00   3.058190e-02
  6.465585e-01    1.704525e+00   3.086093e-02
  6.487689e-01    1.723509e+00   3.097371e-02
  6.509794e-01    1.656741e+00   3.031056e-02
  6.531899e-01    1.612519e+00   2.984707e-02
  6.554003e-01    1.613525e+00   2.980021e-02
  6.576108e-01    1.623956e+00   2.984076e-02
  6.598212e-01    1.607876e+00   2.963746e-02
  6.620317e-01    1.624662e+00   2.973655e-02
  6.642421e-01    1.594522e+00   2.940492e-02
  6.664526e-01    1.608794e+00   2.948180e-02
  6.686630e-01    1.622234e+00   2.954996e-02
  6.708735e-01    1.615454e+00   2.943407e-02
  6.730840e-01    1.604945e+00   2.928467e-02
  6.752944e-01    1.606524e+00   2.924579e-02
  6.775049e-01    1.631950e+00   2.942279e-02
  6.797153e-01    1.600298e+00   2.908332e-02
  6.819258e-01    1.572746e+00   2.877985e-02
  6.841362e-01    1.588444e+00   2.887112e-02
  6.863467e-01    1.609637e+00   2.901104e-02
  6.885572e-01    1.584038e+00   2.872785e-02
  6.907676e-01    1.627364e+00   2.906588e-02
  6.929781e-01    1.634856e+00   2.908096e-02
  6.951885e-01    1.590896e+00   2.863650e-02
  6.973990e-01    1.617152e+00   2.882077e-02
  6.996094e-01    1.614353e+00   2.874519e-02
  7.018199e-01    1.576030e+00   2.835209e-02
  7.040303e-01    1.562962e+00   2.818469e-02
  7.062408e-01    1.588967e+00   2.836842e-02
  7.084513e-01    1.581107e+00   2.824895e-02
  7.106617e-01    1.588565e+00   2.826630e-02
  7.128722e-01    1.591935e+00   2.824731e-02
  7.150826e-01    1.626244e+00   2.850087e-02
  7.172931e-01    1.598940e+00   2.821188e-02
  7.195035e-01    1.548388e+00   2.771459e-02
  7.217140e-01    1.581326e+00   2.805737e-02
  7.239245e-01    1.588223e+00   2.834620e-02
  7.261349e-01    1.618116e+00   2.872183e-02
  7.283454e-01    1.585809e+00   2.850632e-02
  7.305558e-01    1.585275e+00   2.855569e-02
  7.327663e-01    1.560454e+00   2.837355e-02
  7.349767e-01    1.578156e+00   2.855044e-02
  7.371872e-01    1.558247e+00   2.835865e-02
  7.393976e-01    1.551029e+00   2.827875e-02
  7.416081e-01    1.524352e+00   2.801859e-02
  7.438186e-01    1.540056e+00   2.801981e-02
  7.460290e-01    1.558239e+00   2.789203e-02
  7.482395e-01    1.583272e+00   2.794355e-02
  7.504499e-01    1.579996e+00   2.777811e-02
  7.526604e-01    1.571946e+00   2.759082e-02
  7.548708e-01    1.530441e+00   2.713598e-02
  7.570813e-01    1.601173e+00   2.770454e-02
  7.592918e-01    1.587416e+00   2.754999e-02
  7.615022e-01    1.590722e+00   2.754465e-02
  7.637127e-01    1.615654e+00   2.772650e-02
  7.659231e-01    1.595452e+00   2.752038e-02
  7.681336e-01    1.597742e+00   2.750830e-02
  7.703440e-01    1.583807e+00   2.735677e-02
  7.725545e-01    1.566180e+00   2.717330e-02
  7.747650e-01    1.612464e+00   2.753323e-02
  7.769754e-01    1.621265e+00   2.755482e-02
  7.791859e-01    1.581020e+00   2.715709e-02
  7.813963e-01    1.581575e+00   2.710922e-02
  7.836068e-01    1.577650e+00   2.702366e-02
  7.858172e-01    1.607518e+00   2.722727e-02
  7.880277e-01    1.598098e+00   2.709575e-02
  7.902381e-01    1.578094e+00   2.687669e-02
  7.924486e-01    1.583741e+00   2.687488e-02
  7.946591e-01    1.581066e+00   2.680415e-02
  7.968695e-01    1.620571e+00   2.708841e-02
  7.990800e-01    1.625357e+00   2.707990e-02
  8.012904e-01    1.607845e+00   2.688703e-02
  8.035009e-01    1.613993e+00   2.689045e-02
  8.057113e-01    1.596511e+00   2.669819e-02
  8.079218e-01    1.618373e+00   2.683395e-02
  8.101323e-01    1.614331e+00   2.675494e-02
  8.123427e-01    1.635941e+00   2.688749e-02
  8.145532e-01    1.661777e+00   2.705260e-02
  8.167636e-01    1.682678e+00   2.717642e-02
  8.189741e-01    1.671401e+00   2.704007e-02
  8.211845e-01    1.648775e+00   2.681141e-02
  8.233950e-01    1.619247e+00   2.652702e-02
  8.256054e-01    1.661243e+00   2.682429e-02
  8.278159e-01    1.638081e+00   2.659267e-02
  8.300264e-01    1.652577e+00   2.666679e-02
  8.322368e-01    1.640669e+00   2.652740e-02
  8.344473e-01    1.605801e+00   2.620105e-02
  8.366577e-01    1.619910e+00   2.627358e-02
  8.388682e-01    1.634827e+00   2.635208e-02
  8.410786e-01    1.636477e+00   2.632336e-02
  8.432891e-01    1.631863e+00   2.624447e-02
  8.454996e-01    1.610970e+00   2.603464e-02
  8.477100e-01    1.634536e+00   2.618276e-02
  8.499205e-01    1.645793e+00   2.623151e-02
  8.521309e-01    1.668913e+00   2.637393e-02
  8.543414e-01    1.667967e+00   2.632529e-02
  8.565518e-01    1.655870e+00   2.618886e-02
  8.587623e-01    1.613765e+00   2.581348e-02
  8.609727e-01    1.636814e+00   2.595687e-02
  8.631832e-01    1.597076e+00   2.560030e-02
  8.653937e-01    1.624638e+00   2.578059e-02
  8.676041e-01    1.634460e+00   2.581938e-02
  8.698146e-01    1.588423e+00   2.541427e-02
  8.720250e-01    1.581233e+00   2.531803e-02
  8.742355e-01    1.595124e+00   2.539028e-02
  8.764459e-01    1.608503e+00   2.545764e-02
  8.786564e-01    1.592495e+00   2.529291e-02
  8.808669e-01    1.544216e+00   2.486878e-02
  8.830773e-01    1.589587e+00   2.519349e-02
  8.852878e-01    1.607275e+00   2.529529e-02
  8.874982e-01    1.609109e+00   2.527299e-02
  8.897087e-01    1.604972e+00   2.520276e-02
  8.919191e-01    1.576017e+00   2.493691e-02
  8.941296e-01    1.595117e+00   2.505033e-02
  8.963401e-01    1.593564e+00   2.500180e-02
  8.985505e-01    1.575721e+00   2.482473e-02
  9.007610e-01    1.580877e+00   2.482882e-02
  9.029714e-01    1.560207e+00   2.463055e-02
  9.051819e-01    1.596609e+00   2.487906e-02
  9.073923e-01    1.598280e+00   2.485553e-02
  9.096028e-01    1.581199e+00   2.468763e-02
  9.118132e-01    1.586116e+00   2.468994e-02
  9.140237e-01    1.548279e+00   2.435763e-02
  9.162342e-01    1.589064e+00   2.464190e-02
  9.184446e-01    1.592477e+00   2.463271e-02
  9.206551e-01    1.564696e+00   2.438170e-02
  9.228655e-01    1.562331e+00   2.432845e-02
  9.250760e-01    1.556993e+00   2.425197e-02
  9.272864e-01    1.594202e+00   2.450589e-02
  9.294969e-01    1.591353e+00   2.444830e-02
  9.317074e-01    1.622787e+00   2.465370e-02
  9.339178e-01    1.609532e+00   2.451927e-02
  9.361283e-01    1.626507e+00   2.461189e-02
  9.383387e-01    1.629068e+00   2.459776e-02
  9.405492e-01    1.652879e+00   2.474227e-02
  9.427596e-01    1.630897e+00   2.454183e-02
  9.449701e-01    1.624487e+00   2.446025e-02
  9.471805e-01    1.687280e+00   2.489320e-02
  9.493910e-01    1.676301e+00   2.477804e-02
  9.516015e-01    1.678715e+00   2.476126e-02
  9.538119e-01    1.680350e+00   2.473936e-02
  9.560224e-01    1.701768e+00   2.486148e-02
  9.582328e-01    1.719163e+00   2.495470e-02
  9.604433e-01    1.750191e+00   2.514323e-02
  9.626537e-01    1.755841e+00   2.514994e-02
  9.648642e-01    1.748049e+00   2.505967e-02
  9.670747e-01    1.829883e+00   2.560418e-02
  9.692851e-01    1.820686e+00   2.550583e-02
  9.714956e-01    1.840130e+00   2.560549e-02
  9.737060e-01    1.853738e+00   2.566626e-02
  9.759165e-01    1.837247e+00   2.551579e-02
  9.781269e-01    1.857522e+00   2.562265e-02
  9.803374e-01    1.879124e+00   2.573554e-02
  9.825478e-01    1.866502e+00   2.561516e-02
  9.847583e-01    1.817507e+00   2.524239e-02
  9.869688e-01    1.798050e+00   2.507331e-02
  9.891792e-01    1.795811e+00   2.502439e-02
  9.913897e-01    1.771226e+00   2.481898e-02
  9.936001e-01    1.717084e+00   2.440471e-02
  9.958106e-01    1.702569e+00   2.426831e-02
  9.980210e-01    1.681392e+00   2.408560e-02
  1.000231e+00    1.647210e+00   2.397013e-02
  1.002442e+00    1.593405e+00   2.370065e-02
  1.004652e+00    1.607808e+00   2.387394e-02
  1.006863e+00    1.601643e+00   2.387757e-02
  1.009073e+00    1.591079e+00   2.383511e-02
  1.011284e+00    1.615276e+00   2.404777e-02
  1.013494e+00    1.655091e+00   2.436650e-02
  1.015705e+00    1.643200e+00   2.430176e-02
  1.017915e+00    1.632752e+00   2.424106e-02
  1.020126e+00    1.626122e+00   2.420815e-02
  1.022336e+00    1.577155e+00   2.385264e-02
  1.024547e+00    1.537978e+00   2.356569e-02
  1.026757e+00    1.513721e+00   2.338737e-02
  1.028967e+00    1.539003e+00   2.358953e-02
  1.031178e+00    1.541734e+00   2.361664e-02
  1.033388e+00    1.515413e+00   2.341923e-02
  1.035599e+00    1.504102e+00   2.333503e-02
  1.037809e+00    1.537982e+00   2.359965e-02
  1.040020e+00    1.551413e+00   2.370376e-02
  1.042230e+00    1.578004e+00   2.390801e-02
  1.044441e+00    1.590074e+00   2.399905e-02
  1.046651e+00    1.561920e+00   2.378582e-02
  1.048862e+00    1.563526e+00   2.379722e-02
  1.051072e+00    1.557968e+00   2.375251e-02
  1.053282e+00    1.549813e+00   2.368928e-02
  1.055493e+00    1.560225e+00   2.376433e-02
  1.057703e+00    1.540230e+00   2.361003e-02
  1.059914e+00    1.511024e+00   2.338083e-02
  1.062124e+00    1.466489e+00   2.302966e-02
  1.064335e+00    1.458379e+00   2.296248e-02
  1.066545e+00    1.473244e+00   2.307323e-02
  1.068756e+00    1.491875e+00   2.321491e-02
  1.070966e+00    1.464880e+00   2.299743e-02
  1.073177e+00    1.456267e+00   2.292368e-02
  1.075387e+00    1.458608e+00   2.293690e-02
  1.077597e+00    1.452051e+00   2.287807e-02
  1.079808e+00    1.437234e+00   2.262953e-02
  1.082018e+00    1.457391e+00   2.259895e-02
  1.084229e+00    1.452280e+00   2.244956e-02
  1.086439e+00    1.436922e+00   2.224365e-02
  1.088650e+00    1.472849e+00   2.244385e-02
  1.090860e+00    1.487562e+00   2.248729e-02
  1.093071e+00    1.462473e+00   2.223442e-02
  1.095281e+00    1.439191e+00   2.199960e-02
  1.097492e+00    1.457824e+00   2.208641e-02
  1.099702e+00    1.459354e+00   2.204627e-02
  1.101912e+00    1.416228e+00   2.166964e-02
  1.104123e+00    1.393536e+00   2.144780e-02
  1.106333e+00    1.391845e+00   2.139102e-02
  1.108544e+00    1.387837e+00   2.131658e-02
  1.110754e+00    1.415413e+00   2.148447e-02
  1.112965e+00    1.413807e+00   2.143187e-02
  1.115175e+00    1.397507e+00   2.126711e-02
  1.117386e+00    1.410293e+00   2.132498e-02
  1.119596e+00    1.378386e+00   2.104495e-02
  1.121807e+00    1.389320e+00   2.108972e-02
  1.124017e+00    1.406821e+00   2.118548e-02
  1.126228e+00    1.390564e+00   2.102717e-02
  1.128438e+00    1.384597e+00   2.094543e-02
  1.130648e+00    1.391206e+00   2.096116e-02
  1.132859e+00    1.357277e+00   2.067010e-02
  1.135069e+00    1.353203e+00   2.060481e-02
  1.137280e+00    1.380534e+00   2.077896e-02
  1.139490e+00    1.389834e+00   2.081576e-02
  1.141701e+00    1.373799e+00   2.066234e-02
  1.143911e+00    1.381958e+00   2.069175e-02
  1.146122e+00    1.393304e+00   2.074437e-02
  1.148332e+00    1.389320e+00   2.068270e-02
  1.150543e+00    1.350724e+00   2.036286e-02
  1.152753e+00    1.354637e+00   2.036171e-02
  1.154963e+00    1.354685e+00   2.033127e-02
  1.157174e+00    1.356156e+00   2.031231e-02
  1.159384e+00    1.368835e+00   2.037725e-02
  1.161595e+00    1.344407e+00   2.016502e-02
  1.163805e+00    1.355500e+00   2.021894e-02
  1.166016e+00    1.351191e+00   2.015751e-02
  1.168226e+00    1.380985e+00   2.034944e-02
  1.170437e+00    1.367331e+00   2.021995e-02
  1.172647e+00    1.348117e+00   2.004867e-02
  1.174858e+00    1.361651e+00   2.012098e-02
  1.177068e+00    1.344724e+00   1.996748e-02
  1.179278e+00    1.331771e+00   1.984281e-02
  1.181489e+00    1.337175e+00   1.985624e-02
  1.183699e+00    1.346653e+00   1.989901e-02
  1.185910e+00    1.358782e+00   1.996067e-02
  1.188120e+00    1.380198e+00   2.009042e-02
  1.190331e+00    1.381154e+00   2.007039e-02
  1.192541e+00    1.347559e+00   1.979747e-02
  1.194752e+00    1.340710e+00   1.972016e-02
  1.196962e+00    1.340336e+00   1.969179e-02
  1.199173e+00    1.340156e+00   1.966405e-02
  1.201383e+00    1.345891e+00   1.967896e-02
  1.203593e+00    1.330014e+00   1.953792e-02
  1.205804e+00    1.357115e+00   1.970998e-02
  1.208014e+00    1.353086e+00   1.965383e-02
  1.210225e+00    1.352052e+00   1.962096e-02
  1.212435e+00    1.346300e+00   1.955443e-02
  1.214646e+00    1.356650e+00   1.960328e-02
  1.216856e+00    1.336025e+00   1.942835e-02
  1.219067e+00    1.333652e+00   1.938677e-02
  1.221277e+00    1.354235e+00   1.951073e-02
  1.223488e+00    1.337316e+00   1.936287e-02
  1.225698e+00    1.331710e+00   1.929549e-02
  1.227909e+00    1.354967e+00   1.943304e-02
  1.230119e+00    1.340299e+00   1.929583e-02
  1.232329e+00    1.347991e+00   1.932041e-02
  1.234540e+00    1.369299e+00   1.944203e-02
  1.236750e+00    1.345411e+00   1.924148e-02
  1.238961e+00    1.348318e+00   1.923529e-02
  1.241171e+00    1.339140e+00   1.914564e-02
  1.243382e+00    1.332716e+00   1.907630e-02
  1.245592e+00    1.321012e+00   1.896851e-02
  1.247803e+00    1.333671e+00   1.903566e-02
  1.250013e+00    1.357790e+00   1.918341e-02
  1.252224e+00    1.353894e+00   1.913259e-02
  1.254434e+00    1.356044e+00   1.912397e-02
  1.256644e+00    1.357364e+00   1.911001e-02
  1.258855e+00    1.368557e+00   1.916521e-02
  1.261065e+00    1.365570e+00   1.912078e-02
  1.263276e+00    1.368306e+00   1.911684e-02
  1.265486e+00    1.374455e+00   1.913664e-02
  1.267697e+00    1.383892e+00   1.917895e-02
  1.269907e+00    1.345665e+00   1.888953e-02
  1.272118e+00    1.351384e+00   1.890704e-02
  1.274328e+00    1.349987e+00   1.887453e-02
  1.276539e+00    1.327385e+00   1.869327e-02
  1.278749e+00    1.340278e+00   1.876162e-02
  1.280959e+00    1.341248e+00   1.874596e-02
  1.283170e+00    1.366998e+00   1.890247e-02
  1.285380e+00    1.375426e+00   1.893800e-02
  1.287591e+00    1.350107e+00   1.874085e-02
  1.289801e+00    1.334899e+00   1.861390e-02
  1.292012e+00    1.322549e+00   1.851066e-02
  1.294222e+00    1.339208e+00   1.861071e-02
  1.296433e+00    1.358745e+00   1.873031e-02
  1.298643e+00    1.361323e+00   1.873154e-02
  1.300854e+00    1.357331e+00   1.868760e-02
  1.303064e+00    1.338819e+00   1.854058e-02
  1.305274e+00    1.362090e+00   1.867947e-02
  1.307485e+00    1.359038e+00   1.863694e-02
  1.309695e+00    1.342473e+00   1.850082e-02
  1.311906e+00    1.340841e+00   1.846793e-02
  1.314116e+00    1.380061e+00   1.871506e-02
  1.316327e+00    1.379829e+00   1.869157e-02
  1.318537e+00    1.363618e+00   1.855945e-02
  1.320748e+00    1.357420e+00   1.849561e-02
  1.322958e+00    1.354439e+00   1.845473e-02
  1.325169e+00    1.393643e+00   1.869854e-02
  1.327379e+00    1.390723e+00   1.865682e-02
  1.329589e+00    1.391727e+00   1.864217e-02
  1.331800e+00    1.381288e+00   1.855118e-02
  1.334010e+00    1.360402e+00   1.838967e-02
  1.336221e+00    1.366573e+00   1.840943e-02
  1.338431e+00    1.354027e+00   1.830384e-02
  1.340642e+00    1.354694e+00   1.837262e-02
  1.342852e+00    1.354796e+00   1.847416e-02
  1.345063e+00    1.357664e+00   1.854333e-02
  1.347273e+00    1.403918e+00   1.889250e-02
  1.349484e+00    1.378221e+00   1.874678e-02
  1.351694e+00    1.380071e+00   1.878229e-02
  1.353905e+00    1.393490e+00   1.889168e-02
  1.356115e+00    1.395411e+00   1.892000e-02
  1.358325e+00    1.390138e+00   1.889774e-02
  1.360536e+00    1.365426e+00   1.874070e-02
  1.362746e+00    1.372868e+00   1.880135e-02
  1.364957e+00    1.376859e+00   1.883639e-02
  1.367167e+00    1.363048e+00   1.874891e-02
  1.369378e+00    1.353713e+00   1.869058e-02
  1.371588e+00    1.386560e+00   1.892123e-02
  1.373799e+00    1.366081e+00   1.878467e-02
  1.376009e+00    1.373929e+00   1.884200e-02
  1.378220e+00    1.340047e+00   1.861077e-02
  1.380430e+00    1.335988e+00   1.858525e-02
  1.382640e+00    1.352538e+00   1.870092e-02
  1.384851e+00    1.326154e+00   1.851854e-02
  1.387061e+00    1.298591e+00   1.832534e-02
  1.389272e+00    1.306370e+00   1.838036e-02
  1.391482e+00    1.314611e+00   1.843756e-02
  1.393693e+00    1.336025e+00   1.858623e-02
  1.395903e+00    1.315619e+00   1.844225e-02
  1.398114e+00    1.312451e+00   1.841863e-02
  1.400324e+00    1.279261e+00   1.818212e-02
  1.402535e+00    1.275419e+00   1.815247e-02
  1.404745e+00    1.269230e+00   1.810602e-02
  1.406955e+00    1.309279e+00   1.838669e-02
  1.409166e+00    1.335299e+00   1.856517e-02
  1.411376e+00    1.263925e+00   1.805906e-02
  1.413587e+00    1.258902e+00   1.801933e-02
  1.415797e+00    1.276946e+00   1.814446e-02
  1.418008e+00    1.282322e+00   1.814055e-02
  1.420218e+00    1.241455e+00   1.770113e-02
  1.422429e+00    1.242902e+00   1.762700e-02
  1.424639e+00    1.266552e+00   1.772933e-02
  1.426850e+00    1.281453e+00   1.777837e-02
  1.429060e+00    1.275809e+00   1.769009e-02
  1.431270e+00    1.255640e+00   1.750564e-02
  1.433481e+00    1.240493e+00   1.735926e-02
  1.435691e+00    1.249078e+00   1.738109e-02
  1.437902e+00    1.259106e+00   1.741444e-02
  1.440112e+00    1.257494e+00   1.736810e-02
  1.442323e+00    1.283853e+00   1.751595e-02
  1.444533e+00    1.308272e+00   1.764874e-02
  1.446744e+00    1.283237e+00   1.744776e-02
  1.448954e+00    1.264079e+00   1.728691e-02
  1.451165e+00    1.276840e+00   1.734410e-02
  1.453375e+00    1.278517e+00   1.732736e-02
  1.455586e+00    1.267530e+00   1.722460e-02
  1.457796e+00    1.242506e+00   1.702653e-02
  1.460006e+00    1.238123e+00   1.696954e-02
  1.462217e+00    1.252537e+00   1.704200e-02
  1.464427e+00    1.264941e+00   1.710062e-02
  1.466638e+00    1.265745e+00   1.708077e-02
  1.468848e+00    1.265885e+00   1.705640e-02
  1.471059e+00    1.271236e+00   1.706732e-02
  1.473269e+00    1.272831e+00   1.705359e-02
  1.475480e+00    1.243872e+00   1.683498e-02
  1.477690e+00    1.243953e+00   1.681189e-02
  1.479901e+00    1.276897e+00   1.700911e-02
  1.482111e+00    1.278432e+00   1.699595e-02
  1.484321e+00    1.273275e+00   1.693844e-02
  1.486532e+00    1.252552e+00   1.677784e-02
  1.488742e+00    1.249577e+00   1.673537e-02
  1.490953e+00    1.264938e+00   1.681532e-02
  1.493163e+00    1.282398e+00   1.690852e-02
  1.495374e+00    1.258490e+00   1.672873e-02
  1.497584e+00    1.258048e+00   1.670416e-02
  1.499795e+00    1.246751e+00   1.660746e-02
  1.502005e+00    1.249966e+00   1.660726e-02
  1.504216e+00    1.237472e+00   1.650321e-02
  1.506426e+00    1.240848e+00   1.650502e-02
  1.508636e+00    1.254696e+00   1.657644e-02
  1.510847e+00    1.252695e+00   1.654144e-02
  1.513057e+00    1.255581e+00   1.653539e-02
  1.515268e+00    1.242167e+00   1.642125e-02
  1.517478e+00    1.252666e+00   1.646534e-02
  1.519689e+00    1.256148e+00   1.646325e-02
  1.521899e+00    1.225931e+00   1.624118e-02
  1.524110e+00    1.267379e+00   1.649297e-02
  1.526320e+00    1.269930e+00   1.648987e-02
  1.528531e+00    1.242641e+00   1.629202e-02
  1.530741e+00    1.255406e+00   1.635630e-02
  1.532951e+00    1.240204e+00   1.623747e-02
  1.535162e+00    1.228722e+00   1.624799e-02
  1.537372e+00    1.249659e+00   1.645274e-02
  1.539583e+00    1.268555e+00   1.661120e-02
  1.541793e+00    1.269513e+00   1.662446e-02
  1.544004e+00    1.265472e+00   1.659826e-02
  1.546214e+00    1.245655e+00   1.646629e-02
  1.548425e+00    1.227382e+00   1.634531e-02
  1.550635e+00    1.230105e+00   1.637306e-02
  1.552846e+00    1.218867e+00   1.630764e-02
  1.555056e+00    1.241283e+00   1.641549e-02
  1.557266e+00    1.238964e+00   1.628996e-02
  1.559477e+00    1.216583e+00   1.608370e-02
  1.561687e+00    1.235381e+00   1.617690e-02
  1.563898e+00    1.258429e+00   1.630988e-02
  1.566108e+00    1.248697e+00   1.623069e-02
  1.568319e+00    1.224738e+00   1.605874e-02
  1.570529e+00    1.247709e+00   1.618345e-02
  1.572740e+00    1.261283e+00   1.624346e-02
  1.574950e+00    1.244283e+00   1.610730e-02
  1.577161e+00    1.240067e+00   1.605457e-02
  1.579371e+00    1.257434e+00   1.614278e-02
  1.581582e+00    1.277048e+00   1.624821e-02
  1.583792e+00    1.260712e+00   1.612581e-02
  1.586002e+00    1.245257e+00   1.600903e-02
  1.588213e+00    1.267885e+00   1.613641e-02
  1.590423e+00    1.233747e+00   1.589773e-02
  1.592634e+00    1.221197e+00   1.579523e-02
  1.594844e+00    1.221945e+00   1.577884e-02
  1.597055e+00    1.230538e+00   1.581383e-02
  1.599265e+00    1.243654e+00   1.587714e-02
  1.601476e+00    1.250110e+00   1.589791e-02
  1.603686e+00    1.238878e+00   1.580660e-02
  1.605897e+00    1.255062e+00   1.588919e-02
  1.608107e+00    1.272611e+00   1.598007e-02
  1.610317e+00    1.307910e+00   1.618033e-02
  1.612528e+00    1.261715e+00   1.587265e-02
  1.614738e+00    1.235345e+00   1.568691e-02
  1.616949e+00    1.251969e+00   1.577294e-02
  1.619159e+00    1.204212e+00   1.545061e-02
  1.621370e+00    1.188986e+00   1.533438e-02
  1.623580e+00    1.180203e+00   1.525958e-02
  1.625791e+00    1.164592e+00   1.514038e-02
  1.628001e+00    1.168727e+00   1.514923e-02
  1.630212e+00    1.196609e+00   1.531110e-02
  1.632422e+00    1.187568e+00   1.523524e-02
  1.634632e+00    1.203757e+00   1.532126e-02
  1.636843e+00    1.214230e+00   1.536995e-02
  1.639053e+00    1.203364e+00   1.528352e-02
  1.641264e+00    1.207406e+00   1.529180e-02
  1.643474e+00    1.220874e+00   1.535902e-02
  1.645685e+00    1.194047e+00   1.517245e-02
  1.647895e+00    1.165297e+00   1.497198e-02
  1.650106e+00    1.161942e+00   1.493334e-02
  1.652316e+00    1.157315e+00   1.488703e-02
  1.654527e+00    1.150203e+00   1.482450e-02
  1.656737e+00    1.144184e+00   1.476902e-02
  1.658947e+00    1.178362e+00   1.497139e-02
  1.661158e+00    1.120638e+00   1.458387e-02
  1.663368e+00    1.124620e+00   1.459369e-02
  1.665579e+00    1.139341e+00   1.467263e-02
  1.667789e+00    1.122170e+00   1.454534e-02
  1.670000e+00    1.126205e+00   1.455591e-02
  1.672210e+00    1.123158e+00   1.452022e-02
  1.674421e+00    1.118958e+00   1.447761e-02
  1.676631e+00    1.135575e+00   1.456861e-02
  1.678842e+00    1.115868e+00   1.442576e-02
  1.681052e+00    1.076054e+00   1.415080e-02
  1.683263e+00    1.094367e+00   1.425552e-02
  1.685473e+00    1.086909e+00   1.419173e-02
  1.687683e+00    1.070817e+00   1.407093e-02
  1.689894e+00    1.050596e+00   1.392189e-02
  1.692104e+00    1.069490e+00   1.403166e-02
  1.694315e+00    1.041720e+00   1.383399e-02
  1.696525e+00    1.058452e+00   1.392956e-02
  1.698736e+00    1.063614e+00   1.394869e-02
  1.700946e+00    1.050599e+00   1.384801e-02
  1.703157e+00    1.050427e+00   1.383229e-02
  1.705367e+00    1.060193e+00   1.388188e-02
  1.707578e+00    1.053449e+00   1.382307e-02
  1.709788e+00    1.048850e+00   1.377871e-02
  1.711998e+00    1.053932e+00   1.379698e-02
  1.714209e+00    1.017807e+00   1.354418e-02
  1.716419e+00    1.004246e+00   1.343958e-02
  1.718630e+00    1.014795e+00   1.349581e-02
  1.720840e+00    1.012773e+00   1.346832e-02
  1.723051e+00    9.733580e-01   1.319010e-02
  1.725261e+00    9.925653e-01   1.330514e-02
  1.727472e+00    9.935225e-01   1.329755e-02
  1.729682e+00    1.002859e+00   1.334651e-02
  1.731893e+00    9.939064e-01   1.327302e-02
  1.734103e+00    9.899266e-01   1.323276e-02
  1.736313e+00    9.872404e-01   1.320091e-02
  1.738524e+00    9.896323e-01   1.320315e-02
  1.740734e+00    9.851274e-01   1.315947e-02
  1.742945e+00    9.802161e-01   1.311327e-02
  1.745155e+00    9.733024e-01   1.305363e-02
  1.747366e+00    9.587704e-01   1.294222e-02
  1.749576e+00    9.696876e-01   1.300212e-02
  1.751787e+00    9.824719e-01   1.307422e-02
  1.753997e+00    9.808620e-01   1.305011e-02
  1.756208e+00    9.730610e-01   1.298494e-02
  1.758418e+00    1.005258e+00   1.318465e-02
  1.760628e+00    9.721978e-01   1.295271e-02
  1.762839e+00    9.544231e-01   1.282058e-02
  1.765049e+00    9.375046e-01   1.269350e-02
  1.767260e+00    9.620874e-01   1.284599e-02
  1.769470e+00    9.659761e-01   1.285889e-02
  1.771681e+00    9.415723e-01   1.268237e-02
  1.773891e+00    9.341263e-01   1.261916e-02
  1.776102e+00    9.452795e-01   1.268142e-02
  1.778312e+00    9.459987e-01   1.267350e-02
  1.780523e+00    9.241704e-01   1.251384e-02
  1.782733e+00    9.204764e-01   1.247622e-02
  1.784944e+00    9.256310e-01   1.249829e-02
  1.787154e+00    9.457075e-01   1.262048e-02
  1.789364e+00    9.309576e-01   1.250921e-02
  1.791575e+00    9.197996e-01   1.242152e-02
  1.793785e+00    9.270782e-01   1.245812e-02
  1.795996e+00    9.303842e-01   1.246776e-02
  1.798206e+00    9.261770e-01   1.242695e-02
  1.800417e+00    9.326732e-01   1.245767e-02
  1.802627e+00    9.203944e-01   1.236342e-02
  1.804838e+00    9.393263e-01   1.247763e-02
  1.807048e+00    9.587818e-01   1.259300e-02
  1.809259e+00    9.310377e-01   1.239571e-02
  1.811469e+00    9.239323e-01   1.233318e-02
  1.813679e+00    9.065514e-01   1.220161e-02
  1.815890e+00    8.869069e-01   1.205404e-02
  1.818100e+00    8.639988e-01   1.188252e-02
  1.820311e+00    8.818303e-01   1.198981e-02
  1.822521e+00    8.819525e-01   1.197589e-02
  1.824732e+00    8.743379e-01   1.190938e-02
  1.826942e+00    8.813242e-01   1.194459e-02
  1.829153e+00    8.590450e-01   1.178113e-02
  1.831363e+00    8.700640e-01   1.184449e-02
  1.833574e+00    8.956814e-01   1.200583e-02
  1.835784e+00    8.763189e-01   1.186396e-02
  1.837994e+00    8.829769e-01   1.189717e-02
  1.840205e+00    8.862610e-01   1.190806e-02
  1.842415e+00    8.649560e-01   1.175231e-02
  1.844626e+00    8.852310e-01   1.187761e-02
  1.846836e+00    8.816656e-01   1.184216e-02
  1.849047e+00    8.564824e-01   1.166025e-02
  1.851257e+00    8.464788e-01   1.158249e-02
  1.853468e+00    8.370157e-01   1.150888e-02
  1.855678e+00    8.637338e-01   1.168222e-02
  1.857889e+00    8.768525e-01   1.176204e-02
  1.860099e+00    8.848549e-01   1.180679e-02
  1.862309e+00    9.310913e-01   1.210247e-02
  1.864520e+00    9.248701e-01   1.205308e-02
  1.866730e+00    9.006597e-01   1.188463e-02
  1.868941e+00    8.819889e-01   1.174968e-02
  1.871151e+00    8.937327e-01   1.181595e-02
  1.873362e+00    9.394349e-01   1.210236e-02
  1.875572e+00    9.738531e-01   1.231037e-02
  1.877783e+00    9.419677e-01   1.209516e-02
  1.879993e+00    8.883829e-01   1.173466e-02
  1.882204e+00    8.507537e-01   1.147250e-02
  1.884414e+00    8.400452e-01   1.138902e-02
  1.886624e+00    8.603529e-01   1.151467e-02
  1.888835e+00    8.491198e-01   1.142823e-02
  1.891045e+00    8.725583e-01   1.157380e-02
  1.893256e+00    8.521109e-01   1.142622e-02
  1.895466e+00    8.547760e-01   1.143277e-02
  1.897677e+00    8.380221e-01   1.130924e-02
  1.899887e+00    8.501065e-01   1.137940e-02
  1.902098e+00    8.297017e-01   1.123118e-02
  1.904308e+00    8.231217e-01   1.117603e-02
  1.906519e+00    8.085760e-01   1.106613e-02
  1.908729e+00    8.161477e-01   1.110730e-02
  1.910940e+00    8.341473e-01   1.121792e-02
  1.913150e+00    8.375962e-01   1.123047e-02
  1.915360e+00    8.381409e-01   1.122338e-02
  1.917571e+00    8.291288e-01   1.115198e-02
  1.919781e+00    8.379654e-01   1.120044e-02
  1.921992e+00    8.229132e-01   1.108878e-02
  1.924202e+00    8.159982e-01   1.103131e-02
  1.926413e+00    8.084824e-01   1.097015e-02
  1.928623e+00    8.020754e-01   1.091613e-02
  1.930834e+00    8.127269e-01   1.097795e-02
  1.933044e+00    8.066623e-01   1.092628e-02
  1.935255e+00    8.116383e-01   1.094958e-02
  1.937465e+00    8.040380e-01   1.088784e-02
  1.939675e+00    8.110261e-01   1.092416e-02
  1.941886e+00    8.055086e-01   1.087667e-02
  1.944096e+00    7.950032e-01   1.079537e-02
  1.946307e+00    7.895507e-01   1.074802e-02
  1.948517e+00    7.935691e-01   1.076494e-02
  1.950728e+00    7.903928e-01   1.073319e-02
  1.952938e+00    8.003411e-01   1.079040e-02
  1.955149e+00    7.956472e-01   1.074850e-02
  1.957359e+00    7.923502e-01   1.071619e-02
  1.959570e+00    7.963663e-01   1.073242e-02
  1.961780e+00    7.913735e-01   1.068882e-02
  1.963990e+00    7.996325e-01   1.073428e-02
  1.966201e+00    8.016939e-01   1.073799e-02
  1.968411e+00    7.878601e-01   1.063479e-02
  1.970622e+00    7.912684e-01   1.064766e-02
  1.972832e+00    7.780965e-01   1.054876e-02
  1.975043e+00    7.636036e-01   1.044015e-02
  1.977253e+00    7.632807e-01   1.042813e-02
  1.979464e+00    7.802366e-01   1.053330e-02
  1.981674e+00    7.866375e-01   1.056614e-02
  1.983885e+00    7.820740e-01   1.052542e-02
  1.986095e+00    7.831634e-01   1.052303e-02
  1.988305e+00    7.773404e-01   1.047397e-02
  1.990516e+00    7.835610e-01   1.050582e-02
  1.992726e+00    7.922628e-01   1.055424e-02
  1.994937e+00    7.915537e-01   1.053932e-02
  1.997147e+00    7.695722e-01   1.038225e-02
  1.999358e+00    7.662596e-01   1.035007e-02
  2.001568e+00    7.687541e-01   1.035612e-02
  2.003779e+00    7.950125e-01   1.051942e-02
  2.005989e+00    7.880197e-01   1.046092e-02
  2.008200e+00    7.786993e-01   1.038726e-02
  2.010410e+00    7.944688e-01   1.048000e-02
  2.012621e+00    7.599127e-01   1.023790e-02
  2.014831e+00    7.570842e-01   1.020742e-02
  2.017041e+00    7.722803e-01   1.029895e-02
  2.019252e+00    7.674215e-01   1.025651e-02
  2.021462e+00    7.680056e-01   1.025090e-02
  2.023673e+00    7.679541e-01   1.024114e-02
  2.025883e+00    7.732846e-01   1.026704e-02
  2.028094e+00    7.581010e-01   1.015614e-02
  2.030304e+00    7.615073e-01   1.016938e-02
  2.032515e+00    7.624377e-01   1.016630e-02
  2.034725e+00    7.539018e-01   1.009981e-02
  2.036936e+00    7.552499e-01   1.009951e-02
  2.039146e+00    7.571634e-01   1.010274e-02
  2.041356e+00    7.567266e-01   1.009016e-02
  2.043567e+00    7.649299e-01   1.013535e-02
  2.045777e+00    7.727638e-01   1.017777e-02
  2.047988e+00    7.888551e-01   1.027360e-02
  2.050198e+00    7.696888e-01   1.013953e-02
  2.052409e+00    7.596917e-01   1.006576e-02
  2.054619e+00    7.619022e-01   1.007298e-02
  2.056830e+00    7.444037e-01   9.949490e-03
  2.059040e+00    7.518163e-01   9.991365e-03
  2.061251e+00    7.500175e-01   9.972184e-03
  2.063461e+00    7.514110e-01   9.973824e-03
  2.065671e+00    7.640449e-01   1.004851e-02
  2.067882e+00    7.686550e-01   1.006967e-02
  2.070092e+00    7.582762e-01   9.992191e-03
  2.072303e+00    7.429804e-01   9.881775e-03
  2.074513e+00    7.475055e-01   9.902492e-03
  2.076724e+00    7.442321e-01   9.871314e-03
  2.078934e+00    7.516678e-01   9.911455e-03
  2.081145e+00    7.477229e-01   9.876306e-03
  2.083355e+00    7.551202e-01   9.915782e-03
  2.085566e+00    7.445204e-01   9.837016e-03
  2.087776e+00    7.438281e-01   9.822899e-03
  2.089986e+00    7.429500e-01   9.808300e-03
  2.092197e+00    7.327665e-01   9.731907e-03
  2.094407e+00    7.383891e-01   9.759936e-03
  2.096618e+00    7.336939e-01   9.719959e-03
  2.098828e+00    7.271819e-01   9.667481e-03
  2.101039e+00    7.324054e-01   9.693143e-03
  2.103249e+00    7.313430e-01   9.677459e-03
  2.105460e+00    7.241488e-01   9.620748e-03
  2.107670e+00    7.367665e-01   9.695426e-03
  2.109881e+00    7.410157e-01   9.714094e-03
  2.112091e+00    7.327982e-01   9.651055e-03
  2.114301e+00    7.361281e-01   9.664112e-03
  2.116512e+00    7.260545e-01   9.588935e-03
  2.118722e+00    7.196984e-01   9.538070e-03
  2.120933e+00    7.073287e-01   9.446973e-03
  2.123143e+00    7.095988e-01   9.453254e-03
  2.125354e+00    7.029449e-01   9.400395e-03
  2.127564e+00    7.170702e-01   9.485637e-03
  2.129775e+00    7.061409e-01   9.404399e-03
  2.131985e+00    7.282696e-01   9.541471e-03
  2.134196e+00    7.180901e-01   9.465948e-03
  2.136406e+00    7.125385e-01   9.420533e-03
  2.138617e+00    7.107917e-01   9.400513e-03
  2.140827e+00    7.205921e-01   9.481296e-03
  2.143037e+00    7.076234e-01   9.441095e-03
  2.145248e+00    6.989164e-01   9.404711e-03
  2.147458e+00    7.188690e-01   9.553304e-03
  2.149669e+00    6.992580e-01   9.433920e-03
  2.151879e+00    7.059188e-01   9.487975e-03
  2.154090e+00    7.206089e-01   9.593626e-03
  2.156300e+00    7.015933e-01   9.472805e-03
  2.158511e+00    6.817840e-01   9.343355e-03
  2.160721e+00    6.897013e-01   9.402218e-03
  2.162932e+00    6.864032e-01   9.383437e-03
  2.165142e+00    6.991147e-01   9.472933e-03
  2.167352e+00    6.948981e-01   9.447250e-03
  2.169563e+00    7.095212e-01   9.548088e-03
  2.171773e+00    6.823383e-01   9.365865e-03
  2.173984e+00    6.937063e-01   9.444931e-03
  2.176194e+00    7.046950e-01   9.520670e-03
  2.178405e+00    6.936381e-01   9.446400e-03
  2.180615e+00    6.929548e-01   9.442404e-03
  2.182826e+00    6.955104e-01   9.460486e-03
  2.185036e+00    7.058789e-01   9.530800e-03
  2.187247e+00    6.896302e-01   9.420422e-03
  2.189457e+00    6.888010e-01   9.414330e-03
  2.191667e+00    6.938075e-01   9.448320e-03
  2.193878e+00    6.942970e-01   9.451080e-03
  2.196088e+00    6.933783e-01   9.444131e-03
  2.198299e+00    6.895865e-01   9.417197e-03
  2.200509e+00    6.811839e-01   9.358586e-03
  2.202720e+00    6.850466e-01   9.383906e-03
  2.204930e+00    7.053950e-01   9.521011e-03
  2.207141e+00    6.948950e-01   9.448759e-03
  2.209351e+00    6.843419e-01   9.374851e-03
  2.211562e+00    6.601681e-01   9.206185e-03
  2.213772e+00    6.743806e-01   9.249356e-03
  2.215982e+00    6.875124e-01   9.294396e-03
  2.218193e+00    6.792619e-01   9.208766e-03
  2.220403e+00    6.637070e-01   9.078316e-03
  2.222614e+00    6.692731e-01   9.095429e-03
  2.224824e+00    6.699174e-01   9.080476e-03
  2.227035e+00    6.622775e-01   9.011238e-03
  2.229245e+00    6.790527e-01   9.107589e-03
  2.231456e+00    6.769910e-01   9.078078e-03
  2.233666e+00    6.844115e-01   9.112436e-03
  2.235877e+00    6.826918e-01   9.086603e-03
  2.238087e+00    6.608675e-01   8.926797e-03
  2.240298e+00    6.566958e-01   8.884934e-03
  2.242508e+00    6.565596e-01   8.869014e-03
  2.244718e+00    6.569610e-01   8.856069e-03
  2.246929e+00    6.560883e-01   8.835884e-03
  2.249139e+00    6.597298e-01   8.848060e-03
  2.251350e+00    6.538600e-01   8.797035e-03
  2.253560e+00    6.626091e-01   8.844145e-03
  2.255771e+00    6.542417e-01   8.776832e-03
  2.257981e+00    6.626899e-01   8.822139e-03
  2.260192e+00    6.636269e-01   8.817293e-03
  2.262402e+00    6.424480e-01   8.664775e-03
  2.264613e+00    6.628300e-01   8.790310e-03
  2.266823e+00    6.488377e-01   8.686760e-03
  2.269033e+00    6.553431e-01   8.719875e-03
  2.271244e+00    6.539679e-01   8.700404e-03
  2.273454e+00    6.548286e-01   8.695908e-03
  2.275665e+00    6.697393e-01   8.784003e-03
  2.277875e+00    6.699484e-01   8.775375e-03
  2.280086e+00    6.667194e-01   8.744121e-03
  2.282296e+00    6.522954e-01   8.639649e-03
  2.284507e+00    6.542163e-01   8.642273e-03
  2.286717e+00    6.555686e-01   8.641738e-03
  2.288928e+00    6.538751e-01   8.620753e-03
  2.291138e+00    6.496177e-01   8.583235e-03
  2.293348e+00    6.674744e-01   8.690792e-03
  2.295559e+00    6.693499e-01   8.693596e-03
  2.297769e+00    6.578770e-01   8.609490e-03
  2.299980e+00    6.484486e-01   8.538275e-03
  2.302190e+00    6.492987e-01   8.534764e-03
  2.304401e+00    6.544549e-01   8.559255e-03
  2.306611e+00    6.597222e-01   8.584376e-03
  2.308822e+00    6.479145e-01   8.498847e-03
  2.311032e+00    6.501548e-01   8.507074e-03
  2.313243e+00    6.466036e-01   8.477556e-03
  2.315453e+00    6.392632e-01   8.421787e-03
  2.317663e+00    6.464257e-01   8.459702e-03
  2.319874e+00    6.539687e-01   8.500152e-03
  2.322084e+00    6.467047e-01   8.443830e-03
  2.324295e+00    6.582008e-01   8.510252e-03
  2.326505e+00    6.588977e-01   8.505592e-03
  2.328716e+00    6.525916e-01   8.456202e-03
  2.330926e+00    6.492444e-01   8.425637e-03
  2.333137e+00    6.436395e-01   8.380803e-03
  2.335347e+00    6.444208e-01   8.377001e-03
  2.337558e+00    6.406172e-01   8.344008e-03
  2.339768e+00    6.485268e-01   8.386728e-03
  2.341979e+00    6.457611e-01   8.360416e-03
  2.344189e+00    6.370952e-01   8.295750e-03
  2.346399e+00    6.260657e-01   8.215193e-03
  2.348610e+00    6.235244e-01   8.190116e-03
  2.350820e+00    6.408404e-01   8.294849e-03
  2.353031e+00    6.335484e-01   8.239250e-03
  2.355241e+00    6.306130e-01   8.212083e-03
  2.357452e+00    6.386999e-01   8.256124e-03
  2.359662e+00    6.347769e-01   8.222485e-03
  2.361873e+00    6.214201e-01   8.127352e-03
  2.364083e+00    6.183726e-01   8.099456e-03
  2.366294e+00    6.286860e-01   8.158624e-03
  2.368504e+00    6.116260e-01   8.039190e-03
  2.370714e+00    6.220500e-01   8.099345e-03
  2.372925e+00    6.257619e-01   8.115449e-03
  2.375135e+00    6.222641e-01   8.084681e-03
  2.377346e+00    6.228614e-01   8.080621e-03
  2.379556e+00    6.297925e-01   8.117516e-03
  2.381767e+00    6.158180e-01   8.019123e-03
  2.383977e+00    6.213268e-01   8.046973e-03
  2.386188e+00    6.266337e-01   8.073299e-03
  2.388398e+00    6.262088e-01   8.062565e-03
  2.390609e+00    6.237275e-01   8.038801e-03
  2.392819e+00    6.270850e-01   8.052578e-03
  2.395029e+00    6.205302e-01   8.002674e-03
  2.397240e+00    6.116739e-01   7.937531e-03
  2.399450e+00    6.076989e-01   7.903909e-03
  2.401661e+00    5.995870e-01   7.843401e-03
  2.403871e+00    6.058087e-01   7.876238e-03
  2.406082e+00    6.127234e-01   7.913608e-03
  2.408292e+00    6.187990e-01   7.944912e-03
  2.410503e+00    6.119284e-01   7.893171e-03
  2.412713e+00    6.156973e-01   7.909577e-03
  2.414924e+00    6.117454e-01   7.876639e-03
  2.417134e+00    6.110234e-01   7.864316e-03
  2.419344e+00    6.128845e-01   7.868813e-03
  2.421555e+00    6.048074e-01   7.809274e-03
  2.423765e+00    5.856125e-01   7.677048e-03
  2.425976e+00    5.761146e-01   7.606862e-03
  2.428186e+00    5.874981e-01   7.674508e-03
  2.430397e+00    5.989140e-01   7.741211e-03
  2.432607e+00    5.883261e-01   7.665254e-03
  2.434818e+00    5.903527e-01   7.670947e-03
  2.437028e+00    5.856864e-01   7.633453e-03
  2.439239e+00    5.881110e-01   7.641627e-03
  2.441449e+00    5.886838e-01   7.638176e-03
  2.443659e+00    5.746654e-01   7.539430e-03
  2.445870e+00    5.694943e-01   7.517484e-03
  2.448080e+00    5.660585e-01   7.529046e-03
  2.450291e+00    5.811797e-01   7.645612e-03
  2.452501e+00    5.727228e-01   7.600919e-03
  2.454712e+00    5.652289e-01   7.559407e-03
  2.456922e+00    5.460286e-01   7.436360e-03
  2.459133e+00    5.712572e-01   7.611665e-03
  2.461343e+00    5.748304e-01   7.639835e-03
  2.463554e+00    5.662989e-01   7.586380e-03
  2.465764e+00    5.648135e-01   7.579593e-03
  2.467975e+00    5.594128e-01   7.545527e-03
  2.470185e+00    5.537141e-01   7.509259e-03
  2.472395e+00    5.591055e-01   7.546942e-03
  2.474606e+00    5.531902e-01   7.508471e-03
  2.476816e+00    5.641894e-01   7.583502e-03
  2.479027e+00    5.345323e-01   7.382349e-03
  2.481237e+00    5.347718e-01   7.384254e-03
  2.483448e+00    5.374756e-01   7.403196e-03
  2.485658e+00    5.415940e-01   7.431373e-03
  2.487869e+00    5.312107e-01   7.359822e-03
  2.490079e+00    5.416062e-01   7.430969e-03
  2.492290e+00    5.411325e-01   7.427289e-03
  2.494500e+00    5.320117e-01   7.363704e-03
  2.496710e+00    5.296434e-01   7.346598e-03
  2.498921e+00    5.330489e-01   7.369194e-03
  2.501131e+00    5.307017e-01   7.351995e-03
  2.503342e+00    5.303285e-01   7.348156e-03
  2.505552e+00    5.302047e-01   7.346175e-03
  2.507763e+00    5.263851e-01   7.318243e-03
  2.509973e+00    5.240263e-01   7.300444e-03
  2.512184e+00    5.127442e-01   7.219847e-03
  2.514394e+00    5.127022e-01   7.210298e-03
  2.516605e+00    5.170479e-01   7.194177e-03
  2.518815e+00    5.043799e-01   7.077744e-03
  2.521025e+00    5.256435e-01   7.204419e-03
  2.523236e+00    5.396617e-01   7.281643e-03
  2.525446e+00    5.390081e-01   7.261438e-03
  2.527657e+00    5.414399e-01   7.262959e-03
  2.529867e+00    5.255862e-01   7.141662e-03
  2.532078e+00    5.394242e-01   7.219809e-03
  2.534288e+00    5.339878e-01   7.169346e-03
  2.536499e+00    5.260579e-01   7.103954e-03
  2.538709e+00    5.274373e-01   7.102227e-03
  2.540920e+00    5.226828e-01   7.059517e-03
  2.543130e+00    5.227900e-01   7.049887e-03
  2.545340e+00    5.343066e-01   7.116952e-03
  2.547551e+00    5.188639e-01   7.003451e-03
  2.549761e+00    5.226429e-01   7.019310e-03
  2.551972e+00    5.315548e-01   7.069478e-03
  2.554182e+00    5.174312e-01   6.965777e-03
  2.556393e+00    5.234324e-01   6.996935e-03
  2.558603e+00    5.169910e-01   6.944727e-03
  2.560814e+00    5.069218e-01   6.868151e-03
  2.563024e+00    5.116246e-01   6.891419e-03
  2.565235e+00    5.257388e-01   6.976265e-03
  2.567445e+00    5.098137e-01   6.860336e-03
  2.569656e+00    4.942414e-01   6.745222e-03
  2.571866e+00    5.079954e-01   6.829157e-03
  2.574076e+00    4.907895e-01   6.703495e-03
  2.576287e+00    4.920197e-01   6.703740e-03
  2.578497e+00    5.146813e-01   6.848557e-03
  2.580708e+00    5.085471e-01   6.799592e-03
  2.582918e+00    5.067620e-01   6.779954e-03
  2.585129e+00    5.074720e-01   6.776997e-03
  2.587339e+00    5.175599e-01   6.836323e-03
  2.589550e+00    4.934819e-01   6.668008e-03
  2.591760e+00    4.993430e-01   6.699837e-03
  2.593971e+00    5.022271e-01   6.711699e-03
  2.596181e+00    5.013514e-01   6.699692e-03
  2.598391e+00    5.148247e-01   6.783897e-03
  2.600602e+00    5.124859e-01   6.762559e-03
  2.602812e+00    5.076344e-01   6.722941e-03
  2.605023e+00    5.074043e-01   6.714257e-03
  2.607233e+00    5.042211e-01   6.686059e-03
  2.609444e+00    5.008115e-01   6.656216e-03
  2.611654e+00    5.123419e-01   6.725056e-03
  2.613865e+00    5.118600e-01   6.714807e-03
  2.616075e+00    5.093040e-01   6.690885e-03
  2.618286e+00    4.992112e-01   6.617277e-03
  2.620496e+00    5.100898e-01   6.682272e-03
  2.622706e+00    5.089898e-01   6.669290e-03
  2.624917e+00    5.034067e-01   6.626778e-03
  2.627127e+00    5.012508e-01   6.606843e-03
  2.629338e+00    5.106785e-01   6.662673e-03
  2.631548e+00    4.912878e-01   6.528857e-03
  2.633759e+00    4.971265e-01   6.560429e-03
  2.635969e+00    4.989454e-01   6.565740e-03
  2.638180e+00    5.084068e-01   6.620687e-03
  2.640390e+00    4.943319e-01   6.521835e-03
  2.642601e+00    4.907739e-01   6.491727e-03
  2.644811e+00    4.957567e-01   6.517536e-03
  2.647021e+00    5.067506e-01   6.582823e-03
  2.649232e+00    4.957727e-01   6.504420e-03
  2.651442e+00    5.145594e-01   6.619910e-03
  2.653653e+00    5.077145e-01   6.568897e-03
  2.655863e+00    4.981338e-01   6.499928e-03
  2.658074e+00    5.062727e-01   6.546149e-03
  2.660284e+00    5.031149e-01   6.519323e-03
  2.662495e+00    4.936195e-01   6.450769e-03
  2.664705e+00    4.996964e-01   6.483757e-03
  2.666916e+00    5.007331e-01   6.484015e-03
  2.669126e+00    4.965733e-01   6.450542e-03
  2.671337e+00    4.930369e-01   6.420989e-03
  2.673547e+00    4.918779e-01   6.407055e-03
  2.675757e+00    4.935423e-01   6.411462e-03
  2.677968e+00    4.895061e-01   6.378688e-03
  2.680178e+00    4.911717e-01   6.383154e-03
  2.682389e+00    4.996594e-01   6.431621e-03
  2.684599e+00    4.923948e-01   6.378536e-03
  2.686810e+00    4.951237e-01   6.389542e-03
  2.689020e+00    4.928887e-01   6.368806e-03
  2.691231e+00    4.945426e-01   6.373176e-03
  2.693441e+00    4.851634e-01   6.306343e-03
  2.695652e+00    4.949608e-01   6.363139e-03
  2.697862e+00    4.969622e-01   6.369608e-03
  2.700072e+00    4.913256e-01   6.327310e-03
  2.702283e+00    4.822143e-01   6.262171e-03
  2.704493e+00    4.889861e-01   6.299716e-03
  2.706704e+00    4.909622e-01   6.306006e-03
  2.708914e+00    4.823471e-01   6.244500e-03
  2.711125e+00    4.961130e-01   6.326681e-03
  2.713335e+00    4.960628e-01   6.320218e-03
  2.715546e+00    5.028203e-01   6.356563e-03
  2.717756e+00    4.922362e-01   6.283373e-03
  2.719967e+00    4.905749e-01   6.266538e-03
  2.722177e+00    4.749700e-01   6.159998e-03
  2.724387e+00    4.800239e-01   6.186611e-03
  2.726598e+00    4.837176e-01   6.204311e-03
  2.728808e+00    4.847051e-01   6.204512e-03
  2.731019e+00    4.777047e-01   6.153459e-03
  2.733229e+00    4.779708e-01   6.149397e-03
  2.735440e+00    4.774216e-01   6.139647e-03
  2.737650e+00    4.900742e-01   6.214404e-03
  2.739861e+00    4.770690e-01   6.125384e-03
  2.742071e+00    4.834245e-01   6.160281e-03
  2.744282e+00    4.838803e-01   6.156928e-03
  2.746492e+00    4.944610e-01   6.217788e-03
  2.748702e+00    4.726114e-01   6.073012e-03
  2.750913e+00    4.671746e-01   6.032258e-03
  2.753123e+00    4.780660e-01   6.096072e-03
  2.755334e+00    4.823003e-01   6.116951e-03
  2.757544e+00    4.675351e-01   6.016906e-03
  2.759755e+00    4.799416e-01   6.090347e-03
  2.761965e+00    4.795197e-01   6.081684e-03
  2.764176e+00    4.760792e-01   6.053869e-03
  2.766386e+00    4.776039e-01   6.057775e-03
  2.768597e+00    4.837943e-01   6.091031e-03
  2.770807e+00    4.705142e-01   6.001010e-03
  2.773017e+00    4.808690e-01   6.060707e-03
  2.775228e+00    4.789206e-01   6.042640e-03
  2.777438e+00    4.821727e-01   6.057288e-03
  2.779649e+00    4.812481e-01   6.045560e-03
  2.781859e+00    4.811672e-01   6.039276e-03
  2.784070e+00    4.738769e-01   5.987498e-03
  2.786280e+00    4.825386e-01   6.036200e-03
  2.788491e+00    4.601149e-01   5.888508e-03
  2.790701e+00    4.901190e-01   6.071767e-03
  2.792912e+00    4.901439e-01   6.065865e-03
  2.795122e+00    4.733064e-01   5.955066e-03
  2.797333e+00    4.746232e-01   5.957769e-03
  2.799543e+00    4.672343e-01   5.905414e-03
  2.801753e+00    4.543431e-01   5.817659e-03
  2.803964e+00    4.648336e-01   5.878810e-03
  2.806174e+00    4.771356e-01   5.949954e-03
  2.808385e+00    4.753875e-01   5.932247e-03
  2.810595e+00    4.610536e-01   5.835370e-03
  2.812806e+00    4.652289e-01   5.855166e-03
  2.815016e+00    4.701237e-01   5.881177e-03
  2.817227e+00    4.755443e-01   5.940949e-03
  2.819437e+00    4.731941e-01   5.937323e-03
  2.821648e+00    4.748164e-01   5.949797e-03
  2.823858e+00    4.686014e-01   5.916023e-03
  2.826068e+00    4.674477e-01   5.913700e-03
  2.828279e+00    4.778055e-01   5.982913e-03
  2.830489e+00    4.656343e-01   5.909541e-03
  2.832700e+00    4.649776e-01   5.907909e-03
  2.834910e+00    4.659528e-01   5.916146e-03
  2.837121e+00    4.686165e-01   5.934746e-03
  2.839331e+00    4.664263e-01   5.922078e-03
  2.841542e+00    4.686846e-01   5.937424e-03
  2.843752e+00    4.603824e-01   5.885358e-03
  2.845963e+00    4.812443e-01   6.017638e-03
  2.848173e+00    4.679970e-01   5.934333e-03
  2.850383e+00    4.664458e-01   5.924766e-03
  2.852594e+00    4.676555e-01   5.932377e-03
  2.854804e+00    4.710474e-01   5.953337e-03
  2.857015e+00    4.722717e-01   5.960635e-03
  2.859225e+00    4.662866e-01   5.922503e-03
  2.861436e+00    4.629893e-01   5.900855e-03
  2.863646e+00    4.708395e-01   5.950725e-03
  2.865857e+00    4.668863e-01   5.926023e-03
  2.868067e+00    4.675400e-01   5.930405e-03
  2.870278e+00    4.733331e-01   5.966661e-03
  2.872488e+00    4.603517e-01   5.883132e-03
  2.874698e+00    4.602050e-01   5.881151e-03
  2.876909e+00    4.568170e-01   5.858130e-03
  2.879119e+00    4.596184e-01   5.874458e-03
  2.881330e+00    4.598947e-01   5.874766e-03
  2.883540e+00    4.495382e-01   5.806859e-03
  2.885751e+00    4.557947e-01   5.845495e-03
  2.887961e+00    4.613887e-01   5.879371e-03
  2.890172e+00    4.558524e-01   5.842413e-03
  2.892382e+00    4.570486e-01   5.848252e-03
  2.894593e+00    4.717120e-01   5.939501e-03
  2.896803e+00    4.621539e-01   5.877045e-03
  2.899014e+00    4.652980e-01   5.895077e-03
  2.901224e+00    4.580966e-01   5.847290e-03
  2.903434e+00    4.504469e-01   5.796340e-03
  2.905645e+00    4.497091e-01   5.789390e-03
  2.907855e+00    4.561067e-01   5.828320e-03
  2.910066e+00    4.659818e-01   5.888988e-03
  2.912276e+00    4.716701e-01   5.922682e-03
  2.914487e+00    4.662091e-01   5.885817e-03
  2.916697e+00    4.714401e-01   5.916488e-03
  2.918908e+00    4.418690e-01   5.725978e-03
  2.921118e+00    4.516120e-01   5.786055e-03
  2.923329e+00    4.519783e-01   5.786121e-03
  2.925539e+00    4.503064e-01   5.773138e-03
  2.927749e+00    4.547888e-01   5.799491e-03
  2.929960e+00    4.642250e-01   5.856548e-03
  2.932170e+00    4.550390e-01   5.796007e-03
  2.934381e+00    4.538793e-01   5.786167e-03
  2.936591e+00    4.558081e-01   5.795873e-03
  2.938802e+00    4.573652e-01   5.803063e-03
  2.941012e+00    4.515264e-01   5.763563e-03
  2.943223e+00    4.572187e-01   5.797092e-03
  2.945433e+00    4.486377e-01   5.738730e-03
  2.947644e+00    4.486097e-01   5.734428e-03
  2.949854e+00    4.671252e-01   5.847266e-03
  2.952064e+00    4.591945e-01   5.793163e-03
  2.954275e+00    4.640364e-01   5.819182e-03
  2.956485e+00    4.571589e-01   5.771695e-03
  2.958696e+00    4.441731e-01   5.684826e-03
  2.960906e+00    4.480596e-01   5.705460e-03
  2.963117e+00    4.537958e-01   5.737408e-03
  2.965327e+00    4.417121e-01   5.656651e-03
  2.967538e+00    4.471765e-01   5.688640e-03
  2.969748e+00    4.466192e-01   5.682304e-03
  2.971959e+00    4.527933e-01   5.718312e-03
  2.974169e+00    4.590602e-01   5.755152e-03
  2.976379e+00    4.545197e-01   5.723703e-03
  2.978590e+00    4.685595e-01   5.808248e-03
  2.980800e+00    4.636121e-01   5.774676e-03
  2.983011e+00    4.558429e-01   5.723284e-03
  2.985221e+00    4.577869e-01   5.732305e-03
  2.987432e+00    4.573823e-01   5.726656e-03
  2.989642e+00    4.460979e-01   5.652958e-03
  2.991853e+00    4.506134e-01   5.678241e-03
  2.994063e+00    4.442604e-01   5.635182e-03
  2.996274e+00    4.516562e-01   5.678726e-03
  2.998484e+00    4.512466e-01   5.673459e-03
  3.000694e+00    4.581070e-01   5.712952e-03
  3.002905e+00    4.512830e-01   5.667299e-03
  3.005115e+00    4.640611e-01   5.743982e-03
  3.007326e+00    4.526733e-01   5.669897e-03
  3.009536e+00    4.555355e-01   5.684534e-03
  3.011747e+00    4.743681e-01   5.797870e-03
  3.013957e+00    4.629380e-01   5.724387e-03
  3.016168e+00    4.481349e-01   5.628882e-03
  3.018378e+00    4.399697e-01   5.574361e-03
  3.020589e+00    4.481661e-01   5.622834e-03
  3.022799e+00    4.510275e-01   5.637605e-03
  3.025010e+00    4.513602e-01   5.636469e-03
  3.027220e+00    4.499867e-01   5.624766e-03
  3.029430e+00    4.582642e-01   5.672997e-03
  3.031641e+00    4.608419e-01   5.685760e-03
  3.033851e+00    4.633634e-01   5.697743e-03
  3.036062e+00    4.605488e-01   5.677599e-03
  3.038272e+00    4.455649e-01   5.580929e-03
  3.040483e+00    4.508114e-01   5.610459e-03
  3.042693e+00    4.530007e-01   5.620799e-03
  3.044904e+00    4.595702e-01   5.657350e-03
  3.047114e+00    4.601025e-01   5.655779e-03
  3.049325e+00    4.484905e-01   5.579561e-03
  3.051535e+00    4.470282e-01   5.566081e-03
  3.053745e+00    4.507787e-01   5.584633e-03
  3.055956e+00    4.494448e-01   5.571797e-03
  3.058166e+00    4.491662e-01   5.565817e-03
  3.060377e+00    4.539494e-01   5.590585e-03
  3.062587e+00    4.501744e-01   5.562649e-03
  3.064798e+00    4.524760e-01   5.572602e-03
  3.067008e+00    4.381246e-01   5.478841e-03
  3.069219e+00    4.395783e-01   5.483452e-03
  3.071429e+00    4.458638e-01   5.519031e-03
  3.073640e+00    4.384691e-01   5.469782e-03
  3.075850e+00    4.401540e-01   5.476724e-03
  3.078060e+00    4.470821e-01   5.516568e-03
  3.080271e+00    4.493634e-01   5.527138e-03
  3.082481e+00    4.478697e-01   5.514516e-03
  3.084692e+00    4.583885e-01   5.575466e-03
  3.086902e+00    4.544807e-01   5.548411e-03
  3.089113e+00    4.474746e-01   5.501885e-03
  3.091323e+00    4.447007e-01   5.481456e-03
  3.093534e+00    4.564107e-01   5.549741e-03
  3.095744e+00    4.465966e-01   5.486395e-03
  3.097955e+00    4.415713e-01   5.451904e-03
  3.100165e+00    4.441259e-01   5.464327e-03
  3.102375e+00    4.534161e-01   5.517737e-03
  3.104586e+00    4.536194e-01   5.515464e-03
  3.106796e+00    4.407251e-01   5.433010e-03
  3.109007e+00    4.487638e-01   5.479109e-03
  3.111217e+00    4.531181e-01   5.501898e-03
  3.113428e+00    4.458633e-01   5.454266e-03
  3.115638e+00    4.364362e-01   5.393098e-03
  3.117849e+00    4.459705e-01   5.447960e-03
  3.120059e+00    4.473000e-01   5.452598e-03
  3.122270e+00    4.557154e-01   5.500349e-03
  3.124480e+00    4.511988e-01   5.469327e-03
  3.126691e+00    4.383605e-01   5.387400e-03
  3.128901e+00    4.378445e-01   5.381156e-03
  3.131111e+00    4.361897e-01   5.367146e-03
  3.133322e+00    4.352224e-01   5.357795e-03
  3.135532e+00    4.444346e-01   5.410786e-03
  3.137743e+00    4.409842e-01   5.386290e-03
  3.139953e+00    4.448219e-01   5.405971e-03
  3.142164e+00    4.468453e-01   5.430331e-03
  3.144374e+00    4.419021e-01   5.428599e-03
  3.146585e+00    4.453902e-01   5.464596e-03
  3.148795e+00    4.393620e-01   5.438231e-03
  3.151006e+00    4.354397e-01   5.422377e-03
  3.153216e+00    4.426568e-01   5.474286e-03
  3.155426e+00    4.394046e-01   5.460426e-03
  3.157637e+00    4.446011e-01   5.498163e-03
  3.159847e+00    4.441338e-01   5.500180e-03
  3.162058e+00    4.425441e-01   5.494779e-03
  3.164268e+00    4.295641e-01   5.417591e-03
  3.166479e+00    4.412988e-01   5.494753e-03
  3.168689e+00    4.324896e-01   5.442983e-03
  3.170900e+00    4.459208e-01   5.530038e-03
  3.173110e+00    4.441707e-01   5.522066e-03
  3.175321e+00    4.376437e-01   5.483863e-03
  3.177531e+00    4.252939e-01   5.408598e-03
  3.179741e+00    4.375659e-01   5.488164e-03
  3.181952e+00    4.138817e-01   5.339633e-03
  3.184162e+00    4.286229e-01   5.436035e-03
  3.186373e+00    4.313328e-01   5.454794e-03
  3.188583e+00    4.318080e-01   5.459569e-03
  3.190794e+00    4.338486e-01   5.474216e-03
  3.193004e+00    4.323055e-01   5.465693e-03
  3.195215e+00    4.384339e-01   5.505822e-03
  3.197425e+00    4.250771e-01   5.422490e-03
  3.199636e+00    4.285013e-01   5.443524e-03
  3.201846e+00    4.382115e-01   5.504253e-03
  3.204056e+00    4.303839e-01   5.455762e-03
  3.206267e+00    4.357951e-01   5.490789e-03
  3.208477e+00    4.402076e-01   5.519453e-03
  3.210688e+00    4.381241e-01   5.507232e-03
  3.212898e+00    4.288377e-01   5.449120e-03
  3.215109e+00    4.325776e-01   5.473580e-03
  3.217319e+00    4.456499e-01   5.556317e-03
  3.219530e+00    4.395150e-01   5.518332e-03
  3.221740e+00    4.279171e-01   5.445617e-03
  3.223951e+00    4.233552e-01   5.416963e-03
  3.226161e+00    4.298784e-01   5.458718e-03
  3.228372e+00    4.309538e-01   5.466085e-03
  3.230582e+00    4.282379e-01   5.448961e-03
  3.232792e+00    4.415987e-01   5.533539e-03
  3.235003e+00    4.500416e-01   5.586442e-03
  3.237213e+00    4.335406e-01   5.483191e-03
  3.239424e+00    4.234754e-01   5.419156e-03
  3.241634e+00    4.149837e-01   5.364656e-03
  3.243845e+00    4.224201e-01   5.412578e-03
  3.246055e+00    4.361143e-01   5.499342e-03
  3.248266e+00    4.226119e-01   5.413768e-03
  3.250476e+00    4.125228e-01   5.348416e-03
  3.252687e+00    4.335841e-01   5.483180e-03
  3.254897e+00    4.245947e-01   5.425944e-03
  3.257107e+00    4.342316e-01   5.486823e-03
  3.259318e+00    4.366881e-01   5.502115e-03
  3.261528e+00    4.255351e-01   5.431260e-03
  3.263739e+00    4.314506e-01   5.468286e-03
  3.265949e+00    4.363306e-01   5.499034e-03
  3.268160e+00    4.355012e-01   5.493369e-03
  3.270370e+00    4.244857e-01   5.422951e-03
  3.272581e+00    4.342607e-01   5.484737e-03
  3.274791e+00    4.304056e-01   5.459820e-03
  3.277002e+00    4.238720e-01   5.417667e-03
  3.279212e+00    4.177389e-01   5.377932e-03
  3.281422e+00    4.408902e-01   5.524357e-03
  3.283633e+00    4.342141e-01   5.481714e-03
  3.285843e+00    4.251874e-01   5.424062e-03
  3.288054e+00    4.339454e-01   5.478722e-03
  3.290264e+00    4.194027e-01   5.385814e-03
  3.292475e+00    4.296536e-01   5.450379e-03
  3.294685e+00    4.364801e-01   5.492885e-03
  3.296896e+00    4.323301e-01   5.465935e-03
  3.299106e+00    4.292355e-01   5.445790e-03
  3.301317e+00    4.375767e-01   5.497381e-03
  3.303527e+00    4.313067e-01   5.457411e-03
  3.305737e+00    4.224719e-01   5.400164e-03
  3.307948e+00    4.306589e-01   5.451572e-03
  3.310158e+00    4.191745e-01   5.377539e-03
  3.312369e+00    4.237729e-01   5.406077e-03
  3.314579e+00    4.168596e-01   5.360894e-03
  3.316790e+00    4.217475e-01   5.391509e-03
  3.319000e+00    4.311290e-01   5.449972e-03
  3.321211e+00    4.189227e-01   5.371654e-03
  3.323421e+00    4.154117e-01   5.347911e-03
  3.325632e+00    4.091747e-01   5.306708e-03
  3.327842e+00    4.247839e-01   5.406088e-03
  3.330052e+00    4.179393e-01   5.361277e-03
  3.332263e+00    4.203811e-01   5.375916e-03
  3.334473e+00    4.292068e-01   5.431128e-03
  3.336684e+00    4.301038e-01   5.435535e-03
  3.338894e+00    4.288946e-01   5.427016e-03
  3.341105e+00    4.256408e-01   5.405199e-03
  3.343315e+00    4.152020e-01   5.337365e-03
  3.345526e+00    4.234109e-01   5.388977e-03
  3.347736e+00    4.126667e-01   5.318753e-03
  3.349947e+00    4.144836e-01   5.329532e-03
  3.352157e+00    4.183669e-01   5.353251e-03
  3.354368e+00    4.212022e-01   5.370083e-03
  3.356578e+00    4.138539e-01   5.322008e-03
  3.358788e+00    4.253161e-01   5.393867e-03
  3.360999e+00    4.315786e-01   5.432175e-03
  3.363209e+00    4.240294e-01   5.383429e-03
  3.365420e+00    4.266211e-01   5.398321e-03
  3.367630e+00    4.167758e-01   5.334672e-03
  3.369841e+00    4.047966e-01   5.256012e-03
  3.372051e+00    4.197794e-01   5.350422e-03
  3.374262e+00    4.311016e-01   5.419632e-03
  3.376472e+00    4.119313e-01   5.295316e-03
  3.378683e+00    4.238850e-01   5.369083e-03
  3.380893e+00    3.968374e-01   5.192677e-03
  3.383103e+00    4.026102e-01   5.227617e-03
  3.385314e+00    4.232435e-01   5.357677e-03
  3.387524e+00    4.163483e-01   5.311104e-03
  3.389735e+00    4.193406e-01   5.327517e-03
  3.391945e+00    4.242812e-01   5.355084e-03
  3.394156e+00    4.171660e-01   5.305765e-03
  3.396366e+00    3.980518e-01   5.179430e-03
  3.398577e+00    3.930406e-01   5.143730e-03
  3.400787e+00    4.109518e-01   5.271537e-03
  3.402998e+00    4.152132e-01   5.337120e-03
  3.405208e+00    4.067137e-01   5.302901e-03
  3.407418e+00    4.001246e-01   5.275532e-03
  3.409629e+00    4.022838e-01   5.303738e-03
  3.411839e+00    3.888799e-01   5.226248e-03
  3.414050e+00    3.822565e-01   5.192343e-03
  3.416260e+00    3.845789e-01   5.217600e-03
  3.418471e+00    3.976048e-01   5.314688e-03
  3.420681e+00    3.843940e-01   5.234065e-03
  3.422892e+00    3.881127e-01   5.267287e-03
  3.425102e+00    3.897186e-01   5.285990e-03
  3.427313e+00    3.956942e-01   5.333618e-03
  3.429523e+00    3.818915e-01   5.246804e-03
  3.431733e+00    3.856135e-01   5.278935e-03
  3.433944e+00    3.895172e-01   5.312141e-03
  3.436154e+00    3.726830e-01   5.202241e-03
  3.438365e+00    3.777934e-01   5.243652e-03
  3.440575e+00    3.837106e-01   5.290547e-03
  3.442786e+00    3.786823e-01   5.261360e-03
  3.444996e+00    3.826747e-01   5.294562e-03
  3.447207e+00    3.678049e-01   5.195920e-03
  3.449417e+00    3.796640e-01   5.320264e-03
  3.451628e+00    3.741728e-01   5.311332e-03
  3.453838e+00    3.767898e-01   5.351281e-03
  3.456049e+00    3.705733e-01   5.330968e-03
  3.458259e+00    3.785600e-01   5.410398e-03
  3.460469e+00    3.713006e-01   5.378211e-03
  3.462680e+00    3.772218e-01   5.440244e-03
  3.464890e+00    3.709804e-01   5.412975e-03
  3.467101e+00    3.760358e-01   5.467386e-03
  3.469311e+00    3.932273e-01   5.608017e-03
  3.471522e+00    4.030350e-01   5.694525e-03
  3.473732e+00    4.102660e-01   5.761993e-03
  3.475943e+00    4.097515e-01   5.774623e-03
  3.478153e+00    4.071938e-01   5.772402e-03
  3.480364e+00    4.068366e-01   5.785279e-03
  3.482574e+00    4.051813e-01   5.788823e-03
  3.484784e+00    4.315838e-01   5.989729e-03
  3.486995e+00    4.274352e-01   5.976193e-03
  3.489205e+00    4.339171e-01   6.036163e-03
  3.491416e+00    4.386059e-01   6.083814e-03
  3.493626e+00    4.401746e-01   6.109357e-03
  3.495837e+00    4.500715e-01   6.192571e-03
  3.498047e+00    4.581670e-01   6.262737e-03
  3.500258e+00    4.754316e-01   6.394568e-03
  3.502468e+00    4.668577e-01   6.351299e-03
  3.504679e+00    4.686295e-01   6.377940e-03
  3.506889e+00    4.734414e-01   6.425157e-03
  3.509099e+00    4.561498e-01   6.320872e-03
  3.511310e+00    4.744453e-01   6.460808e-03
  3.513520e+00    4.815498e-01   6.523398e-03
  3.515731e+00    5.159160e-01   6.766982e-03
  3.517941e+00    5.024379e-01   6.692557e-03
  3.520152e+00    5.081066e-01   6.744726e-03
  3.522362e+00    4.985047e-01   6.695133e-03
  3.524573e+00    4.999219e-01   6.718825e-03
  3.526783e+00    5.248718e-01   6.897978e-03
  3.528994e+00    5.420683e-01   7.022623e-03
  3.531204e+00    5.172437e-01   6.872347e-03
  3.533414e+00    5.294612e-01   6.965138e-03
  3.535625e+00    5.357531e-01   7.018889e-03
  3.537835e+00    5.258288e-01   6.965581e-03
  3.540046e+00    5.277045e-01   6.986880e-03
  3.542256e+00    5.395821e-01   7.072636e-03
  3.544467e+00    5.387922e-01   7.075098e-03
  3.546677e+00    5.314881e-01   7.034517e-03
  3.548888e+00    5.442823e-01   7.126235e-03
  3.551098e+00    5.287006e-01   7.030727e-03
  3.553309e+00    5.447799e-01   7.145077e-03
  3.555519e+00    5.356868e-01   7.096498e-03
  3.557729e+00    5.304832e-01   7.073573e-03
  3.559940e+00    5.470877e-01   7.195127e-03
  3.562150e+00    5.343824e-01   7.122791e-03
  3.564361e+00    5.239699e-01   7.066192e-03
  3.566571e+00    5.428781e-01   7.206471e-03
  3.568782e+00    5.486524e-01   7.259010e-03
  3.570992e+00    5.271173e-01   7.128750e-03
  3.573203e+00    5.389573e-01   7.222547e-03
  3.575413e+00    5.336874e-01   7.200900e-03
  3.577624e+00    5.268086e-01   7.168344e-03
  3.579834e+00    5.352415e-01   7.239344e-03
  3.582045e+00    5.306152e-01   7.221987e-03
  3.584255e+00    5.465780e-01   7.343951e-03
  3.586465e+00    5.505371e-01   7.384683e-03
  3.588676e+00    5.292844e-01   7.254823e-03
  3.590886e+00    5.375746e-01   7.325138e-03
  3.593097e+00    5.367072e-01   7.333757e-03
  3.595307e+00    5.314794e-01   7.311802e-03
  3.597518e+00    5.371957e-01   7.365261e-03
  3.599728e+00    5.479429e-01   7.452831e-03
  3.601939e+00    5.400825e-01   7.413330e-03
  3.604149e+00    5.292203e-01   7.352693e-03
  3.606360e+00    5.491449e-01   7.504159e-03
  3.608570e+00    5.241222e-01   7.345204e-03
  3.610780e+00    5.540785e-01   7.563462e-03
  3.612991e+00    5.434625e-01   7.500727e-03
  3.615201e+00    5.387756e-01   7.478183e-03
  3.617412e+00    5.354118e-01   7.462056e-03
  3.619622e+00    5.387796e-01   7.491468e-03
  3.621833e+00    5.433903e-01   7.530223e-03
  3.624043e+00    5.294155e-01   7.442226e-03
  3.626254e+00    5.331474e-01   7.478104e-03
  3.628464e+00    5.150843e-01   7.361095e-03
  3.630675e+00    5.178114e-01   7.394480e-03
  3.632885e+00    5.313371e-01   7.504820e-03
  3.635095e+00    5.448442e-01   7.614161e-03
  3.637306e+00    5.418566e-01   7.607770e-03
  3.639516e+00    5.199903e-01   7.467033e-03
  3.641727e+00    5.234391e-01   7.506150e-03
  3.643937e+00    5.262068e-01   7.540443e-03
  3.646148e+00    5.256398e-01   7.550891e-03
  3.648358e+00    5.231206e-01   7.547474e-03
  3.650569e+00    5.401398e-01   7.684106e-03
  3.652779e+00    5.316425e-01   7.638178e-03
  3.654990e+00    5.215887e-01   7.580394e-03
  3.657200e+00    5.255755e-01   7.624036e-03
  3.659410e+00    5.300559e-01   7.671444e-03
  3.661621e+00    5.379156e-01   7.743269e-03
  3.663831e+00    5.490386e-01   7.838334e-03
  3.666042e+00    5.201704e-01   7.644442e-03
  3.668252e+00    5.406975e-01   7.809208e-03
  3.670463e+00    5.208485e-01   7.679613e-03
  3.672673e+00    5.317779e-01   7.775191e-03
  3.674884e+00    5.353961e-01   7.817049e-03
  3.677094e+00    5.480809e-01   7.924920e-03
  3.679305e+00    5.325490e-01   7.827399e-03
  3.681515e+00    5.284395e-01   7.812724e-03
  3.683726e+00    5.382781e-01   7.901053e-03
  3.685936e+00    5.286135e-01   7.845467e-03
  3.688146e+00    5.301733e-01   7.872900e-03
  3.690357e+00    5.270714e-01   7.865722e-03
  3.692567e+00    5.229495e-01   7.850991e-03
  3.694778e+00    5.258209e-01   7.888552e-03
  3.696988e+00    5.327842e-01   7.956685e-03
  3.699199e+00    5.237663e-01   7.905295e-03
  3.701409e+00    5.230857e-01   7.916493e-03
  3.703620e+00    5.158471e-01   7.877697e-03
  3.705830e+00    5.119944e-01   7.864420e-03
  3.708041e+00    5.251718e-01   7.981587e-03
  3.710251e+00    5.100968e-01   7.882725e-03
  3.712461e+00    5.218168e-01   7.989437e-03
  3.714672e+00    5.373431e-01   8.124447e-03
  3.716882e+00    5.371667e-01   8.140079e-03
  3.719093e+00    5.084325e-01   7.936320e-03
  3.721303e+00    5.184419e-01   8.030980e-03
  3.723514e+00    5.071622e-01   7.960236e-03
  3.725724e+00    5.027874e-01   7.942696e-03
  3.727935e+00    5.136918e-01   8.045742e-03
  3.730145e+00    5.222487e-01   8.129908e-03
  3.732356e+00    5.188825e-01   8.121232e-03
  3.734566e+00    5.294905e-01   8.221610e-03
  3.736776e+00    5.223992e-01   8.184271e-03
  3.738987e+00    5.275944e-01   8.242816e-03
  3.741197e+00    5.157178e-01   8.167600e-03
  3.743408e+00    5.128548e-01   8.162911e-03
  3.745618e+00    5.256297e-01   8.282471e-03
  3.747829e+00    5.141040e-01   8.209360e-03
  3.750039e+00    5.174224e-01   8.254209e-03
  3.752250e+00    5.180291e-01   8.277721e-03
  3.754460e+00    5.063434e-01   8.202259e-03
  3.756671e+00    5.368909e-01   8.465338e-03
  3.758881e+00    5.117740e-01   8.283712e-03
  3.761091e+00    4.920070e-01   8.140958e-03
  3.763302e+00    4.993067e-01   8.220007e-03
  3.765512e+00    5.232963e-01   8.434742e-03
  3.767723e+00    5.077747e-01   8.328049e-03
  3.769933e+00    5.345424e-01   8.564604e-03
  3.772144e+00    5.256960e-01   8.513441e-03
  3.774354e+00    4.979758e-01   8.305592e-03
  3.776565e+00    4.858940e-01   8.223707e-03
  3.778775e+00    4.832179e-01   8.220564e-03
  3.780986e+00    4.922720e-01   8.317235e-03
  3.783196e+00    5.198275e-01   8.567458e-03
  3.785407e+00    5.040787e-01   8.457144e-03
  3.787617e+00    4.990361e-01   8.435372e-03
  3.789827e+00    5.010608e-01   8.473015e-03
  3.792038e+00    5.070903e-01   8.544757e-03
  3.794248e+00    5.060750e-01   8.557458e-03
  3.796459e+00    5.015780e-01   8.540728e-03
  3.798669e+00    4.980116e-01   8.531658e-03
  3.800880e+00    4.996461e-01   8.566999e-03
  3.803090e+00    5.104668e-01   8.681356e-03
  3.805301e+00    5.128503e-01   8.723966e-03
  3.807511e+00    5.177478e-01   8.787945e-03
  3.809722e+00    5.063386e-01   8.712925e-03
  3.811932e+00    4.727808e-01   8.440852e-03
  3.814142e+00    5.087369e-01   8.779049e-03
  3.816353e+00    5.167569e-01   8.871237e-03
  3.818563e+00    5.095249e-01   8.832287e-03
  3.820774e+00    4.849690e-01   8.639676e-03
  3.822984e+00    4.884587e-01   8.693848e-03
  3.825195e+00    5.021903e-01   8.839045e-03
  3.827405e+00    4.797331e-01   8.662584e-03
  3.829616e+00    4.895349e-01   8.774511e-03
  3.831826e+00    4.892826e-01   8.796211e-03
  3.834037e+00    4.921754e-01   8.846572e-03
  3.836247e+00    4.753035e-01   8.717782e-03
  3.838457e+00    5.037347e-01   8.999920e-03
  3.840668e+00    5.143126e-01   9.119555e-03
  3.842878e+00    5.085209e-01   9.093897e-03
  3.845089e+00    5.135114e-01   9.164466e-03
  3.847299e+00    5.143567e-01   9.198285e-03
  3.849510e+00    5.129324e-01   9.211831e-03
  3.851720e+00    5.200091e-01   9.297111e-03
  3.853931e+00    4.983406e-01   9.120478e-03
  3.856141e+00    4.607175e-01   8.787693e-03
  3.858352e+00    5.088747e-01   9.255126e-03
  3.860562e+00    4.841712e-01   9.046817e-03
  3.862772e+00    4.989816e-01   9.203766e-03
  3.864983e+00    5.083972e-01   9.310186e-03
  3.867193e+00    5.040138e-01   9.289936e-03
  3.869404e+00    5.033900e-01   9.304260e-03
  3.871614e+00    4.753126e-01   9.060591e-03
  3.873825e+00    5.014186e-01   9.326623e-03
  3.876035e+00    5.144017e-01   9.467531e-03
  3.878246e+00    5.300597e-01   9.637390e-03
  3.880456e+00    5.021464e-01   9.409475e-03
  3.882667e+00    4.912817e-01   9.336350e-03
  3.884877e+00    5.110226e-01   9.552454e-03
  3.887087e+00    5.056779e-01   9.532761e-03
  3.889298e+00    4.832856e-01   9.349400e-03
  3.891508e+00    4.791590e-01   9.339524e-03
  3.893719e+00    5.167283e-01   9.730576e-03
  3.895929e+00    4.909813e-01   9.516552e-03
  3.898140e+00    4.808491e-01   9.449156e-03
  3.900350e+00    4.897990e-01   9.568865e-03
  3.902561e+00    4.960351e-01   9.662066e-03
  3.904771e+00    5.086865e-01   9.818030e-03
  3.906982e+00    4.880255e-01   9.649605e-03
  3.909192e+00    5.134168e-01   9.931806e-03
  3.911403e+00    5.009847e-01   9.845221e-03
  3.913613e+00    4.854839e-01   9.725960e-03
  3.915823e+00    4.804847e-01   9.710080e-03
  3.918034e+00    4.830967e-01   9.771692e-03
  3.920244e+00    5.051393e-01   1.002836e-02
  3.922455e+00    5.054135e-01   1.006790e-02
  3.924665e+00    4.974444e-01   1.002494e-02
  3.926876e+00    4.771461e-01   9.854970e-03
  3.929086e+00    5.049827e-01   1.017633e-02
  3.931297e+00    5.164454e-01   1.032711e-02
  3.933507e+00    4.897290e-01   1.008532e-02
  3.935718e+00    4.943019e-01   1.016133e-02
  3.937928e+00    5.081228e-01   1.033252e-02
  3.940138e+00    4.798985e-01   1.007047e-02
  3.942349e+00    5.004718e-01   1.031440e-02
  3.944559e+00    4.940124e-01   1.027785e-02
  3.946770e+00    4.759744e-01   1.011823e-02
  3.948980e+00    5.000460e-01   1.040219e-02
  3.951191e+00    4.853302e-01   1.027866e-02
  3.953401e+00    4.906514e-01   1.036648e-02
  3.955612e+00    4.684108e-01   1.015974e-02
  3.957822e+00    5.155075e-01   1.069095e-02
  3.960033e+00    5.082412e-01   1.064868e-02
  3.962243e+00    5.104398e-01   1.070544e-02
  3.964453e+00    4.988882e-01   1.061710e-02
  3.966664e+00    4.966656e-01   1.062720e-02
  3.968874e+00    5.187491e-01   1.089020e-02
  3.971085e+00    4.787650e-01   1.048397e-02
  3.973295e+00    4.876679e-01   1.060240e-02
  3.975506e+00    5.133564e-01   1.090034e-02
  3.977716e+00    5.179620e-01   1.097180e-02
  3.979927e+00    5.207076e-01   1.102386e-02
  3.982137e+00    4.807148e-01   1.061426e-02
  3.984348e+00    5.096496e-01   1.095203e-02
  3.986558e+00    4.829874e-01   1.068404e-02
  3.988768e+00    4.658417e-01   1.051525e-02
  3.990979e+00    4.912234e-01   1.082069e-02
  3.993189e+00    5.416197e-01   1.138668e-02
  3.995400e+00    5.045012e-01   1.101365e-02
  3.997610e+00    4.900169e-01   1.088429e-02
  3.999821e+00    4.619322e-01   1.060443e-02
  4.002031e+00    5.016116e-01   1.108955e-02
  4.004242e+00    4.940034e-01   1.104388e-02
  4.006452e+00    5.109561e-01   1.127235e-02
  4.008663e+00    4.739978e-01   1.089652e-02
  4.010873e+00    4.825511e-01   1.103431e-02
  4.013084e+00    4.769845e-01   1.101108e-02
  4.015294e+00    4.632357e-01   1.089135e-02
  4.017504e+00    4.475221e-01   1.074519e-02
  4.019715e+00    5.028120e-01   1.143285e-02
  4.021925e+00    4.754498e-01   1.116023e-02
  4.024136e+00    4.759607e-01   1.120952e-02
  4.026346e+00    4.535796e-01   1.098539e-02
  4.028557e+00    4.787181e-01   1.132980e-02
  4.030767e+00    5.083210e-01   1.172170e-02
  4.032978e+00    4.720394e-01   1.134146e-02
  4.035188e+00    5.059153e-01   1.178845e-02
  4.037399e+00    4.734281e-01   1.145079e-02
  4.039609e+00    4.667555e-01   1.141674e-02
  4.041819e+00    4.686217e-01   1.148757e-02
  4.044030e+00    4.686852e-01   1.153742e-02
  4.046240e+00    4.710649e-01   1.161600e-02
  4.048451e+00    4.794888e-01   1.177001e-02
  4.050661e+00    4.969510e-01   1.203478e-02
  4.052872e+00    4.753909e-01   1.182304e-02
  4.055082e+00    4.647289e-01   1.174233e-02
  4.057293e+00    4.546777e-01   1.166666e-02
  4.059503e+00    4.782918e-01   1.202027e-02
  4.061714e+00    4.758342e-01   1.204550e-02
  4.063924e+00    5.153989e-01   1.259488e-02
  4.066134e+00    4.781938e-01   1.218906e-02
  4.068345e+00    4.501992e-01   1.188374e-02
  4.070555e+00    4.902750e-01   1.246129e-02
  4.072766e+00    4.797266e-01   1.238727e-02
  4.074976e+00    4.459049e-01   1.200204e-02
  4.077187e+00    4.545442e-01   1.217807e-02
  4.079397e+00    4.748270e-01   1.251029e-02
  4.081608e+00    4.996946e-01   1.290057e-02
  4.083818e+00    4.476076e-01   1.227319e-02
  4.086029e+00    4.369983e-01   1.219076e-02
  4.088239e+00    4.621914e-01   1.260475e-02
  4.090449e+00    4.688169e-01   1.276358e-02
  4.092660e+00    5.068244e-01   1.334388e-02
  4.094870e+00    4.757645e-01   1.300063e-02
  4.097081e+00    4.631636e-01   1.289735e-02
  4.099291e+00    4.708047e-01   1.305726e-02
  4.101502e+00    4.788133e-01   1.321688e-02
  4.103712e+00    4.532467e-01   1.290715e-02
  4.105923e+00    4.937750e-01   1.352393e-02
  4.108133e+00    4.857510e-01   1.346541e-02
  4.110344e+00    4.930346e-01   1.361778e-02
  4.112554e+00    5.062704e-01   1.385390e-02
  4.114764e+00    5.188748e-01   1.408171e-02
  4.116975e+00    5.092746e-01   1.400580e-02
  4.119185e+00    5.254582e-01   1.428425e-02
  4.121396e+00    4.808197e-01   1.372089e-02
  4.123606e+00    4.893857e-01   1.389888e-02
  4.125817e+00    4.871406e-01   1.392523e-02
  4.128027e+00    5.271758e-01   1.454721e-02
  4.130238e+00    4.750597e-01   1.386861e-02
  4.132448e+00    5.004950e-01   1.429681e-02
  4.134659e+00    4.955327e-01   1.428703e-02
  4.136869e+00    4.899127e-01   1.426914e-02
  4.139080e+00    4.643429e-01   1.395426e-02
  4.141290e+00    4.817066e-01   1.427589e-02
  4.143500e+00    4.952556e-01   1.454193e-02
  4.145711e+00    4.871379e-01   1.448972e-02
  4.147921e+00    4.688105e-01   1.427948e-02
  4.150132e+00    5.068425e-01   1.491858e-02
  4.152342e+00    5.154186e-01   1.511704e-02
  4.154553e+00    5.131083e-01   1.515482e-02
  4.156763e+00    4.986573e-01   1.501386e-02
  4.158974e+00    4.920819e-01   1.498951e-02
  4.161184e+00    5.086128e-01   1.531468e-02
  4.163395e+00    5.051067e-01   1.533980e-02
  4.165605e+00    5.287073e-01   1.577576e-02
  4.167815e+00    5.115063e-01   1.559808e-02
  4.170026e+00    5.288724e-01   1.594401e-02
  4.172236e+00    4.857289e-01   1.536256e-02
  4.174447e+00    4.522440e-01   1.490430e-02
  4.176657e+00    4.947988e-01   1.567465e-02
  4.178868e+00    4.947372e-01   1.576275e-02
  4.181078e+00    4.617731e-01   1.531414e-02
  4.183289e+00    5.361583e-01   1.659614e-02
  4.185499e+00    4.936927e-01   1.601931e-02
  4.187710e+00    4.653521e-01   1.564381e-02
  4.189920e+00    4.999399e-01   1.631221e-02
  4.192130e+00    4.929185e-01   1.629658e-02
  4.194341e+00    5.195884e-01   1.683388e-02
  4.196551e+00    5.471965e-01   1.738492e-02
  4.198762e+00    4.528027e-01   1.591497e-02
  4.200972e+00    5.080441e-01   1.696687e-02
  4.203183e+00    4.771467e-01   1.655129e-02
  4.205393e+00    4.866922e-01   1.682700e-02
  4.207604e+00    5.145009e-01   1.741972e-02
  4.209814e+00    4.845336e-01   1.702023e-02
  4.212025e+00    4.939848e-01   1.730721e-02
  4.214235e+00    5.082716e-01   1.768032e-02
  4.216445e+00    5.206910e-01   1.802427e-02
  4.218656e+00    4.645262e-01   1.715238e-02
  4.220866e+00    5.173950e-01   1.823571e-02
  4.223077e+00    5.519013e-01   1.897907e-02
  4.225287e+00    5.004397e-01   1.821496e-02
  4.227498e+00    5.052541e-01   1.844572e-02
  4.229708e+00    4.272860e-01   1.710108e-02
  4.231919e+00    4.570942e-01   1.783336e-02
  4.234129e+00    4.719977e-01   1.827400e-02
  4.236340e+00    5.131037e-01   1.921612e-02
  4.238550e+00    4.956309e-01   1.905287e-02
  4.240761e+00    5.413063e-01   2.008713e-02
  4.242971e+00    5.100411e-01   1.967719e-02
  4.245181e+00    4.430686e-01   1.851241e-02
  4.247392e+00    4.540422e-01   1.891491e-02
  4.249602e+00    4.915734e-01   1.987698e-02
  4.251813e+00    4.777418e-01   1.978842e-02
  4.254023e+00    4.163469e-01   1.865932e-02
  4.256234e+00    5.575762e-01   2.182367e-02
  4.258444e+00    5.286719e-01   2.147344e-02
  4.260655e+00    4.938954e-01   2.098305e-02
  4.262865e+00    5.279146e-01   2.193963e-02
  4.265076e+00    4.689619e-01   2.091407e-02
  4.267286e+00    4.943342e-01   2.172630e-02
  4.269496e+00    4.835345e-01   2.175084e-02
  4.271707e+00    4.384306e-01   2.096655e-02
  4.273917e+00    5.199476e-01   2.312768e-02
  4.276128e+00    5.312927e-01   2.369015e-02
  4.278338e+00    5.114251e-01   2.355288e-02
  4.280549e+00    4.500169e-01   2.241054e-02
  4.282759e+00    4.100264e-01   2.169937e-02
  4.284970e+00    4.814665e-01   2.386111e-02
  4.287180e+00    4.469522e-01   2.326615e-02
  4.289391e+00    4.666834e-01   2.395226e-02
  4.291601e+00    4.916349e-01   2.478044e-02
  4.293811e+00    4.811374e-01   2.470653e-02
  4.296022e+00    4.634722e-01   2.444315e-02
  4.298232e+00    5.495682e-01   2.683983e-02
  4.300443e+00    5.543900e-01   2.718052e-02
  4.302653e+00    4.559324e-01   2.486151e-02
  4.304864e+00    4.045689e-01   2.362265e-02
  4.307074e+00    4.730587e-01   2.577356e-02
  4.309285e+00    4.096709e-01   2.420211e-02
  4.311495e+00    4.942921e-01   2.683379e-02
  4.313706e+00    4.670584e-01   2.632867e-02
  4.315916e+00    5.282019e-01   2.827465e-02
  4.318126e+00    4.461928e-01   2.624565e-02
  4.320337e+00    3.693025e-01   2.411708e-02
  4.322547e+00    4.419676e-01   2.666422e-02
  4.324758e+00    4.428022e-01   2.696665e-02
  4.326968e+00    5.135922e-01   2.936883e-02
  4.329179e+00    5.269180e-01   3.007605e-02
  4.331389e+00    5.344076e-01   3.063851e-02
  4.333600e+00    4.661037e-01   2.895404e-02
  4.335810e+00    4.797103e-01   2.972435e-02
  4.338021e+00    4.153230e-01   2.801049e-02
  4.340231e+00    5.127389e-01   3.151459e-02
  4.342442e+00    4.394833e-01   2.956687e-02
  4.344652e+00    4.146471e-01   2.911009e-02
  4.346862e+00    3.356179e-01   2.655511e-02
  4.349073e+00    4.046622e-01   2.958419e-02
  4.351283e+00    3.984362e-01   2.979448e-02
  4.353494e+00    4.400129e-01   3.179305e-02
  4.355704e+00    4.790120e-01   3.370793e-02
  4.357915e+00    4.653180e-01   3.377437e-02
  4.360125e+00    4.234249e-01   3.276792e-02
  4.362336e+00    5.354665e-01   3.752100e-02
  4.364546e+00    5.524550e-01   3.880518e-02
  4.366757e+00    5.244129e-01   3.856055e-02
  4.368967e+00    4.673024e-01   3.712619e-02
  4.371177e+00    5.447873e-01   4.093825e-02
  4.373388e+00    5.599576e-01   4.243219e-02
  4.375598e+00    4.423234e-01   3.857256e-02
  4.377809e+00    5.068514e-01   4.233639e-02
  4.380019e+00    4.427641e-01   4.056324e-02
  4.382230e+00    4.019888e-01   3.972884e-02
  4.384440e+00    4.100543e-01   4.128227e-02
  4.386651e+00    2.932782e-01   3.598810e-02
  4.388861e+00    3.419487e-01   4.016409e-02
  4.391072e+00    3.090492e-01   3.952403e-02
  4.393282e+00    4.404704e-01   4.900992e-02
  4.395492e+00    3.336454e-01   4.442536e-02
  4.397703e+00    2.721853e-01   4.196150e-02
  4.399913e+00    4.631289e-01   5.750608e-02
  4.402124e+00    3.144550e-01   5.007328e-02
  4.404334e+00    2.422733e-01   4.672074e-02
  4.406545e+00    1.173193e-01   3.493118e-02
  4.408755e+00    3.719056e-01   6.744835e-02
  4.410966e+00    1.799877e-01   5.193420e-02
  4.413176e+00   -1.018338e-01            nan
  4.415387e+00   -5.664976e-01            nan
  4.417597e+00   -1.850590e+00            nan
  4.419807e+00   -1.939845e-01            nan
