# == pyFAI calibration ==
# Distance Sample to Detector: 0.216 m
# PONI: 1.166e-01, 1.308e-01 m
# Rotations: 0.000000 0.000000 0.000000 rad
# 
# == Fit2d calibration ==
# Distance Sample-beamCenter: 216.000 mm
# Center: x=1744.293, y=1555.000 pix
# Tilt: 0.000 deg  TiltPlanRot: 0.000 deg
# 
# Detector Eiger 9M	 PixelSize= 7.500e-05, 7.500e-05 m
#    Detector has a mask: True 
#    Detector has a dark current: False 
#    detector has a flat field: False 
# 
# Wavelength: 9.8e-11 m
# Mask applied: from detector
# Dark current applied: False
# Flat field applied: False
# Polarization factor: None
# Normalization factor: 1.0
# 
# Headers of the input frame:
# {
# "_array_data.header_convention": "SLS_1.0",
# "_array_data.header_contents": "# Detector: Dectris Eiger 9M, S/N E-18-0102\r\n# Pixel_size 75e-6 m x 75e-6 m\r\n# Silicon sensor, thickness 0.000450 m\r\n# Exposure_time 0.024997 s\r\n# Exposure_period 0.025000 s\r\n# Count_cutoff 62318 counts\r\n# Wavelength 0.980106 A\r\n# Detector_distance 0.215992 m\r\n# Beam_xy (1555, 1744) pixels\r\n# Start_angle 0.000000 deg.\r\n# Angle_increment 0.000000 deg.",
# "Content-Type": "application/octet-stream;",
# "conversions": "x-CBF_BYTE_OFFSET",
# "Content-Transfer-Encoding": "BINARY",
# "X-Binary-Size": "10166622",
# "X-Binary-ID": "1",
# "X-Binary-Element-Type": "signed 32-bit integer",
# "X-Binary-Element-Byte-Order": "LITTLE_ENDIAN",
# "Content-MD5": "zvh3DomLh2GxuabZJrFkyw==",
# "X-Binary-Number-of-Elements": "10166590",
# "X-Binary-Size-Fastest-Dimension": "3110",
# "X-Binary-Size-Second-Dimension": "3269",
# "X-Binary-Size-Padding": "4095"
# }
# --> H:/Proxima2a_2019-04-05/RAW_DATA/C5_gel17_position5/C5_mesh_1_data.cbf/C5_mesh_1_data.cbf000189.dat
#        q_A^-1              I           sigma 
  1.105228e-03    2.064502e+00   7.774898e-01
  3.315685e-03    1.758892e+00   4.362797e-01
  5.526141e-03    1.557954e+00   3.175042e-01
  7.736597e-03    1.339760e+00   2.487332e-01
  9.947054e-03    9.702222e-01   1.866002e-01
  1.215751e-02    1.231060e+00   1.900676e-01
  1.436797e-02    1.305870e+00   1.800635e-01
  1.657842e-02    1.409420e+00   1.741264e-01
  1.878888e-02    1.596602e+00   1.740852e-01
  2.099934e-02    1.665914e+00   1.682396e-01
  2.320979e-02    1.520958e+00   1.528943e-01
  2.542025e-02    1.315163e+00   1.358624e-01
  2.763070e-02    1.228841e+00   1.259616e-01
  2.984116e-02    1.428563e+00   1.306851e-01
  3.205162e-02    1.391100e+00   1.244415e-01
  3.426207e-02    1.545828e+00   1.268690e-01
  3.647253e-02    1.541943e+00   1.228072e-01
  3.868299e-02    1.502465e+00   1.177193e-01
  4.089344e-02    1.555301e+00   1.164898e-01
  4.310390e-02    1.553256e+00   1.133824e-01
  4.531436e-02    1.432619e+00   1.062016e-01
  4.752481e-02    1.488634e+00   1.057093e-01
  4.973527e-02    1.319761e+00   9.729700e-02
  5.194572e-02    1.380105e+00   9.735514e-02
  5.415618e-02    1.503637e+00   9.951996e-02
  5.636664e-02    1.605523e+00   1.008030e-01
  5.857709e-02    1.451507e+00   9.402086e-02
  6.078755e-02    1.582120e+00   9.635560e-02
  6.299801e-02    1.540743e+00   9.340317e-02
  6.520846e-02    1.523733e+00   9.129882e-02
  6.741892e-02    1.576972e+00   9.134017e-02
  6.962938e-02    1.544837e+00   8.896266e-02
  7.183983e-02    1.510067e+00   8.659050e-02
  7.405029e-02    1.410550e+00   8.242812e-02
  7.626074e-02    1.563642e+00   8.551828e-02
  7.847120e-02    1.457512e+00   8.139168e-02
  8.068166e-02    1.477949e+00   8.082916e-02
  8.289211e-02    1.474744e+00   7.965720e-02
  8.510257e-02    1.470705e+00   7.850768e-02
  8.731303e-02    1.496368e+00   7.817788e-02
  8.952348e-02    1.507858e+00   7.750466e-02
  9.173394e-02    1.461259e+00   7.536983e-02
  9.394439e-02    1.512135e+00   7.576079e-02
  9.615485e-02    1.471467e+00   7.386949e-02
  9.836531e-02    1.505571e+00   7.387423e-02
  1.005758e-01    1.657292e+00   7.665121e-02
  1.027862e-01    1.611408e+00   7.476368e-02
  1.049967e-01    1.588447e+00   7.344232e-02
  1.072071e-01    1.585753e+00   7.261872e-02
  1.094176e-01    1.510194e+00   7.014694e-02
  1.116280e-01    1.464513e+00   6.838900e-02
  1.138385e-01    1.503936e+00   6.862587e-02
  1.160490e-01    1.485541e+00   6.755139e-02
  1.182594e-01    1.563389e+00   6.864656e-02
  1.204699e-01    1.641276e+00   6.968695e-02
  1.226803e-01    1.565425e+00   6.743892e-02
  1.248908e-01    1.588932e+00   6.733861e-02
  1.271012e-01    1.616325e+00   6.732210e-02
  1.293117e-01    1.606904e+00   6.654859e-02
  1.315222e-01    1.583439e+00   6.550191e-02
  1.337326e-01    1.597636e+00   6.524758e-02
  1.359431e-01    1.613299e+00   6.560504e-02
  1.381535e-01    1.553759e+00   6.524728e-02
  1.403640e-01    1.541832e+00   6.527700e-02
  1.425744e-01    1.568614e+00   6.594668e-02
  1.447849e-01    1.684085e+00   6.834657e-02
  1.469953e-01    1.704714e+00   6.872086e-02
  1.492058e-01    1.676506e+00   6.807075e-02
  1.514163e-01    1.545607e+00   6.525077e-02
  1.536267e-01    1.582666e+00   6.589947e-02
  1.558372e-01    1.564932e+00   6.538455e-02
  1.580476e-01    1.607639e+00   6.610993e-02
  1.602581e-01    1.576701e+00   6.530442e-02
  1.624685e-01    1.623996e+00   6.609518e-02
  1.646790e-01    1.619720e+00   6.581859e-02
  1.668895e-01    1.630031e+00   6.583702e-02
  1.690999e-01    1.699929e+00   6.703193e-02
  1.713104e-01    1.682410e+00   6.647867e-02
  1.735208e-01    1.727689e+00   6.715781e-02
  1.757313e-01    1.758898e+00   6.754929e-02
  1.779417e-01    1.766696e+00   6.747809e-02
  1.801522e-01    1.792389e+00   6.775051e-02
  1.823626e-01    1.873359e+00   6.903331e-02
  1.845731e-01    1.926720e+00   6.978282e-02
  1.867836e-01    1.913177e+00   6.930246e-02
  1.889940e-01    1.919171e+00   6.918411e-02
  1.912045e-01    2.042011e+00   7.112558e-02
  1.934149e-01    2.111562e+00   7.208466e-02
  1.956254e-01    2.072680e+00   7.118237e-02
  1.978358e-01    1.974181e+00   6.923232e-02
  2.000463e-01    1.974036e+00   6.900033e-02
  2.022568e-01    2.010895e+00   6.941301e-02
  2.044672e-01    1.923475e+00   6.765482e-02
  2.066777e-01    2.076020e+00   7.005311e-02
  2.088881e-01    1.993871e+00   6.842852e-02
  2.110986e-01    1.985671e+00   6.805345e-02
  2.133090e-01    1.991511e+00   6.793194e-02
  2.155195e-01    1.931243e+00   6.667422e-02
  2.177300e-01    1.954961e+00   6.655540e-02
  2.199404e-01    1.874069e+00   6.344684e-02
  2.221509e-01    1.986028e+00   6.424204e-02
  2.243613e-01    1.969760e+00   6.316733e-02
  2.265718e-01    2.033687e+00   6.347673e-02
  2.287822e-01    2.075617e+00   6.349301e-02
  2.309927e-01    2.066058e+00   6.276958e-02
  2.332031e-01    2.128398e+00   6.316423e-02
  2.354136e-01    2.187062e+00   6.350986e-02
  2.376241e-01    2.172042e+00   6.280015e-02
  2.398345e-01    2.174459e+00   6.237004e-02
  2.420450e-01    2.225765e+00   6.265059e-02
  2.442554e-01    2.201441e+00   6.187808e-02
  2.464659e-01    2.131371e+00   6.047658e-02
  2.486763e-01    2.136029e+00   6.014464e-02
  2.508868e-01    2.159791e+00   6.009675e-02
  2.530973e-01    2.100665e+00   5.890100e-02
  2.553077e-01    2.004108e+00   5.718239e-02
  2.575182e-01    2.141717e+00   5.876323e-02
  2.597286e-01    2.095200e+00   5.778373e-02
  2.619391e-01    2.102119e+00   5.754583e-02
  2.641495e-01    2.121656e+00   5.749266e-02
  2.663600e-01    2.150703e+00   5.756655e-02
  2.685704e-01    2.099432e+00   5.656794e-02
  2.707809e-01    2.040551e+00   5.547304e-02
  2.729914e-01    2.094574e+00   5.590963e-02
  2.752018e-01    2.101089e+00   5.570508e-02
  2.774123e-01    2.087636e+00   5.524282e-02
  2.796227e-01    2.029532e+00   5.419921e-02
  2.818332e-01    1.973282e+00   5.317623e-02
  2.840436e-01    1.972112e+00   5.290278e-02
  2.862541e-01    1.966807e+00   5.257761e-02
  2.884646e-01    2.006217e+00   5.284973e-02
  2.906750e-01    1.986578e+00   5.234110e-02
  2.928855e-01    1.950877e+00   5.162828e-02
  2.950959e-01    2.029741e+00   5.241960e-02
  2.973064e-01    1.960115e+00   5.128117e-02
  2.995168e-01    1.961997e+00   5.107339e-02
  3.017273e-01    1.948339e+00   5.067092e-02
  3.039377e-01    1.947625e+00   5.043982e-02
  3.061482e-01    1.884437e+00   4.940021e-02
  3.083587e-01    1.951866e+00   5.005864e-02
  3.105691e-01    1.908974e+00   4.929412e-02
  3.127796e-01    1.895712e+00   4.891608e-02
  3.149900e-01    1.897318e+00   4.873289e-02
  3.172005e-01    1.926250e+00   4.890224e-02
  3.194109e-01    1.930327e+00   4.875191e-02
  3.216214e-01    1.849062e+00   4.751997e-02
  3.238319e-01    1.854968e+00   4.740720e-02
  3.260423e-01    1.938755e+00   4.827302e-02
  3.282528e-01    1.910253e+00   4.772612e-02
  3.304632e-01    1.854395e+00   4.684099e-02
  3.326737e-01    1.833932e+00   4.640008e-02
  3.348841e-01    1.870802e+00   4.668244e-02
  3.370946e-01    1.828786e+00   4.598160e-02
  3.393050e-01    1.873887e+00   4.636882e-02
  3.415155e-01    1.841701e+00   4.579606e-02
  3.437260e-01    1.827428e+00   4.544916e-02
  3.459364e-01    1.896715e+00   4.613145e-02
  3.481469e-01    1.883152e+00   4.579845e-02
  3.503573e-01    1.880665e+00   4.560148e-02
  3.525678e-01    1.826740e+00   4.478277e-02
  3.547782e-01    1.865539e+00   4.509228e-02
  3.569887e-01    1.899649e+00   4.534143e-02
  3.591992e-01    1.874059e+00   4.487566e-02
  3.614096e-01    1.822387e+00   4.409923e-02
  3.636201e-01    1.831804e+00   4.405766e-02
  3.658305e-01    1.803851e+00   4.357108e-02
  3.680410e-01    1.854023e+00   4.402092e-02
  3.702514e-01    1.860803e+00   4.395303e-02
  3.724619e-01    1.891457e+00   4.416268e-02
  3.746724e-01    1.873647e+00   4.380763e-02
  3.768828e-01    1.812814e+00   4.294559e-02
  3.790933e-01    1.793110e+00   4.257239e-02
  3.813037e-01    1.817577e+00   4.272160e-02
  3.835142e-01    1.842316e+00   4.287010e-02
  3.857246e-01    1.759018e+00   4.175418e-02
  3.879351e-01    1.761952e+00   4.165369e-02
  3.901455e-01    1.820990e+00   4.221100e-02
  3.923560e-01    1.804520e+00   4.188613e-02
  3.945665e-01    1.774041e+00   4.139917e-02
  3.967769e-01    1.829619e+00   4.191099e-02
  3.989874e-01    1.828246e+00   4.176445e-02
  4.011978e-01    1.821699e+00   4.156141e-02
  4.034083e-01    1.825593e+00   4.147807e-02
  4.056187e-01    1.843431e+00   4.155184e-02
  4.078292e-01    1.803143e+00   4.097090e-02
  4.100397e-01    1.830431e+00   4.115371e-02
  4.122501e-01    1.819056e+00   4.090291e-02
  4.144606e-01    1.840368e+00   4.101980e-02
  4.166710e-01    1.887359e+00   4.141669e-02
  4.188815e-01    1.839305e+00   4.076527e-02
  4.210919e-01    1.816788e+00   4.039622e-02
  4.233024e-01    1.801728e+00   4.011013e-02
  4.255128e-01    1.837840e+00   4.039298e-02
  4.277233e-01    1.843856e+00   4.034281e-02
  4.299338e-01    1.835782e+00   4.013855e-02
  4.321442e-01    1.837753e+00   4.004518e-02
  4.343547e-01    1.812011e+00   3.965129e-02
  4.365651e-01    1.783660e+00   3.922809e-02
  4.387756e-01    1.791764e+00   3.920701e-02
  4.409860e-01    1.818968e+00   3.939410e-02
  4.431965e-01    1.782827e+00   3.889294e-02
  4.454070e-01    1.787561e+00   3.883617e-02
  4.476174e-01    1.829463e+00   3.918084e-02
  4.498279e-01    1.784003e+00   3.858573e-02
  4.520383e-01    1.748628e+00   3.809639e-02
  4.542488e-01    1.778939e+00   3.832156e-02
  4.564592e-01    1.755593e+00   3.796714e-02
  4.586697e-01    1.762702e+00   3.794296e-02
  4.608801e-01    1.716904e+00   3.734650e-02
  4.630906e-01    1.732128e+00   3.741238e-02
  4.653011e-01    1.774993e+00   3.777288e-02
  4.675115e-01    1.757463e+00   3.748690e-02
  4.697220e-01    1.721207e+00   3.700111e-02
  4.719324e-01    1.736552e+00   3.706950e-02
  4.741429e-01    1.754416e+00   3.716370e-02
  4.763533e-01    1.737514e+00   3.688945e-02
  4.785638e-01    1.740953e+00   3.683053e-02
  4.807743e-01    1.707476e+00   3.638196e-02
  4.829847e-01    1.727919e+00   3.650662e-02
  4.851952e-01    1.745347e+00   3.659744e-02
  4.874056e-01    1.747585e+00   3.652855e-02
  4.896161e-01    1.684538e+00   3.577467e-02
  4.918265e-01    1.652182e+00   3.534143e-02
  4.940370e-01    1.686494e+00   3.561835e-02
  4.962475e-01    1.737105e+00   3.605960e-02
  4.984579e-01    1.706607e+00   3.565357e-02
  5.006684e-01    1.664900e+00   3.512935e-02
  5.028788e-01    1.670588e+00   3.510403e-02
  5.050893e-01    1.681667e+00   3.513458e-02
  5.072997e-01    1.684438e+00   3.507858e-02
  5.095102e-01    1.688989e+00   3.504182e-02
  5.117206e-01    1.679164e+00   3.485667e-02
  5.139311e-01    1.724710e+00   3.524262e-02
  5.161416e-01    1.732234e+00   3.523596e-02
  5.183520e-01    1.679209e+00   3.461002e-02
  5.205625e-01    1.704511e+00   3.478809e-02
  5.227729e-01    1.679956e+00   3.445609e-02
  5.249834e-01    1.662601e+00   3.419805e-02
  5.271938e-01    1.714424e+00   3.464590e-02
  5.294043e-01    1.770756e+00   3.512923e-02
  5.316148e-01    1.767179e+00   3.501338e-02
  5.338252e-01    1.778786e+00   3.504787e-02
  5.360357e-01    1.802738e+00   3.520274e-02
  5.382461e-01    1.776900e+00   3.487055e-02
  5.404566e-01    1.813532e+00   3.514798e-02
  5.426670e-01    1.760940e+00   3.455656e-02
  5.448775e-01    1.739745e+00   3.427123e-02
  5.470879e-01    1.729022e+00   3.408924e-02
  5.492984e-01    1.822165e+00   3.491757e-02
  5.515089e-01    1.857031e+00   3.517191e-02
  5.537193e-01    1.771720e+00   3.427883e-02
  5.559298e-01    1.743341e+00   3.392860e-02
  5.581402e-01    1.754001e+00   3.395779e-02
  5.603507e-01    1.794110e+00   3.426912e-02
  5.625611e-01    1.791224e+00   3.416725e-02
  5.647716e-01    1.775866e+00   3.394659e-02
  5.669821e-01    1.780797e+00   3.392038e-02
  5.691925e-01    1.807616e+00   3.410151e-02
  5.714030e-01    1.825930e+00   3.420075e-02
  5.736134e-01    1.790462e+00   3.379494e-02
  5.758239e-01    1.759534e+00   3.343026e-02
  5.780343e-01    1.773917e+00   3.349562e-02
  5.802448e-01    1.680411e+00   3.253262e-02
  5.824552e-01    1.667114e+00   3.233564e-02
  5.846657e-01    1.678485e+00   3.237812e-02
  5.868762e-01    1.650860e+00   3.204371e-02
  5.890866e-01    1.624508e+00   3.172099e-02
  5.912971e-01    1.640424e+00   3.180999e-02
  5.935075e-01    1.659070e+00   3.192416e-02
  5.957180e-01    1.632552e+00   3.160303e-02
  5.979284e-01    1.671300e+00   3.191058e-02
  6.001389e-01    1.655088e+00   3.169079e-02
  6.023494e-01    1.661980e+00   3.169221e-02
  6.045598e-01    1.668517e+00   3.168983e-02
  6.067703e-01    1.651905e+00   3.146829e-02
  6.089807e-01    1.649488e+00   3.138201e-02
  6.111912e-01    1.711769e+00   3.190516e-02
  6.134016e-01    1.672418e+00   3.147341e-02
  6.156121e-01    1.694927e+00   3.162150e-02
  6.178226e-01    1.761300e+00   3.217088e-02
  6.200330e-01    1.698686e+00   3.153157e-02
  6.222435e-01    1.694397e+00   3.142934e-02
  6.244539e-01    1.723742e+00   3.163825e-02
  6.266644e-01    1.753004e+00   3.184345e-02
  6.288748e-01    1.735276e+00   3.162035e-02
  6.310853e-01    1.765737e+00   3.183474e-02
  6.332957e-01    1.720585e+00   3.136443e-02
  6.355062e-01    1.694843e+00   3.106842e-02
  6.377167e-01    1.762311e+00   3.161998e-02
  6.399271e-01    1.741432e+00   3.137191e-02
  6.421376e-01    1.738901e+00   3.128925e-02
  6.443480e-01    1.726942e+00   3.112216e-02
  6.465585e-01    1.715011e+00   3.095572e-02
  6.487689e-01    1.693787e+00   3.070547e-02
  6.509794e-01    1.692338e+00   3.063445e-02
  6.531899e-01    1.649648e+00   3.018873e-02
  6.554003e-01    1.619666e+00   2.985688e-02
  6.576108e-01    1.650493e+00   3.008356e-02
  6.598212e-01    1.624261e+00   2.978811e-02
  6.620317e-01    1.598889e+00   2.949973e-02
  6.642421e-01    1.637579e+00   2.979929e-02
  6.664526e-01    1.642954e+00   2.979316e-02
  6.686630e-01    1.652768e+00   2.982676e-02
  6.708735e-01    1.667827e+00   2.990737e-02
  6.730840e-01    1.657552e+00   2.976076e-02
  6.752944e-01    1.601115e+00   2.919653e-02
  6.775049e-01    1.637177e+00   2.946987e-02
  6.797153e-01    1.654166e+00   2.956875e-02
  6.819258e-01    1.646028e+00   2.944273e-02
  6.841362e-01    1.638880e+00   2.932591e-02
  6.863467e-01    1.596514e+00   2.889252e-02
  6.885572e-01    1.656015e+00   2.937328e-02
  6.907676e-01    1.639176e+00   2.917120e-02
  6.929781e-01    1.639896e+00   2.912574e-02
  6.951885e-01    1.594374e+00   2.866779e-02
  6.973990e-01    1.597974e+00   2.864937e-02
  6.996094e-01    1.619834e+00   2.879393e-02
  7.018199e-01    1.623570e+00   2.877651e-02
  7.040303e-01    1.586537e+00   2.839648e-02
  7.062408e-01    1.610352e+00   2.855867e-02
  7.084513e-01    1.613556e+00   2.853737e-02
  7.106617e-01    1.585505e+00   2.823906e-02
  7.128722e-01    1.595338e+00   2.827749e-02
  7.150826e-01    1.572289e+00   2.802408e-02
  7.172931e-01    1.547499e+00   2.775435e-02
  7.195035e-01    1.534265e+00   2.758791e-02
  7.217140e-01    1.562617e+00   2.789089e-02
  7.239245e-01    1.603495e+00   2.848217e-02
  7.261349e-01    1.600209e+00   2.856245e-02
  7.283454e-01    1.593686e+00   2.857703e-02
  7.305558e-01    1.576929e+00   2.848042e-02
  7.327663e-01    1.583918e+00   2.858608e-02
  7.349767e-01    1.605766e+00   2.879911e-02
  7.371872e-01    1.584139e+00   2.859328e-02
  7.393976e-01    1.586882e+00   2.860372e-02
  7.416081e-01    1.595406e+00   2.866416e-02
  7.438186e-01    1.588068e+00   2.845322e-02
  7.460290e-01    1.588288e+00   2.815970e-02
  7.482395e-01    1.558846e+00   2.772717e-02
  7.504499e-01    1.566680e+00   2.766081e-02
  7.526604e-01    1.584085e+00   2.769715e-02
  7.548708e-01    1.587796e+00   2.763978e-02
  7.570813e-01    1.565589e+00   2.739499e-02
  7.592918e-01    1.557837e+00   2.729209e-02
  7.615022e-01    1.572442e+00   2.738594e-02
  7.637127e-01    1.595334e+00   2.755158e-02
  7.659231e-01    1.555593e+00   2.717445e-02
  7.681336e-01    1.570030e+00   2.726867e-02
  7.703440e-01    1.585262e+00   2.736933e-02
  7.725545e-01    1.574156e+00   2.724239e-02
  7.747650e-01    1.645421e+00   2.781318e-02
  7.769754e-01    1.597304e+00   2.735046e-02
  7.791859e-01    1.569946e+00   2.706180e-02
  7.813963e-01    1.584150e+00   2.713127e-02
  7.836068e-01    1.639768e+00   2.755054e-02
  7.858172e-01    1.646436e+00   2.755491e-02
  7.880277e-01    1.591408e+00   2.703898e-02
  7.902381e-01    1.598985e+00   2.705402e-02
  7.924486e-01    1.631820e+00   2.727975e-02
  7.946591e-01    1.610732e+00   2.705448e-02
  7.968695e-01    1.579272e+00   2.674102e-02
  7.990800e-01    1.610132e+00   2.695276e-02
  8.012904e-01    1.635877e+00   2.712039e-02
  8.035009e-01    1.696904e+00   2.757247e-02
  8.057113e-01    1.665064e+00   2.726538e-02
  8.079218e-01    1.620822e+00   2.685426e-02
  8.101323e-01    1.621405e+00   2.681349e-02
  8.123427e-01    1.656928e+00   2.705940e-02
  8.145532e-01    1.644612e+00   2.691254e-02
  8.167636e-01    1.631944e+00   2.676359e-02
  8.189741e-01    1.637214e+00   2.676209e-02
  8.211845e-01    1.635922e+00   2.670669e-02
  8.233950e-01    1.632658e+00   2.663665e-02
  8.256054e-01    1.652481e+00   2.675344e-02
  8.278159e-01    1.680448e+00   2.693437e-02
  8.300264e-01    1.642303e+00   2.658378e-02
  8.322368e-01    1.638962e+00   2.651358e-02
  8.344473e-01    1.663007e+00   2.666368e-02
  8.366577e-01    1.694075e+00   2.686828e-02
  8.388682e-01    1.720887e+00   2.703681e-02
  8.410786e-01    1.680114e+00   2.667201e-02
  8.432891e-01    1.659705e+00   2.646741e-02
  8.454996e-01    1.643164e+00   2.629350e-02
  8.477100e-01    1.633547e+00   2.617484e-02
  8.499205e-01    1.656747e+00   2.631865e-02
  8.521309e-01    1.671010e+00   2.639049e-02
  8.543414e-01    1.681096e+00   2.642871e-02
  8.565518e-01    1.686496e+00   2.642993e-02
  8.587623e-01    1.655139e+00   2.614230e-02
  8.609727e-01    1.644789e+00   2.602001e-02
  8.631832e-01    1.647054e+00   2.599779e-02
  8.653937e-01    1.628409e+00   2.581049e-02
  8.676041e-01    1.630258e+00   2.578617e-02
  8.698146e-01    1.649445e+00   2.589783e-02
  8.720250e-01    1.603728e+00   2.549750e-02
  8.742355e-01    1.602268e+00   2.544707e-02
  8.764459e-01    1.603939e+00   2.542151e-02
  8.786564e-01    1.572182e+00   2.513107e-02
  8.808669e-01    1.534740e+00   2.479236e-02
  8.830773e-01    1.574314e+00   2.507215e-02
  8.852878e-01    1.626035e+00   2.544249e-02
  8.874982e-01    1.594256e+00   2.515607e-02
  8.897087e-01    1.618842e+00   2.531142e-02
  8.919191e-01    1.598715e+00   2.511585e-02
  8.941296e-01    1.600023e+00   2.508883e-02
  8.963401e-01    1.585522e+00   2.493862e-02
  8.985505e-01    1.601629e+00   2.502799e-02
  9.007610e-01    1.595427e+00   2.494280e-02
  9.029714e-01    1.613721e+00   2.504940e-02
  9.051819e-01    1.608210e+00   2.496928e-02
  9.073923e-01    1.608531e+00   2.493510e-02
  9.096028e-01    1.629751e+00   2.506379e-02
  9.118132e-01    1.598651e+00   2.478732e-02
  9.140237e-01    1.608301e+00   2.482525e-02
  9.162342e-01    1.656687e+00   2.516079e-02
  9.184446e-01    1.640437e+00   2.500086e-02
  9.206551e-01    1.664025e+00   2.514369e-02
  9.228655e-01    1.625776e+00   2.481751e-02
  9.250760e-01    1.644220e+00   2.492205e-02
  9.272864e-01    1.642174e+00   2.487188e-02
  9.294969e-01    1.615646e+00   2.463421e-02
  9.317074e-01    1.605011e+00   2.451829e-02
  9.339178e-01    1.616765e+00   2.457432e-02
  9.361283e-01    1.609711e+00   2.448448e-02
  9.383387e-01    1.638431e+00   2.466834e-02
  9.405492e-01    1.656599e+00   2.477009e-02
  9.427596e-01    1.662779e+00   2.478054e-02
  9.449701e-01    1.669794e+00   2.479901e-02
  9.471805e-01    1.669205e+00   2.475952e-02
  9.493910e-01    1.697865e+00   2.493688e-02
  9.516015e-01    1.774266e+00   2.545619e-02
  9.538119e-01    1.772763e+00   2.541053e-02
  9.560224e-01    1.789722e+00   2.549587e-02
  9.582328e-01    1.772530e+00   2.533907e-02
  9.604433e-01    1.784277e+00   2.538690e-02
  9.626537e-01    1.787963e+00   2.537893e-02
  9.648642e-01    1.769658e+00   2.521412e-02
  9.670747e-01    1.778696e+00   2.524353e-02
  9.692851e-01    1.832049e+00   2.558529e-02
  9.714956e-01    1.875580e+00   2.585097e-02
  9.737060e-01    1.890079e+00   2.591661e-02
  9.759165e-01    1.904210e+00   2.597663e-02
  9.781269e-01    1.905674e+00   2.595262e-02
  9.803374e-01    1.879832e+00   2.574041e-02
  9.825478e-01    1.842713e+00   2.545139e-02
  9.847583e-01    1.828549e+00   2.531895e-02
  9.869688e-01    1.788275e+00   2.500506e-02
  9.891792e-01    1.797563e+00   2.503659e-02
  9.913897e-01    1.756180e+00   2.471333e-02
  9.936001e-01    1.725387e+00   2.446364e-02
  9.958106e-01    1.711128e+00   2.432923e-02
  9.980210e-01    1.690689e+00   2.415210e-02
  1.000231e+00    1.689127e+00   2.427319e-02
  1.002442e+00    1.702300e+00   2.449713e-02
  1.004652e+00    1.652047e+00   2.420018e-02
  1.006863e+00    1.624923e+00   2.405048e-02
  1.009073e+00    1.626629e+00   2.409991e-02
  1.011284e+00    1.637327e+00   2.421138e-02
  1.013494e+00    1.597484e+00   2.393870e-02
  1.015705e+00    1.570686e+00   2.375948e-02
  1.017915e+00    1.610258e+00   2.407349e-02
  1.020126e+00    1.637949e+00   2.429600e-02
  1.022336e+00    1.752802e+00   2.514576e-02
  1.024547e+00    1.851131e+00   2.585372e-02
  1.026757e+00    1.909341e+00   2.626639e-02
  1.028967e+00    1.791656e+00   2.545235e-02
  1.031178e+00    1.635124e+00   2.432144e-02
  1.033388e+00    1.573868e+00   2.386662e-02
  1.035599e+00    1.564441e+00   2.379851e-02
  1.037809e+00    1.557446e+00   2.374851e-02
  1.040020e+00    1.632076e+00   2.431215e-02
  1.042230e+00    1.697131e+00   2.479402e-02
  1.044441e+00    1.848694e+00   2.587718e-02
  1.046651e+00    1.975639e+00   2.675116e-02
  1.048862e+00    1.829993e+00   2.574540e-02
  1.051072e+00    1.636501e+00   2.434383e-02
  1.053282e+00    1.533952e+00   2.356777e-02
  1.055493e+00    1.492573e+00   2.324341e-02
  1.057703e+00    1.500729e+00   2.330530e-02
  1.059914e+00    1.586693e+00   2.395904e-02
  1.062124e+00    1.904511e+00   2.624443e-02
  1.064335e+00    2.312117e+00   2.891267e-02
  1.066545e+00    2.048461e+00   2.720738e-02
  1.068756e+00    1.664631e+00   2.452232e-02
  1.070966e+00    1.499271e+00   2.326582e-02
  1.073177e+00    1.492202e+00   2.320480e-02
  1.075387e+00    1.469457e+00   2.302205e-02
  1.077597e+00    1.462724e+00   2.296200e-02
  1.079808e+00    1.452585e+00   2.275007e-02
  1.082018e+00    1.409744e+00   2.222647e-02
  1.084229e+00    1.427103e+00   2.225410e-02
  1.086439e+00    1.475933e+00   2.254356e-02
  1.088650e+00    1.456793e+00   2.232120e-02
  1.090860e+00    1.459743e+00   2.227603e-02
  1.093071e+00    1.433066e+00   2.200975e-02
  1.095281e+00    1.428606e+00   2.191854e-02
  1.097492e+00    1.456917e+00   2.207954e-02
  1.099702e+00    1.402760e+00   2.161457e-02
  1.101912e+00    1.443478e+00   2.187709e-02
  1.104123e+00    1.455423e+00   2.191889e-02
  1.106333e+00    1.411276e+00   2.153982e-02
  1.108544e+00    1.395110e+00   2.137237e-02
  1.110754e+00    1.421145e+00   2.152792e-02
  1.112965e+00    1.420465e+00   2.148227e-02
  1.115175e+00    1.397239e+00   2.126509e-02
  1.117386e+00    1.390357e+00   2.117370e-02
  1.119596e+00    1.435986e+00   2.148016e-02
  1.121807e+00    1.392049e+00   2.111044e-02
  1.124017e+00    1.391652e+00   2.107096e-02
  1.126228e+00    1.383858e+00   2.097639e-02
  1.128438e+00    1.403419e+00   2.108732e-02
  1.130648e+00    1.370246e+00   2.080266e-02
  1.132859e+00    1.395672e+00   2.096039e-02
  1.135069e+00    1.406364e+00   2.100567e-02
  1.137280e+00    1.366143e+00   2.067039e-02
  1.139490e+00    1.386781e+00   2.079286e-02
  1.141701e+00    1.414392e+00   2.096537e-02
  1.143911e+00    1.391157e+00   2.076053e-02
  1.146122e+00    1.364085e+00   2.052569e-02
  1.148332e+00    1.408838e+00   2.082747e-02
  1.150543e+00    1.362870e+00   2.045420e-02
  1.152753e+00    1.373682e+00   2.050436e-02
  1.154963e+00    1.351808e+00   2.030966e-02
  1.157174e+00    1.369321e+00   2.041067e-02
  1.159384e+00    1.367941e+00   2.037058e-02
  1.161595e+00    1.359446e+00   2.027751e-02
  1.163805e+00    1.376036e+00   2.037151e-02
  1.166016e+00    1.377642e+00   2.035388e-02
  1.168226e+00    1.392839e+00   2.043657e-02
  1.170437e+00    1.395562e+00   2.042762e-02
  1.172647e+00    1.390486e+00   2.036129e-02
  1.174858e+00    1.385475e+00   2.029625e-02
  1.177068e+00    1.371069e+00   2.016213e-02
  1.179278e+00    1.354251e+00   2.000957e-02
  1.181489e+00    1.348123e+00   1.993737e-02
  1.183699e+00    1.347233e+00   1.990330e-02
  1.185910e+00    1.343999e+00   1.985179e-02
  1.188120e+00    1.347456e+00   1.985069e-02
  1.190331e+00    1.368742e+00   1.997999e-02
  1.192541e+00    1.362032e+00   1.990350e-02
  1.194752e+00    1.349857e+00   1.978732e-02
  1.196962e+00    1.362527e+00   1.985411e-02
  1.199173e+00    1.354901e+00   1.977195e-02
  1.201383e+00    1.339660e+00   1.963335e-02
  1.203593e+00    1.337653e+00   1.959395e-02
  1.205804e+00    1.357318e+00   1.971144e-02
  1.208014e+00    1.383237e+00   1.987160e-02
  1.210225e+00    1.348310e+00   1.959380e-02
  1.212435e+00    1.331006e+00   1.944305e-02
  1.214646e+00    1.325322e+00   1.937561e-02
  1.216856e+00    1.330185e+00   1.938584e-02
  1.219067e+00    1.345079e+00   1.946964e-02
  1.221277e+00    1.364061e+00   1.958138e-02
  1.223488e+00    1.377648e+00   1.965268e-02
  1.225698e+00    1.331275e+00   1.929236e-02
  1.227909e+00    1.335226e+00   1.929094e-02
  1.230119e+00    1.338232e+00   1.928095e-02
  1.232329e+00    1.311583e+00   1.905773e-02
  1.234540e+00    1.323023e+00   1.911067e-02
  1.236750e+00    1.342785e+00   1.922269e-02
  1.238961e+00    1.337641e+00   1.915899e-02
  1.241171e+00    1.341821e+00   1.916479e-02
  1.243382e+00    1.331609e+00   1.906837e-02
  1.245592e+00    1.359782e+00   1.924485e-02
  1.247803e+00    1.337220e+00   1.906098e-02
  1.250013e+00    1.335145e+00   1.902276e-02
  1.252224e+00    1.331872e+00   1.897635e-02
  1.254434e+00    1.367164e+00   1.920221e-02
  1.256644e+00    1.383379e+00   1.929228e-02
  1.258855e+00    1.359277e+00   1.910012e-02
  1.261065e+00    1.344717e+00   1.897423e-02
  1.263276e+00    1.373070e+00   1.915007e-02
  1.265486e+00    1.352560e+00   1.898363e-02
  1.267697e+00    1.325540e+00   1.877023e-02
  1.269907e+00    1.349703e+00   1.891784e-02
  1.272118e+00    1.381307e+00   1.911522e-02
  1.274328e+00    1.346324e+00   1.884891e-02
  1.276539e+00    1.340518e+00   1.878552e-02
  1.278749e+00    1.363974e+00   1.892674e-02
  1.280959e+00    1.391527e+00   1.909408e-02
  1.283170e+00    1.375492e+00   1.896113e-02
  1.285380e+00    1.338508e+00   1.868211e-02
  1.287591e+00    1.352647e+00   1.875845e-02
  1.289801e+00    1.354169e+00   1.874776e-02
  1.292012e+00    1.368144e+00   1.882703e-02
  1.294222e+00    1.375010e+00   1.885784e-02
  1.296433e+00    1.364414e+00   1.876935e-02
  1.298643e+00    1.347738e+00   1.863785e-02
  1.300854e+00    1.337361e+00   1.854961e-02
  1.303064e+00    1.341653e+00   1.856019e-02
  1.305274e+00    1.353350e+00   1.861946e-02
  1.307485e+00    1.350658e+00   1.857938e-02
  1.309695e+00    1.360928e+00   1.862755e-02
  1.311906e+00    1.350381e+00   1.853353e-02
  1.314116e+00    1.348705e+00   1.850124e-02
  1.316327e+00    1.352848e+00   1.850790e-02
  1.318537e+00    1.371476e+00   1.861284e-02
  1.320748e+00    1.344145e+00   1.840496e-02
  1.322958e+00    1.343876e+00   1.838261e-02
  1.325169e+00    1.355237e+00   1.843910e-02
  1.327379e+00    1.373077e+00   1.853807e-02
  1.329589e+00    1.389698e+00   1.862857e-02
  1.331800e+00    1.399944e+00   1.867604e-02
  1.334010e+00    1.394997e+00   1.862203e-02
  1.336221e+00    1.370654e+00   1.843690e-02
  1.338431e+00    1.363285e+00   1.836632e-02
  1.340642e+00    1.351423e+00   1.835042e-02
  1.342852e+00    1.353940e+00   1.846834e-02
  1.345063e+00    1.357932e+00   1.854516e-02
  1.347273e+00    1.359734e+00   1.859285e-02
  1.349484e+00    1.367740e+00   1.867533e-02
  1.351694e+00    1.350079e+00   1.857711e-02
  1.353905e+00    1.335517e+00   1.849455e-02
  1.356115e+00    1.354288e+00   1.863911e-02
  1.358325e+00    1.313929e+00   1.837245e-02
  1.360536e+00    1.320899e+00   1.843258e-02
  1.362746e+00    1.343019e+00   1.859584e-02
  1.364957e+00    1.338460e+00   1.857188e-02
  1.367167e+00    1.332749e+00   1.853933e-02
  1.369378e+00    1.300937e+00   1.832264e-02
  1.371588e+00    1.311550e+00   1.840230e-02
  1.373799e+00    1.305926e+00   1.836644e-02
  1.376009e+00    1.306290e+00   1.837234e-02
  1.378220e+00    1.319145e+00   1.846502e-02
  1.380430e+00    1.323845e+00   1.850061e-02
  1.382640e+00    1.310772e+00   1.840994e-02
  1.384851e+00    1.290501e+00   1.826788e-02
  1.387061e+00    1.313046e+00   1.842705e-02
  1.389272e+00    1.288109e+00   1.825146e-02
  1.391482e+00    1.281870e+00   1.820650e-02
  1.393693e+00    1.318109e+00   1.846120e-02
  1.395903e+00    1.305578e+00   1.837173e-02
  1.398114e+00    1.308459e+00   1.839059e-02
  1.400324e+00    1.301711e+00   1.834097e-02
  1.402535e+00    1.274009e+00   1.814245e-02
  1.404745e+00    1.275196e+00   1.814853e-02
  1.406955e+00    1.258617e+00   1.802749e-02
  1.409166e+00    1.255727e+00   1.800348e-02
  1.411376e+00    1.287954e+00   1.822991e-02
  1.413587e+00    1.278775e+00   1.816100e-02
  1.415797e+00    1.301030e+00   1.831477e-02
  1.418008e+00    1.288661e+00   1.818534e-02
  1.420218e+00    1.278020e+00   1.795990e-02
  1.422429e+00    1.255179e+00   1.771386e-02
  1.424639e+00    1.290199e+00   1.789407e-02
  1.426850e+00    1.282306e+00   1.778430e-02
  1.429060e+00    1.251299e+00   1.751933e-02
  1.431270e+00    1.278701e+00   1.766565e-02
  1.433481e+00    1.281008e+00   1.764046e-02
  1.435691e+00    1.282636e+00   1.761303e-02
  1.437902e+00    1.310448e+00   1.776593e-02
  1.440112e+00    1.288059e+00   1.757792e-02
  1.442323e+00    1.292740e+00   1.757649e-02
  1.444533e+00    1.306078e+00   1.763393e-02
  1.446744e+00    1.280175e+00   1.742694e-02
  1.448954e+00    1.266207e+00   1.730145e-02
  1.451165e+00    1.279601e+00   1.736284e-02
  1.453375e+00    1.287017e+00   1.738486e-02
  1.455586e+00    1.275052e+00   1.727564e-02
  1.457796e+00    1.278865e+00   1.727385e-02
  1.460006e+00    1.292040e+00   1.733510e-02
  1.462217e+00    1.278554e+00   1.721810e-02
  1.464427e+00    1.264257e+00   1.709599e-02
  1.466638e+00    1.255137e+00   1.700905e-02
  1.468848e+00    1.265109e+00   1.705117e-02
  1.471059e+00    1.283460e+00   1.714917e-02
  1.473269e+00    1.270264e+00   1.703640e-02
  1.475480e+00    1.249967e+00   1.687615e-02
  1.477690e+00    1.252184e+00   1.686743e-02
  1.479901e+00    1.280840e+00   1.703536e-02
  1.482111e+00    1.287444e+00   1.705573e-02
  1.484321e+00    1.269553e+00   1.691367e-02
  1.486532e+00    1.269459e+00   1.689067e-02
  1.488742e+00    1.278817e+00   1.693004e-02
  1.490953e+00    1.274138e+00   1.687636e-02
  1.493163e+00    1.274880e+00   1.685890e-02
  1.495374e+00    1.235149e+00   1.657286e-02
  1.497584e+00    1.239917e+00   1.658334e-02
  1.499795e+00    1.261973e+00   1.670853e-02
  1.502005e+00    1.269408e+00   1.673592e-02
  1.504216e+00    1.288721e+00   1.684146e-02
  1.506426e+00    1.272673e+00   1.671534e-02
  1.508636e+00    1.285721e+00   1.678014e-02
  1.510847e+00    1.272460e+00   1.667141e-02
  1.513057e+00    1.255684e+00   1.653609e-02
  1.515268e+00    1.236563e+00   1.638415e-02
  1.517478e+00    1.252264e+00   1.646270e-02
  1.519689e+00    1.236824e+00   1.633613e-02
  1.521899e+00    1.272886e+00   1.654926e-02
  1.524110e+00    1.266405e+00   1.648667e-02
  1.526320e+00    1.261654e+00   1.643603e-02
  1.528531e+00    1.264207e+00   1.643280e-02
  1.530741e+00    1.226076e+00   1.616411e-02
  1.532951e+00    1.235640e+00   1.620756e-02
  1.535162e+00    1.248289e+00   1.637685e-02
  1.537372e+00    1.260021e+00   1.652084e-02
  1.539583e+00    1.249689e+00   1.648721e-02
  1.541793e+00    1.267611e+00   1.661200e-02
  1.544004e+00    1.260527e+00   1.656579e-02
  1.546214e+00    1.279800e+00   1.669042e-02
  1.548425e+00    1.282352e+00   1.670732e-02
  1.550635e+00    1.268001e+00   1.662336e-02
  1.552846e+00    1.254910e+00   1.654700e-02
  1.555056e+00    1.272429e+00   1.662016e-02
  1.557266e+00    1.276495e+00   1.653483e-02
  1.559477e+00    1.273599e+00   1.645627e-02
  1.561687e+00    1.261116e+00   1.634454e-02
  1.563898e+00    1.244823e+00   1.622147e-02
  1.566108e+00    1.241860e+00   1.618620e-02
  1.568319e+00    1.241692e+00   1.616949e-02
  1.570529e+00    1.264271e+00   1.629053e-02
  1.572740e+00    1.246410e+00   1.614740e-02
  1.574950e+00    1.237025e+00   1.606027e-02
  1.577161e+00    1.246620e+00   1.609691e-02
  1.579371e+00    1.232985e+00   1.598512e-02
  1.581582e+00    1.225091e+00   1.591421e-02
  1.583792e+00    1.246475e+00   1.603449e-02
  1.586002e+00    1.246976e+00   1.602008e-02
  1.588213e+00    1.232636e+00   1.591052e-02
  1.590423e+00    1.261948e+00   1.607837e-02
  1.592634e+00    1.243825e+00   1.594090e-02
  1.594844e+00    1.242595e+00   1.591160e-02
  1.597055e+00    1.240746e+00   1.587929e-02
  1.599265e+00    1.261217e+00   1.598885e-02
  1.601476e+00    1.235457e+00   1.580449e-02
  1.603686e+00    1.249067e+00   1.587144e-02
  1.605897e+00    1.243241e+00   1.581422e-02
  1.608107e+00    1.217471e+00   1.563004e-02
  1.610317e+00    1.221759e+00   1.563837e-02
  1.612528e+00    1.220429e+00   1.561078e-02
  1.614738e+00    1.228894e+00   1.564591e-02
  1.616949e+00    1.239250e+00   1.569261e-02
  1.619159e+00    1.200625e+00   1.542759e-02
  1.621370e+00    1.192689e+00   1.535823e-02
  1.623580e+00    1.201434e+00   1.539621e-02
  1.625791e+00    1.160845e+00   1.511602e-02
  1.628001e+00    1.177373e+00   1.520516e-02
  1.630212e+00    1.172204e+00   1.515415e-02
  1.632422e+00    1.171856e+00   1.513412e-02
  1.634632e+00    1.182202e+00   1.518346e-02
  1.636843e+00    1.160303e+00   1.502479e-02
  1.639053e+00    1.139708e+00   1.487380e-02
  1.641264e+00    1.137253e+00   1.484091e-02
  1.643474e+00    1.125984e+00   1.475007e-02
  1.645685e+00    1.144491e+00   1.485424e-02
  1.647895e+00    1.140069e+00   1.480904e-02
  1.650106e+00    1.139800e+00   1.479037e-02
  1.652316e+00    1.146985e+00   1.482043e-02
  1.654527e+00    1.140535e+00   1.476205e-02
  1.656737e+00    1.141068e+00   1.474891e-02
  1.658947e+00    1.145144e+00   1.475884e-02
  1.661158e+00    1.130641e+00   1.464881e-02
  1.663368e+00    1.151116e+00   1.476461e-02
  1.665579e+00    1.137313e+00   1.465956e-02
  1.667789e+00    1.131346e+00   1.460471e-02
  1.670000e+00    1.127639e+00   1.456516e-02
  1.672210e+00    1.108628e+00   1.442599e-02
  1.674421e+00    1.094059e+00   1.431566e-02
  1.676631e+00    1.057708e+00   1.406024e-02
  1.678842e+00    1.098279e+00   1.431159e-02
  1.681052e+00    1.105278e+00   1.434166e-02
  1.683263e+00    1.101393e+00   1.430124e-02
  1.685473e+00    1.064086e+00   1.404192e-02
  1.687683e+00    1.071101e+00   1.407280e-02
  1.689894e+00    1.065713e+00   1.402170e-02
  1.692104e+00    1.062281e+00   1.398428e-02
  1.694315e+00    1.058062e+00   1.394207e-02
  1.696525e+00    1.056744e+00   1.391834e-02
  1.698736e+00    1.047479e+00   1.384248e-02
  1.700946e+00    1.040751e+00   1.378296e-02
  1.703157e+00    1.039694e+00   1.376144e-02
  1.705367e+00    1.008553e+00   1.353959e-02
  1.707578e+00    1.028054e+00   1.365543e-02
  1.709788e+00    1.021062e+00   1.359499e-02
  1.711998e+00    1.014162e+00   1.353415e-02
  1.714209e+00    1.009445e+00   1.348842e-02
  1.716419e+00    1.036065e+00   1.365081e-02
  1.718630e+00    1.039336e+00   1.365804e-02
  1.720840e+00    1.017640e+00   1.350061e-02
  1.723051e+00    1.029065e+00   1.356231e-02
  1.725261e+00    1.028802e+00   1.354582e-02
  1.727472e+00    1.021146e+00   1.348115e-02
  1.729682e+00    9.932305e-01   1.328230e-02
  1.731893e+00    9.773254e-01   1.316183e-02
  1.734103e+00    9.944102e-01   1.326270e-02
  1.736313e+00    9.788139e-01   1.314444e-02
  1.738524e+00    1.027299e+00   1.345205e-02
  1.740734e+00    1.036690e+00   1.349947e-02
  1.742945e+00    1.019116e+00   1.337095e-02
  1.745155e+00    1.007439e+00   1.328056e-02
  1.747366e+00    9.997012e-01   1.321561e-02
  1.749576e+00    9.481100e-01   1.285665e-02
  1.751787e+00    9.677323e-01   1.297578e-02
  1.753997e+00    9.432782e-01   1.279766e-02
  1.756208e+00    9.596878e-01   1.289538e-02
  1.758418e+00    9.594013e-01   1.288044e-02
  1.760628e+00    9.555811e-01   1.284150e-02
  1.762839e+00    9.589930e-01   1.285124e-02
  1.765049e+00    9.554675e-01   1.281452e-02
  1.767260e+00    9.506782e-01   1.276963e-02
  1.769470e+00    9.322766e-01   1.263259e-02
  1.771681e+00    9.332209e-01   1.262599e-02
  1.773891e+00    9.337796e-01   1.261682e-02
  1.776102e+00    9.533323e-01   1.273532e-02
  1.778312e+00    9.235084e-01   1.252197e-02
  1.780523e+00    9.001588e-01   1.235018e-02
  1.782733e+00    9.407365e-01   1.261276e-02
  1.784944e+00    9.540470e-01   1.268869e-02
  1.787154e+00    9.436359e-01   1.260666e-02
  1.789364e+00    9.274839e-01   1.248584e-02
  1.791575e+00    9.181235e-01   1.241020e-02
  1.793785e+00    9.183754e-01   1.239952e-02
  1.795996e+00    9.178173e-01   1.238326e-02
  1.798206e+00    9.311019e-01   1.245995e-02
  1.800417e+00    9.117210e-01   1.231695e-02
  1.802627e+00    9.120915e-01   1.230753e-02
  1.804838e+00    9.101815e-01   1.228255e-02
  1.807048e+00    9.018641e-01   1.221350e-02
  1.809259e+00    9.132507e-01   1.227671e-02
  1.811469e+00    9.148385e-01   1.227234e-02
  1.813679e+00    9.109638e-01   1.223126e-02
  1.815890e+00    9.301490e-01   1.234438e-02
  1.818100e+00    9.232868e-01   1.228344e-02
  1.820311e+00    9.402929e-01   1.238089e-02
  1.822521e+00    9.356790e-01   1.233527e-02
  1.824732e+00    9.098887e-01   1.214910e-02
  1.826942e+00    9.025698e-01   1.208770e-02
  1.829153e+00    8.991433e-01   1.205296e-02
  1.831363e+00    8.739302e-01   1.187079e-02
  1.833574e+00    8.945592e-01   1.199830e-02
  1.835784e+00    9.100699e-01   1.209026e-02
  1.837994e+00    8.835931e-01   1.190135e-02
  1.840205e+00    8.878880e-01   1.191895e-02
  1.842415e+00    8.885210e-01   1.191135e-02
  1.844626e+00    8.634087e-01   1.173030e-02
  1.846836e+00    8.965791e-01   1.194186e-02
  1.849047e+00    8.671419e-01   1.173262e-02
  1.851257e+00    8.765119e-01   1.178615e-02
  1.853468e+00    8.756952e-01   1.177181e-02
  1.855678e+00    8.634773e-01   1.168049e-02
  1.857889e+00    8.620587e-01   1.166239e-02
  1.860099e+00    8.714741e-01   1.171720e-02
  1.862309e+00    8.627025e-01   1.164953e-02
  1.864520e+00    8.696311e-01   1.168759e-02
  1.866730e+00    8.563980e-01   1.158891e-02
  1.868941e+00    8.634531e-01   1.162555e-02
  1.871151e+00    8.624610e-01   1.160740e-02
  1.873362e+00    8.557680e-01   1.155089e-02
  1.875572e+00    8.558139e-01   1.154024e-02
  1.877783e+00    8.560908e-01   1.153060e-02
  1.879993e+00    8.412090e-01   1.141885e-02
  1.882204e+00    8.387327e-01   1.139115e-02
  1.884414e+00    8.341874e-01   1.134924e-02
  1.886624e+00    8.351253e-01   1.134460e-02
  1.888835e+00    8.539163e-01   1.146046e-02
  1.891045e+00    8.515381e-01   1.143354e-02
  1.893256e+00    8.694617e-01   1.154195e-02
  1.895466e+00    8.608027e-01   1.147301e-02
  1.897677e+00    8.361588e-01   1.129667e-02
  1.899887e+00    8.428862e-01   1.133097e-02
  1.902098e+00    8.271030e-01   1.121359e-02
  1.904308e+00    8.165579e-01   1.113137e-02
  1.906519e+00    8.211145e-01   1.115160e-02
  1.908729e+00    8.254899e-01   1.117069e-02
  1.910940e+00    8.121871e-01   1.106930e-02
  1.913150e+00    7.895453e-01   1.090356e-02
  1.915360e+00    8.159559e-01   1.107385e-02
  1.917571e+00    7.973440e-01   1.093614e-02
  1.919781e+00    8.069549e-01   1.099123e-02
  1.921992e+00    8.266911e-01   1.111419e-02
  1.924202e+00    7.960615e-01   1.089573e-02
  1.926413e+00    8.083818e-01   1.096945e-02
  1.928623e+00    8.309457e-01   1.111085e-02
  1.930834e+00    8.137404e-01   1.098480e-02
  1.933044e+00    8.165417e-01   1.099298e-02
  1.935255e+00    8.035328e-01   1.089479e-02
  1.937465e+00    7.972716e-01   1.084191e-02
  1.939675e+00    8.053123e-01   1.088562e-02
  1.941886e+00    8.111342e-01   1.091457e-02
  1.944096e+00    7.978305e-01   1.081456e-02
  1.946307e+00    8.012996e-01   1.082769e-02
  1.948517e+00    8.053645e-01   1.084464e-02
  1.950728e+00    7.922994e-01   1.074613e-02
  1.952938e+00    7.856308e-01   1.069079e-02
  1.955149e+00    7.854915e-01   1.067967e-02
  1.957359e+00    8.001834e-01   1.076902e-02
  1.959570e+00    8.023350e-01   1.077257e-02
  1.961780e+00    7.914967e-01   1.068965e-02
  1.963990e+00    7.909843e-01   1.067608e-02
  1.966201e+00    7.832642e-01   1.061385e-02
  1.968411e+00    7.763866e-01   1.055708e-02
  1.970622e+00    7.796695e-01   1.056933e-02
  1.972832e+00    7.902637e-01   1.063090e-02
  1.975043e+00    7.899601e-01   1.061880e-02
  1.977253e+00    7.941425e-01   1.063686e-02
  1.979464e+00    7.702706e-01   1.046583e-02
  1.981674e+00    7.859157e-01   1.056127e-02
  1.983885e+00    7.883232e-01   1.056740e-02
  1.986095e+00    7.807933e-01   1.050710e-02
  1.988305e+00    7.757284e-01   1.046309e-02
  1.990516e+00    7.825740e-01   1.049921e-02
  1.992726e+00    7.908877e-01   1.054509e-02
  1.994937e+00    7.791841e-01   1.045663e-02
  1.997147e+00    7.733487e-01   1.040769e-02
  1.999358e+00    7.697973e-01   1.037394e-02
  2.001568e+00    7.814617e-01   1.044137e-02
  2.003779e+00    7.722918e-01   1.036802e-02
  2.005989e+00    7.752261e-01   1.037565e-02
  2.008200e+00    7.588904e-01   1.025431e-02
  2.010410e+00    7.573992e-01   1.023256e-02
  2.012621e+00    7.529414e-01   1.019083e-02
  2.014831e+00    7.683479e-01   1.028307e-02
  2.017041e+00    7.637885e-01   1.024217e-02
  2.019252e+00    7.589431e-01   1.019971e-02
  2.021462e+00    7.635865e-01   1.022136e-02
  2.023673e+00    7.459899e-01   1.009364e-02
  2.025883e+00    7.613682e-01   1.018760e-02
  2.028094e+00    7.887507e-01   1.035941e-02
  2.030304e+00    7.567205e-01   1.013739e-02
  2.032515e+00    7.524087e-01   1.009920e-02
  2.034725e+00    7.572132e-01   1.012197e-02
  2.036936e+00    7.444218e-01   1.002686e-02
  2.039146e+00    7.657309e-01   1.015971e-02
  2.041356e+00    7.543881e-01   1.007458e-02
  2.043567e+00    7.617136e-01   1.011403e-02
  2.045777e+00    7.499779e-01   1.002659e-02
  2.047988e+00    7.593063e-01   1.007936e-02
  2.050198e+00    7.525941e-01   1.002629e-02
  2.052409e+00    7.612777e-01   1.007626e-02
  2.054619e+00    7.636135e-01   1.008428e-02
  2.056830e+00    7.683333e-01   1.010814e-02
  2.059040e+00    7.581659e-01   1.003348e-02
  2.061251e+00    7.550108e-01   1.000531e-02
  2.063461e+00    7.827716e-01   1.017982e-02
  2.065671e+00    7.758104e-01   1.012559e-02
  2.067882e+00    7.591613e-01   1.000730e-02
  2.070092e+00    7.611110e-01   1.001083e-02
  2.072303e+00    7.834373e-01   1.014725e-02
  2.074513e+00    7.744546e-01   1.007941e-02
  2.076724e+00    7.796019e-01   1.010317e-02
  2.078934e+00    7.635940e-01   9.989785e-03
  2.081145e+00    7.557862e-01   9.929410e-03
  2.083355e+00    7.421736e-01   9.830423e-03
  2.085566e+00    7.243631e-01   9.702930e-03
  2.087776e+00    7.495016e-01   9.860277e-03
  2.089986e+00    7.583400e-01   9.909363e-03
  2.092197e+00    7.438250e-01   9.805069e-03
  2.094407e+00    7.420707e-01   9.784231e-03
  2.096618e+00    7.470209e-01   9.807854e-03
  2.098828e+00    7.247319e-01   9.651174e-03
  2.101039e+00    7.332242e-01   9.698571e-03
  2.103249e+00    7.262974e-01   9.644006e-03
  2.105460e+00    7.307311e-01   9.664398e-03
  2.107670e+00    7.150950e-01   9.551764e-03
  2.109881e+00    7.215304e-01   9.585534e-03
  2.112091e+00    6.978798e-01   9.418312e-03
  2.114301e+00    7.088938e-01   9.483639e-03
  2.116512e+00    7.194513e-01   9.545242e-03
  2.118722e+00    7.149123e-01   9.506295e-03
  2.120933e+00    7.105531e-01   9.468479e-03
  2.123143e+00    7.092517e-01   9.450943e-03
  2.125354e+00    7.146618e-01   9.478412e-03
  2.127564e+00    7.050521e-01   9.405810e-03
  2.129775e+00    7.234408e-01   9.518908e-03
  2.131985e+00    7.211345e-01   9.494613e-03
  2.134196e+00    7.078912e-01   9.398486e-03
  2.136406e+00    6.971580e-01   9.318304e-03
  2.138617e+00    7.002429e-01   9.330505e-03
  2.140827e+00    6.993682e-01   9.340623e-03
  2.143037e+00    7.113880e-01   9.466155e-03
  2.145248e+00    7.024283e-01   9.428330e-03
  2.147458e+00    6.967968e-01   9.405494e-03
  2.149669e+00    7.079529e-01   9.492381e-03
  2.151879e+00    7.022944e-01   9.463599e-03
  2.154090e+00    7.092499e-01   9.517708e-03
  2.156300e+00    7.069126e-01   9.508641e-03
  2.158511e+00    7.120000e-01   9.548143e-03
  2.160721e+00    7.134390e-01   9.562656e-03
  2.162932e+00    7.131590e-01   9.564571e-03
  2.165142e+00    7.110476e-01   9.553446e-03
  2.167352e+00    7.136601e-01   9.573930e-03
  2.169563e+00    7.066334e-01   9.528659e-03
  2.171773e+00    7.015539e-01   9.496794e-03
  2.173984e+00    7.025631e-01   9.505056e-03
  2.176194e+00    6.912330e-01   9.429303e-03
  2.178405e+00    6.924143e-01   9.438048e-03
  2.180615e+00    6.836263e-01   9.378643e-03
  2.182826e+00    6.888018e-01   9.414745e-03
  2.185036e+00    6.991675e-01   9.485381e-03
  2.187247e+00    6.948820e-01   9.456217e-03
  2.189457e+00    6.828899e-01   9.373862e-03
  2.191667e+00    6.913177e-01   9.431346e-03
  2.193878e+00    6.918588e-01   9.434466e-03
  2.196088e+00    6.875525e-01   9.404381e-03
  2.198299e+00    6.933224e-01   9.442663e-03
  2.200509e+00    6.927071e-01   9.437402e-03
  2.202720e+00    6.852631e-01   9.385418e-03
  2.204930e+00    6.661518e-01   9.252374e-03
  2.207141e+00    6.736339e-01   9.303089e-03
  2.209351e+00    6.732255e-01   9.298381e-03
  2.211562e+00    6.902865e-01   9.413837e-03
  2.213772e+00    6.916756e-01   9.367221e-03
  2.215982e+00    6.859126e-01   9.283580e-03
  2.218193e+00    6.773903e-01   9.196073e-03
  2.220403e+00    6.590879e-01   9.046657e-03
  2.222614e+00    6.994606e-01   9.298284e-03
  2.224824e+00    6.716793e-01   9.092435e-03
  2.227035e+00    6.707180e-01   9.068460e-03
  2.229245e+00    6.914769e-01   9.190538e-03
  2.231456e+00    6.678748e-01   9.016762e-03
  2.233666e+00    6.593494e-01   8.944027e-03
  2.235877e+00    6.869520e-01   9.114908e-03
  2.238087e+00    6.810290e-01   9.061930e-03
  2.240298e+00    6.777895e-01   9.026501e-03
  2.242508e+00    6.625862e-01   8.909646e-03
  2.244718e+00    6.515965e-01   8.819831e-03
  2.246929e+00    6.476226e-01   8.778681e-03
  2.249139e+00    6.733544e-01   8.938967e-03
  2.251350e+00    6.592067e-01   8.832918e-03
  2.253560e+00    6.690800e-01   8.887239e-03
  2.255771e+00    6.631039e-01   8.836058e-03
  2.257981e+00    6.506966e-01   8.741975e-03
  2.260192e+00    6.515009e-01   8.736346e-03
  2.262402e+00    6.763501e-01   8.890449e-03
  2.264613e+00    6.590784e-01   8.765418e-03
  2.266823e+00    6.627162e-01   8.779168e-03
  2.269033e+00    6.570472e-01   8.731207e-03
  2.271244e+00    6.573773e-01   8.723041e-03
  2.273454e+00    6.644943e-01   8.759869e-03
  2.275665e+00    6.542297e-01   8.681692e-03
  2.277875e+00    6.774912e-01   8.824629e-03
  2.280086e+00    6.753946e-01   8.800822e-03
  2.282296e+00    6.769878e-01   8.801658e-03
  2.284507e+00    6.782227e-01   8.799407e-03
  2.286717e+00    6.697615e-01   8.734798e-03
  2.288928e+00    6.638504e-01   8.686243e-03
  2.291138e+00    6.697147e-01   8.715003e-03
  2.293348e+00    6.680729e-01   8.694703e-03
  2.295559e+00    6.693858e-01   8.693810e-03
  2.297769e+00    6.745597e-01   8.717967e-03
  2.299980e+00    6.760657e-01   8.718194e-03
  2.302190e+00    6.666204e-01   8.647873e-03
  2.304401e+00    6.564936e-01   8.572573e-03
  2.306611e+00    6.575802e-01   8.570435e-03
  2.308822e+00    6.486122e-01   8.503412e-03
  2.311032e+00    6.491187e-01   8.500299e-03
  2.313243e+00    6.532053e-01   8.520710e-03
  2.315453e+00    6.665905e-01   8.599914e-03
  2.317663e+00    6.416811e-01   8.428606e-03
  2.319874e+00    6.543808e-01   8.502819e-03
  2.322084e+00    6.466979e-01   8.443804e-03
  2.324295e+00    6.307036e-01   8.330589e-03
  2.326505e+00    6.446383e-01   8.413051e-03
  2.328716e+00    6.409701e-01   8.380560e-03
  2.330926e+00    6.506279e-01   8.434610e-03
  2.333137e+00    6.437134e-01   8.381284e-03
  2.335347e+00    6.389359e-01   8.341280e-03
  2.337558e+00    6.403257e-01   8.342104e-03
  2.339768e+00    6.375661e-01   8.315555e-03
  2.341979e+00    6.473817e-01   8.370901e-03
  2.344189e+00    6.500536e-01   8.379680e-03
  2.346399e+00    6.430287e-01   8.325743e-03
  2.348610e+00    6.476246e-01   8.346906e-03
  2.350820e+00    6.423488e-01   8.304599e-03
  2.353031e+00    6.404157e-01   8.283788e-03
  2.355241e+00    6.318102e-01   8.219875e-03
  2.357452e+00    6.395133e-01   8.261384e-03
  2.359662e+00    6.275873e-01   8.175784e-03
  2.361873e+00    6.304772e-01   8.186352e-03
  2.364083e+00    6.389458e-01   8.233091e-03
  2.366294e+00    6.508351e-01   8.301095e-03
  2.368504e+00    6.390656e-01   8.217538e-03
  2.370714e+00    6.292389e-01   8.146041e-03
  2.372925e+00    6.066326e-01   7.990444e-03
  2.375135e+00    6.195759e-01   8.067181e-03
  2.377346e+00    6.270617e-01   8.107827e-03
  2.379556e+00    6.199958e-01   8.054132e-03
  2.381767e+00    6.123723e-01   7.996657e-03
  2.383977e+00    6.282446e-01   8.091644e-03
  2.386188e+00    6.329586e-01   8.113940e-03
  2.388398e+00    6.197814e-01   8.021084e-03
  2.390609e+00    6.195452e-01   8.011811e-03
  2.392819e+00    6.090308e-01   7.935800e-03
  2.395029e+00    6.146969e-01   7.964985e-03
  2.397240e+00    6.082408e-01   7.915212e-03
  2.399450e+00    5.973830e-01   7.836552e-03
  2.401661e+00    5.918570e-01   7.792654e-03
  2.403871e+00    6.203132e-01   7.969966e-03
  2.406082e+00    6.144556e-01   7.924809e-03
  2.408292e+00    6.225595e-01   7.969002e-03
  2.410503e+00    6.142554e-01   7.908172e-03
  2.412713e+00    5.991547e-01   7.802605e-03
  2.414924e+00    6.071014e-01   7.846675e-03
  2.417134e+00    6.216687e-01   7.932531e-03
  2.419344e+00    6.116363e-01   7.860793e-03
  2.421555e+00    6.099008e-01   7.842091e-03
  2.423765e+00    5.951564e-01   7.739341e-03
  2.425976e+00    5.908108e-01   7.703282e-03
  2.428186e+00    6.002068e-01   7.757061e-03
  2.430397e+00    5.927242e-01   7.701117e-03
  2.432607e+00    5.885201e-01   7.666520e-03
  2.434818e+00    5.893956e-01   7.664711e-03
  2.437028e+00    5.928454e-01   7.679978e-03
  2.439239e+00    5.997568e-01   7.716903e-03
  2.441449e+00    5.966481e-01   7.689672e-03
  2.443659e+00    5.998387e-01   7.702789e-03
  2.445870e+00    6.030078e-01   7.735506e-03
  2.448080e+00    5.747568e-01   7.586700e-03
  2.450291e+00    5.692372e-01   7.566649e-03
  2.452501e+00    5.626574e-01   7.533836e-03
  2.454712e+00    5.629386e-01   7.544053e-03
  2.456922e+00    5.707856e-01   7.603088e-03
  2.459133e+00    5.609825e-01   7.542908e-03
  2.461343e+00    5.627857e-01   7.559358e-03
  2.463554e+00    5.590128e-01   7.537434e-03
  2.465764e+00    5.516877e-01   7.490995e-03
  2.467975e+00    5.582512e-01   7.537689e-03
  2.470185e+00    5.512016e-01   7.492211e-03
  2.472395e+00    5.432487e-01   7.439149e-03
  2.474606e+00    5.418597e-01   7.431189e-03
  2.476816e+00    5.547966e-01   7.520103e-03
  2.479027e+00    5.502481e-01   7.490066e-03
  2.481237e+00    5.620869e-01   7.570490e-03
  2.483448e+00    5.453842e-01   7.457490e-03
  2.485658e+00    5.410453e-01   7.427594e-03
  2.487869e+00    5.310744e-01   7.358887e-03
  2.490079e+00    5.403503e-01   7.422343e-03
  2.492290e+00    5.432276e-01   7.441650e-03
  2.494500e+00    5.366224e-01   7.395541e-03
  2.496710e+00    5.446423e-01   7.449890e-03
  2.498921e+00    5.397434e-01   7.415330e-03
  2.501131e+00    5.350546e-01   7.382081e-03
  2.503342e+00    5.348011e-01   7.379084e-03
  2.505552e+00    5.294824e-01   7.341164e-03
  2.507763e+00    5.339016e-01   7.370310e-03
  2.509973e+00    5.130473e-01   7.223577e-03
  2.512184e+00    5.152761e-01   7.237638e-03
  2.514394e+00    5.166848e-01   7.238251e-03
  2.516605e+00    5.137626e-01   7.171274e-03
  2.518815e+00    5.199008e-01   7.185818e-03
  2.521025e+00    5.244510e-01   7.196249e-03
  2.523236e+00    5.213559e-01   7.157082e-03
  2.525446e+00    5.303270e-01   7.202722e-03
  2.527657e+00    5.213424e-01   7.126887e-03
  2.529867e+00    5.379646e-01   7.225273e-03
  2.532078e+00    5.220661e-01   7.102703e-03
  2.534288e+00    5.339405e-01   7.169018e-03
  2.536499e+00    5.342738e-01   7.159207e-03
  2.538709e+00    5.347943e-01   7.151590e-03
  2.540920e+00    5.233549e-01   7.064065e-03
  2.543130e+00    5.314516e-01   7.108040e-03
  2.545340e+00    5.239381e-01   7.047561e-03
  2.547551e+00    5.272940e-01   7.060121e-03
  2.549761e+00    5.258512e-01   7.040829e-03
  2.551972e+00    5.080275e-01   6.911263e-03
  2.554182e+00    5.044121e-01   6.877575e-03
  2.556393e+00    5.116885e-01   6.918002e-03
  2.558603e+00    5.158688e-01   6.937170e-03
  2.560814e+00    5.193926e-01   6.952116e-03
  2.563024e+00    5.332602e-01   7.035620e-03
  2.565235e+00    5.337885e-01   7.029482e-03
  2.567445e+00    5.246431e-01   6.959390e-03
  2.569656e+00    5.203218e-01   6.920903e-03
  2.571866e+00    5.198079e-01   6.908104e-03
  2.574076e+00    5.189788e-01   6.893308e-03
  2.576287e+00    5.081970e-01   6.813069e-03
  2.578497e+00    5.212716e-01   6.892262e-03
  2.580708e+00    5.188220e-01   6.867952e-03
  2.582918e+00    5.123261e-01   6.817061e-03
  2.585129e+00    5.209287e-01   6.866265e-03
  2.587339e+00    5.105003e-01   6.789548e-03
  2.589550e+00    5.045289e-01   6.742213e-03
  2.591760e+00    5.098537e-01   6.769989e-03
  2.593971e+00    5.131296e-01   6.784161e-03
  2.596181e+00    5.073037e-01   6.739352e-03
  2.598391e+00    5.159572e-01   6.791352e-03
  2.600602e+00    5.018498e-01   6.692023e-03
  2.602812e+00    5.065949e-01   6.716046e-03
  2.605023e+00    4.974916e-01   6.648357e-03
  2.607233e+00    5.086022e-01   6.715018e-03
  2.609444e+00    5.218458e-01   6.794574e-03
  2.611654e+00    4.971907e-01   6.624888e-03
  2.613865e+00    5.049124e-01   6.669069e-03
  2.616075e+00    5.238676e-01   6.785857e-03
  2.618286e+00    5.073915e-01   6.671295e-03
  2.620496e+00    5.027806e-01   6.634219e-03
  2.622706e+00    5.056303e-01   6.647244e-03
  2.624917e+00    5.058529e-01   6.642860e-03
  2.627127e+00    4.985096e-01   6.588758e-03
  2.629338e+00    5.006483e-01   6.596907e-03
  2.631548e+00    5.086537e-01   6.643242e-03
  2.633759e+00    5.048323e-01   6.611085e-03
  2.635969e+00    4.965229e-01   6.549788e-03
  2.638180e+00    5.049658e-01   6.598236e-03
  2.640390e+00    5.060315e-01   6.598555e-03
  2.642601e+00    4.986173e-01   6.543397e-03
  2.644811e+00    4.962532e-01   6.520818e-03
  2.647021e+00    4.926679e-01   6.490694e-03
  2.649232e+00    5.004233e-01   6.534863e-03
  2.651442e+00    4.950570e-01   6.493266e-03
  2.653653e+00    4.951906e-01   6.487350e-03
  2.655863e+00    5.153407e-01   6.611231e-03
  2.658074e+00    5.181245e-01   6.622342e-03
  2.660284e+00    4.959717e-01   6.472866e-03
  2.662495e+00    5.037189e-01   6.516440e-03
  2.664705e+00    4.900784e-01   6.421063e-03
  2.666916e+00    4.867958e-01   6.393134e-03
  2.669126e+00    4.873974e-01   6.390667e-03
  2.671337e+00    4.958535e-01   6.439290e-03
  2.673547e+00    4.960639e-01   6.434268e-03
  2.675757e+00    4.950441e-01   6.421207e-03
  2.677968e+00    4.963554e-01   6.423153e-03
  2.680178e+00    5.013984e-01   6.449277e-03
  2.682389e+00    5.001184e-01   6.434565e-03
  2.684599e+00    5.134427e-01   6.513434e-03
  2.686810e+00    4.993301e-01   6.416626e-03
  2.689020e+00    5.055894e-01   6.450349e-03
  2.691231e+00    5.044878e-01   6.436925e-03
  2.693441e+00    4.993659e-01   6.397994e-03
  2.695652e+00    4.862101e-01   6.306651e-03
  2.697862e+00    4.764866e-01   6.237009e-03
  2.700072e+00    4.856585e-01   6.290702e-03
  2.702283e+00    4.918692e-01   6.324548e-03
  2.704493e+00    4.960940e-01   6.345332e-03
  2.706704e+00    4.947838e-01   6.330497e-03
  2.708914e+00    4.952148e-01   6.327267e-03
  2.711125e+00    4.715135e-01   6.167826e-03
  2.713335e+00    4.948553e-01   6.312514e-03
  2.715546e+00    5.001721e-01   6.339805e-03
  2.717756e+00    4.912627e-01   6.277159e-03
  2.719967e+00    4.862382e-01   6.238776e-03
  2.722177e+00    4.837112e-01   6.216414e-03
  2.724387e+00    4.924409e-01   6.266112e-03
  2.726598e+00    4.893525e-01   6.240360e-03
  2.728808e+00    4.832696e-01   6.195301e-03
  2.731019e+00    4.807499e-01   6.173041e-03
  2.733229e+00    4.926894e-01   6.243367e-03
  2.735440e+00    4.882450e-01   6.208851e-03
  2.737650e+00    4.802341e-01   6.151701e-03
  2.739861e+00    4.936462e-01   6.230881e-03
  2.742071e+00    4.902884e-01   6.203870e-03
  2.744282e+00    4.825515e-01   6.148485e-03
  2.746492e+00    4.821033e-01   6.139582e-03
  2.748702e+00    4.877234e-01   6.169326e-03
  2.750913e+00    4.960943e-01   6.216170e-03
  2.753123e+00    4.790678e-01   6.102474e-03
  2.755334e+00    4.794868e-01   6.099063e-03
  2.757544e+00    4.840412e-01   6.122204e-03
  2.759755e+00    4.785770e-01   6.081684e-03
  2.761965e+00    4.827805e-01   6.102325e-03
  2.764176e+00    4.802229e-01   6.080158e-03
  2.766386e+00    4.810824e-01   6.079799e-03
  2.768597e+00    4.845542e-01   6.095804e-03
  2.770807e+00    4.821055e-01   6.074485e-03
  2.773017e+00    4.802397e-01   6.056739e-03
  2.775228e+00    4.813729e-01   6.058087e-03
  2.777438e+00    4.717923e-01   5.991737e-03
  2.779649e+00    4.804792e-01   6.040729e-03
  2.781859e+00    4.863698e-01   6.071819e-03
  2.784070e+00    4.772587e-01   6.008852e-03
  2.786280e+00    4.680299e-01   5.944728e-03
  2.788491e+00    4.738746e-01   5.975938e-03
  2.790701e+00    4.635374e-01   5.904825e-03
  2.792912e+00    4.764472e-01   5.980490e-03
  2.795122e+00    4.841000e-01   6.022576e-03
  2.797333e+00    4.854781e-01   6.025523e-03
  2.799543e+00    4.721203e-01   5.936211e-03
  2.801753e+00    4.735874e-01   5.939579e-03
  2.803964e+00    4.755906e-01   5.946450e-03
  2.806174e+00    4.778228e-01   5.954235e-03
  2.808385e+00    4.901726e-01   6.023786e-03
  2.810595e+00    4.775631e-01   5.938923e-03
  2.812806e+00    4.805259e-01   5.950664e-03
  2.815016e+00    4.849244e-01   5.973027e-03
  2.817227e+00    4.792794e-01   5.964229e-03
  2.819437e+00    4.887491e-01   6.034136e-03
  2.821648e+00    4.705787e-01   5.923188e-03
  2.823858e+00    4.674944e-01   5.909035e-03
  2.826068e+00    4.700646e-01   5.930226e-03
  2.828279e+00    4.699292e-01   5.933398e-03
  2.830489e+00    4.768853e-01   5.980504e-03
  2.832700e+00    4.683385e-01   5.929238e-03
  2.834910e+00    4.686298e-01   5.933103e-03
  2.837121e+00    4.804493e-01   6.009211e-03
  2.839331e+00    4.687989e-01   5.937127e-03
  2.841542e+00    4.699365e-01   5.945330e-03
  2.843752e+00    4.761921e-01   5.985570e-03
  2.845963e+00    4.688521e-01   5.939660e-03
  2.848173e+00    4.774750e-01   5.994107e-03
  2.850383e+00    4.739787e-01   5.972427e-03
  2.852594e+00    4.669458e-01   5.927877e-03
  2.854804e+00    4.760982e-01   5.985158e-03
  2.857015e+00    4.719650e-01   5.958705e-03
  2.859225e+00    4.740082e-01   5.971328e-03
  2.861436e+00    4.703445e-01   5.947559e-03
  2.863646e+00    4.627829e-01   5.899590e-03
  2.865857e+00    4.658919e-01   5.919708e-03
  2.868067e+00    4.634665e-01   5.904509e-03
  2.870278e+00    4.661725e-01   5.921361e-03
  2.872488e+00    4.688742e-01   5.937337e-03
  2.874698e+00    4.597332e-01   5.878123e-03
  2.876909e+00    4.734859e-01   5.964053e-03
  2.879119e+00    4.703854e-01   5.942875e-03
  2.881330e+00    4.625131e-01   5.891457e-03
  2.883540e+00    4.681312e-01   5.925730e-03
  2.885751e+00    4.664802e-01   5.913623e-03
  2.887961e+00    4.712673e-01   5.941992e-03
  2.890172e+00    4.495642e-01   5.801965e-03
  2.892382e+00    4.625098e-01   5.883102e-03
  2.894593e+00    4.637482e-01   5.889158e-03
  2.896803e+00    4.666865e-01   5.905779e-03
  2.899014e+00    4.647523e-01   5.891621e-03
  2.901224e+00    4.574135e-01   5.842920e-03
  2.903434e+00    4.670826e-01   5.902397e-03
  2.905645e+00    4.526952e-01   5.808583e-03
  2.907855e+00    4.764089e-01   5.956625e-03
  2.910066e+00    4.635656e-01   5.873698e-03
  2.912276e+00    4.764334e-01   5.952518e-03
  2.914487e+00    4.569390e-01   5.827009e-03
  2.916697e+00    4.502711e-01   5.782139e-03
  2.918908e+00    4.408644e-01   5.719448e-03
  2.921118e+00    4.568120e-01   5.819268e-03
  2.923329e+00    4.557020e-01   5.809912e-03
  2.925539e+00    4.496205e-01   5.768732e-03
  2.927749e+00    4.765172e-01   5.936406e-03
  2.929960e+00    4.625186e-01   5.845794e-03
  2.932170e+00    4.573809e-01   5.810881e-03
  2.934381e+00    4.642716e-01   5.852056e-03
  2.936591e+00    4.475837e-01   5.743351e-03
  2.938802e+00    4.577839e-01   5.805705e-03
  2.941012e+00    4.425351e-01   5.705907e-03
  2.943223e+00    4.541796e-01   5.777772e-03
  2.945433e+00    4.586488e-01   5.802396e-03
  2.947644e+00    4.608489e-01   5.812138e-03
  2.949854e+00    4.548583e-01   5.769986e-03
  2.952064e+00    4.667091e-01   5.840361e-03
  2.954275e+00    4.558207e-01   5.767449e-03
  2.956485e+00    4.476901e-01   5.711608e-03
  2.958696e+00    4.563584e-01   5.762256e-03
  2.960906e+00    4.585350e-01   5.771789e-03
  2.963117e+00    4.475078e-01   5.697503e-03
  2.965327e+00    4.574641e-01   5.756631e-03
  2.967538e+00    4.524345e-01   5.721991e-03
  2.969748e+00    4.620349e-01   5.779531e-03
  2.971959e+00    4.565927e-01   5.742270e-03
  2.974169e+00    4.524393e-01   5.713506e-03
  2.976379e+00    4.447150e-01   5.661627e-03
  2.978590e+00    4.527262e-01   5.709267e-03
  2.980800e+00    4.505874e-01   5.692990e-03
  2.983011e+00    4.599905e-01   5.749241e-03
  2.985221e+00    4.635495e-01   5.768275e-03
  2.987432e+00    4.546873e-01   5.709767e-03
  2.989642e+00    4.449541e-01   5.645700e-03
  2.991853e+00    4.630287e-01   5.755912e-03
  2.994063e+00    4.627055e-01   5.751004e-03
  2.996274e+00    4.520788e-01   5.681372e-03
  2.998484e+00    4.626412e-01   5.744635e-03
  3.000694e+00    4.580818e-01   5.712802e-03
  3.002905e+00    4.550754e-01   5.691073e-03
  3.005115e+00    4.466028e-01   5.634897e-03
  3.007326e+00    4.507914e-01   5.658092e-03
  3.009536e+00    4.694584e-01   5.770754e-03
  3.011747e+00    4.590374e-01   5.703428e-03
  3.013957e+00    4.514745e-01   5.653053e-03
  3.016168e+00    4.629446e-01   5.721127e-03
  3.018378e+00    4.592780e-01   5.695352e-03
  3.020589e+00    4.669665e-01   5.739583e-03
  3.022799e+00    4.582093e-01   5.682322e-03
  3.025010e+00    4.518515e-01   5.639514e-03
  3.027220e+00    4.558966e-01   5.661593e-03
  3.029430e+00    4.480088e-01   5.609168e-03
  3.031641e+00    4.486815e-01   5.610248e-03
  3.033851e+00    4.500918e-01   5.615535e-03
  3.036062e+00    4.585783e-01   5.665455e-03
  3.038272e+00    4.497535e-01   5.607092e-03
  3.040483e+00    4.465684e-01   5.583993e-03
  3.042693e+00    4.473149e-01   5.585422e-03
  3.044904e+00    4.526531e-01   5.614612e-03
  3.047114e+00    4.549771e-01   5.624180e-03
  3.049325e+00    4.497573e-01   5.587433e-03
  3.051535e+00    4.553211e-01   5.617465e-03
  3.053745e+00    4.458736e-01   5.554180e-03
  3.055956e+00    4.452200e-01   5.545547e-03
  3.058166e+00    4.538562e-01   5.594795e-03
  3.060377e+00    4.517846e-01   5.577236e-03
  3.062587e+00    4.523862e-01   5.576310e-03
  3.064798e+00    4.403021e-01   5.497119e-03
  3.067008e+00    4.478893e-01   5.539555e-03
  3.069219e+00    4.442131e-01   5.512287e-03
  3.071429e+00    4.516812e-01   5.554921e-03
  3.073640e+00    4.496082e-01   5.538816e-03
  3.075850e+00    4.472731e-01   5.520849e-03
  3.078060e+00    4.486590e-01   5.526290e-03
  3.080271e+00    4.574869e-01   5.576884e-03
  3.082481e+00    4.455249e-01   5.500055e-03
  3.084692e+00    4.499989e-01   5.524215e-03
  3.086902e+00    4.458908e-01   5.495716e-03
  3.089113e+00    4.419460e-01   5.467791e-03
  3.091323e+00    4.558552e-01   5.549770e-03
  3.093534e+00    4.520953e-01   5.523453e-03
  3.095744e+00    4.541057e-01   5.532311e-03
  3.097955e+00    4.502396e-01   5.505167e-03
  3.100165e+00    4.454546e-01   5.472493e-03
  3.102375e+00    4.532697e-01   5.516853e-03
  3.104586e+00    4.494873e-01   5.490277e-03
  3.106796e+00    4.470404e-01   5.471809e-03
  3.109007e+00    4.499988e-01   5.486629e-03
  3.111217e+00    4.575955e-01   5.529023e-03
  3.113428e+00    4.535489e-01   5.501076e-03
  3.115638e+00    4.454685e-01   5.448613e-03
  3.117849e+00    4.522178e-01   5.485986e-03
  3.120059e+00    4.587700e-01   5.522062e-03
  3.122270e+00    4.414203e-01   5.413405e-03
  3.124480e+00    4.460855e-01   5.438240e-03
  3.126691e+00    4.356831e-01   5.370922e-03
  3.128901e+00    4.586575e-01   5.507546e-03
  3.131111e+00    4.524352e-01   5.466192e-03
  3.133322e+00    4.304352e-01   5.328268e-03
  3.135532e+00    4.372518e-01   5.366873e-03
  3.137743e+00    4.604602e-01   5.503934e-03
  3.139953e+00    4.511969e-01   5.444586e-03
  3.142164e+00    4.398521e-01   5.387665e-03
  3.144374e+00    4.525570e-01   5.493666e-03
  3.146585e+00    4.448631e-01   5.461353e-03
  3.148795e+00    4.401911e-01   5.443379e-03
  3.151006e+00    4.398183e-01   5.449563e-03
  3.153216e+00    4.380127e-01   5.445483e-03
  3.155426e+00    4.405827e-01   5.467751e-03
  3.157637e+00    4.361292e-01   5.445540e-03
  3.159847e+00    4.328048e-01   5.429558e-03
  3.162058e+00    4.486528e-01   5.532566e-03
  3.164268e+00    4.377558e-01   5.469013e-03
  3.166479e+00    4.383758e-01   5.476529e-03
  3.168689e+00    4.395298e-01   5.487105e-03
  3.170900e+00    4.305216e-01   5.433717e-03
  3.173110e+00    4.465602e-01   5.536890e-03
  3.175321e+00    4.588523e-01   5.615149e-03
  3.177531e+00    4.469116e-01   5.544382e-03
  3.179741e+00    4.422569e-01   5.517491e-03
  3.181952e+00    4.391473e-01   5.500192e-03
  3.184162e+00    4.415034e-01   5.517117e-03
  3.186373e+00    4.361488e-01   5.485176e-03
  3.188583e+00    4.240183e-01   5.410093e-03
  3.190794e+00    4.430573e-01   5.531994e-03
  3.193004e+00    4.386523e-01   5.505676e-03
  3.195215e+00    4.268081e-01   5.432342e-03
  3.197425e+00    4.290935e-01   5.448040e-03
  3.199636e+00    4.310756e-01   5.459856e-03
  3.201846e+00    4.379207e-01   5.502413e-03
  3.204056e+00    4.499013e-01   5.578096e-03
  3.206267e+00    4.350419e-01   5.486056e-03
  3.208477e+00    4.338935e-01   5.479722e-03
  3.210688e+00    4.306743e-01   5.460217e-03
  3.212898e+00    4.394799e-01   5.516303e-03
  3.215109e+00    4.383973e-01   5.510291e-03
  3.217319e+00    4.311083e-01   5.464914e-03
  3.219530e+00    4.321978e-01   5.472207e-03
  3.221740e+00    4.373930e-01   5.505565e-03
  3.223951e+00    4.288064e-01   5.451737e-03
  3.226161e+00    4.266249e-01   5.438027e-03
  3.228372e+00    4.225413e-01   5.412454e-03
  3.230582e+00    4.460979e-01   5.561429e-03
  3.232792e+00    4.338679e-01   5.484901e-03
  3.235003e+00    4.436305e-01   5.546505e-03
  3.237213e+00    4.350192e-01   5.492521e-03
  3.239424e+00    4.351159e-01   5.493114e-03
  3.241634e+00    4.411277e-01   5.531079e-03
  3.243845e+00    4.258768e-01   5.434692e-03
  3.246055e+00    4.286016e-01   5.451777e-03
  3.248266e+00    4.373982e-01   5.507630e-03
  3.250476e+00    4.268595e-01   5.440590e-03
  3.252687e+00    4.340557e-01   5.486154e-03
  3.254897e+00    4.354837e-01   5.495069e-03
  3.257107e+00    4.200387e-01   5.396444e-03
  3.259318e+00    4.138316e-01   5.356180e-03
  3.261528e+00    4.179727e-01   5.382766e-03
  3.263739e+00    4.220652e-01   5.408505e-03
  3.265949e+00    4.242169e-01   5.422145e-03
  3.268160e+00    4.267796e-01   5.438095e-03
  3.270370e+00    4.140201e-01   5.355683e-03
  3.272581e+00    4.179562e-01   5.380769e-03
  3.274791e+00    4.364133e-01   5.497799e-03
  3.277002e+00    4.244445e-01   5.421313e-03
  3.279212e+00    4.214031e-01   5.401491e-03
  3.281422e+00    4.291101e-01   5.450055e-03
  3.283633e+00    4.214122e-01   5.400287e-03
  3.285843e+00    4.211959e-01   5.398557e-03
  3.288054e+00    4.324028e-01   5.468964e-03
  3.290264e+00    4.129242e-01   5.344059e-03
  3.292475e+00    4.279495e-01   5.439563e-03
  3.294685e+00    4.264405e-01   5.429333e-03
  3.296896e+00    4.312335e-01   5.458998e-03
  3.299106e+00    4.251187e-01   5.419610e-03
  3.301317e+00    4.240209e-01   5.411585e-03
  3.303527e+00    4.135036e-01   5.343571e-03
  3.305737e+00    4.260781e-01   5.423164e-03
  3.307948e+00    4.244664e-01   5.412232e-03
  3.310158e+00    4.225815e-01   5.399340e-03
  3.312369e+00    4.334405e-01   5.467386e-03
  3.314579e+00    4.391696e-01   5.502485e-03
  3.316790e+00    4.338344e-01   5.468230e-03
  3.319000e+00    4.265558e-01   5.420988e-03
  3.321211e+00    4.325596e-01   5.458384e-03
  3.323421e+00    4.217819e-01   5.388754e-03
  3.325632e+00    4.243304e-01   5.404107e-03
  3.327842e+00    4.264760e-01   5.416838e-03
  3.330052e+00    4.200350e-01   5.374716e-03
  3.332263e+00    4.265415e-01   5.415153e-03
  3.334473e+00    4.161215e-01   5.347710e-03
  3.336684e+00    4.304357e-01   5.437606e-03
  3.338894e+00    4.288632e-01   5.426837e-03
  3.341105e+00    4.277444e-01   5.418539e-03
  3.343315e+00    4.094319e-01   5.300146e-03
  3.345526e+00    4.199063e-01   5.366612e-03
  3.347736e+00    4.197180e-01   5.364010e-03
  3.349947e+00    4.294361e-01   5.424801e-03
  3.352157e+00    4.175759e-01   5.348207e-03
  3.354368e+00    4.165988e-01   5.340653e-03
  3.356578e+00    4.209557e-01   5.367484e-03
  3.358788e+00    4.160489e-01   5.334775e-03
  3.360999e+00    4.210393e-01   5.365429e-03
  3.363209e+00    4.171924e-01   5.339853e-03
  3.365420e+00    4.197071e-01   5.354396e-03
  3.367630e+00    4.077264e-01   5.276424e-03
  3.369841e+00    4.237995e-01   5.377973e-03
  3.372051e+00    4.094610e-01   5.284261e-03
  3.374262e+00    4.199438e-01   5.349027e-03
  3.376472e+00    4.093845e-01   5.278931e-03
  3.378683e+00    4.114611e-01   5.289799e-03
  3.380893e+00    4.192588e-01   5.337342e-03
  3.383103e+00    4.164230e-01   5.316566e-03
  3.385314e+00    4.219910e-01   5.349734e-03
  3.387524e+00    4.237684e-01   5.358225e-03
  3.389735e+00    4.115056e-01   5.277527e-03
  3.391945e+00    4.088437e-01   5.256747e-03
  3.394156e+00    4.335086e-01   5.408674e-03
  3.396366e+00    4.069094e-01   5.236741e-03
  3.398577e+00    4.076652e-01   5.238574e-03
  3.400787e+00    4.072604e-01   5.247814e-03
  3.402998e+00    4.076623e-01   5.288363e-03
  3.405208e+00    4.020284e-01   5.272261e-03
  3.407418e+00    3.986712e-01   5.265954e-03
  3.409629e+00    3.991508e-01   5.283031e-03
  3.411839e+00    3.956412e-01   5.271500e-03
  3.414050e+00    3.950895e-01   5.278761e-03
  3.416260e+00    3.907300e-01   5.259157e-03
  3.418471e+00    3.931856e-01   5.285088e-03
  3.420681e+00    3.883618e-01   5.261011e-03
  3.422892e+00    3.776566e-01   5.195857e-03
  3.425102e+00    3.856366e-01   5.258233e-03
  3.427313e+00    3.727019e-01   5.176340e-03
  3.429523e+00    3.853800e-01   5.270702e-03
  3.431733e+00    3.841488e-01   5.268903e-03
  3.433944e+00    3.951452e-01   5.350378e-03
  3.436154e+00    3.836069e-01   5.277931e-03
  3.438365e+00    3.889184e-01   5.320320e-03
  3.440575e+00    3.837158e-01   5.290563e-03
  3.442786e+00    3.795246e-01   5.267211e-03
  3.444996e+00    3.782113e-01   5.263609e-03
  3.447207e+00    3.750695e-01   5.246980e-03
  3.449417e+00    3.655018e-01   5.220116e-03
  3.451628e+00    3.504906e-01   5.140482e-03
  3.453838e+00    3.653089e-01   5.269113e-03
  3.456049e+00    3.641984e-01   5.284915e-03
  3.458259e+00    3.726592e-01   5.368076e-03
  3.460469e+00    3.638950e-01   5.324302e-03
  3.462680e+00    3.815749e-01   5.471536e-03
  3.464890e+00    3.714163e-01   5.416154e-03
  3.467101e+00    3.599025e-01   5.348839e-03
  3.469311e+00    3.774528e-01   5.494377e-03
  3.471522e+00    3.856601e-01   5.570425e-03
  3.473732e+00    3.962735e-01   5.662865e-03
  3.475943e+00    4.051415e-01   5.742049e-03
  3.478153e+00    3.930986e-01   5.671613e-03
  3.480364e+00    4.136256e-01   5.833324e-03
  3.482574e+00    4.173364e-01   5.875056e-03
  3.484784e+00    4.289909e-01   5.971693e-03
  3.486995e+00    4.354746e-01   6.032109e-03
  3.489205e+00    4.430659e-01   6.099486e-03
  3.491416e+00    4.431298e-01   6.115102e-03
  3.493626e+00    4.432287e-01   6.130520e-03
  3.495837e+00    4.455771e-01   6.161587e-03
  3.498047e+00    4.595006e-01   6.271822e-03
  3.500258e+00    4.649974e-01   6.324021e-03
  3.502468e+00    4.707071e-01   6.377425e-03
  3.504679e+00    4.670003e-01   6.366832e-03
  3.506889e+00    4.838630e-01   6.495492e-03
  3.509099e+00    4.758994e-01   6.456260e-03
  3.511310e+00    4.853774e-01   6.534822e-03
  3.513520e+00    4.996243e-01   6.644695e-03
  3.515731e+00    5.058065e-01   6.700355e-03
  3.517941e+00    5.150313e-01   6.775913e-03
  3.520152e+00    5.175518e-01   6.807121e-03
  3.522362e+00    5.136455e-01   6.796055e-03
  3.524573e+00    5.146993e-01   6.817401e-03
  3.526783e+00    5.171564e-01   6.847112e-03
  3.528994e+00    5.208212e-01   6.883603e-03
  3.531204e+00    5.217203e-01   6.902007e-03
  3.533414e+00    5.158525e-01   6.875077e-03
  3.535625e+00    5.203745e-01   6.917389e-03
  3.537835e+00    5.229951e-01   6.946792e-03
  3.540046e+00    5.335664e-01   7.025570e-03
  3.542256e+00    5.379183e-01   7.061726e-03
  3.544467e+00    5.408188e-01   7.088375e-03
  3.546677e+00    5.421612e-01   7.104824e-03
  3.548888e+00    5.575696e-01   7.212662e-03
  3.551098e+00    5.546420e-01   7.201164e-03
  3.553309e+00    5.490501e-01   7.173032e-03
  3.555519e+00    5.312980e-01   7.067364e-03
  3.557729e+00    5.602883e-01   7.269562e-03
  3.559940e+00    5.522581e-01   7.229057e-03
  3.562150e+00    5.267845e-01   7.071970e-03
  3.564361e+00    5.335117e-01   7.130228e-03
  3.566571e+00    5.366945e-01   7.165345e-03
  3.568782e+00    5.453972e-01   7.237428e-03
  3.570992e+00    5.508451e-01   7.287407e-03
  3.573203e+00    5.490226e-01   7.289700e-03
  3.575413e+00    5.281476e-01   7.163431e-03
  3.577624e+00    5.207165e-01   7.126779e-03
  3.579834e+00    5.121801e-01   7.081677e-03
  3.582045e+00    5.311367e-01   7.225509e-03
  3.584255e+00    5.336779e-01   7.256819e-03
  3.586465e+00    5.360317e-01   7.286704e-03
  3.588676e+00    5.425200e-01   7.344967e-03
  3.590886e+00    5.537995e-01   7.434875e-03
  3.593097e+00    5.394763e-01   7.352644e-03
  3.595307e+00    5.539117e-01   7.464493e-03
  3.597518e+00    5.489333e-01   7.445319e-03
  3.599728e+00    5.262111e-01   7.303564e-03
  3.601939e+00    5.430643e-01   7.433722e-03
  3.604149e+00    5.642244e-01   7.591943e-03
  3.606360e+00    5.499088e-01   7.509412e-03
  3.608570e+00    5.425732e-01   7.473393e-03
  3.610780e+00    5.321156e-01   7.412034e-03
  3.612991e+00    5.315310e-01   7.417961e-03
  3.615201e+00    5.271954e-01   7.397335e-03
  3.617412e+00    5.466890e-01   7.540228e-03
  3.619622e+00    5.482588e-01   7.557082e-03
  3.621833e+00    5.407057e-01   7.511605e-03
  3.624043e+00    5.505105e-01   7.589037e-03
  3.626254e+00    5.397153e-01   7.524034e-03
  3.628464e+00    5.435858e-01   7.562017e-03
  3.630675e+00    5.391288e-01   7.545154e-03
  3.632885e+00    5.406356e-01   7.570209e-03
  3.635095e+00    5.578406e-01   7.704450e-03
  3.637306e+00    5.232633e-01   7.476109e-03
  3.639516e+00    5.351353e-01   7.574949e-03
  3.641727e+00    5.434054e-01   7.647985e-03
  3.643937e+00    5.353206e-01   7.605479e-03
  3.646148e+00    5.503750e-01   7.726483e-03
  3.648358e+00    5.464501e-01   7.713957e-03
  3.650569e+00    5.442355e-01   7.713210e-03
  3.652779e+00    5.177744e-01   7.537914e-03
  3.654990e+00    5.302251e-01   7.642811e-03
  3.657200e+00    5.710786e-01   7.947250e-03
  3.659410e+00    5.663657e-01   7.929845e-03
  3.661621e+00    5.573644e-01   7.882027e-03
  3.663831e+00    5.555879e-01   7.884938e-03
  3.666042e+00    5.499366e-01   7.860116e-03
  3.668252e+00    5.642725e-01   7.977623e-03
  3.670463e+00    5.389780e-01   7.812146e-03
  3.672673e+00    5.459144e-01   7.877854e-03
  3.674884e+00    5.218745e-01   7.717762e-03
  3.677094e+00    5.118921e-01   7.658779e-03
  3.679305e+00    5.520628e-01   7.969468e-03
  3.681515e+00    5.442593e-01   7.928862e-03
  3.683726e+00    5.370789e-01   7.892215e-03
  3.685936e+00    5.535308e-01   8.028273e-03
  3.688146e+00    5.402923e-01   7.947648e-03
  3.690357e+00    5.383794e-01   7.949687e-03
  3.692567e+00    5.461430e-01   8.023179e-03
  3.694778e+00    5.253262e-01   7.884866e-03
  3.696988e+00    5.360746e-01   7.981197e-03
  3.699199e+00    5.430029e-01   8.049142e-03
  3.701409e+00    5.205317e-01   7.897177e-03
  3.703620e+00    5.383956e-01   8.047977e-03
  3.705830e+00    5.277947e-01   7.984886e-03
  3.708041e+00    5.079648e-01   7.849743e-03
  3.710251e+00    5.168474e-01   7.934699e-03
  3.712461e+00    5.403578e-01   8.130170e-03
  3.714672e+00    5.350953e-01   8.107439e-03
  3.716882e+00    5.250133e-01   8.047448e-03
  3.719093e+00    5.176826e-01   8.008200e-03
  3.721303e+00    5.311006e-01   8.128420e-03
  3.723514e+00    5.506487e-01   8.294471e-03
  3.725724e+00    5.362040e-01   8.202397e-03
  3.727935e+00    5.074415e-01   7.996717e-03
  3.730145e+00    5.139299e-01   8.064847e-03
  3.732356e+00    5.270999e-01   8.185312e-03
  3.734566e+00    5.219494e-01   8.162842e-03
  3.736776e+00    5.037292e-01   8.036699e-03
  3.738987e+00    5.344508e-01   8.296206e-03
  3.741197e+00    5.313247e-01   8.290233e-03
  3.743408e+00    5.187610e-01   8.209785e-03
  3.745618e+00    5.175803e-01   8.218834e-03
  3.747829e+00    5.195177e-01   8.252426e-03
  3.750039e+00    5.118040e-01   8.209337e-03
  3.752250e+00    5.217631e-01   8.307449e-03
  3.754460e+00    5.111161e-01   8.240854e-03
  3.756671e+00    5.073618e-01   8.229261e-03
  3.758881e+00    5.386320e-01   8.498238e-03
  3.761091e+00    5.160769e-01   8.337743e-03
  3.763302e+00    5.160802e-01   8.356960e-03
  3.765512e+00    5.088938e-01   8.317846e-03
  3.767723e+00    5.171666e-01   8.404694e-03
  3.769933e+00    5.173109e-01   8.425477e-03
  3.772144e+00    5.132489e-01   8.412022e-03
  3.774354e+00    5.068830e-01   8.379545e-03
  3.776565e+00    5.015294e-01   8.354953e-03
  3.778775e+00    5.048983e-01   8.402914e-03
  3.780986e+00    5.024387e-01   8.402760e-03
  3.783196e+00    4.946928e-01   8.357776e-03
  3.785407e+00    4.963650e-01   8.392151e-03
  3.787617e+00    5.222228e-01   8.629110e-03
  3.789827e+00    4.974624e-01   8.442559e-03
  3.792038e+00    5.004465e-01   8.488596e-03
  3.794248e+00    5.176750e-01   8.654937e-03
  3.796459e+00    5.083393e-01   8.598142e-03
  3.798669e+00    5.114636e-01   8.646066e-03
  3.800880e+00    5.242606e-01   8.775518e-03
  3.803090e+00    5.061139e-01   8.644273e-03
  3.805301e+00    4.975187e-01   8.592574e-03
  3.807511e+00    4.875426e-01   8.527720e-03
  3.809722e+00    5.019616e-01   8.675209e-03
  3.811932e+00    5.080405e-01   8.749922e-03
  3.814142e+00    4.966442e-01   8.674119e-03
  3.816353e+00    5.043475e-01   8.764063e-03
  3.818563e+00    5.251908e-01   8.966996e-03
  3.820774e+00    4.879763e-01   8.666476e-03
  3.822984e+00    5.062337e-01   8.850580e-03
  3.825195e+00    5.073960e-01   8.884726e-03
  3.827405e+00    5.207636e-01   9.025455e-03
  3.829616e+00    4.977497e-01   8.847824e-03
  3.831826e+00    5.190318e-01   9.059686e-03
  3.834037e+00    5.129951e-01   9.031733e-03
  3.836247e+00    5.180326e-01   9.101197e-03
  3.838457e+00    5.096359e-01   9.052460e-03
  3.840668e+00    5.026675e-01   9.015790e-03
  3.842878e+00    5.093347e-01   9.101165e-03
  3.845089e+00    4.819470e-01   8.878344e-03
  3.847299e+00    4.858454e-01   8.939695e-03
  3.849510e+00    5.073142e-01   9.161260e-03
  3.851720e+00    5.075440e-01   9.184992e-03
  3.853931e+00    5.254914e-01   9.365600e-03
  3.856141e+00    5.117727e-01   9.261872e-03
  3.858352e+00    4.866020e-01   9.050293e-03
  3.860562e+00    4.892166e-01   9.093797e-03
  3.862772e+00    5.141426e-01   9.342588e-03
  3.864983e+00    5.055885e-01   9.284465e-03
  3.867193e+00    4.790207e-01   9.056713e-03
  3.869404e+00    4.664776e-01   8.956598e-03
  3.871614e+00    4.849164e-01   9.151679e-03
  3.873825e+00    4.938425e-01   9.255852e-03
  3.876035e+00    5.105572e-01   9.432138e-03
  3.878246e+00    5.007122e-01   9.366772e-03
  3.880456e+00    4.938062e-01   9.330964e-03
  3.882667e+00    4.852898e-01   9.279304e-03
  3.884877e+00    5.234398e-01   9.667751e-03
  3.887087e+00    5.166740e-01   9.635825e-03
  3.889298e+00    5.176666e-01   9.676241e-03
  3.891508e+00    4.989939e-01   9.530908e-03
  3.893719e+00    4.979907e-01   9.552541e-03
  3.895929e+00    4.944962e-01   9.550562e-03
  3.898140e+00    4.728468e-01   9.370231e-03
  3.900350e+00    4.756039e-01   9.429121e-03
  3.902561e+00    5.183240e-01   9.876790e-03
  3.904771e+00    5.054973e-01   9.787208e-03
  3.906982e+00    4.795476e-01   9.565447e-03
  3.909192e+00    4.971481e-01   9.773151e-03
  3.911403e+00    4.696406e-01   9.532310e-03
  3.913613e+00    5.206494e-01   1.007188e-02
  3.915823e+00    4.982355e-01   9.888016e-03
  3.918034e+00    4.997658e-01   9.938743e-03
  3.920244e+00    5.100631e-01   1.007721e-02
  3.922455e+00    4.971543e-01   9.985272e-03
  3.924665e+00    4.694292e-01   9.738567e-03
  3.926876e+00    4.969007e-01   1.005680e-02
  3.929086e+00    5.131478e-01   1.025837e-02
  3.931297e+00    4.818973e-01   9.975650e-03
  3.933507e+00    4.873082e-01   1.006043e-02
  3.935718e+00    4.999334e-01   1.021909e-02
  3.937928e+00    4.891261e-01   1.013744e-02
  3.940138e+00    4.987573e-01   1.026648e-02
  3.942349e+00    4.804266e-01   1.010572e-02
  3.944559e+00    4.742793e-01   1.007043e-02
  3.946770e+00    5.217445e-01   1.059354e-02
  3.948980e+00    5.141317e-01   1.054764e-02
  3.951191e+00    4.942233e-01   1.037248e-02
  3.953401e+00    4.826066e-01   1.028112e-02
  3.955612e+00    4.733022e-01   1.021263e-02
  3.957822e+00    4.801354e-01   1.031767e-02
  3.960033e+00    4.955031e-01   1.051440e-02
  3.962243e+00    5.073093e-01   1.067249e-02
  3.964453e+00    5.016786e-01   1.064678e-02
  3.966664e+00    4.922182e-01   1.057956e-02
  3.968874e+00    4.667556e-01   1.033005e-02
  3.971085e+00    4.912457e-01   1.061965e-02
  3.973295e+00    4.900286e-01   1.062805e-02
  3.975506e+00    4.816584e-01   1.055848e-02
  3.977716e+00    4.943283e-01   1.071859e-02
  3.979927e+00    4.719361e-01   1.049493e-02
  3.982137e+00    4.745046e-01   1.054530e-02
  3.984348e+00    5.129918e-01   1.098796e-02
  3.986558e+00    5.047191e-01   1.092174e-02
  3.988768e+00    4.871213e-01   1.075272e-02
  3.990979e+00    4.890051e-01   1.079630e-02
  3.993189e+00    4.885333e-01   1.081433e-02
  3.995400e+00    4.697952e-01   1.062795e-02
  3.997610e+00    4.743267e-01   1.070859e-02
  3.999821e+00    4.946768e-01   1.097387e-02
  4.002031e+00    4.730212e-01   1.076888e-02
  4.004242e+00    4.706970e-01   1.078026e-02
  4.006452e+00    5.111991e-01   1.127493e-02
  4.008663e+00    4.862412e-01   1.103640e-02
  4.010873e+00    4.955232e-01   1.118158e-02
  4.013084e+00    5.229493e-01   1.152945e-02
  4.015294e+00    5.151271e-01   1.148515e-02
  4.017504e+00    4.929468e-01   1.127741e-02
  4.019715e+00    4.944064e-01   1.133697e-02
  4.021925e+00    4.937415e-01   1.137275e-02
  4.024136e+00    5.203146e-01   1.172013e-02
  4.026346e+00    5.020827e-01   1.155790e-02
  4.028557e+00    4.976206e-01   1.155140e-02
  4.030767e+00    5.099211e-01   1.174009e-02
  4.032978e+00    5.295442e-01   1.201234e-02
  4.035188e+00    4.691154e-01   1.135169e-02
  4.037399e+00    5.422055e-01   1.225428e-02
  4.039609e+00    5.134551e-01   1.197434e-02
  4.041819e+00    4.766498e-01   1.158564e-02
  4.044030e+00    4.525890e-01   1.133761e-02
  4.046240e+00    4.780721e-01   1.170192e-02
  4.048451e+00    5.033640e-01   1.205959e-02
  4.050661e+00    4.855381e-01   1.189573e-02
  4.052872e+00    4.950335e-01   1.206483e-02
  4.055082e+00    5.094906e-01   1.229478e-02
  4.057293e+00    5.003473e-01   1.223858e-02
  4.059503e+00    4.974342e-01   1.225848e-02
  4.061714e+00    4.931881e-01   1.226324e-02
  4.063924e+00    4.829129e-01   1.219154e-02
  4.066134e+00    4.940057e-01   1.238883e-02
  4.068345e+00    4.819140e-01   1.229530e-02
  4.070555e+00    4.911844e-01   1.247278e-02
  4.072766e+00    5.090423e-01   1.276003e-02
  4.074976e+00    5.136606e-01   1.288179e-02
  4.077187e+00    4.497995e-01   1.211439e-02
  4.079397e+00    4.613098e-01   1.233090e-02
  4.081608e+00    4.971657e-01   1.286785e-02
  4.083818e+00    4.980977e-01   1.294675e-02
  4.086029e+00    5.255492e-01   1.336893e-02
  4.088239e+00    4.743894e-01   1.277019e-02
  4.090449e+00    4.954433e-01   1.312100e-02
  4.092660e+00    4.846737e-01   1.304913e-02
  4.094870e+00    4.807862e-01   1.306881e-02
  4.097081e+00    4.968648e-01   1.335850e-02
  4.099291e+00    5.165812e-01   1.367724e-02
  4.101502e+00    4.837850e-01   1.328534e-02
  4.103712e+00    4.921929e-01   1.345024e-02
  4.105923e+00    5.037603e-01   1.366016e-02
  4.108133e+00    5.094972e-01   1.379053e-02
  4.110344e+00    5.128416e-01   1.388864e-02
  4.112554e+00    4.984439e-01   1.374640e-02
  4.114764e+00    5.296975e-01   1.422778e-02
  4.116975e+00    5.022584e-01   1.390906e-02
  4.119185e+00    4.789209e-01   1.363711e-02
  4.121396e+00    5.126704e-01   1.416783e-02
  4.123606e+00    5.132950e-01   1.423437e-02
  4.125817e+00    4.838442e-01   1.387822e-02
  4.128027e+00    4.896538e-01   1.401992e-02
  4.130238e+00    5.132235e-01   1.441484e-02
  4.132448e+00    5.228464e-01   1.461263e-02
  4.134659e+00    4.955766e-01   1.428758e-02
  4.136869e+00    5.615550e-01   1.527687e-02
  4.139080e+00    5.086045e-01   1.460422e-02
  4.141290e+00    5.091563e-01   1.467704e-02
  4.143500e+00    4.673167e-01   1.412584e-02
  4.145711e+00    4.864953e-01   1.448015e-02
  4.147921e+00    4.946823e-01   1.466832e-02
  4.150132e+00    4.863919e-01   1.461439e-02
  4.152342e+00    4.881233e-01   1.471132e-02
  4.154553e+00    5.035323e-01   1.501283e-02
  4.156763e+00    4.850763e-01   1.480795e-02
  4.158974e+00    4.919753e-01   1.498791e-02
  4.161184e+00    4.862000e-01   1.497354e-02
  4.163395e+00    4.982691e-01   1.523563e-02
  4.165605e+00    4.587387e-01   1.469485e-02
  4.167815e+00    4.856514e-01   1.519850e-02
  4.170026e+00    5.112179e-01   1.567578e-02
  4.172236e+00    4.859587e-01   1.536625e-02
  4.174447e+00    4.950850e-01   1.559407e-02
  4.176657e+00    5.012010e-01   1.577601e-02
  4.178868e+00    4.836457e-01   1.558486e-02
  4.181078e+00    4.710900e-01   1.546790e-02
  4.183289e+00    4.776441e-01   1.566443e-02
  4.185499e+00    4.684410e-01   1.560407e-02
  4.187710e+00    5.339677e-01   1.675724e-02
  4.189920e+00    5.351452e-01   1.687700e-02
  4.192130e+00    4.836869e-01   1.614340e-02
  4.194341e+00    4.546084e-01   1.574613e-02
  4.196551e+00    4.789867e-01   1.626520e-02
  4.198762e+00    5.068170e-01   1.683748e-02
  4.200972e+00    4.642299e-01   1.621882e-02
  4.203183e+00    4.606213e-01   1.626181e-02
  4.205393e+00    4.925373e-01   1.692825e-02
  4.207604e+00    4.650053e-01   1.656029e-02
  4.209814e+00    4.989920e-01   1.727225e-02
  4.212025e+00    4.652611e-01   1.679665e-02
  4.214235e+00    4.534257e-01   1.669922e-02
  4.216445e+00    4.737616e-01   1.719296e-02
  4.218656e+00    4.304168e-01   1.651030e-02
  4.220866e+00    4.961791e-01   1.785846e-02
  4.223077e+00    4.286594e-01   1.672608e-02
  4.225287e+00    4.810174e-01   1.785772e-02
  4.227498e+00    4.823225e-01   1.802232e-02
  4.229708e+00    4.810979e-01   1.814555e-02
  4.231919e+00    4.970000e-01   1.859567e-02
  4.234129e+00    5.362329e-01   1.947815e-02
  4.236340e+00    4.931171e-01   1.883787e-02
  4.238550e+00    5.318137e-01   1.973622e-02
  4.240761e+00    4.861380e-01   1.903594e-02
  4.242971e+00    5.237106e-01   1.993915e-02
  4.245181e+00    5.045397e-01   1.975478e-02
  4.247392e+00    4.745930e-01   1.933846e-02
  4.249602e+00    4.860947e-01   1.976549e-02
  4.251813e+00    4.654486e-01   1.953233e-02
  4.254023e+00    4.077524e-01   1.846588e-02
  4.256234e+00    4.708236e-01   2.005422e-02
  4.258444e+00    4.331213e-01   1.943609e-02
  4.260655e+00    4.319125e-01   1.962240e-02
  4.262865e+00    4.397266e-01   2.002326e-02
  4.265076e+00    4.067521e-01   1.947726e-02
  4.267286e+00    4.004540e-01   1.955510e-02
  4.269496e+00    4.747644e-01   2.155234e-02
  4.271707e+00    4.198635e-01   2.051761e-02
  4.273917e+00    5.188071e-01   2.310284e-02
  4.276128e+00    4.547812e-01   2.191747e-02
  4.278338e+00    4.670477e-01   2.250840e-02
  4.280549e+00    4.039813e-01   2.123323e-02
  4.282759e+00    4.377843e-01   2.242123e-02
  4.284970e+00    5.076659e-01   2.450236e-02
  4.287180e+00    4.460684e-01   2.324255e-02
  4.289391e+00    4.798028e-01   2.428688e-02
  4.291601e+00    5.000898e-01   2.499253e-02
  4.293811e+00    4.641474e-01   2.426672e-02
  4.296022e+00    4.793431e-01   2.485769e-02
  4.298232e+00    4.755483e-01   2.496785e-02
  4.300443e+00    4.445365e-01   2.433814e-02
  4.302653e+00    5.308177e-01   2.682620e-02
  4.304864e+00    5.383241e-01   2.724870e-02
  4.307074e+00    4.890119e-01   2.620527e-02
  4.309285e+00    3.860628e-01   2.349434e-02
  4.311495e+00    4.348492e-01   2.516849e-02
  4.313706e+00    3.958060e-01   2.423771e-02
  4.315916e+00    3.707882e-01   2.368954e-02
  4.318126e+00    4.362113e-01   2.594915e-02
  4.320337e+00    4.487964e-01   2.658727e-02
  4.322547e+00    4.644839e-01   2.733462e-02
  4.324758e+00    4.392809e-01   2.685895e-02
  4.326968e+00    5.149850e-01   2.940951e-02
  4.329179e+00    5.211732e-01   2.991091e-02
  4.331389e+00    4.929031e-01   2.942448e-02
  4.333600e+00    3.759147e-01   2.600326e-02
  4.335810e+00    3.673846e-01   2.601250e-02
  4.338021e+00    2.978216e-01   2.371966e-02
  4.340231e+00    4.021211e-01   2.790783e-02
  4.342442e+00    4.049886e-01   2.838358e-02
  4.344652e+00    4.349340e-01   2.981360e-02
  4.346862e+00    4.264190e-01   2.993205e-02
  4.349073e+00    5.485336e-01   3.444467e-02
  4.351283e+00    4.799727e-01   3.270089e-02
  4.353494e+00    4.240796e-01   3.121370e-02
  4.355704e+00    3.665170e-01   2.948382e-02
  4.357915e+00    4.244943e-01   3.225893e-02
  4.360125e+00    5.989248e-01   3.897169e-02
  4.362336e+00    4.615093e-01   3.483402e-02
  4.364546e+00    3.912288e-01   3.265632e-02
  4.366757e+00    4.528009e-01   3.583055e-02
  4.368967e+00    4.597198e-01   3.682327e-02
  4.371177e+00    4.531386e-01   3.733737e-02
  4.373388e+00    4.229780e-01   3.687792e-02
  4.375598e+00    5.836095e-01   4.430757e-02
  4.377809e+00    5.499943e-01   4.410047e-02
  4.380019e+00    3.131288e-01   3.411411e-02
  4.382230e+00    4.449493e-01   4.179889e-02
  4.384440e+00    4.229454e-01   4.192353e-02
  4.386651e+00    3.293208e-01   3.813742e-02
  4.388861e+00    4.645825e-01   4.681272e-02
  4.391072e+00    3.112599e-01   3.966691e-02
  4.393282e+00    3.412910e-01   4.314043e-02
  4.395492e+00    3.440291e-01   4.511315e-02
  4.397703e+00    2.328881e-01   3.881490e-02
  4.399913e+00    3.767153e-01   5.186469e-02
  4.402124e+00    4.221392e-01   5.801402e-02
  4.404334e+00    5.554834e-01   7.073916e-02
  4.406545e+00    3.690728e-01   6.195486e-02
  4.408755e+00    3.691797e-01   6.720410e-02
  4.410966e+00    2.634659e-01   6.281637e-02
  4.413176e+00    8.975899e-01   1.312683e-01
  4.415387e+00   -3.891610e-01            nan
  4.417597e+00   -1.866300e+00            nan
  4.419807e+00    7.946631e-01   3.202241e-01
