# == pyFAI calibration ==
# Distance Sample to Detector: 0.216 m
# PONI: 1.166e-01, 1.308e-01 m
# Rotations: 0.000000 0.000000 0.000000 rad
# 
# == Fit2d calibration ==
# Distance Sample-beamCenter: 216.000 mm
# Center: x=1744.293, y=1555.000 pix
# Tilt: 0.000 deg  TiltPlanRot: 0.000 deg
# 
# Detector Eiger 9M	 PixelSize= 7.500e-05, 7.500e-05 m
#    Detector has a mask: True 
#    Detector has a dark current: False 
#    detector has a flat field: False 
# 
# Wavelength: 9.8e-11 m
# Mask applied: from detector
# Dark current applied: False
# Flat field applied: False
# Polarization factor: None
# Normalization factor: 1.0
# 
# Headers of the input frame:
# {
# "_array_data.header_convention": "SLS_1.0",
# "_array_data.header_contents": "# Detector: Dectris Eiger 9M, S/N E-18-0102\r\n# Pixel_size 75e-6 m x 75e-6 m\r\n# Silicon sensor, thickness 0.000450 m\r\n# Exposure_time 0.024997 s\r\n# Exposure_period 0.025000 s\r\n# Count_cutoff 62318 counts\r\n# Wavelength 0.980106 A\r\n# Detector_distance 0.215992 m\r\n# Beam_xy (1555, 1744) pixels\r\n# Start_angle 0.000000 deg.\r\n# Angle_increment 0.000000 deg.",
# "Content-Type": "application/octet-stream;",
# "conversions": "x-CBF_BYTE_OFFSET",
# "Content-Transfer-Encoding": "BINARY",
# "X-Binary-Size": "10166612",
# "X-Binary-ID": "1",
# "X-Binary-Element-Type": "signed 32-bit integer",
# "X-Binary-Element-Byte-Order": "LITTLE_ENDIAN",
# "Content-MD5": "H7Hi0h5c4XTiogUI4GCI0A==",
# "X-Binary-Number-of-Elements": "10166590",
# "X-Binary-Size-Fastest-Dimension": "3110",
# "X-Binary-Size-Second-Dimension": "3269",
# "X-Binary-Size-Padding": "4095"
# }
# --> H:/Proxima2a_2019-04-05/RAW_DATA/C5_gel17_position5/C5_mesh_1_data.cbf/C5_mesh_1_data.cbf000165.dat
#        q_A^-1              I           sigma 
  1.105228e-03    1.412306e+00   6.430598e-01
  3.315685e-03    2.158175e+00   4.832687e-01
  5.526141e-03    1.366526e+00   2.973590e-01
  7.736597e-03    1.532166e+00   2.659948e-01
  9.947054e-03    1.551731e+00   2.359852e-01
  1.215751e-02    1.257963e+00   1.921332e-01
  1.436797e-02    1.236057e+00   1.751842e-01
  1.657842e-02    1.360701e+00   1.710904e-01
  1.878888e-02    1.301985e+00   1.572051e-01
  2.099934e-02    1.530334e+00   1.612483e-01
  2.320979e-02    1.717781e+00   1.624863e-01
  2.542025e-02    1.373244e+00   1.388300e-01
  2.763070e-02    1.447307e+00   1.367007e-01
  2.984116e-02    1.362980e+00   1.276501e-01
  3.205162e-02    1.318656e+00   1.211579e-01
  3.426207e-02    1.320272e+00   1.172483e-01
  3.647253e-02    1.425476e+00   1.180782e-01
  3.868299e-02    1.556632e+00   1.198226e-01
  4.089344e-02    1.394869e+00   1.103183e-01
  4.310390e-02    1.481556e+00   1.107345e-01
  4.531436e-02    1.418239e+00   1.056673e-01
  4.752481e-02    1.365585e+00   1.012461e-01
  4.973527e-02    1.527784e+00   1.046846e-01
  5.194572e-02    1.569635e+00   1.038251e-01
  5.415618e-02    1.564188e+00   1.015040e-01
  5.636664e-02    1.517000e+00   9.798465e-02
  5.857709e-02    1.592641e+00   9.848578e-02
  6.078755e-02    1.637084e+00   9.801509e-02
  6.299801e-02    1.567302e+00   9.420476e-02
  6.520846e-02    1.403774e+00   8.763132e-02
  6.741892e-02    1.442933e+00   8.737212e-02
  6.962938e-02    1.465347e+00   8.664363e-02
  7.183983e-02    1.388595e+00   8.303476e-02
  7.405029e-02    1.346379e+00   8.053134e-02
  7.626074e-02    1.383816e+00   8.045065e-02
  7.847120e-02    1.486309e+00   8.219179e-02
  8.068166e-02    1.580241e+00   8.357955e-02
  8.289211e-02    1.557514e+00   8.186206e-02
  8.510257e-02    1.443490e+00   7.777794e-02
  8.731303e-02    1.428913e+00   7.639545e-02
  8.952348e-02    1.502092e+00   7.735635e-02
  9.173394e-02    1.459793e+00   7.533200e-02
  9.394439e-02    1.460316e+00   7.445136e-02
  9.615485e-02    1.555867e+00   7.595842e-02
  9.836531e-02    1.602591e+00   7.621733e-02
  1.005758e-01    1.571302e+00   7.463616e-02
  1.027862e-01    1.505913e+00   7.227495e-02
  1.049967e-01    1.434925e+00   6.980309e-02
  1.072071e-01    1.556071e+00   7.193586e-02
  1.094176e-01    1.602587e+00   7.226087e-02
  1.116280e-01    1.641620e+00   7.240625e-02
  1.138385e-01    1.471627e+00   6.788477e-02
  1.160490e-01    1.465215e+00   6.708766e-02
  1.182594e-01    1.509877e+00   6.746154e-02
  1.204699e-01    1.486672e+00   6.632362e-02
  1.226803e-01    1.518939e+00   6.643003e-02
  1.248908e-01    1.582095e+00   6.719358e-02
  1.271012e-01    1.656051e+00   6.814440e-02
  1.293117e-01    1.607375e+00   6.655834e-02
  1.315222e-01    1.627997e+00   6.641712e-02
  1.337326e-01    1.610066e+00   6.550094e-02
  1.359431e-01    1.545534e+00   6.421242e-02
  1.381535e-01    1.644702e+00   6.712961e-02
  1.403640e-01    1.625776e+00   6.703044e-02
  1.425744e-01    1.523704e+00   6.499578e-02
  1.447849e-01    1.537666e+00   6.530795e-02
  1.469953e-01    1.519778e+00   6.488629e-02
  1.492058e-01    1.475572e+00   6.386136e-02
  1.514163e-01    1.539964e+00   6.513155e-02
  1.536267e-01    1.642003e+00   6.712347e-02
  1.558372e-01    1.664669e+00   6.743595e-02
  1.580476e-01    1.592847e+00   6.580511e-02
  1.602581e-01    1.515988e+00   6.403476e-02
  1.624685e-01    1.514379e+00   6.382557e-02
  1.646790e-01    1.557633e+00   6.454474e-02
  1.668895e-01    1.707663e+00   6.738659e-02
  1.690999e-01    1.731319e+00   6.764797e-02
  1.713104e-01    1.768924e+00   6.816651e-02
  1.735208e-01    1.807302e+00   6.868774e-02
  1.757313e-01    1.703387e+00   6.647483e-02
  1.779417e-01    1.806170e+00   6.822777e-02
  1.801522e-01    1.898452e+00   6.972622e-02
  1.823626e-01    1.972852e+00   7.084277e-02
  1.845731e-01    1.817024e+00   6.776721e-02
  1.867836e-01    1.877563e+00   6.865437e-02
  1.889940e-01    1.922112e+00   6.923711e-02
  1.912045e-01    2.089170e+00   7.194220e-02
  1.934149e-01    2.056497e+00   7.113855e-02
  1.956254e-01    1.953412e+00   6.910399e-02
  1.978358e-01    1.955311e+00   6.890064e-02
  2.000463e-01    1.965762e+00   6.885558e-02
  2.022568e-01    2.043392e+00   6.997159e-02
  2.044672e-01    2.049594e+00   6.983765e-02
  2.066777e-01    2.020698e+00   6.911341e-02
  2.088881e-01    2.097310e+00   7.018106e-02
  2.110986e-01    1.989497e+00   6.811902e-02
  2.133090e-01    2.010312e+00   6.825181e-02
  2.155195e-01    2.042944e+00   6.857532e-02
  2.177300e-01    1.971294e+00   6.683284e-02
  2.199404e-01    2.028223e+00   6.600472e-02
  2.221509e-01    2.034070e+00   6.501440e-02
  2.243613e-01    2.098964e+00   6.520611e-02
  2.265718e-01    2.080747e+00   6.420695e-02
  2.287822e-01    2.118427e+00   6.414447e-02
  2.309927e-01    2.100749e+00   6.329434e-02
  2.332031e-01    2.157125e+00   6.358908e-02
  2.354136e-01    2.082306e+00   6.197020e-02
  2.376241e-01    2.196908e+00   6.315860e-02
  2.398345e-01    2.151771e+00   6.204382e-02
  2.420450e-01    2.122115e+00   6.117443e-02
  2.442554e-01    2.173986e+00   6.149102e-02
  2.464659e-01    2.051544e+00   5.933325e-02
  2.486763e-01    2.106458e+00   5.972689e-02
  2.508868e-01    2.105736e+00   5.933993e-02
  2.530973e-01    2.142903e+00   5.949021e-02
  2.553077e-01    2.108629e+00   5.865457e-02
  2.575182e-01    2.182829e+00   5.932457e-02
  2.597286e-01    2.156195e+00   5.861879e-02
  2.619391e-01    2.104497e+00   5.757839e-02
  2.641495e-01    2.053528e+00   5.656207e-02
  2.663600e-01    2.046182e+00   5.615032e-02
  2.685704e-01    2.004234e+00   5.527053e-02
  2.707809e-01    2.057505e+00   5.570299e-02
  2.729914e-01    2.045045e+00   5.524467e-02
  2.752018e-01    2.063813e+00   5.520871e-02
  2.774123e-01    2.026506e+00   5.442801e-02
  2.796227e-01    2.044185e+00   5.439450e-02
  2.818332e-01    2.038339e+00   5.404570e-02
  2.840436e-01    2.039171e+00   5.379471e-02
  2.862541e-01    1.947606e+00   5.232033e-02
  2.884646e-01    1.969509e+00   5.236403e-02
  2.906750e-01    1.970619e+00   5.213042e-02
  2.928855e-01    1.916623e+00   5.117303e-02
  2.950959e-01    1.999726e+00   5.203056e-02
  2.973064e-01    1.994584e+00   5.173009e-02
  2.995168e-01    1.992514e+00   5.146907e-02
  3.017273e-01    1.916551e+00   5.025588e-02
  3.039377e-01    1.926865e+00   5.017026e-02
  3.061482e-01    2.001802e+00   5.091532e-02
  3.083587e-01    1.974631e+00   5.034974e-02
  3.105691e-01    1.894246e+00   4.910359e-02
  3.127796e-01    1.933164e+00   4.939689e-02
  3.149900e-01    1.961072e+00   4.954490e-02
  3.172005e-01    1.915976e+00   4.877168e-02
  3.194109e-01    1.923716e+00   4.866833e-02
  3.216214e-01    1.919304e+00   4.841416e-02
  3.238319e-01    1.904226e+00   4.803253e-02
  3.260423e-01    1.916974e+00   4.800110e-02
  3.282528e-01    1.851450e+00   4.698581e-02
  3.304632e-01    1.873194e+00   4.707783e-02
  3.326737e-01    1.854018e+00   4.665346e-02
  3.348841e-01    1.872782e+00   4.670715e-02
  3.370946e-01    1.778797e+00   4.534881e-02
  3.393050e-01    1.779583e+00   4.518699e-02
  3.415155e-01    1.794193e+00   4.520151e-02
  3.437260e-01    1.834199e+00   4.553327e-02
  3.459364e-01    1.843994e+00   4.548582e-02
  3.481469e-01    1.842414e+00   4.530036e-02
  3.503573e-01    1.812756e+00   4.477059e-02
  3.525678e-01    1.818283e+00   4.467899e-02
  3.547782e-01    1.836917e+00   4.474502e-02
  3.569887e-01    1.856068e+00   4.481831e-02
  3.591992e-01    1.859166e+00   4.469699e-02
  3.614096e-01    1.803623e+00   4.387165e-02
  3.636201e-01    1.713520e+00   4.261145e-02
  3.658305e-01    1.748551e+00   4.289801e-02
  3.680410e-01    1.781232e+00   4.314811e-02
  3.702514e-01    1.782531e+00   4.301869e-02
  3.724619e-01    1.791235e+00   4.297674e-02
  3.746724e-01    1.755286e+00   4.240136e-02
  3.768828e-01    1.782004e+00   4.257908e-02
  3.790933e-01    1.780690e+00   4.242468e-02
  3.813037e-01    1.782427e+00   4.230651e-02
  3.835142e-01    1.733797e+00   4.158835e-02
  3.857246e-01    1.769097e+00   4.187360e-02
  3.879351e-01    1.794296e+00   4.203429e-02
  3.901455e-01    1.807481e+00   4.205414e-02
  3.923560e-01    1.791669e+00   4.173673e-02
  3.945665e-01    1.755837e+00   4.118623e-02
  3.967769e-01    1.764726e+00   4.116104e-02
  3.989874e-01    1.780654e+00   4.121726e-02
  4.011978e-01    1.801496e+00   4.133030e-02
  4.034083e-01    1.832327e+00   4.155450e-02
  4.056187e-01    1.790028e+00   4.094555e-02
  4.078292e-01    1.746105e+00   4.031770e-02
  4.100397e-01    1.696455e+00   3.961899e-02
  4.122501e-01    1.788835e+00   4.056171e-02
  4.144606e-01    1.780359e+00   4.034550e-02
  4.166710e-01    1.789841e+00   4.033253e-02
  4.188815e-01    1.763386e+00   3.991508e-02
  4.210919e-01    1.795855e+00   4.016282e-02
  4.233024e-01    1.813156e+00   4.023713e-02
  4.255128e-01    1.805200e+00   4.003269e-02
  4.277233e-01    1.834850e+00   4.024414e-02
  4.299338e-01    1.842454e+00   4.021143e-02
  4.321442e-01    1.814199e+00   3.978772e-02
  4.343547e-01    1.803292e+00   3.955578e-02
  4.365651e-01    1.759668e+00   3.896338e-02
  4.387756e-01    1.772807e+00   3.899906e-02
  4.409860e-01    1.744426e+00   3.857846e-02
  4.431965e-01    1.715684e+00   3.815353e-02
  4.454070e-01    1.729845e+00   3.820407e-02
  4.476174e-01    1.774276e+00   3.858535e-02
  4.498279e-01    1.754337e+00   3.826355e-02
  4.520383e-01    1.760813e+00   3.822891e-02
  4.542488e-01    1.717958e+00   3.765903e-02
  4.564592e-01    1.704978e+00   3.741582e-02
  4.586697e-01    1.738817e+00   3.768500e-02
  4.608801e-01    1.731318e+00   3.750294e-02
  4.630906e-01    1.720512e+00   3.728672e-02
  4.653011e-01    1.725986e+00   3.724778e-02
  4.675115e-01    1.759563e+00   3.750929e-02
  4.697220e-01    1.721800e+00   3.700749e-02
  4.719324e-01    1.717540e+00   3.686604e-02
  4.741429e-01    1.755713e+00   3.717744e-02
  4.763533e-01    1.736031e+00   3.687370e-02
  4.785638e-01    1.738648e+00   3.680614e-02
  4.807743e-01    1.718471e+00   3.649890e-02
  4.829847e-01    1.737766e+00   3.661050e-02
  4.851952e-01    1.757323e+00   3.672278e-02
  4.874056e-01    1.739257e+00   3.644142e-02
  4.896161e-01    1.712621e+00   3.607162e-02
  4.918265e-01    1.742701e+00   3.629665e-02
  4.940370e-01    1.724980e+00   3.602250e-02
  4.962475e-01    1.705747e+00   3.573264e-02
  4.984579e-01    1.716737e+00   3.575922e-02
  5.006684e-01    1.693946e+00   3.543446e-02
  5.028788e-01    1.694751e+00   3.535697e-02
  5.050893e-01    1.701927e+00   3.534561e-02
  5.072997e-01    1.629361e+00   3.450032e-02
  5.095102e-01    1.687445e+00   3.502580e-02
  5.117206e-01    1.674113e+00   3.480420e-02
  5.139311e-01    1.719316e+00   3.518746e-02
  5.161416e-01    1.751181e+00   3.542815e-02
  5.183520e-01    1.659329e+00   3.440454e-02
  5.205625e-01    1.648273e+00   3.420940e-02
  5.227729e-01    1.650770e+00   3.415545e-02
  5.249834e-01    1.646679e+00   3.403390e-02
  5.271938e-01    1.667711e+00   3.417065e-02
  5.294043e-01    1.723036e+00   3.465264e-02
  5.316148e-01    1.740991e+00   3.475298e-02
  5.338252e-01    1.815825e+00   3.541087e-02
  5.360357e-01    1.784451e+00   3.502375e-02
  5.382461e-01    1.789202e+00   3.499103e-02
  5.404566e-01    1.838036e+00   3.538465e-02
  5.426670e-01    1.772410e+00   3.466893e-02
  5.448775e-01    1.733309e+00   3.420777e-02
  5.470879e-01    1.753815e+00   3.433279e-02
  5.492984e-01    1.775453e+00   3.446712e-02
  5.515089e-01    1.792409e+00   3.455451e-02
  5.537193e-01    1.780587e+00   3.436449e-02
  5.559298e-01    1.834767e+00   3.480687e-02
  5.581402e-01    1.833387e+00   3.471776e-02
  5.603507e-01    1.810920e+00   3.442930e-02
  5.625611e-01    1.781895e+00   3.407816e-02
  5.647716e-01    1.806952e+00   3.424241e-02
  5.669821e-01    1.758516e+00   3.370753e-02
  5.691925e-01    1.734821e+00   3.340781e-02
  5.714030e-01    1.751142e+00   3.349301e-02
  5.736134e-01    1.783734e+00   3.373137e-02
  5.758239e-01    1.755429e+00   3.339126e-02
  5.780343e-01    1.734900e+00   3.312520e-02
  5.802448e-01    1.712441e+00   3.284121e-02
  5.824552e-01    1.676328e+00   3.242489e-02
  5.846657e-01    1.639232e+00   3.199727e-02
  5.868762e-01    1.640602e+00   3.194400e-02
  5.890866e-01    1.651636e+00   3.198475e-02
  5.912971e-01    1.635195e+00   3.175925e-02
  5.935075e-01    1.663634e+00   3.196805e-02
  5.957180e-01    1.612756e+00   3.141084e-02
  5.979284e-01    1.642091e+00   3.163050e-02
  6.001389e-01    1.685809e+00   3.198355e-02
  6.023494e-01    1.660759e+00   3.168058e-02
  6.045598e-01    1.662742e+00   3.163494e-02
  6.067703e-01    1.648352e+00   3.143442e-02
  6.089807e-01    1.671746e+00   3.159304e-02
  6.111912e-01    1.692301e+00   3.172320e-02
  6.134016e-01    1.733481e+00   3.204281e-02
  6.156121e-01    1.735611e+00   3.199879e-02
  6.178226e-01    1.709557e+00   3.169482e-02
  6.200330e-01    1.720562e+00   3.173394e-02
  6.222435e-01    1.697305e+00   3.145631e-02
  6.244539e-01    1.724001e+00   3.164064e-02
  6.266644e-01    1.739037e+00   3.171632e-02
  6.288748e-01    1.730862e+00   3.158012e-02
  6.310853e-01    1.762219e+00   3.180300e-02
  6.332957e-01    1.749397e+00   3.162593e-02
  6.355062e-01    1.738620e+00   3.146711e-02
  6.377167e-01    1.703769e+00   3.109038e-02
  6.399271e-01    1.665070e+00   3.067635e-02
  6.421376e-01    1.725077e+00   3.116462e-02
  6.443480e-01    1.742913e+00   3.126574e-02
  6.465585e-01    1.684845e+00   3.068226e-02
  6.487689e-01    1.694059e+00   3.070795e-02
  6.509794e-01    1.634496e+00   3.010638e-02
  6.531899e-01    1.661641e+00   3.029823e-02
  6.554003e-01    1.706606e+00   3.064774e-02
  6.576108e-01    1.635547e+00   2.994706e-02
  6.598212e-01    1.587539e+00   2.944944e-02
  6.620317e-01    1.620737e+00   2.970059e-02
  6.642421e-01    1.637831e+00   2.980159e-02
  6.664526e-01    1.594771e+00   2.935304e-02
  6.686630e-01    1.635422e+00   2.966982e-02
  6.708735e-01    1.643977e+00   2.969277e-02
  6.730840e-01    1.630563e+00   2.951746e-02
  6.752944e-01    1.615555e+00   2.932789e-02
  6.775049e-01    1.631856e+00   2.942194e-02
  6.797153e-01    1.662357e+00   2.964186e-02
  6.819258e-01    1.627046e+00   2.927248e-02
  6.841362e-01    1.590277e+00   2.888778e-02
  6.863467e-01    1.573904e+00   2.868721e-02
  6.885572e-01    1.604918e+00   2.891655e-02
  6.907676e-01    1.631861e+00   2.910604e-02
  6.929781e-01    1.624802e+00   2.899139e-02
  6.951885e-01    1.640563e+00   2.908006e-02
  6.973990e-01    1.618585e+00   2.883356e-02
  6.996094e-01    1.566328e+00   2.831439e-02
  7.018199e-01    1.589957e+00   2.847707e-02
  7.040303e-01    1.600486e+00   2.852103e-02
  7.062408e-01    1.590285e+00   2.838019e-02
  7.084513e-01    1.587066e+00   2.830214e-02
  7.106617e-01    1.578696e+00   2.817836e-02
  7.128722e-01    1.591806e+00   2.824615e-02
  7.150826e-01    1.583022e+00   2.811958e-02
  7.172931e-01    1.551257e+00   2.778803e-02
  7.195035e-01    1.557112e+00   2.779255e-02
  7.217140e-01    1.569840e+00   2.795529e-02
  7.239245e-01    1.552347e+00   2.802422e-02
  7.261349e-01    1.562831e+00   2.822691e-02
  7.283454e-01    1.564198e+00   2.831141e-02
  7.305558e-01    1.570500e+00   2.842230e-02
  7.327663e-01    1.591051e+00   2.865038e-02
  7.349767e-01    1.606743e+00   2.880786e-02
  7.371872e-01    1.602657e+00   2.875994e-02
  7.393976e-01    1.555400e+00   2.831856e-02
  7.416081e-01    1.572515e+00   2.845779e-02
  7.438186e-01    1.598891e+00   2.855001e-02
  7.460290e-01    1.557027e+00   2.788121e-02
  7.482395e-01    1.532221e+00   2.748934e-02
  7.504499e-01    1.598532e+00   2.794058e-02
  7.526604e-01    1.562525e+00   2.750802e-02
  7.548708e-01    1.567860e+00   2.746570e-02
  7.570813e-01    1.582497e+00   2.754251e-02
  7.592918e-01    1.611383e+00   2.775718e-02
  7.615022e-01    1.579185e+00   2.744460e-02
  7.637127e-01    1.588760e+00   2.749475e-02
  7.659231e-01    1.570772e+00   2.730672e-02
  7.681336e-01    1.570182e+00   2.727000e-02
  7.703440e-01    1.558565e+00   2.713790e-02
  7.725545e-01    1.586586e+00   2.734973e-02
  7.747650e-01    1.616591e+00   2.756846e-02
  7.769754e-01    1.606041e+00   2.742514e-02
  7.791859e-01    1.556234e+00   2.694339e-02
  7.813963e-01    1.581498e+00   2.710853e-02
  7.836068e-01    1.575900e+00   2.700869e-02
  7.858172e-01    1.580083e+00   2.699392e-02
  7.880277e-01    1.622906e+00   2.730524e-02
  7.902381e-01    1.609825e+00   2.714556e-02
  7.924486e-01    1.602216e+00   2.703117e-02
  7.946591e-01    1.627388e+00   2.719398e-02
  7.968695e-01    1.562694e+00   2.660031e-02
  7.990800e-01    1.605530e+00   2.691420e-02
  8.012904e-01    1.643372e+00   2.718247e-02
  8.035009e-01    1.645373e+00   2.715060e-02
  8.057113e-01    1.654917e+00   2.718215e-02
  8.079218e-01    1.701778e+00   2.751672e-02
  8.101323e-01    1.755622e+00   2.790120e-02
  8.123427e-01    1.766202e+00   2.793745e-02
  8.145532e-01    1.700852e+00   2.736883e-02
  8.167636e-01    1.659546e+00   2.698898e-02
  8.189741e-01    1.682508e+00   2.712975e-02
  8.211845e-01    1.745326e+00   2.758524e-02
  8.233950e-01    1.754068e+00   2.760930e-02
  8.256054e-01    1.713891e+00   2.724604e-02
  8.278159e-01    1.655924e+00   2.673712e-02
  8.300264e-01    1.637189e+00   2.654235e-02
  8.322368e-01    1.641871e+00   2.653709e-02
  8.344473e-01    1.663055e+00   2.666406e-02
  8.366577e-01    1.650860e+00   2.652339e-02
  8.388682e-01    1.670546e+00   2.663840e-02
  8.410786e-01    1.649527e+00   2.642811e-02
  8.432891e-01    1.625582e+00   2.619391e-02
  8.454996e-01    1.627309e+00   2.616634e-02
  8.477100e-01    1.637448e+00   2.620606e-02
  8.499205e-01    1.672398e+00   2.644268e-02
  8.521309e-01    1.664682e+00   2.634049e-02
  8.543414e-01    1.628235e+00   2.600989e-02
  8.565518e-01    1.631076e+00   2.599204e-02
  8.587623e-01    1.632766e+00   2.596501e-02
  8.609727e-01    1.635529e+00   2.594666e-02
  8.631832e-01    1.666605e+00   2.615163e-02
  8.653937e-01    1.680358e+00   2.621895e-02
  8.676041e-01    1.635533e+00   2.582788e-02
  8.698146e-01    1.601164e+00   2.551598e-02
  8.720250e-01    1.609707e+00   2.554497e-02
  8.742355e-01    1.610219e+00   2.551014e-02
  8.764459e-01    1.625254e+00   2.558986e-02
  8.786564e-01    1.606538e+00   2.540416e-02
  8.808669e-01    1.591616e+00   2.524759e-02
  8.830773e-01    1.589539e+00   2.519310e-02
  8.852878e-01    1.593036e+00   2.518302e-02
  8.874982e-01    1.564339e+00   2.491891e-02
  8.897087e-01    1.583165e+00   2.503096e-02
  8.919191e-01    1.591758e+00   2.506112e-02
  8.941296e-01    1.593404e+00   2.503689e-02
  8.963401e-01    1.590267e+00   2.497591e-02
  8.985505e-01    1.601113e+00   2.502397e-02
  9.007610e-01    1.582613e+00   2.484243e-02
  9.029714e-01    1.566581e+00   2.468084e-02
  9.051819e-01    1.564957e+00   2.463119e-02
  9.073923e-01    1.608287e+00   2.493321e-02
  9.096028e-01    1.600525e+00   2.483805e-02
  9.118132e-01    1.597182e+00   2.477590e-02
  9.140237e-01    1.604607e+00   2.479676e-02
  9.162342e-01    1.566707e+00   2.446796e-02
  9.184446e-01    1.614745e+00   2.480431e-02
  9.206551e-01    1.644342e+00   2.499454e-02
  9.228655e-01    1.634037e+00   2.488047e-02
  9.250760e-01    1.662232e+00   2.505819e-02
  9.272864e-01    1.648979e+00   2.492337e-02
  9.294969e-01    1.625596e+00   2.470993e-02
  9.317074e-01    1.615270e+00   2.459654e-02
  9.339178e-01    1.612890e+00   2.454483e-02
  9.361283e-01    1.609246e+00   2.448095e-02
  9.383387e-01    1.644388e+00   2.471313e-02
  9.405492e-01    1.669672e+00   2.486766e-02
  9.427596e-01    1.651770e+00   2.469836e-02
  9.449701e-01    1.646104e+00   2.462247e-02
  9.471805e-01    1.629900e+00   2.446628e-02
  9.493910e-01    1.661547e+00   2.466874e-02
  9.516015e-01    1.712497e+00   2.500915e-02
  9.538119e-01    1.720195e+00   2.503095e-02
  9.560224e-01    1.734773e+00   2.510142e-02
  9.582328e-01    1.750741e+00   2.518284e-02
  9.604433e-01    1.765313e+00   2.525162e-02
  9.626537e-01    1.749604e+00   2.510522e-02
  9.648642e-01    1.725904e+00   2.490045e-02
  9.670747e-01    1.762580e+00   2.512891e-02
  9.692851e-01    1.814077e+00   2.545949e-02
  9.714956e-01    1.816579e+00   2.544112e-02
  9.737060e-01    1.813274e+00   2.538460e-02
  9.759165e-01    1.785305e+00   2.515252e-02
  9.781269e-01    1.792648e+00   2.517123e-02
  9.803374e-01    1.803211e+00   2.521036e-02
  9.825478e-01    1.823658e+00   2.531945e-02
  9.847583e-01    1.789938e+00   2.505022e-02
  9.869688e-01    1.805119e+00   2.512255e-02
  9.891792e-01    1.783142e+00   2.493597e-02
  9.913897e-01    1.782887e+00   2.490053e-02
  9.936001e-01    1.817258e+00   2.510648e-02
  9.958106e-01    1.901829e+00   2.564912e-02
  9.980210e-01    1.885195e+00   2.550361e-02
  1.000231e+00    1.743750e+00   2.466257e-02
  1.002442e+00    1.675949e+00   2.430679e-02
  1.004652e+00    1.677075e+00   2.438278e-02
  1.006863e+00    1.644049e+00   2.419162e-02
  1.009073e+00    1.621569e+00   2.406240e-02
  1.011284e+00    1.634409e+00   2.418978e-02
  1.013494e+00    1.626035e+00   2.415167e-02
  1.015705e+00    1.610311e+00   2.405732e-02
  1.017915e+00    1.593581e+00   2.394854e-02
  1.020126e+00    1.560799e+00   2.371693e-02
  1.022336e+00    1.563619e+00   2.375005e-02
  1.024547e+00    1.591726e+00   2.397390e-02
  1.026757e+00    1.621703e+00   2.420718e-02
  1.028967e+00    1.614931e+00   2.416446e-02
  1.031178e+00    1.588781e+00   2.397426e-02
  1.033388e+00    1.819426e+00   2.566090e-02
  1.035599e+00    2.279804e+00   2.872880e-02
  1.037809e+00    2.215935e+00   2.832763e-02
  1.040020e+00    1.729328e+00   2.502613e-02
  1.042230e+00    1.587860e+00   2.398258e-02
  1.044441e+00    1.512740e+00   2.340820e-02
  1.046651e+00    1.460776e+00   2.300279e-02
  1.048862e+00    1.478063e+00   2.313770e-02
  1.051072e+00    1.523747e+00   2.349016e-02
  1.053282e+00    1.578946e+00   2.391089e-02
  1.055493e+00    1.663135e+00   2.453551e-02
  1.057703e+00    1.763292e+00   2.526185e-02
  1.059914e+00    1.814986e+00   2.562481e-02
  1.062124e+00    1.757221e+00   2.520935e-02
  1.064335e+00    1.637060e+00   2.432857e-02
  1.066545e+00    1.543738e+00   2.361881e-02
  1.068756e+00    1.492862e+00   2.322262e-02
  1.070966e+00    1.455359e+00   2.292255e-02
  1.073177e+00    1.478498e+00   2.309799e-02
  1.075387e+00    1.475038e+00   2.306573e-02
  1.077597e+00    1.495998e+00   2.322168e-02
  1.079808e+00    1.510663e+00   2.320042e-02
  1.082018e+00    1.489272e+00   2.284480e-02
  1.084229e+00    1.462142e+00   2.252566e-02
  1.086439e+00    1.473412e+00   2.252431e-02
  1.088650e+00    1.475375e+00   2.246311e-02
  1.090860e+00    1.466380e+00   2.232662e-02
  1.093071e+00    1.458248e+00   2.220228e-02
  1.095281e+00    1.453797e+00   2.211097e-02
  1.097492e+00    1.394711e+00   2.160304e-02
  1.099702e+00    1.427658e+00   2.180553e-02
  1.101912e+00    1.404938e+00   2.158309e-02
  1.104123e+00    1.388731e+00   2.141080e-02
  1.106333e+00    1.401087e+00   2.146191e-02
  1.108544e+00    1.390502e+00   2.133705e-02
  1.110754e+00    1.416699e+00   2.149422e-02
  1.112965e+00    1.408701e+00   2.139313e-02
  1.115175e+00    1.396344e+00   2.125826e-02
  1.117386e+00    1.436065e+00   2.151893e-02
  1.119596e+00    1.427700e+00   2.141812e-02
  1.121807e+00    1.395804e+00   2.113887e-02
  1.124017e+00    1.386628e+00   2.103290e-02
  1.126228e+00    1.399778e+00   2.109668e-02
  1.128438e+00    1.408916e+00   2.112859e-02
  1.130648e+00    1.403637e+00   2.105458e-02
  1.132859e+00    1.395267e+00   2.095738e-02
  1.135069e+00    1.376790e+00   2.078362e-02
  1.137280e+00    1.393646e+00   2.087741e-02
  1.139490e+00    1.390171e+00   2.081828e-02
  1.141701e+00    1.373855e+00   2.066276e-02
  1.143911e+00    1.384249e+00   2.070889e-02
  1.146122e+00    1.373462e+00   2.059613e-02
  1.148332e+00    1.386311e+00   2.066028e-02
  1.150543e+00    1.366786e+00   2.048356e-02
  1.152753e+00    1.350087e+00   2.032750e-02
  1.154963e+00    1.373102e+00   2.046898e-02
  1.157174e+00    1.398801e+00   2.062921e-02
  1.159384e+00    1.401016e+00   2.061537e-02
  1.161595e+00    1.448981e+00   2.093459e-02
  1.163805e+00    1.434904e+00   2.080273e-02
  1.166016e+00    1.398431e+00   2.050687e-02
  1.168226e+00    1.396181e+00   2.046108e-02
  1.170437e+00    1.442864e+00   2.077091e-02
  1.172647e+00    1.488495e+00   2.106663e-02
  1.174858e+00    1.517811e+00   2.124346e-02
  1.177068e+00    1.516125e+00   2.120185e-02
  1.179278e+00    1.587297e+00   2.166291e-02
  1.181489e+00    1.641583e+00   2.200058e-02
  1.183699e+00    1.616352e+00   2.180081e-02
  1.185910e+00    1.487068e+00   2.088173e-02
  1.188120e+00    1.425782e+00   2.041951e-02
  1.190331e+00    1.361639e+00   1.992810e-02
  1.192541e+00    1.371706e+00   1.997404e-02
  1.194752e+00    1.368310e+00   1.992213e-02
  1.196962e+00    1.334031e+00   1.964541e-02
  1.199173e+00    1.327163e+00   1.956850e-02
  1.201383e+00    1.367859e+00   1.983890e-02
  1.203593e+00    1.370509e+00   1.983315e-02
  1.205804e+00    1.346323e+00   1.963145e-02
  1.208014e+00    1.356457e+00   1.967830e-02
  1.210225e+00    1.343984e+00   1.956234e-02
  1.212435e+00    1.322961e+00   1.938420e-02
  1.214646e+00    1.366685e+00   1.967563e-02
  1.216856e+00    1.378379e+00   1.973390e-02
  1.219067e+00    1.386792e+00   1.976923e-02
  1.221277e+00    1.401550e+00   1.984865e-02
  1.223488e+00    1.358497e+00   1.951561e-02
  1.225698e+00    1.364961e+00   1.953490e-02
  1.227909e+00    1.376289e+00   1.958535e-02
  1.230119e+00    1.335307e+00   1.925987e-02
  1.232329e+00    1.362549e+00   1.942446e-02
  1.234540e+00    1.381479e+00   1.952831e-02
  1.236750e+00    1.370652e+00   1.942113e-02
  1.238961e+00    1.362276e+00   1.933461e-02
  1.241171e+00    1.343390e+00   1.917600e-02
  1.243382e+00    1.335790e+00   1.909829e-02
  1.245592e+00    1.334311e+00   1.906374e-02
  1.247803e+00    1.363531e+00   1.924757e-02
  1.250013e+00    1.378515e+00   1.932926e-02
  1.252224e+00    1.381976e+00   1.932999e-02
  1.254434e+00    1.375874e+00   1.926330e-02
  1.256644e+00    1.352695e+00   1.907711e-02
  1.258855e+00    1.356899e+00   1.908342e-02
  1.261065e+00    1.349484e+00   1.900782e-02
  1.263276e+00    1.367839e+00   1.911356e-02
  1.265486e+00    1.324542e+00   1.878597e-02
  1.267697e+00    1.341365e+00   1.888194e-02
  1.269907e+00    1.343477e+00   1.887417e-02
  1.272118e+00    1.342950e+00   1.884795e-02
  1.274328e+00    1.345007e+00   1.883968e-02
  1.276539e+00    1.327254e+00   1.869235e-02
  1.278749e+00    1.325099e+00   1.865508e-02
  1.280959e+00    1.352362e+00   1.882347e-02
  1.283170e+00    1.343884e+00   1.874198e-02
  1.285380e+00    1.360461e+00   1.883469e-02
  1.287591e+00    1.345509e+00   1.870890e-02
  1.289801e+00    1.340883e+00   1.865557e-02
  1.292012e+00    1.310853e+00   1.842864e-02
  1.294222e+00    1.338965e+00   1.860902e-02
  1.296433e+00    1.309547e+00   1.838810e-02
  1.298643e+00    1.320114e+00   1.844584e-02
  1.300854e+00    1.341323e+00   1.857708e-02
  1.303064e+00    1.320847e+00   1.841572e-02
  1.305274e+00    1.339307e+00   1.852260e-02
  1.307485e+00    1.353858e+00   1.860138e-02
  1.309695e+00    1.332267e+00   1.843036e-02
  1.311906e+00    1.335685e+00   1.843239e-02
  1.314116e+00    1.365136e+00   1.861358e-02
  1.316327e+00    1.348994e+00   1.848154e-02
  1.318537e+00    1.350159e+00   1.846763e-02
  1.320748e+00    1.360401e+00   1.851589e-02
  1.322958e+00    1.368991e+00   1.855361e-02
  1.325169e+00    1.357575e+00   1.845501e-02
  1.327379e+00    1.361390e+00   1.845902e-02
  1.329589e+00    1.341429e+00   1.830220e-02
  1.331800e+00    1.363579e+00   1.843187e-02
  1.334010e+00    1.368347e+00   1.844328e-02
  1.336221e+00    1.381601e+00   1.851037e-02
  1.338431e+00    1.337724e+00   1.819334e-02
  1.340642e+00    1.359061e+00   1.840219e-02
  1.342852e+00    1.374588e+00   1.860862e-02
  1.345063e+00    1.371462e+00   1.863734e-02
  1.347273e+00    1.348410e+00   1.851525e-02
  1.349484e+00    1.344963e+00   1.851920e-02
  1.351694e+00    1.354824e+00   1.860971e-02
  1.353905e+00    1.347463e+00   1.857707e-02
  1.356115e+00    1.337275e+00   1.852168e-02
  1.358325e+00    1.350604e+00   1.862707e-02
  1.360536e+00    1.358991e+00   1.869649e-02
  1.362746e+00    1.336445e+00   1.855027e-02
  1.364957e+00    1.324957e+00   1.847796e-02
  1.367167e+00    1.334846e+00   1.855391e-02
  1.369378e+00    1.333066e+00   1.854751e-02
  1.371588e+00    1.308465e+00   1.838067e-02
  1.373799e+00    1.300328e+00   1.832702e-02
  1.376009e+00    1.287845e+00   1.824217e-02
  1.378220e+00    1.308401e+00   1.838967e-02
  1.380430e+00    1.306460e+00   1.837873e-02
  1.382640e+00    1.323319e+00   1.849781e-02
  1.384851e+00    1.338593e+00   1.860517e-02
  1.387061e+00    1.333373e+00   1.856915e-02
  1.389272e+00    1.276908e+00   1.817194e-02
  1.391482e+00    1.259127e+00   1.804429e-02
  1.393693e+00    1.281439e+00   1.820257e-02
  1.395903e+00    1.290973e+00   1.826868e-02
  1.398114e+00    1.296984e+00   1.830976e-02
  1.400324e+00    1.294870e+00   1.829271e-02
  1.402535e+00    1.272327e+00   1.813046e-02
  1.404745e+00    1.269910e+00   1.811088e-02
  1.406955e+00    1.275968e+00   1.815132e-02
  1.409166e+00    1.269545e+00   1.810228e-02
  1.411376e+00    1.257747e+00   1.801486e-02
  1.413587e+00    1.270474e+00   1.810195e-02
  1.415797e+00    1.275680e+00   1.813548e-02
  1.418008e+00    1.254833e+00   1.794506e-02
  1.420218e+00    1.266865e+00   1.788133e-02
  1.422429e+00    1.282014e+00   1.790222e-02
  1.424639e+00    1.292843e+00   1.791239e-02
  1.426850e+00    1.287626e+00   1.782115e-02
  1.429060e+00    1.286325e+00   1.776284e-02
  1.431270e+00    1.282062e+00   1.768886e-02
  1.433481e+00    1.255003e+00   1.746050e-02
  1.435691e+00    1.262940e+00   1.747727e-02
  1.437902e+00    1.285488e+00   1.759593e-02
  1.440112e+00    1.264649e+00   1.741746e-02
  1.442323e+00    1.246783e+00   1.726125e-02
  1.444533e+00    1.239740e+00   1.718025e-02
  1.446744e+00    1.255724e+00   1.725969e-02
  1.448954e+00    1.260101e+00   1.725969e-02
  1.451165e+00    1.270923e+00   1.730385e-02
  1.453375e+00    1.287373e+00   1.738727e-02
  1.455586e+00    1.267469e+00   1.722419e-02
  1.457796e+00    1.286580e+00   1.732586e-02
  1.460006e+00    1.259398e+00   1.711474e-02
  1.462217e+00    1.269316e+00   1.715576e-02
  1.464427e+00    1.270086e+00   1.713537e-02
  1.466638e+00    1.250394e+00   1.697688e-02
  1.468848e+00    1.253453e+00   1.697245e-02
  1.471059e+00    1.249994e+00   1.692411e-02
  1.473269e+00    1.243098e+00   1.685323e-02
  1.475480e+00    1.252413e+00   1.689265e-02
  1.477690e+00    1.280032e+00   1.705394e-02
  1.479901e+00    1.303257e+00   1.718381e-02
  1.482111e+00    1.291933e+00   1.708545e-02
  1.484321e+00    1.283651e+00   1.700731e-02
  1.486532e+00    1.316211e+00   1.719888e-02
  1.488742e+00    1.347162e+00   1.737656e-02
  1.490953e+00    1.348306e+00   1.736060e-02
  1.493163e+00    1.325992e+00   1.719353e-02
  1.495374e+00    1.282082e+00   1.688481e-02
  1.497584e+00    1.252942e+00   1.667022e-02
  1.499795e+00    1.261739e+00   1.670699e-02
  1.502005e+00    1.255995e+00   1.664726e-02
  1.504216e+00    1.253298e+00   1.660839e-02
  1.506426e+00    1.275800e+00   1.673585e-02
  1.508636e+00    1.278850e+00   1.673525e-02
  1.510847e+00    1.276655e+00   1.669887e-02
  1.513057e+00    1.238314e+00   1.642132e-02
  1.515268e+00    1.244453e+00   1.643632e-02
  1.517478e+00    1.266358e+00   1.655511e-02
  1.519689e+00    1.254381e+00   1.645164e-02
  1.521899e+00    1.265331e+00   1.650011e-02
  1.524110e+00    1.250966e+00   1.638585e-02
  1.526320e+00    1.278461e+00   1.654514e-02
  1.528531e+00    1.274488e+00   1.649948e-02
  1.530741e+00    1.259920e+00   1.638568e-02
  1.532951e+00    1.238092e+00   1.622364e-02
  1.535162e+00    1.238458e+00   1.631223e-02
  1.537372e+00    1.236622e+00   1.636673e-02
  1.539583e+00    1.241983e+00   1.643629e-02
  1.541793e+00    1.238608e+00   1.642087e-02
  1.544004e+00    1.253341e+00   1.651850e-02
  1.546214e+00    1.256264e+00   1.653625e-02
  1.548425e+00    1.237310e+00   1.641129e-02
  1.550635e+00    1.222180e+00   1.632022e-02
  1.552846e+00    1.242867e+00   1.646741e-02
  1.555056e+00    1.289591e+00   1.673186e-02
  1.557266e+00    1.269472e+00   1.648930e-02
  1.559477e+00    1.253132e+00   1.632350e-02
  1.561687e+00    1.238125e+00   1.619488e-02
  1.563898e+00    1.237777e+00   1.617549e-02
  1.566108e+00    1.227372e+00   1.609151e-02
  1.568319e+00    1.248103e+00   1.621118e-02
  1.570529e+00    1.259004e+00   1.625655e-02
  1.572740e+00    1.226723e+00   1.601939e-02
  1.574950e+00    1.218326e+00   1.593840e-02
  1.577161e+00    1.229594e+00   1.598662e-02
  1.579371e+00    1.263908e+00   1.618431e-02
  1.581582e+00    1.253559e+00   1.609807e-02
  1.583792e+00    1.254181e+00   1.608399e-02
  1.586002e+00    1.226897e+00   1.589057e-02
  1.588213e+00    1.236547e+00   1.593575e-02
  1.590423e+00    1.240199e+00   1.593923e-02
  1.592634e+00    1.234299e+00   1.587972e-02
  1.594844e+00    1.256599e+00   1.600101e-02
  1.597055e+00    1.248044e+00   1.592593e-02
  1.599265e+00    1.241623e+00   1.586417e-02
  1.601476e+00    1.206601e+00   1.561884e-02
  1.603686e+00    1.194006e+00   1.551769e-02
  1.605897e+00    1.211281e+00   1.560960e-02
  1.608107e+00    1.221696e+00   1.565714e-02
  1.610317e+00    1.221261e+00   1.563517e-02
  1.612528e+00    1.222422e+00   1.562353e-02
  1.614738e+00    1.235343e+00   1.568689e-02
  1.616949e+00    1.218385e+00   1.555995e-02
  1.619159e+00    1.192187e+00   1.537327e-02
  1.621370e+00    1.180094e+00   1.527693e-02
  1.623580e+00    1.193180e+00   1.534323e-02
  1.625791e+00    1.194443e+00   1.533319e-02
  1.628001e+00    1.182114e+00   1.523576e-02
  1.630212e+00    1.161615e+00   1.508555e-02
  1.632422e+00    1.160040e+00   1.505762e-02
  1.634632e+00    1.154338e+00   1.500347e-02
  1.636843e+00    1.148761e+00   1.494987e-02
  1.639053e+00    1.147322e+00   1.492338e-02
  1.641264e+00    1.139264e+00   1.485405e-02
  1.643474e+00    1.127698e+00   1.476130e-02
  1.645685e+00    1.139643e+00   1.482275e-02
  1.647895e+00    1.137489e+00   1.479226e-02
  1.650106e+00    1.146217e+00   1.483195e-02
  1.652316e+00    1.136645e+00   1.475348e-02
  1.654527e+00    1.119530e+00   1.462550e-02
  1.656737e+00    1.106258e+00   1.452218e-02
  1.658947e+00    1.136382e+00   1.470228e-02
  1.661158e+00    1.102768e+00   1.446712e-02
  1.663368e+00    1.089885e+00   1.436656e-02
  1.665579e+00    1.104822e+00   1.444864e-02
  1.667789e+00    1.090378e+00   1.433783e-02
  1.670000e+00    1.106509e+00   1.442806e-02
  1.672210e+00    1.086410e+00   1.428071e-02
  1.674421e+00    1.077857e+00   1.420923e-02
  1.676631e+00    1.088983e+00   1.426661e-02
  1.678842e+00    1.053581e+00   1.401736e-02
  1.681052e+00    1.080129e+00   1.417755e-02
  1.683263e+00    1.113677e+00   1.438074e-02
  1.685473e+00    1.114021e+00   1.436763e-02
  1.687683e+00    1.099593e+00   1.425874e-02
  1.689894e+00    1.103459e+00   1.426785e-02
  1.692104e+00    1.098007e+00   1.421750e-02
  1.694315e+00    1.098481e+00   1.420589e-02
  1.696525e+00    1.071904e+00   1.401781e-02
  1.698736e+00    1.055237e+00   1.389366e-02
  1.700946e+00    1.021372e+00   1.365403e-02
  1.703157e+00    1.052524e+00   1.384608e-02
  1.705367e+00    1.031557e+00   1.369314e-02
  1.707578e+00    1.023451e+00   1.362482e-02
  1.709788e+00    1.067154e+00   1.389842e-02
  1.711998e+00    1.020684e+00   1.357763e-02
  1.714209e+00    9.910296e-01   1.336481e-02
  1.716419e+00    1.001766e+00   1.342297e-02
  1.718630e+00    1.011010e+00   1.347062e-02
  1.720840e+00    1.016639e+00   1.349398e-02
  1.723051e+00    1.035035e+00   1.360157e-02
  1.725261e+00    1.070205e+00   1.381571e-02
  1.727472e+00    1.050812e+00   1.367556e-02
  1.729682e+00    1.036431e+00   1.356809e-02
  1.731893e+00    1.018559e+00   1.343661e-02
  1.734103e+00    1.027642e+00   1.348248e-02
  1.736313e+00    1.019188e+00   1.341281e-02
  1.738524e+00    9.818450e-01   1.315113e-02
  1.740734e+00    9.737828e-01   1.308344e-02
  1.742945e+00    9.875400e-01   1.316219e-02
  1.745155e+00    9.909455e-01   1.317139e-02
  1.747366e+00    9.944713e-01   1.318098e-02
  1.749576e+00    9.963543e-01   1.317969e-02
  1.751787e+00    9.895756e-01   1.312140e-02
  1.753997e+00    9.932930e-01   1.313256e-02
  1.756208e+00    9.671089e-01   1.294516e-02
  1.758418e+00    9.466417e-01   1.279450e-02
  1.760628e+00    9.627816e-01   1.288980e-02
  1.762839e+00    9.520888e-01   1.280489e-02
  1.765049e+00    9.554136e-01   1.281417e-02
  1.767260e+00    9.298581e-01   1.262901e-02
  1.769470e+00    9.506976e-01   1.275678e-02
  1.771681e+00    9.532200e-01   1.276056e-02
  1.773891e+00    9.553791e-01   1.276191e-02
  1.776102e+00    9.543428e-01   1.274207e-02
  1.778312e+00    9.754409e-01   1.286919e-02
  1.780523e+00    1.030925e+00   1.321681e-02
  1.782733e+00    1.134546e+00   1.385118e-02
  1.784944e+00    1.102248e+00   1.363869e-02
  1.787154e+00    9.789113e-01   1.284016e-02
  1.789364e+00    9.219993e-01   1.244887e-02
  1.791575e+00    9.202088e-01   1.242428e-02
  1.793785e+00    9.272846e-01   1.245952e-02
  1.795996e+00    9.143848e-01   1.236009e-02
  1.798206e+00    9.061537e-01   1.229188e-02
  1.800417e+00    9.448663e-01   1.253884e-02
  1.802627e+00    9.446417e-01   1.252521e-02
  1.804838e+00    9.240508e-01   1.237578e-02
  1.807048e+00    9.176537e-01   1.231994e-02
  1.809259e+00    9.492769e-01   1.251652e-02
  1.811469e+00    9.574697e-01   1.255502e-02
  1.813679e+00    9.611284e-01   1.256353e-02
  1.815890e+00    9.324441e-01   1.235961e-02
  1.818100e+00    9.135036e-01   1.221820e-02
  1.820311e+00    8.934999e-01   1.206890e-02
  1.822521e+00    9.288076e-01   1.228985e-02
  1.824732e+00    9.925690e-01   1.268907e-02
  1.826942e+00    9.719737e-01   1.254385e-02
  1.829153e+00    9.218394e-01   1.220414e-02
  1.831363e+00    8.839487e-01   1.193863e-02
  1.833574e+00    9.355318e-01   1.226998e-02
  1.835784e+00    9.376116e-01   1.227185e-02
  1.837994e+00    9.000357e-01   1.201157e-02
  1.840205e+00    9.000121e-01   1.200006e-02
  1.842415e+00    8.819256e-01   1.186706e-02
  1.844626e+00    8.793631e-01   1.183818e-02
  1.846836e+00    8.692897e-01   1.175875e-02
  1.849047e+00    8.689120e-01   1.174455e-02
  1.851257e+00    8.638704e-01   1.170087e-02
  1.853468e+00    8.463990e-01   1.157323e-02
  1.855678e+00    8.540640e-01   1.161663e-02
  1.857889e+00    8.770287e-01   1.176320e-02
  1.860099e+00    8.858835e-01   1.181367e-02
  1.862309e+00    8.642017e-01   1.165966e-02
  1.864520e+00    8.696567e-01   1.168775e-02
  1.866730e+00    8.554323e-01   1.158240e-02
  1.868941e+00    8.513626e-01   1.154386e-02
  1.871151e+00    8.656706e-01   1.162898e-02
  1.873362e+00    8.645192e-01   1.160982e-02
  1.875572e+00    8.593065e-01   1.156374e-02
  1.877783e+00    8.820854e-01   1.170435e-02
  1.879993e+00    9.050077e-01   1.184393e-02
  1.882204e+00    8.878838e-01   1.172018e-02
  1.884414e+00    8.714002e-01   1.159963e-02
  1.886624e+00    8.271689e-01   1.129044e-02
  1.888835e+00    8.366752e-01   1.134417e-02
  1.891045e+00    8.387346e-01   1.134726e-02
  1.893256e+00    8.313645e-01   1.128625e-02
  1.895466e+00    8.535575e-01   1.142462e-02
  1.897677e+00    8.704599e-01   1.152602e-02
  1.899887e+00    8.664332e-01   1.148817e-02
  1.902098e+00    8.644793e-01   1.146415e-02
  1.904308e+00    8.491330e-01   1.135122e-02
  1.906519e+00    8.732344e-01   1.150007e-02
  1.908729e+00    8.759013e-01   1.150673e-02
  1.910940e+00    9.141048e-01   1.174325e-02
  1.913150e+00    9.144046e-01   1.173412e-02
  1.915360e+00    8.556830e-01   1.134023e-02
  1.917571e+00    8.526580e-01   1.130912e-02
  1.919781e+00    8.130563e-01   1.103274e-02
  1.921992e+00    8.003398e-01   1.093561e-02
  1.924202e+00    8.153914e-01   1.102722e-02
  1.926413e+00    8.245196e-01   1.107841e-02
  1.928623e+00    8.366159e-01   1.114871e-02
  1.930834e+00    8.058758e-01   1.093158e-02
  1.933044e+00    7.847455e-01   1.077683e-02
  1.935255e+00    7.804437e-01   1.073710e-02
  1.937465e+00    8.071181e-01   1.090865e-02
  1.939675e+00    8.011353e-01   1.085737e-02
  1.941886e+00    8.048128e-01   1.087195e-02
  1.944096e+00    8.017791e-01   1.084128e-02
  1.946307e+00    7.871903e-01   1.073196e-02
  1.948517e+00    7.731984e-01   1.062587e-02
  1.950728e+00    7.849218e-01   1.069597e-02
  1.952938e+00    7.979988e-01   1.077460e-02
  1.955149e+00    7.946055e-01   1.074146e-02
  1.957359e+00    7.703245e-01   1.056620e-02
  1.959570e+00    7.752023e-01   1.058884e-02
  1.961780e+00    7.925158e-01   1.069654e-02
  1.963990e+00    7.773306e-01   1.058354e-02
  1.966201e+00    7.700078e-01   1.052364e-02
  1.968411e+00    7.878089e-01   1.063444e-02
  1.970622e+00    7.826230e-01   1.058933e-02
  1.972832e+00    7.750124e-01   1.052783e-02
  1.975043e+00    7.814278e-01   1.056129e-02
  1.977253e+00    7.919998e-01   1.062250e-02
  1.979464e+00    7.858213e-01   1.057094e-02
  1.981674e+00    7.754297e-01   1.049060e-02
  1.983885e+00    7.823068e-01   1.052699e-02
  1.986095e+00    7.957983e-01   1.060757e-02
  1.988305e+00    7.910242e-01   1.056576e-02
  1.990516e+00    7.868744e-01   1.052801e-02
  1.992726e+00    7.908884e-01   1.054510e-02
  1.994937e+00    7.747616e-01   1.042691e-02
  1.997147e+00    7.966388e-01   1.056323e-02
  1.999358e+00    7.914293e-01   1.051869e-02
  2.001568e+00    7.707540e-01   1.036961e-02
  2.003779e+00    7.660071e-01   1.032573e-02
  2.005989e+00    7.804933e-01   1.041084e-02
  2.008200e+00    7.725613e-01   1.034625e-02
  2.010410e+00    7.695624e-01   1.031441e-02
  2.012621e+00    7.706990e-01   1.031030e-02
  2.014831e+00    7.676430e-01   1.027836e-02
  2.017041e+00    7.552845e-01   1.018499e-02
  2.019252e+00    7.531624e-01   1.016079e-02
  2.021462e+00    7.529187e-01   1.014972e-02
  2.023673e+00    7.528005e-01   1.013959e-02
  2.025883e+00    7.714258e-01   1.025468e-02
  2.028094e+00    7.766563e-01   1.027969e-02
  2.030304e+00    7.649112e-01   1.019208e-02
  2.032515e+00    7.870167e-01   1.032885e-02
  2.034725e+00    7.672297e-01   1.018871e-02
  2.036936e+00    7.491340e-01   1.005854e-02
  2.039146e+00    7.383927e-01   9.976732e-03
  2.041356e+00    7.579176e-01   1.009808e-02
  2.043567e+00    7.681534e-01   1.015670e-02
  2.045777e+00    7.422268e-01   9.974645e-03
  2.047988e+00    7.519863e-01   1.003066e-02
  2.050198e+00    7.379932e-01   9.928552e-03
  2.052409e+00    7.405228e-01   9.937953e-03
  2.054619e+00    7.459335e-01   9.966865e-03
  2.056830e+00    7.448571e-01   9.952490e-03
  2.059040e+00    7.653204e-01   1.008073e-02
  2.061251e+00    7.431571e-01   9.926458e-03
  2.063461e+00    7.631389e-01   1.005135e-02
  2.065671e+00    7.637311e-01   1.004646e-02
  2.067882e+00    7.452341e-01   9.915066e-03
  2.070092e+00    7.549492e-01   9.970242e-03
  2.072303e+00    7.539024e-01   9.954146e-03
  2.074513e+00    7.372854e-01   9.834564e-03
  2.076724e+00    7.319986e-01   9.789858e-03
  2.078934e+00    7.256997e-01   9.738748e-03
  2.081145e+00    7.467718e-01   9.870004e-03
  2.083355e+00    7.272310e-01   9.730967e-03
  2.085566e+00    7.422255e-01   9.821820e-03
  2.087776e+00    7.411391e-01   9.805144e-03
  2.089986e+00    7.332153e-01   9.743811e-03
  2.092197e+00    7.544603e-01   9.874926e-03
  2.094407e+00    7.502211e-01   9.837813e-03
  2.096618e+00    7.750751e-01   9.990308e-03
  2.098828e+00    7.999494e-01   1.013964e-02
  2.101039e+00    7.829105e-01   1.002179e-02
  2.103249e+00    7.564027e-01   9.841872e-03
  2.105460e+00    7.339531e-01   9.685665e-03
  2.107670e+00    7.241541e-01   9.612088e-03
  2.109881e+00    7.137218e-01   9.533526e-03
  2.112091e+00    7.107887e-01   9.505008e-03
  2.114301e+00    7.274582e-01   9.607020e-03
  2.116512e+00    7.304890e-01   9.618184e-03
  2.118722e+00    7.244577e-01   9.569541e-03
  2.120933e+00    7.348047e-01   9.628707e-03
  2.123143e+00    7.114711e-01   9.465730e-03
  2.125354e+00    6.916355e-01   9.324475e-03
  2.127564e+00    7.073827e-01   9.421333e-03
  2.129775e+00    7.144151e-01   9.459336e-03
  2.131985e+00    6.912456e-01   9.295790e-03
  2.134196e+00    6.928409e-01   9.298020e-03
  2.136406e+00    7.034054e-01   9.359971e-03
  2.138617e+00    6.914389e-01   9.271665e-03
  2.140827e+00    6.979122e-01   9.330883e-03
  2.143037e+00    7.163827e-01   9.499337e-03
  2.145248e+00    7.103668e-01   9.481443e-03
  2.147458e+00    7.082873e-01   9.482732e-03
  2.149669e+00    7.043250e-01   9.468033e-03
  2.151879e+00    7.081064e-01   9.502665e-03
  2.154090e+00    7.085891e-01   9.513291e-03
  2.156300e+00    6.826122e-01   9.343778e-03
  2.158511e+00    6.900297e-01   9.399679e-03
  2.160721e+00    6.977929e-01   9.457216e-03
  2.162932e+00    7.186162e-01   9.601081e-03
  2.165142e+00    7.121729e-01   9.561012e-03
  2.167352e+00    7.076740e-01   9.533696e-03
  2.169563e+00    6.947191e-01   9.447984e-03
  2.171773e+00    6.890112e-01   9.411524e-03
  2.173984e+00    6.987756e-01   9.479390e-03
  2.176194e+00    6.954796e-01   9.458234e-03
  2.178405e+00    6.812395e-01   9.361572e-03
  2.180615e+00    6.867139e-01   9.399800e-03
  2.182826e+00    6.926249e-01   9.440825e-03
  2.185036e+00    7.081864e-01   9.546377e-03
  2.187247e+00    6.765501e-01   9.330645e-03
  2.189457e+00    6.895729e-01   9.419623e-03
  2.191667e+00    6.726517e-01   9.303147e-03
  2.193878e+00    6.867782e-01   9.399763e-03
  2.196088e+00    6.946519e-01   9.452801e-03
  2.198299e+00    6.890640e-01   9.413621e-03
  2.200509e+00    6.801265e-01   9.351324e-03
  2.202720e+00    6.672677e-01   9.261340e-03
  2.204930e+00    6.688128e-01   9.270856e-03
  2.207141e+00    6.678290e-01   9.262890e-03
  2.209351e+00    6.916776e-01   9.424960e-03
  2.211562e+00    6.959488e-01   9.452359e-03
  2.213772e+00    6.889995e-01   9.349104e-03
  2.215982e+00    6.543657e-01   9.067575e-03
  2.218193e+00    6.828859e-01   9.233275e-03
  2.220403e+00    6.861612e-01   9.230615e-03
  2.222614e+00    6.841046e-01   9.195657e-03
  2.224824e+00    6.760762e-01   9.122116e-03
  2.227035e+00    6.798542e-01   9.130039e-03
  2.229245e+00    6.739678e-01   9.073431e-03
  2.231456e+00    6.720735e-01   9.045040e-03
  2.233666e+00    6.779286e-01   9.069188e-03
  2.235877e+00    6.743239e-01   9.030742e-03
  2.238087e+00    6.691935e-01   8.982839e-03
  2.240298e+00    6.818205e-01   9.053295e-03
  2.242508e+00    6.830705e-01   9.046298e-03
  2.244718e+00    6.827085e-01   9.027943e-03
  2.246929e+00    6.770167e-01   8.975705e-03
  2.249139e+00    6.979403e-01   9.100692e-03
  2.251350e+00    6.929655e-01   9.056261e-03
  2.253560e+00    6.966044e-01   9.068194e-03
  2.255771e+00    7.034717e-01   9.101036e-03
  2.257981e+00    7.476792e-01   9.370792e-03
  2.260192e+00    7.417511e-01   9.321862e-03
  2.262402e+00    7.226872e-01   9.189953e-03
  2.264613e+00    7.084458e-01   9.087771e-03
  2.266823e+00    7.049029e-01   9.054296e-03
  2.269033e+00    6.849788e-01   8.914858e-03
  2.271244e+00    7.043360e-01   9.029225e-03
  2.273454e+00    7.515363e-01   9.315890e-03
  2.275665e+00    8.297584e-01   9.777205e-03
  2.277875e+00    8.126317e-01   9.664816e-03
  2.280086e+00    7.207675e-01   9.091674e-03
  2.282296e+00    6.644411e-01   8.719732e-03
  2.284507e+00    6.518829e-01   8.626839e-03
  2.286717e+00    6.775609e-01   8.785496e-03
  2.288928e+00    6.668444e-01   8.705824e-03
  2.291138e+00    6.586064e-01   8.642427e-03
  2.293348e+00    6.527072e-01   8.594122e-03
  2.295559e+00    6.722337e-01   8.712284e-03
  2.297769e+00    6.654130e-01   8.658673e-03
  2.299980e+00    6.557935e-01   8.586488e-03
  2.302190e+00    6.517760e-01   8.551048e-03
  2.304401e+00    6.613325e-01   8.604088e-03
  2.306611e+00    6.565309e-01   8.563612e-03
  2.308822e+00    6.384502e-01   8.436533e-03
  2.311032e+00    6.533803e-01   8.528152e-03
  2.313243e+00    6.475384e-01   8.483675e-03
  2.315453e+00    6.588997e-01   8.550153e-03
  2.317663e+00    6.471215e-01   8.464265e-03
  2.319874e+00    6.443856e-01   8.437642e-03
  2.322084e+00    6.400228e-01   8.400103e-03
  2.324295e+00    6.333857e-01   8.348282e-03
  2.326505e+00    6.380700e-01   8.370092e-03
  2.328716e+00    6.402357e-01   8.375752e-03
  2.330926e+00    6.423933e-01   8.381061e-03
  2.333137e+00    6.382598e-01   8.345707e-03
  2.335347e+00    6.386433e-01   8.339369e-03
  2.337558e+00    6.335629e-01   8.297933e-03
  2.339768e+00    6.301233e-01   8.266880e-03
  2.341979e+00    6.320521e-01   8.271198e-03
  2.344189e+00    6.373661e-01   8.297500e-03
  2.346399e+00    6.336696e-01   8.264932e-03
  2.348610e+00    6.291604e-01   8.227049e-03
  2.350820e+00    6.330936e-01   8.244568e-03
  2.353031e+00    6.335049e-01   8.238952e-03
  2.355241e+00    6.311620e-01   8.215669e-03
  2.357452e+00    6.202121e-01   8.135759e-03
  2.359662e+00    6.266711e-01   8.169801e-03
  2.361873e+00    6.448936e-01   8.279426e-03
  2.364083e+00    6.382626e-01   8.228694e-03
  2.366294e+00    6.295997e-01   8.164546e-03
  2.368504e+00    6.306818e-01   8.163460e-03
  2.370714e+00    6.128686e-01   8.039380e-03
  2.372925e+00    6.100329e-01   8.012785e-03
  2.375135e+00    6.248921e-01   8.101732e-03
  2.377346e+00    6.174788e-01   8.045638e-03
  2.379556e+00    6.238611e-01   8.079190e-03
  2.381767e+00    6.163076e-01   8.022320e-03
  2.383977e+00    6.148799e-01   8.005124e-03
  2.386188e+00    5.956305e-01   7.871049e-03
  2.388398e+00    6.189392e-01   8.015619e-03
  2.390609e+00    6.196484e-01   8.012480e-03
  2.392819e+00    6.135569e-01   7.965233e-03
  2.395029e+00    6.170708e-01   7.980349e-03
  2.397240e+00    6.060613e-01   7.901015e-03
  2.399450e+00    6.137909e-01   7.943433e-03
  2.401661e+00    6.218625e-01   7.987747e-03
  2.403871e+00    6.124985e-01   7.919634e-03
  2.406082e+00    6.066061e-01   7.874015e-03
  2.408292e+00    5.961061e-01   7.797862e-03
  2.410503e+00    6.135556e-01   7.903646e-03
  2.412713e+00    6.255677e-01   7.972735e-03
  2.414924e+00    5.989289e-01   7.793704e-03
  2.417134e+00    6.000274e-01   7.793230e-03
  2.419344e+00    6.009669e-01   7.791935e-03
  2.421555e+00    6.148155e-01   7.873598e-03
  2.423765e+00    6.118665e-01   7.847246e-03
  2.425976e+00    6.126294e-01   7.844227e-03
  2.428186e+00    6.148342e-01   7.851025e-03
  2.430397e+00    5.994579e-01   7.744743e-03
  2.432607e+00    5.915855e-01   7.686452e-03
  2.434818e+00    5.866950e-01   7.647143e-03
  2.437028e+00    5.873201e-01   7.644094e-03
  2.439239e+00    5.956678e-01   7.690567e-03
  2.441449e+00    5.812313e-01   7.589669e-03
  2.443659e+00    5.938452e-01   7.664213e-03
  2.445870e+00    5.899177e-01   7.651080e-03
  2.448080e+00    5.681305e-01   7.542840e-03
  2.450291e+00    5.677820e-01   7.556973e-03
  2.452501e+00    5.685279e-01   7.573023e-03
  2.454712e+00    5.713383e-01   7.600138e-03
  2.456922e+00    5.563203e-01   7.506141e-03
  2.459133e+00    5.565690e-01   7.513169e-03
  2.461343e+00    5.584251e-01   7.530008e-03
  2.463554e+00    5.756786e-01   7.648964e-03
  2.465764e+00    5.571254e-01   7.527819e-03
  2.467975e+00    5.666744e-01   7.594347e-03
  2.470185e+00    5.490555e-01   7.477611e-03
  2.472395e+00    5.455528e-01   7.454903e-03
  2.474606e+00    5.579658e-01   7.540824e-03
  2.476816e+00    5.426861e-01   7.437577e-03
  2.479027e+00    5.561460e-01   7.530097e-03
  2.481237e+00    5.508046e-01   7.494144e-03
  2.483448e+00    5.415208e-01   7.431000e-03
  2.485658e+00    5.500858e-01   7.489405e-03
  2.487869e+00    5.532829e-01   7.511165e-03
  2.490079e+00    5.545938e-01   7.519535e-03
  2.492290e+00    5.490187e-01   7.481226e-03
  2.494500e+00    5.523929e-01   7.503417e-03
  2.496710e+00    5.579177e-01   7.540135e-03
  2.498921e+00    5.502910e-01   7.487442e-03
  2.501131e+00    5.333431e-01   7.370272e-03
  2.503342e+00    5.415056e-01   7.425187e-03
  2.505552e+00    5.332304e-01   7.367095e-03
  2.507763e+00    5.219992e-01   7.287707e-03
  2.509973e+00    5.302931e-01   7.343963e-03
  2.512184e+00    5.206433e-01   7.275235e-03
  2.514394e+00    5.252132e-01   7.297750e-03
  2.516605e+00    5.163316e-01   7.189182e-03
  2.518815e+00    5.325938e-01   7.272997e-03
  2.521025e+00    5.401043e-01   7.302869e-03
  2.523236e+00    5.230316e-01   7.168579e-03
  2.525446e+00    5.192860e-01   7.127342e-03
  2.527657e+00    5.139822e-01   7.076417e-03
  2.529867e+00    5.190773e-01   7.097288e-03
  2.532078e+00    5.328059e-01   7.175385e-03
  2.534288e+00    5.403741e-01   7.212082e-03
  2.536499e+00    5.267525e-01   7.108646e-03
  2.538709e+00    5.327114e-01   7.137645e-03
  2.540920e+00    5.298318e-01   7.107633e-03
  2.543130e+00    5.377156e-01   7.149813e-03
  2.545340e+00    5.405796e-01   7.158615e-03
  2.547551e+00    5.142550e-01   6.972276e-03
  2.549761e+00    5.317339e-01   7.080098e-03
  2.551972e+00    5.263339e-01   7.034670e-03
  2.554182e+00    5.397133e-01   7.114176e-03
  2.556393e+00    5.315081e-01   7.050720e-03
  2.558603e+00    5.185010e-01   6.954845e-03
  2.560814e+00    5.281060e-01   7.010192e-03
  2.563024e+00    5.300605e-01   7.014492e-03
  2.565235e+00    5.275713e-01   6.988410e-03
  2.567445e+00    5.187504e-01   6.920207e-03
  2.569656e+00    5.088931e-01   6.844460e-03
  2.571866e+00    5.268568e-01   6.954786e-03
  2.574076e+00    5.205719e-01   6.903885e-03
  2.576287e+00    5.148486e-01   6.857501e-03
  2.578497e+00    5.170112e-01   6.864056e-03
  2.580708e+00    5.135206e-01   6.832756e-03
  2.582918e+00    5.074881e-01   6.784809e-03
  2.585129e+00    5.131367e-01   6.814717e-03
  2.587339e+00    5.222412e-01   6.867158e-03
  2.589550e+00    5.153061e-01   6.813861e-03
  2.591760e+00    5.081163e-01   6.758447e-03
  2.593971e+00    5.111018e-01   6.770740e-03
  2.596181e+00    5.152866e-01   6.792164e-03
  2.598391e+00    5.084903e-01   6.742042e-03
  2.600602e+00    5.027316e-01   6.697893e-03
  2.602812e+00    5.081840e-01   6.726577e-03
  2.605023e+00    5.107224e-01   6.736179e-03
  2.607233e+00    5.064719e-01   6.700955e-03
  2.609444e+00    5.134366e-01   6.739606e-03
  2.611654e+00    5.164464e-01   6.751932e-03
  2.613865e+00    5.168908e-01   6.747729e-03
  2.616075e+00    5.188256e-01   6.753120e-03
  2.618286e+00    5.103652e-01   6.690813e-03
  2.620496e+00    5.025146e-01   6.632471e-03
  2.622706e+00    4.951365e-01   6.577906e-03
  2.624917e+00    5.122941e-01   6.685002e-03
  2.627127e+00    5.240415e-01   6.755367e-03
  2.629338e+00    5.176073e-01   6.707728e-03
  2.631548e+00    5.155777e-01   6.688308e-03
  2.633759e+00    5.103065e-01   6.646817e-03
  2.635969e+00    5.084241e-01   6.627829e-03
  2.638180e+00    5.181766e-01   6.683983e-03
  2.640390e+00    5.061400e-01   6.599281e-03
  2.642601e+00    4.993409e-01   6.548128e-03
  2.644811e+00    4.849614e-01   6.446213e-03
  2.647021e+00    4.856531e-01   6.444323e-03
  2.649232e+00    4.876728e-01   6.451065e-03
  2.651442e+00    5.067964e-01   6.569797e-03
  2.653653e+00    4.876261e-01   6.437627e-03
  2.655863e+00    4.968703e-01   6.491667e-03
  2.658074e+00    5.023821e-01   6.520962e-03
  2.660284e+00    4.990785e-01   6.493099e-03
  2.662495e+00    4.979944e-01   6.479297e-03
  2.664705e+00    4.986684e-01   6.477096e-03
  2.666916e+00    5.068516e-01   6.523494e-03
  2.669126e+00    4.944487e-01   6.436739e-03
  2.671337e+00    4.899511e-01   6.400857e-03
  2.673547e+00    4.939581e-01   6.420598e-03
  2.675757e+00    4.939249e-01   6.413935e-03
  2.677968e+00    4.982202e-01   6.435216e-03
  2.680178e+00    4.998065e-01   6.439018e-03
  2.682389e+00    4.851471e-01   6.337545e-03
  2.684599e+00    4.951122e-01   6.396088e-03
  2.686810e+00    4.976549e-01   6.405855e-03
  2.689020e+00    4.932537e-01   6.371178e-03
  2.691231e+00    4.877645e-01   6.329348e-03
  2.693441e+00    4.810472e-01   6.279526e-03
  2.695652e+00    4.803097e-01   6.268272e-03
  2.697862e+00    4.807745e-01   6.265012e-03
  2.700072e+00    4.764455e-01   6.230744e-03
  2.702283e+00    4.769787e-01   6.228093e-03
  2.704493e+00    4.799785e-01   6.241417e-03
  2.706704e+00    4.933715e-01   6.321450e-03
  2.708914e+00    5.024162e-01   6.373083e-03
  2.711125e+00    4.904304e-01   6.290356e-03
  2.713335e+00    4.905973e-01   6.285306e-03
  2.715546e+00    4.815688e-01   6.220786e-03
  2.717756e+00    4.884258e-01   6.258999e-03
  2.719967e+00    4.902317e-01   6.264341e-03
  2.722177e+00    4.839828e-01   6.218164e-03
  2.724387e+00    4.898829e-01   6.249817e-03
  2.726598e+00    4.975443e-01   6.292369e-03
  2.728808e+00    4.893181e-01   6.233954e-03
  2.731019e+00    4.818430e-01   6.180062e-03
  2.733229e+00    4.745695e-01   6.127479e-03
  2.735440e+00    4.752485e-01   6.125655e-03
  2.737650e+00    4.810793e-01   6.157120e-03
  2.739861e+00    4.801525e-01   6.145124e-03
  2.742071e+00    4.816878e-01   6.149220e-03
  2.744282e+00    4.789569e-01   6.125534e-03
  2.746492e+00    4.934270e-01   6.211270e-03
  2.748702e+00    4.849175e-01   6.151570e-03
  2.750913e+00    4.799611e-01   6.114259e-03
  2.753123e+00    4.745087e-01   6.073359e-03
  2.755334e+00    4.765585e-01   6.080412e-03
  2.757544e+00    4.792526e-01   6.091846e-03
  2.759755e+00    4.821904e-01   6.104588e-03
  2.761965e+00    4.881205e-01   6.135993e-03
  2.764176e+00    4.883423e-01   6.131338e-03
  2.766386e+00    4.853812e-01   6.106904e-03
  2.768597e+00    4.923941e-01   6.144916e-03
  2.770807e+00    4.855303e-01   6.096027e-03
  2.773017e+00    4.787730e-01   6.047489e-03
  2.775228e+00    4.792148e-01   6.044489e-03
  2.777438e+00    4.897884e-01   6.104929e-03
  2.779649e+00    4.961429e-01   6.138403e-03
  2.781859e+00    4.931594e-01   6.114073e-03
  2.784070e+00    4.803896e-01   6.028513e-03
  2.786280e+00    4.756638e-01   5.993028e-03
  2.788491e+00    4.743233e-01   5.978763e-03
  2.790701e+00    4.734000e-01   5.967296e-03
  2.792912e+00    4.894971e-01   6.061851e-03
  2.795122e+00    4.807238e-01   6.001554e-03
  2.797333e+00    4.666473e-01   5.907497e-03
  2.799543e+00    4.806072e-01   5.989318e-03
  2.801753e+00    4.867307e-01   6.021441e-03
  2.803964e+00    4.836117e-01   5.996389e-03
  2.806174e+00    4.869199e-01   6.010652e-03
  2.808385e+00    4.835927e-01   5.983225e-03
  2.810595e+00    4.700465e-01   5.891993e-03
  2.812806e+00    4.864371e-01   5.987140e-03
  2.815016e+00    4.897572e-01   6.002726e-03
  2.817227e+00    4.888835e-01   6.023697e-03
  2.819437e+00    4.877574e-01   6.028010e-03
  2.821648e+00    4.666358e-01   5.898315e-03
  2.823858e+00    4.812728e-01   5.995469e-03
  2.826068e+00    4.756268e-01   5.965229e-03
  2.828279e+00    4.808558e-01   6.001974e-03
  2.830489e+00    4.626576e-01   5.890627e-03
  2.832700e+00    4.754570e-01   5.974097e-03
  2.834910e+00    4.803624e-01   6.006942e-03
  2.837121e+00    4.625521e-01   5.896214e-03
  2.839331e+00    4.716916e-01   5.955413e-03
  2.841542e+00    4.622949e-01   5.896802e-03
  2.843752e+00    4.820765e-01   6.022440e-03
  2.845963e+00    4.656491e-01   5.919326e-03
  2.848173e+00    4.661633e-01   5.922696e-03
  2.850383e+00    4.575980e-01   5.868308e-03
  2.852594e+00    4.675530e-01   5.931723e-03
  2.854804e+00    4.599603e-01   5.882849e-03
  2.857015e+00    4.735163e-01   5.968490e-03
  2.859225e+00    4.646204e-01   5.911907e-03
  2.861436e+00    4.739290e-01   5.970174e-03
  2.863646e+00    4.669895e-01   5.926338e-03
  2.865857e+00    4.700679e-01   5.946183e-03
  2.868067e+00    4.715328e-01   5.955671e-03
  2.870278e+00    4.696715e-01   5.943542e-03
  2.872488e+00    4.627637e-01   5.898522e-03
  2.874698e+00    4.568152e-01   5.859449e-03
  2.876909e+00    4.596583e-01   5.876323e-03
  2.879119e+00    4.605627e-01   5.880492e-03
  2.881330e+00    4.571823e-01   5.857404e-03
  2.883540e+00    4.497735e-01   5.808390e-03
  2.885751e+00    4.651171e-01   5.904959e-03
  2.887961e+00    4.600417e-01   5.870807e-03
  2.890172e+00    4.553785e-01   5.839355e-03
  2.892382e+00    4.631777e-01   5.887356e-03
  2.894593e+00    4.472685e-01   5.783568e-03
  2.896803e+00    4.543341e-01   5.827104e-03
  2.899014e+00    4.412578e-01   5.740768e-03
  2.901224e+00    4.575053e-01   5.843495e-03
  2.903434e+00    4.701231e-01   5.921592e-03
  2.905645e+00    4.636652e-01   5.878523e-03
  2.907855e+00    4.615990e-01   5.863326e-03
  2.910066e+00    4.450003e-01   5.754896e-03
  2.912276e+00    4.570936e-01   5.830421e-03
  2.914487e+00    4.647176e-01   5.876407e-03
  2.916697e+00    4.630137e-01   5.863366e-03
  2.918908e+00    4.534862e-01   5.800765e-03
  2.921118e+00    4.493288e-01   5.771408e-03
  2.923329e+00    4.528724e-01   5.791841e-03
  2.925539e+00    4.628521e-01   5.853004e-03
  2.927749e+00    4.715641e-01   5.905474e-03
  2.929960e+00    4.622190e-01   5.843899e-03
  2.932170e+00    4.569980e-01   5.808463e-03
  2.934381e+00    4.583194e-01   5.814395e-03
  2.936591e+00    4.535333e-01   5.781403e-03
  2.938802e+00    4.598153e-01   5.818571e-03
  2.941012e+00    4.591096e-01   5.811776e-03
  2.943223e+00    4.549316e-01   5.782557e-03
  2.945433e+00    4.600469e-01   5.811255e-03
  2.947644e+00    4.473063e-01   5.726096e-03
  2.949854e+00    4.573754e-01   5.785917e-03
  2.952064e+00    4.514894e-01   5.744359e-03
  2.954275e+00    4.528373e-01   5.748527e-03
  2.956485e+00    4.605306e-01   5.792934e-03
  2.958696e+00    4.548011e-01   5.752429e-03
  2.960906e+00    4.559212e-01   5.755305e-03
  2.963117e+00    4.585668e-01   5.767483e-03
  2.965327e+00    4.444842e-01   5.674374e-03
  2.967538e+00    4.575844e-01   5.754460e-03
  2.969748e+00    4.610075e-01   5.773106e-03
  2.971959e+00    4.660288e-01   5.801291e-03
  2.974169e+00    4.540502e-01   5.723675e-03
  2.976379e+00    4.530298e-01   5.714301e-03
  2.978590e+00    4.657378e-01   5.790744e-03
  2.980800e+00    4.571420e-01   5.734230e-03
  2.983011e+00    4.461431e-01   5.662078e-03
  2.985221e+00    4.400900e-01   5.620404e-03
  2.987432e+00    4.524640e-01   5.695779e-03
  2.989642e+00    4.510949e-01   5.684535e-03
  2.991853e+00    4.419000e-01   5.623074e-03
  2.994063e+00    4.467004e-01   5.650629e-03
  2.996274e+00    4.503411e-01   5.670454e-03
  2.998484e+00    4.518316e-01   5.677139e-03
  3.000694e+00    4.546278e-01   5.691207e-03
  3.002905e+00    4.531438e-01   5.678982e-03
  3.005115e+00    4.541390e-01   5.682242e-03
  3.007326e+00    4.551936e-01   5.685650e-03
  3.009536e+00    4.544429e-01   5.677723e-03
  3.011747e+00    4.606770e-01   5.713599e-03
  3.013957e+00    4.417630e-01   5.591934e-03
  3.016168e+00    4.409844e-01   5.583774e-03
  3.018378e+00    4.595477e-01   5.697040e-03
  3.020589e+00    4.517811e-01   5.645467e-03
  3.022799e+00    4.542405e-01   5.657657e-03
  3.025010e+00    4.605580e-01   5.693594e-03
  3.027220e+00    4.565357e-01   5.665562e-03
  3.029430e+00    4.485976e-01   5.612838e-03
  3.031641e+00    4.641153e-01   5.705927e-03
  3.033851e+00    4.577394e-01   5.663053e-03
  3.036062e+00    4.486808e-01   5.603974e-03
  3.038272e+00    4.573923e-01   5.654502e-03
  3.040483e+00    4.596046e-01   5.664924e-03
  3.042693e+00    4.613316e-01   5.672239e-03
  3.044904e+00    4.731162e-01   5.740131e-03
  3.047114e+00    4.608549e-01   5.660388e-03
  3.049325e+00    4.586052e-01   5.642129e-03
  3.051535e+00    4.665632e-01   5.686398e-03
  3.053745e+00    4.579702e-01   5.629014e-03
  3.055956e+00    4.538139e-01   5.598811e-03
  3.058166e+00    4.654915e-01   5.666044e-03
  3.060377e+00    4.698862e-01   5.687885e-03
  3.062587e+00    4.569761e-01   5.604522e-03
  3.064798e+00    4.566466e-01   5.598218e-03
  3.067008e+00    4.468046e-01   5.532842e-03
  3.069219e+00    4.573046e-01   5.592929e-03
  3.071429e+00    4.607272e-01   5.610267e-03
  3.073640e+00    4.632588e-01   5.622265e-03
  3.075850e+00    4.704548e-01   5.662111e-03
  3.078060e+00    4.731135e-01   5.674895e-03
  3.080271e+00    4.622306e-01   5.605725e-03
  3.082481e+00    4.555730e-01   5.561736e-03
  3.084692e+00    4.516842e-01   5.534559e-03
  3.086902e+00    4.537062e-01   5.543650e-03
  3.089113e+00    4.531165e-01   5.536478e-03
  3.091323e+00    4.497724e-01   5.512623e-03
  3.093534e+00    4.488894e-01   5.503819e-03
  3.095744e+00    4.519190e-01   5.518998e-03
  3.097955e+00    4.381598e-01   5.430796e-03
  3.100165e+00    4.409344e-01   5.444663e-03
  3.102375e+00    4.509696e-01   5.502815e-03
  3.104586e+00    4.715523e-01   5.623432e-03
  3.106796e+00    4.459614e-01   5.465199e-03
  3.109007e+00    4.533595e-01   5.507089e-03
  3.111217e+00    4.415020e-01   5.430921e-03
  3.113428e+00    4.496478e-01   5.477360e-03
  3.115638e+00    4.343282e-01   5.380064e-03
  3.117849e+00    4.372574e-01   5.394466e-03
  3.120059e+00    4.521007e-01   5.481782e-03
  3.122270e+00    4.317035e-01   5.353495e-03
  3.124480e+00    4.481596e-01   5.450862e-03
  3.126691e+00    4.476916e-01   5.444445e-03
  3.128901e+00    4.426945e-01   5.410864e-03
  3.131111e+00    4.482387e-01   5.440775e-03
  3.133322e+00    4.568342e-01   5.489206e-03
  3.135532e+00    4.463774e-01   5.422608e-03
  3.137743e+00    4.554606e-01   5.473981e-03
  3.139953e+00    4.394789e-01   5.373406e-03
  3.142164e+00    4.468187e-01   5.430177e-03
  3.144374e+00    4.393876e-01   5.413139e-03
  3.146585e+00    4.366136e-01   5.410478e-03
  3.148795e+00    4.547957e-01   5.532913e-03
  3.151006e+00    4.471465e-01   5.494799e-03
  3.153216e+00    4.430537e-01   5.476730e-03
  3.155426e+00    4.468751e-01   5.506651e-03
  3.157637e+00    4.446169e-01   5.498258e-03
  3.159847e+00    4.591809e-01   5.592573e-03
  3.162058e+00    4.441436e-01   5.504703e-03
  3.164268e+00    4.281292e-01   5.408543e-03
  3.166479e+00    4.349162e-01   5.454866e-03
  3.168689e+00    4.475248e-01   5.536777e-03
  3.170900e+00    4.489624e-01   5.548873e-03
  3.173110e+00    4.331342e-01   5.453045e-03
  3.175321e+00    4.344324e-01   5.463683e-03
  3.177531e+00    4.348570e-01   5.469088e-03
  3.179741e+00    4.321377e-01   5.454007e-03
  3.181952e+00    4.511469e-01   5.574815e-03
  3.184162e+00    4.379576e-01   5.494937e-03
  3.186373e+00    4.339427e-01   5.471275e-03
  3.188583e+00    4.341170e-01   5.474146e-03
  3.190794e+00    4.300981e-01   5.450503e-03
  3.193004e+00    4.214420e-01   5.396588e-03
  3.195215e+00    4.370649e-01   5.497200e-03
  3.197425e+00    4.438400e-01   5.540887e-03
  3.199636e+00    4.361309e-01   5.491764e-03
  3.201846e+00    4.423298e-01   5.530059e-03
  3.204056e+00    4.445698e-01   5.544941e-03
  3.206267e+00    4.347967e-01   5.484499e-03
  3.208477e+00    4.241226e-01   5.417698e-03
  3.210688e+00    4.233316e-01   5.413441e-03
  3.212898e+00    4.301462e-01   5.457428e-03
  3.215109e+00    4.323399e-01   5.472078e-03
  3.217319e+00    4.475506e-01   5.568148e-03
  3.219530e+00    4.420235e-01   5.534075e-03
  3.221740e+00    4.309458e-01   5.464830e-03
  3.223951e+00    4.345404e-01   5.488067e-03
  3.226161e+00    4.274727e-01   5.443419e-03
  3.228372e+00    4.369255e-01   5.503817e-03
  3.230582e+00    4.294273e-01   5.456538e-03
  3.232792e+00    4.217128e-01   5.407520e-03
  3.235003e+00    4.204798e-01   5.399845e-03
  3.237213e+00    4.150316e-01   5.364849e-03
  3.239424e+00    4.398655e-01   5.523018e-03
  3.241634e+00    4.247971e-01   5.427738e-03
  3.243845e+00    4.206261e-01   5.401075e-03
  3.246055e+00    4.121962e-01   5.346423e-03
  3.248266e+00    4.211565e-01   5.404407e-03
  3.250476e+00    4.329856e-01   5.479480e-03
  3.252687e+00    4.209323e-01   5.402613e-03
  3.254897e+00    4.195530e-01   5.393595e-03
  3.257107e+00    4.305201e-01   5.463357e-03
  3.259318e+00    4.202240e-01   5.397389e-03
  3.261528e+00    4.242015e-01   5.422735e-03
  3.263739e+00    4.228816e-01   5.413726e-03
  3.265949e+00    4.344271e-01   5.487015e-03
  3.268160e+00    4.231034e-01   5.414616e-03
  3.270370e+00    4.217150e-01   5.405217e-03
  3.272581e+00    4.373403e-01   5.504146e-03
  3.274791e+00    4.438254e-01   5.544282e-03
  3.277002e+00    4.290443e-01   5.450628e-03
  3.279212e+00    4.143971e-01   5.356382e-03
  3.281422e+00    4.226151e-01   5.408655e-03
  3.283633e+00    4.396771e-01   5.516063e-03
  3.285843e+00    4.322392e-01   5.468891e-03
  3.288054e+00    4.130985e-01   5.345491e-03
  3.290264e+00    4.282094e-01   5.442059e-03
  3.292475e+00    4.475455e-01   5.562705e-03
  3.294685e+00    4.393139e-01   5.510689e-03
  3.296896e+00    4.358650e-01   5.488235e-03
  3.299106e+00    4.244415e-01   5.415292e-03
  3.301317e+00    4.267261e-01   5.428808e-03
  3.303527e+00    4.321991e-01   5.463039e-03
  3.305737e+00    4.414680e-01   5.520232e-03
  3.307948e+00    4.381275e-01   5.498644e-03
  3.310158e+00    4.286831e-01   5.438196e-03
  3.312369e+00    4.310058e-01   5.452013e-03
  3.314579e+00    4.254439e-01   5.415806e-03
  3.316790e+00    4.209809e-01   5.386620e-03
  3.319000e+00    4.163479e-01   5.355721e-03
  3.321211e+00    4.209994e-01   5.384959e-03
  3.323421e+00    4.163415e-01   5.353876e-03
  3.325632e+00    4.064254e-01   5.288890e-03
  3.327842e+00    4.089945e-01   5.304645e-03
  3.330052e+00    4.194402e-01   5.370893e-03
  3.332263e+00    4.334416e-01   5.458780e-03
  3.334473e+00    4.246554e-01   5.402268e-03
  3.336684e+00    4.303466e-01   5.437053e-03
  3.338894e+00    4.300831e-01   5.434553e-03
  3.341105e+00    4.219081e-01   5.381441e-03
  3.343315e+00    4.270499e-01   5.412980e-03
  3.345526e+00    4.315139e-01   5.440281e-03
  3.347736e+00    4.224224e-01   5.381264e-03
  3.349947e+00    4.125322e-01   5.316965e-03
  3.352157e+00    4.171802e-01   5.345671e-03
  3.354368e+00    4.281721e-01   5.414318e-03
  3.356578e+00    4.196602e-01   5.359230e-03
  3.358788e+00    4.230097e-01   5.379211e-03
  3.360999e+00    4.119752e-01   5.307380e-03
  3.363209e+00    4.106936e-01   5.298087e-03
  3.365420e+00    4.365281e-01   5.460625e-03
  3.367630e+00    4.322524e-01   5.432812e-03
  3.369841e+00    4.247704e-01   5.384138e-03
  3.372051e+00    4.161059e-01   5.326969e-03
  3.374262e+00    4.101582e-01   5.286341e-03
  3.376472e+00    4.253854e-01   5.381092e-03
  3.378683e+00    4.222618e-01   5.358785e-03
  3.380893e+00    4.153226e-01   5.312238e-03
  3.383103e+00    4.129916e-01   5.294611e-03
  3.385314e+00    4.048748e-01   5.240114e-03
  3.387524e+00    4.067972e-01   5.249845e-03
  3.389735e+00    4.197470e-01   5.330086e-03
  3.391945e+00    4.098568e-01   5.263285e-03
  3.394156e+00    4.094667e-01   5.256544e-03
  3.396366e+00    4.159328e-01   5.294468e-03
  3.398577e+00    4.151764e-01   5.286612e-03
  3.400787e+00    4.115437e-01   5.275357e-03
  3.402998e+00    4.005523e-01   5.242034e-03
  3.405208e+00    4.116862e-01   5.335218e-03
  3.407418e+00    4.017804e-01   5.286444e-03
  3.409629e+00    3.950737e-01   5.255989e-03
  3.411839e+00    3.910905e-01   5.241076e-03
  3.414050e+00    3.990715e-01   5.305309e-03
  3.416260e+00    3.923543e-01   5.270094e-03
  3.418471e+00    3.846894e-01   5.227656e-03
  3.420681e+00    3.868529e-01   5.250779e-03
  3.422892e+00    3.949399e-01   5.313410e-03
  3.425102e+00    3.806958e-01   5.224459e-03
  3.427313e+00    3.792405e-01   5.221553e-03
  3.429523e+00    3.796094e-01   5.231079e-03
  3.431733e+00    3.876965e-01   5.293195e-03
  3.433944e+00    3.847728e-01   5.279661e-03
  3.436154e+00    3.906070e-01   5.325858e-03
  3.438365e+00    3.853529e-01   5.295893e-03
  3.440575e+00    3.915045e-01   5.343989e-03
  3.442786e+00    3.768053e-01   5.248322e-03
  3.444996e+00    3.710672e-01   5.213632e-03
  3.447207e+00    3.702807e-01   5.213389e-03
  3.449417e+00    3.709378e-01   5.258766e-03
  3.451628e+00    3.672284e-01   5.261819e-03
  3.453838e+00    3.616121e-01   5.242378e-03
  3.456049e+00    3.536656e-01   5.207957e-03
  3.458259e+00    3.641635e-01   5.306514e-03
  3.460469e+00    3.673544e-01   5.349538e-03
  3.462680e+00    3.659217e-01   5.358156e-03
  3.464890e+00    3.675596e-01   5.387938e-03
  3.467101e+00    3.801705e-01   5.497370e-03
  3.469311e+00    3.720082e-01   5.454626e-03
  3.471522e+00    3.902692e-01   5.603630e-03
  3.473732e+00    3.878551e-01   5.602388e-03
  3.475943e+00    3.970233e-01   5.684230e-03
  3.478153e+00    4.035729e-01   5.746653e-03
  3.480364e+00    4.245088e-01   5.909575e-03
  3.482574e+00    4.272105e-01   5.944144e-03
  3.484784e+00    4.262633e-01   5.952703e-03
  3.486995e+00    4.245906e-01   5.956252e-03
  3.489205e+00    4.316527e-01   6.020395e-03
  3.491416e+00    4.414032e-01   6.103190e-03
  3.493626e+00    4.336178e-01   6.063681e-03
  3.495837e+00    4.533565e-01   6.215126e-03
  3.498047e+00    4.431800e-01   6.159466e-03
  3.500258e+00    4.514511e-01   6.231224e-03
  3.502468e+00    4.545940e-01   6.267313e-03
  3.504679e+00    4.404248e-01   6.183040e-03
  3.506889e+00    4.602848e-01   6.335236e-03
  3.509099e+00    4.868472e-01   6.530073e-03
  3.511310e+00    4.787123e-01   6.489813e-03
  3.513520e+00    4.774380e-01   6.495488e-03
  3.515731e+00    5.024545e-01   6.678129e-03
  3.517941e+00    4.871896e-01   6.590210e-03
  3.520152e+00    5.124302e-01   6.773343e-03
  3.522362e+00    5.125952e-01   6.789111e-03
  3.524573e+00    5.006673e-01   6.723839e-03
  3.526783e+00    4.999168e-01   6.732009e-03
  3.528994e+00    5.123121e-01   6.827141e-03
  3.531204e+00    5.284516e-01   6.946383e-03
  3.533414e+00    5.426761e-01   7.051521e-03
  3.535625e+00    5.506034e-01   7.115510e-03
  3.537835e+00    5.276980e-01   6.977979e-03
  3.540046e+00    5.201250e-01   6.936500e-03
  3.542256e+00    5.463521e-01   7.116864e-03
  3.544467e+00    5.429994e-01   7.102669e-03
  3.546677e+00    5.392022e-01   7.085382e-03
  3.548888e+00    5.479742e-01   7.150348e-03
  3.551098e+00    5.463933e-01   7.147432e-03
  3.553309e+00    5.313656e-01   7.056550e-03
  3.555519e+00    5.498053e-01   7.189372e-03
  3.557729e+00    5.549676e-01   7.234996e-03
  3.559940e+00    5.530117e-01   7.233981e-03
  3.562150e+00    5.485519e-01   7.216571e-03
  3.564361e+00    5.518010e-01   7.251447e-03
  3.566571e+00    5.602478e-01   7.320855e-03
  3.568782e+00    5.373891e-01   7.184119e-03
  3.570992e+00    5.382285e-01   7.203500e-03
  3.573203e+00    5.335694e-01   7.186361e-03
  3.575413e+00    5.366089e-01   7.220563e-03
  3.577624e+00    5.493885e-01   7.320340e-03
  3.579834e+00    5.470300e-01   7.318669e-03
  3.582045e+00    5.446074e-01   7.316570e-03
  3.584255e+00    5.541289e-01   7.394521e-03
  3.586465e+00    5.390452e-01   7.307198e-03
  3.588676e+00    5.373341e-01   7.309773e-03
  3.590886e+00    5.470768e-01   7.389605e-03
  3.593097e+00    5.386401e-01   7.346932e-03
  3.595307e+00    5.311576e-01   7.309608e-03
  3.597518e+00    5.449762e-01   7.418419e-03
  3.599728e+00    5.327324e-01   7.348642e-03
  3.601939e+00    5.326180e-01   7.361909e-03
  3.604149e+00    5.390350e-01   7.420576e-03
  3.606360e+00    5.411877e-01   7.449601e-03
  3.608570e+00    5.529056e-01   7.544176e-03
  3.610780e+00    5.390794e-01   7.460408e-03
  3.612991e+00    5.356883e-01   7.446881e-03
  3.615201e+00    5.564339e-01   7.599711e-03
  3.617412e+00    5.407187e-01   7.498982e-03
  3.619622e+00    5.452601e-01   7.536364e-03
  3.621833e+00    5.387219e-01   7.497816e-03
  3.624043e+00    5.353882e-01   7.484082e-03
  3.626254e+00    5.458797e-01   7.566854e-03
  3.628464e+00    5.564955e-01   7.651307e-03
  3.630675e+00    5.375385e-01   7.533996e-03
  3.632885e+00    5.497364e-01   7.633680e-03
  3.635095e+00    5.237209e-01   7.465115e-03
  3.637306e+00    5.401900e-01   7.596029e-03
  3.639516e+00    5.398379e-01   7.608189e-03
  3.641727e+00    5.327566e-01   7.572690e-03
  3.643937e+00    5.339910e-01   7.596002e-03
  3.646148e+00    5.442681e-01   7.683532e-03
  3.648358e+00    5.354423e-01   7.635829e-03
  3.650569e+00    5.609773e-01   7.830924e-03
  3.652779e+00    5.311697e-01   7.634815e-03
  3.654990e+00    5.353355e-01   7.679572e-03
  3.657200e+00    5.373611e-01   7.709104e-03
  3.659410e+00    5.347526e-01   7.705330e-03
  3.661621e+00    5.554760e-01   7.868682e-03
  3.663831e+00    5.265773e-01   7.676297e-03
  3.666042e+00    5.349821e-01   7.752521e-03
  3.668252e+00    5.357912e-01   7.773687e-03
  3.670463e+00    5.301295e-01   7.747721e-03
  3.672673e+00    5.318493e-01   7.775730e-03
  3.674884e+00    5.231175e-01   7.726916e-03
  3.677094e+00    5.527885e-01   7.958856e-03
  3.679305e+00    5.315305e-01   7.819895e-03
  3.681515e+00    5.543104e-01   8.001696e-03
  3.683726e+00    5.514479e-01   7.997097e-03
  3.685936e+00    5.343168e-01   7.887743e-03
  3.688146e+00    5.169170e-01   7.773821e-03
  3.690357e+00    5.361218e-01   7.932971e-03
  3.692567e+00    5.527372e-01   8.071459e-03
  3.694778e+00    5.440275e-01   8.023999e-03
  3.696988e+00    5.106877e-01   7.789948e-03
  3.699199e+00    5.419278e-01   8.041139e-03
  3.701409e+00    5.356522e-01   8.011045e-03
  3.703620e+00    5.124769e-01   7.851935e-03
  3.705830e+00    5.023388e-01   7.789915e-03
  3.708041e+00    5.048757e-01   7.825863e-03
  3.710251e+00    4.989931e-01   7.796418e-03
  3.712461e+00    5.233998e-01   8.001557e-03
  3.714672e+00    5.301404e-01   8.069800e-03
  3.716882e+00    5.215787e-01   8.021141e-03
  3.719093e+00    5.111459e-01   7.957445e-03
  3.721303e+00    5.315361e-01   8.131776e-03
  3.723514e+00    5.095133e-01   7.978670e-03
  3.725724e+00    4.972518e-01   7.898826e-03
  3.727935e+00    5.253243e-01   8.136360e-03
  3.730145e+00    5.192234e-01   8.106288e-03
  3.732356e+00    5.376682e-01   8.266978e-03
  3.734566e+00    5.148402e-01   8.107070e-03
  3.736776e+00    5.036336e-01   8.035937e-03
  3.738987e+00    5.232219e-01   8.208573e-03
  3.741197e+00    5.262220e-01   8.250343e-03
  3.743408e+00    5.172024e-01   8.197431e-03
  3.745618e+00    5.378760e-01   8.378419e-03
  3.747829e+00    5.453582e-01   8.455168e-03
  3.750039e+00    5.081208e-01   8.179781e-03
  3.752250e+00    5.054155e-01   8.176245e-03
  3.754460e+00    4.976376e-01   8.131485e-03
  3.756671e+00    4.944916e-01   8.124224e-03
  3.758881e+00    5.109662e-01   8.277089e-03
  3.761091e+00    5.170488e-01   8.345590e-03
  3.763302e+00    5.010878e-01   8.234712e-03
  3.765512e+00    5.155782e-01   8.372243e-03
  3.767723e+00    5.098129e-01   8.344788e-03
  3.769933e+00    5.097890e-01   8.363958e-03
  3.772144e+00    5.122047e-01   8.403432e-03
  3.774354e+00    5.349196e-01   8.608184e-03
  3.776565e+00    5.188258e-01   8.497819e-03
  3.778775e+00    4.926944e-01   8.300793e-03
  3.780986e+00    5.015208e-01   8.395002e-03
  3.783196e+00    5.174651e-01   8.547998e-03
  3.785407e+00    4.884725e-01   8.325189e-03
  3.787617e+00    5.014504e-01   8.455768e-03
  3.789827e+00    4.820097e-01   8.310365e-03
  3.792038e+00    5.133637e-01   8.597439e-03
  3.794248e+00    4.963829e-01   8.475143e-03
  3.796459e+00    4.929129e-01   8.466638e-03
  3.798669e+00    5.105383e-01   8.638255e-03
  3.800880e+00    4.948629e-01   8.525921e-03
  3.803090e+00    4.993983e-01   8.586713e-03
  3.805301e+00    4.966481e-01   8.585061e-03
  3.807511e+00    5.110746e-01   8.731083e-03
  3.809722e+00    5.306606e-01   8.919738e-03
  3.811932e+00    5.202498e-01   8.854462e-03
  3.814142e+00    5.080313e-01   8.772990e-03
  3.816353e+00    5.175895e-01   8.878358e-03
  3.818563e+00    5.167196e-01   8.894448e-03
  3.820774e+00    5.034962e-01   8.803173e-03
  3.822984e+00    4.826828e-01   8.642296e-03
  3.825195e+00    5.083344e-01   8.892945e-03
  3.827405e+00    4.993289e-01   8.837740e-03
  3.829616e+00    4.859096e-01   8.741970e-03
  3.831826e+00    5.007413e-01   8.898610e-03
  3.834037e+00    5.126241e-01   9.028490e-03
  3.836247e+00    4.854855e-01   8.810668e-03
  3.838457e+00    5.047863e-01   9.009283e-03
  3.840668e+00    5.002614e-01   8.994143e-03
  3.842878e+00    4.991561e-01   9.009775e-03
  3.845089e+00    4.933590e-01   8.982845e-03
  3.847299e+00    4.979019e-01   9.049926e-03
  3.849510e+00    4.762321e-01   8.876198e-03
  3.851720e+00    5.153940e-01   9.255761e-03
  3.853931e+00    4.891559e-01   9.036003e-03
  3.856141e+00    4.945014e-01   9.104219e-03
  3.858352e+00    4.929097e-01   9.108778e-03
  3.860562e+00    4.998190e-01   9.191819e-03
  3.862772e+00    5.141225e-01   9.342334e-03
  3.864983e+00    5.026206e-01   9.257219e-03
  3.867193e+00    4.829547e-01   9.093812e-03
  3.869404e+00    5.115060e-01   9.378856e-03
  3.871614e+00    5.034209e-01   9.324727e-03
  3.873825e+00    4.797722e-01   9.123096e-03
  3.876035e+00    4.724879e-01   9.073660e-03
  3.878246e+00    5.062152e-01   9.418089e-03
  3.880456e+00    4.899261e-01   9.294230e-03
  3.882667e+00    4.885523e-01   9.310395e-03
  3.884877e+00    5.246350e-01   9.678815e-03
  3.887087e+00    5.082707e-01   9.557154e-03
  3.889298e+00    4.757978e-01   9.276721e-03
  3.891508e+00    4.944224e-01   9.487092e-03
  3.893719e+00    5.379445e-01   9.928371e-03
  3.895929e+00    4.890851e-01   9.498144e-03
  3.898140e+00    4.744641e-01   9.386279e-03
  3.900350e+00    4.745432e-01   9.418591e-03
  3.902561e+00    5.031039e-01   9.730665e-03
  3.904771e+00    4.717927e-01   9.455319e-03
  3.906982e+00    5.099787e-01   9.864246e-03
  3.909192e+00    5.333313e-01   1.012253e-02
  3.911403e+00    5.150960e-01   9.983016e-03
  3.913613e+00    4.983373e-01   9.853776e-03
  3.915823e+00    4.990712e-01   9.896209e-03
  3.918034e+00    5.020359e-01   9.961387e-03
  3.920244e+00    4.846642e-01   9.823082e-03
  3.922455e+00    4.912592e-01   9.925804e-03
  3.924665e+00    4.781422e-01   9.828540e-03
  3.926876e+00    5.211425e-01   1.029924e-02
  3.929086e+00    5.089608e-01   1.021643e-02
  3.931297e+00    4.897873e-01   1.005700e-02
  3.933507e+00    4.948772e-01   1.013822e-02
  3.935718e+00    5.278179e-01   1.050019e-02
  3.937928e+00    5.152896e-01   1.040506e-02
  3.940138e+00    4.973559e-01   1.025207e-02
  3.942349e+00    5.058899e-01   1.037002e-02
  3.944559e+00    5.221891e-01   1.056690e-02
  3.946770e+00    4.945230e-01   1.031354e-02
  3.948980e+00    4.839402e-01   1.023326e-02
  3.951191e+00    5.012774e-01   1.044624e-02
  3.953401e+00    4.911540e-01   1.037168e-02
  3.955612e+00    4.976395e-01   1.047203e-02
  3.957822e+00    5.050448e-01   1.058185e-02
  3.960033e+00    4.888212e-01   1.044336e-02
  3.962243e+00    4.808303e-01   1.039017e-02
  3.964453e+00    5.044321e-01   1.067597e-02
  3.966664e+00    4.815597e-01   1.046437e-02
  3.968874e+00    4.808621e-01   1.048497e-02
  3.971085e+00    5.164594e-01   1.088876e-02
  3.973295e+00    5.084012e-01   1.082548e-02
  3.975506e+00    4.879961e-01   1.062773e-02
  3.977716e+00    4.824980e-01   1.058957e-02
  3.979927e+00    4.897357e-01   1.069090e-02
  3.982137e+00    5.150174e-01   1.098633e-02
  3.984348e+00    4.839981e-01   1.067297e-02
  3.986558e+00    4.797502e-01   1.064815e-02
  3.988768e+00    4.628375e-01   1.048127e-02
  3.990979e+00    4.590709e-01   1.046064e-02
  3.993189e+00    4.991055e-01   1.093064e-02
  3.995400e+00    4.921657e-01   1.087810e-02
  3.997610e+00    5.232398e-01   1.124718e-02
  3.999821e+00    4.920059e-01   1.094423e-02
  4.002031e+00    4.853341e-01   1.090815e-02
  4.004242e+00    4.675851e-01   1.074460e-02
  4.006452e+00    4.710730e-01   1.082337e-02
  4.008663e+00    4.771907e-01   1.093320e-02
  4.010873e+00    4.743316e-01   1.093990e-02
  4.013084e+00    4.617967e-01   1.083436e-02
  4.015294e+00    5.072816e-01   1.139736e-02
  4.017504e+00    4.602189e-01   1.089656e-02
  4.019715e+00    4.538206e-01   1.086171e-02
  4.021925e+00    5.303016e-01   1.178624e-02
  4.024136e+00    4.992562e-01   1.148054e-02
  4.026346e+00    4.997649e-01   1.153120e-02
  4.028557e+00    4.841492e-01   1.139391e-02
  4.030767e+00    5.141672e-01   1.178893e-02
  4.032978e+00    5.091948e-01   1.177927e-02
  4.035188e+00    4.717995e-01   1.138411e-02
  4.037399e+00    5.032400e-01   1.180582e-02
  4.039609e+00    4.911049e-01   1.171076e-02
  4.041819e+00    4.550019e-01   1.131941e-02
  4.044030e+00    4.765432e-01   1.163376e-02
  4.046240e+00    4.998235e-01   1.196524e-02
  4.048451e+00    5.228820e-01   1.229115e-02
  4.050661e+00    5.063957e-01   1.214851e-02
  4.052872e+00    4.917985e-01   1.202543e-02
  4.055082e+00    4.778636e-01   1.190698e-02
  4.057293e+00    4.790285e-01   1.197504e-02
  4.059503e+00    4.863389e-01   1.212101e-02
  4.061714e+00    4.775246e-01   1.206689e-02
  4.063924e+00    4.994588e-01   1.239860e-02
  4.066134e+00    4.922414e-01   1.236671e-02
  4.068345e+00    4.984795e-01   1.250478e-02
  4.070555e+00    4.667078e-01   1.215811e-02
  4.072766e+00    4.686132e-01   1.224284e-02
  4.074976e+00    4.783804e-01   1.243144e-02
  4.077187e+00    4.917816e-01   1.266706e-02
  4.079397e+00    5.031576e-01   1.287816e-02
  4.081608e+00    4.590442e-01   1.236475e-02
  4.083818e+00    4.625698e-01   1.247653e-02
  4.086029e+00    4.915131e-01   1.292872e-02
  4.088239e+00    4.999205e-01   1.310923e-02
  4.090449e+00    4.563710e-01   1.259313e-02
  4.092660e+00    4.584810e-01   1.269152e-02
  4.094870e+00    4.807774e-01   1.306888e-02
  4.097081e+00    4.570277e-01   1.281167e-02
  4.099291e+00    4.859955e-01   1.326619e-02
  4.101502e+00    4.825766e-01   1.326873e-02
  4.103712e+00    4.935923e-01   1.346928e-02
  4.105923e+00    5.244333e-01   1.393764e-02
  4.108133e+00    4.551801e-01   1.303469e-02
  4.110344e+00    4.468884e-01   1.296498e-02
  4.112554e+00    4.710813e-01   1.336366e-02
  4.114764e+00    4.866095e-01   1.363689e-02
  4.116975e+00    4.772887e-01   1.355881e-02
  4.119185e+00    4.858829e-01   1.373593e-02
  4.121396e+00    4.782199e-01   1.368350e-02
  4.123606e+00    4.653329e-01   1.355315e-02
  4.125817e+00    4.997954e-01   1.410502e-02
  4.128027e+00    4.874777e-01   1.398865e-02
  4.130238e+00    5.104384e-01   1.437589e-02
  4.132448e+00    4.575658e-01   1.366992e-02
  4.134659e+00    4.894128e-01   1.419846e-02
  4.136869e+00    4.987823e-01   1.439772e-02
  4.139080e+00    4.435501e-01   1.363843e-02
  4.141290e+00    4.342371e-01   1.355417e-02
  4.143500e+00    4.494546e-01   1.385322e-02
  4.145711e+00    4.809201e-01   1.439692e-02
  4.147921e+00    4.467961e-01   1.394044e-02
  4.150132e+00    4.904116e-01   1.467436e-02
  4.152342e+00    5.493140e-01   1.560629e-02
  4.154553e+00    5.050814e-01   1.503596e-02
  4.156763e+00    4.836118e-01   1.478552e-02
  4.158974e+00    4.754504e-01   1.473401e-02
  4.161184e+00    5.071179e-01   1.529232e-02
  4.163395e+00    4.645014e-01   1.471030e-02
  4.165605e+00    4.925839e-01   1.522740e-02
  4.167815e+00    4.763440e-01   1.505219e-02
  4.170026e+00    4.934525e-01   1.540095e-02
  4.172236e+00    4.624405e-01   1.498982e-02
  4.174447e+00    4.190474e-01   1.434655e-02
  4.176657e+00    5.155624e-01   1.600032e-02
  4.178868e+00    5.178706e-01   1.612693e-02
  4.181078e+00    4.782361e-01   1.558495e-02
  4.183289e+00    4.556894e-01   1.530020e-02
  4.185499e+00    4.598054e-01   1.545962e-02
  4.187710e+00    4.623267e-01   1.559282e-02
  4.189920e+00    4.285608e-01   1.510305e-02
  4.192130e+00    4.706320e-01   1.592358e-02
  4.194341e+00    4.912302e-01   1.636834e-02
  4.196551e+00    5.255896e-01   1.703815e-02
  4.198762e+00    4.754308e-01   1.630785e-02
  4.200972e+00    5.148646e-01   1.708036e-02
  4.203183e+00    4.562144e-01   1.618421e-02
  4.205393e+00    4.584142e-01   1.633101e-02
  4.207604e+00    4.418621e-01   1.614285e-02
  4.209814e+00    4.984264e-01   1.726258e-02
  4.212025e+00    4.698038e-01   1.687851e-02
  4.214235e+00    4.698606e-01   1.699891e-02
  4.216445e+00    5.007517e-01   1.767607e-02
  4.218656e+00    4.443035e-01   1.677461e-02
  4.220866e+00    5.356654e-01   1.855499e-02
  4.223077e+00    4.926613e-01   1.793183e-02
  4.225287e+00    4.903315e-01   1.802977e-02
  4.227498e+00    4.703566e-01   1.779744e-02
  4.229708e+00    4.400724e-01   1.735470e-02
  4.231919e+00    5.061989e-01   1.876697e-02
  4.234129e+00    4.633314e-01   1.810551e-02
  4.236340e+00    4.405235e-01   1.780525e-02
  4.238550e+00    5.101007e-01   1.932894e-02
  4.240761e+00    4.999273e-01   1.930447e-02
  4.242971e+00    4.749396e-01   1.898786e-02
  4.245181e+00    4.021511e-01   1.763672e-02
  4.247392e+00    4.460180e-01   1.874711e-02
  4.249602e+00    4.963633e-01   1.997351e-02
  4.251813e+00    4.395624e-01   1.898106e-02
  4.254023e+00    4.580511e-01   1.957159e-02
  4.256234e+00    4.492196e-01   1.958924e-02
  4.258444e+00    4.715712e-01   2.028003e-02
  4.260655e+00    5.342550e-01   2.182376e-02
  4.262865e+00    4.918345e-01   2.117656e-02
  4.265076e+00    5.026920e-01   2.165278e-02
  4.267286e+00    4.616582e-01   2.099670e-02
  4.269496e+00    3.784361e-01   1.924181e-02
  4.271707e+00    4.613954e-01   2.150881e-02
  4.273917e+00    4.626848e-01   2.181734e-02
  4.276128e+00    4.993536e-01   2.296669e-02
  4.278338e+00    5.026227e-01   2.334950e-02
  4.280549e+00    4.807043e-01   2.316174e-02
  4.282759e+00    4.724383e-01   2.329219e-02
  4.284970e+00    5.495223e-01   2.549199e-02
  4.287180e+00    4.540581e-01   2.345039e-02
  4.289391e+00    4.530145e-01   2.359879e-02
  4.291601e+00    4.169468e-01   2.282121e-02
  4.293811e+00    4.993500e-01   2.516918e-02
  4.296022e+00    4.977232e-01   2.533053e-02
  4.298232e+00    5.127804e-01   2.592626e-02
  4.300443e+00    5.250944e-01   2.645165e-02
  4.302653e+00    5.629746e-01   2.762645e-02
  4.304864e+00    5.395678e-01   2.728088e-02
  4.307074e+00    4.686466e-01   2.565260e-02
  4.309285e+00    5.289146e-01   2.750023e-02
  4.311495e+00    5.879883e-01   2.926632e-02
  4.313706e+00    5.300803e-01   2.804925e-02
  4.315916e+00    4.985834e-01   2.747070e-02
  4.318126e+00    4.728793e-01   2.701818e-02
  4.320337e+00    4.465917e-01   2.652198e-02
  4.322547e+00    4.572746e-01   2.712197e-02
  4.324758e+00    4.405511e-01   2.689783e-02
  4.326968e+00    5.017429e-01   2.902805e-02
  4.329179e+00    5.743004e-01   3.139890e-02
  4.331389e+00    4.853989e-01   2.920019e-02
  4.333600e+00    3.808810e-01   2.617362e-02
  4.335810e+00    3.908596e-01   2.683063e-02
  4.338021e+00    3.894106e-01   2.712242e-02
  4.340231e+00    4.825052e-01   3.057027e-02
  4.342442e+00    5.498539e-01   3.307286e-02
  4.344652e+00    5.165479e-01   3.248975e-02
  4.346862e+00    4.785304e-01   3.171079e-02
  4.349073e+00    4.201860e-01   3.014567e-02
  4.351283e+00    3.838432e-01   2.924404e-02
  4.353494e+00    4.942510e-01   3.369608e-02
  4.355704e+00    4.179605e-01   3.148574e-02
  4.357915e+00    3.862618e-01   3.077268e-02
  4.360125e+00    3.924572e-01   3.154717e-02
  4.362336e+00    3.329396e-01   2.958647e-02
  4.364546e+00    5.055109e-01   3.712009e-02
  4.366757e+00    5.535436e-01   3.961595e-02
  4.368967e+00    4.152160e-01   3.499656e-02
  4.371177e+00    2.902352e-01   2.988137e-02
  4.373388e+00    4.262325e-01   3.701985e-02
  4.375598e+00    3.829534e-01   3.589138e-02
  4.377809e+00    4.356563e-01   3.924995e-02
  4.380019e+00    2.558959e-01   3.083848e-02
  4.382230e+00    2.962407e-01   3.410677e-02
  4.384440e+00    3.352604e-01   3.732453e-02
  4.386651e+00    5.338464e-01   4.855435e-02
  4.388861e+00    6.388959e-01   5.489921e-02
  4.391072e+00    5.093887e-01   5.074306e-02
  4.393282e+00    4.465731e-01   4.934838e-02
  4.395492e+00    4.334945e-01   5.064008e-02
  4.397703e+00    3.548220e-01   4.790780e-02
  4.399913e+00    4.788717e-01   5.847670e-02
  4.402124e+00    4.110166e-01   5.724492e-02
  4.404334e+00    5.047885e-01   6.743663e-02
  4.406545e+00    2.576607e-01   5.176731e-02
  4.408755e+00    3.187201e-01   6.243562e-02
  4.410966e+00    5.185135e-01   8.813816e-02
  4.413176e+00    4.989696e-01   9.788197e-02
  4.415387e+00   -6.289009e-01            nan
  4.417597e+00   -1.606192e+00            nan
  4.419807e+00    1.431295e-01   1.358686e-01
