# == pyFAI calibration ==
# Distance Sample to Detector: 0.216 m
# PONI: 1.166e-01, 1.308e-01 m
# Rotations: 0.000000 0.000000 0.000000 rad
# 
# == Fit2d calibration ==
# Distance Sample-beamCenter: 216.000 mm
# Center: x=1744.293, y=1555.000 pix
# Tilt: 0.000 deg  TiltPlanRot: 0.000 deg
# 
# Detector Eiger 9M	 PixelSize= 7.500e-05, 7.500e-05 m
#    Detector has a mask: True 
#    Detector has a dark current: False 
#    detector has a flat field: False 
# 
# Wavelength: 9.8e-11 m
# Mask applied: from detector
# Dark current applied: False
# Flat field applied: False
# Polarization factor: None
# Normalization factor: 1.0
# 
# Headers of the input frame:
# {
# "_array_data.header_convention": "SLS_1.0",
# "_array_data.header_contents": "# Detector: Dectris Eiger 9M, S/N E-18-0102\r\n# Pixel_size 75e-6 m x 75e-6 m\r\n# Silicon sensor, thickness 0.000450 m\r\n# Exposure_time 0.024997 s\r\n# Exposure_period 0.025000 s\r\n# Count_cutoff 62318 counts\r\n# Wavelength 0.980106 A\r\n# Detector_distance 0.215992 m\r\n# Beam_xy (1555, 1744) pixels\r\n# Start_angle 0.000000 deg.\r\n# Angle_increment 0.000000 deg.",
# "Content-Type": "application/octet-stream;",
# "conversions": "x-CBF_BYTE_OFFSET",
# "Content-Transfer-Encoding": "BINARY",
# "X-Binary-Size": "10166594",
# "X-Binary-ID": "1",
# "X-Binary-Element-Type": "signed 32-bit integer",
# "X-Binary-Element-Byte-Order": "LITTLE_ENDIAN",
# "Content-MD5": "HSqAfeWGoNk0t88V5enBaw==",
# "X-Binary-Number-of-Elements": "10166590",
# "X-Binary-Size-Fastest-Dimension": "3110",
# "X-Binary-Size-Second-Dimension": "3269",
# "X-Binary-Size-Padding": "4095"
# }
# --> H:/Proxima2a_2019-04-05/RAW_DATA/C5_gel17_position5/C5_mesh_1_data.cbf/C5_mesh_1_data.cbf000035.dat
#        q_A^-1              I           sigma 
  1.105228e-03    1.217200e+00   5.969912e-01
  3.315685e-03    1.330227e+00   3.794096e-01
  5.526141e-03    1.546481e+00   3.163330e-01
  7.736597e-03    1.209880e+00   2.363694e-01
  9.947054e-03    1.354075e+00   2.204438e-01
  1.215751e-02    1.441869e+00   2.056987e-01
  1.436797e-02    1.405403e+00   1.867997e-01
  1.657842e-02    1.358100e+00   1.709268e-01
  1.878888e-02    1.585346e+00   1.734705e-01
  2.099934e-02    1.569414e+00   1.632942e-01
  2.320979e-02    1.343437e+00   1.436949e-01
  2.542025e-02    1.437680e+00   1.420498e-01
  2.763070e-02    1.341151e+00   1.315919e-01
  2.984116e-02    1.430283e+00   1.307638e-01
  3.205162e-02    1.389115e+00   1.243527e-01
  3.426207e-02    1.409520e+00   1.211464e-01
  3.647253e-02    1.509486e+00   1.215078e-01
  3.868299e-02    1.446261e+00   1.154965e-01
  4.089344e-02    1.395471e+00   1.103421e-01
  4.310390e-02    1.359792e+00   1.060865e-01
  4.531436e-02    1.386127e+00   1.044642e-01
  4.752481e-02    1.473547e+00   1.051722e-01
  4.973527e-02    1.534659e+00   1.049199e-01
  5.194572e-02    1.369045e+00   9.696430e-02
  5.415618e-02    1.341333e+00   9.399548e-02
  5.636664e-02    1.494012e+00   9.723937e-02
  5.857709e-02    1.521749e+00   9.626892e-02
  6.078755e-02    1.463314e+00   9.266721e-02
  6.299801e-02    1.568142e+00   9.422998e-02
  6.520846e-02    1.496043e+00   9.046544e-02
  6.741892e-02    1.554557e+00   9.068871e-02
  6.962938e-02    1.655608e+00   9.209692e-02
  7.183983e-02    1.420972e+00   8.399723e-02
  7.405029e-02    1.306058e+00   7.931629e-02
  7.626074e-02    1.373633e+00   8.015407e-02
  7.847120e-02    1.553613e+00   8.403213e-02
  8.068166e-02    1.453736e+00   8.016431e-02
  8.289211e-02    1.511153e+00   8.063451e-02
  8.510257e-02    1.477079e+00   7.867762e-02
  8.731303e-02    1.414268e+00   7.600297e-02
  8.952348e-02    1.401238e+00   7.471425e-02
  9.173394e-02    1.485740e+00   7.599854e-02
  9.394439e-02    1.505279e+00   7.558887e-02
  9.615485e-02    1.451618e+00   7.336957e-02
  9.836531e-02    1.380191e+00   7.073138e-02
  1.005758e-01    1.333673e+00   6.876131e-02
  1.027862e-01    1.485815e+00   7.179102e-02
  1.049967e-01    1.610937e+00   7.396039e-02
  1.072071e-01    1.520876e+00   7.111771e-02
  1.094176e-01    1.514531e+00   7.024761e-02
  1.116280e-01    1.520306e+00   6.967953e-02
  1.138385e-01    1.542934e+00   6.950995e-02
  1.160490e-01    1.431965e+00   6.632210e-02
  1.182594e-01    1.457852e+00   6.628907e-02
  1.204699e-01    1.623070e+00   6.929936e-02
  1.226803e-01    1.542475e+00   6.694275e-02
  1.248908e-01    1.520767e+00   6.587839e-02
  1.271012e-01    1.555689e+00   6.604724e-02
  1.293117e-01    1.627395e+00   6.697154e-02
  1.315222e-01    1.598216e+00   6.580684e-02
  1.337326e-01    1.576139e+00   6.480715e-02
  1.359431e-01    1.602256e+00   6.538010e-02
  1.381535e-01    1.629458e+00   6.681781e-02
  1.403640e-01    1.554363e+00   6.554174e-02
  1.425744e-01    1.543596e+00   6.541867e-02
  1.447849e-01    1.654035e+00   6.773408e-02
  1.469953e-01    1.684420e+00   6.831060e-02
  1.492058e-01    1.565382e+00   6.577608e-02
  1.514163e-01    1.574997e+00   6.586821e-02
  1.536267e-01    1.616466e+00   6.659947e-02
  1.558372e-01    1.600777e+00   6.612912e-02
  1.580476e-01    1.733283e+00   6.864472e-02
  1.602581e-01    1.666973e+00   6.714789e-02
  1.624685e-01    1.658421e+00   6.679203e-02
  1.646790e-01    1.638791e+00   6.620491e-02
  1.668895e-01    1.679688e+00   6.683235e-02
  1.690999e-01    1.698011e+00   6.699409e-02
  1.713104e-01    1.794237e+00   6.865250e-02
  1.735208e-01    1.725803e+00   6.712116e-02
  1.757313e-01    1.817067e+00   6.865719e-02
  1.779417e-01    1.859595e+00   6.922947e-02
  1.801522e-01    1.840932e+00   6.866185e-02
  1.823626e-01    1.862424e+00   6.883153e-02
  1.845731e-01    1.989278e+00   7.090665e-02
  1.867836e-01    2.000702e+00   7.086998e-02
  1.889940e-01    1.940810e+00   6.957305e-02
  1.912045e-01    1.960367e+00   6.968922e-02
  1.934149e-01    1.931467e+00   6.894210e-02
  1.956254e-01    1.993604e+00   6.981128e-02
  1.978358e-01    1.992838e+00   6.955869e-02
  2.000463e-01    2.024605e+00   6.987854e-02
  2.022568e-01    2.048408e+00   7.005741e-02
  2.044672e-01    2.032285e+00   6.954212e-02
  2.066777e-01    1.998106e+00   6.872598e-02
  2.088881e-01    2.014945e+00   6.878919e-02
  2.110986e-01    1.939612e+00   6.725957e-02
  2.133090e-01    1.961743e+00   6.742229e-02
  2.155195e-01    1.929984e+00   6.665251e-02
  2.177300e-01    1.902353e+00   6.565379e-02
  2.199404e-01    1.896481e+00   6.382509e-02
  2.221509e-01    2.036427e+00   6.505205e-02
  2.243613e-01    2.081058e+00   6.492738e-02
  2.265718e-01    1.997012e+00   6.290176e-02
  2.287822e-01    2.102552e+00   6.390364e-02
  2.309927e-01    2.159586e+00   6.417460e-02
  2.332031e-01    2.210576e+00   6.437209e-02
  2.354136e-01    2.236076e+00   6.421757e-02
  2.376241e-01    2.185772e+00   6.299833e-02
  2.398345e-01    2.230938e+00   6.317486e-02
  2.420450e-01    2.205789e+00   6.236882e-02
  2.442554e-01    2.211831e+00   6.202392e-02
  2.464659e-01    2.168916e+00   6.100693e-02
  2.486763e-01    2.083107e+00   5.939490e-02
  2.508868e-01    2.209944e+00   6.079051e-02
  2.530973e-01    2.150278e+00   5.959250e-02
  2.553077e-01    2.128380e+00   5.892864e-02
  2.575182e-01    2.130214e+00   5.860523e-02
  2.597286e-01    2.141312e+00   5.841612e-02
  2.619391e-01    2.149841e+00   5.819537e-02
  2.641495e-01    2.143310e+00   5.778531e-02
  2.663600e-01    2.126499e+00   5.724173e-02
  2.685704e-01    2.033016e+00   5.566598e-02
  2.707809e-01    2.021726e+00   5.521655e-02
  2.729914e-01    1.929138e+00   5.365628e-02
  2.752018e-01    1.991228e+00   5.422917e-02
  2.774123e-01    1.974506e+00   5.372516e-02
  2.796227e-01    2.033573e+00   5.425312e-02
  2.818332e-01    2.043819e+00   5.411832e-02
  2.840436e-01    1.973705e+00   5.292413e-02
  2.862541e-01    1.996739e+00   5.297618e-02
  2.884646e-01    1.981573e+00   5.252414e-02
  2.906750e-01    2.004179e+00   5.257245e-02
  2.928855e-01    2.010815e+00   5.241539e-02
  2.950959e-01    1.994096e+00   5.195728e-02
  2.973064e-01    2.002810e+00   5.183664e-02
  2.995168e-01    1.948849e+00   5.090199e-02
  3.017273e-01    1.953551e+00   5.073865e-02
  3.039377e-01    1.914616e+00   5.001057e-02
  3.061482e-01    1.845780e+00   4.889089e-02
  3.083587e-01    1.861487e+00   4.888594e-02
  3.105691e-01    1.911730e+00   4.932968e-02
  3.127796e-01    1.931577e+00   4.937663e-02
  3.149900e-01    1.925434e+00   4.909264e-02
  3.172005e-01    1.946919e+00   4.916391e-02
  3.194109e-01    1.978566e+00   4.935729e-02
  3.216214e-01    1.884412e+00   4.797207e-02
  3.238319e-01    1.898962e+00   4.796609e-02
  3.260423e-01    1.928999e+00   4.815142e-02
  3.282528e-01    1.899955e+00   4.759729e-02
  3.304632e-01    1.913103e+00   4.757667e-02
  3.326737e-01    1.914832e+00   4.741246e-02
  3.348841e-01    1.871550e+00   4.669179e-02
  3.370946e-01    1.865829e+00   4.644496e-02
  3.393050e-01    1.908159e+00   4.679091e-02
  3.415155e-01    1.851621e+00   4.591923e-02
  3.437260e-01    1.784018e+00   4.490610e-02
  3.459364e-01    1.793493e+00   4.485862e-02
  3.481469e-01    1.847468e+00   4.536245e-02
  3.503573e-01    1.832526e+00   4.501405e-02
  3.525678e-01    1.880872e+00   4.544147e-02
  3.547782e-01    1.836160e+00   4.473582e-02
  3.569887e-01    1.846083e+00   4.469760e-02
  3.591992e-01    1.787525e+00   4.382735e-02
  3.614096e-01    1.797108e+00   4.379231e-02
  3.636201e-01    1.821319e+00   4.393137e-02
  3.658305e-01    1.861073e+00   4.425677e-02
  3.680410e-01    1.800736e+00   4.338371e-02
  3.702514e-01    1.807082e+00   4.331392e-02
  3.724619e-01    1.833240e+00   4.347773e-02
  3.746724e-01    1.795062e+00   4.287909e-02
  3.768828e-01    1.808718e+00   4.289704e-02
  3.790933e-01    1.750919e+00   4.206855e-02
  3.813037e-01    1.778897e+00   4.226457e-02
  3.835142e-01    1.810338e+00   4.249642e-02
  3.857246e-01    1.802088e+00   4.226224e-02
  3.879351e-01    1.786004e+00   4.193705e-02
  3.901455e-01    1.801190e+00   4.198088e-02
  3.923560e-01    1.816098e+00   4.202028e-02
  3.945665e-01    1.837723e+00   4.213567e-02
  3.967769e-01    1.809399e+00   4.167877e-02
  3.989874e-01    1.759619e+00   4.097311e-02
  4.011978e-01    1.865359e+00   4.205647e-02
  4.034083e-01    1.853431e+00   4.179313e-02
  4.056187e-01    1.802391e+00   4.108671e-02
  4.078292e-01    1.743680e+00   4.028969e-02
  4.100397e-01    1.765728e+00   4.041979e-02
  4.122501e-01    1.786805e+00   4.053869e-02
  4.144606e-01    1.855849e+00   4.119196e-02
  4.166710e-01    1.850568e+00   4.101102e-02
  4.188815e-01    1.777614e+00   4.007580e-02
  4.210919e-01    1.752084e+00   3.967034e-02
  4.233024e-01    1.883782e+00   4.101329e-02
  4.255128e-01    1.833572e+00   4.034607e-02
  4.277233e-01    1.830429e+00   4.019564e-02
  4.299338e-01    1.793008e+00   3.966819e-02
  4.321442e-01    1.813458e+00   3.977958e-02
  4.343547e-01    1.863507e+00   4.021077e-02
  4.365651e-01    1.816495e+00   3.958752e-02
  4.387756e-01    1.802349e+00   3.932266e-02
  4.409860e-01    1.777479e+00   3.894223e-02
  4.431965e-01    1.791930e+00   3.899209e-02
  4.454070e-01    1.786877e+00   3.882874e-02
  4.476174e-01    1.777301e+00   3.861823e-02
  4.498279e-01    1.765142e+00   3.838121e-02
  4.520383e-01    1.784318e+00   3.848320e-02
  4.542488e-01    1.777577e+00   3.830690e-02
  4.564592e-01    1.733431e+00   3.772673e-02
  4.586697e-01    1.712045e+00   3.739377e-02
  4.608801e-01    1.749600e+00   3.770042e-02
  4.630906e-01    1.708821e+00   3.715985e-02
  4.653011e-01    1.718840e+00   3.717058e-02
  4.675115e-01    1.757974e+00   3.749236e-02
  4.697220e-01    1.717596e+00   3.696226e-02
  4.719324e-01    1.734158e+00   3.704396e-02
  4.741429e-01    1.725462e+00   3.685577e-02
  4.763533e-01    1.681375e+00   3.628859e-02
  4.785638e-01    1.720146e+00   3.660978e-02
  4.807743e-01    1.721416e+00   3.653016e-02
  4.829847e-01    1.733464e+00   3.656516e-02
  4.851952e-01    1.698194e+00   3.609969e-02
  4.874056e-01    1.731924e+00   3.636450e-02
  4.896161e-01    1.698140e+00   3.591881e-02
  4.918265e-01    1.714245e+00   3.599908e-02
  4.940370e-01    1.742698e+00   3.620702e-02
  4.962475e-01    1.688551e+00   3.555208e-02
  4.984579e-01    1.664123e+00   3.520698e-02
  5.006684e-01    1.671094e+00   3.519462e-02
  5.028788e-01    1.689525e+00   3.530244e-02
  5.050893e-01    1.633220e+00   3.462479e-02
  5.072997e-01    1.679209e+00   3.502408e-02
  5.095102e-01    1.712341e+00   3.528324e-02
  5.117206e-01    1.697835e+00   3.504991e-02
  5.139311e-01    1.718420e+00   3.517831e-02
  5.161416e-01    1.714865e+00   3.505884e-02
  5.183520e-01    1.736012e+00   3.519053e-02
  5.205625e-01    1.683917e+00   3.457732e-02
  5.227729e-01    1.706103e+00   3.472316e-02
  5.249834e-01    1.698369e+00   3.456396e-02
  5.271938e-01    1.749215e+00   3.499568e-02
  5.294043e-01    1.716498e+00   3.458686e-02
  5.316148e-01    1.776878e+00   3.510930e-02
  5.338252e-01    1.773189e+00   3.499271e-02
  5.360357e-01    1.741437e+00   3.459904e-02
  5.382461e-01    1.735705e+00   3.446395e-02
  5.404566e-01    1.779688e+00   3.481848e-02
  5.426670e-01    1.757178e+00   3.451962e-02
  5.448775e-01    1.830120e+00   3.515010e-02
  5.470879e-01    1.804063e+00   3.482116e-02
  5.492984e-01    1.782484e+00   3.453530e-02
  5.515089e-01    1.746268e+00   3.410685e-02
  5.537193e-01    1.725464e+00   3.382837e-02
  5.559298e-01    1.760063e+00   3.409092e-02
  5.581402e-01    1.779360e+00   3.420241e-02
  5.603507e-01    1.762270e+00   3.396367e-02
  5.625611e-01    1.797032e+00   3.422259e-02
  5.647716e-01    1.769736e+00   3.388795e-02
  5.669821e-01    1.793646e+00   3.404255e-02
  5.691925e-01    1.779321e+00   3.383356e-02
  5.714030e-01    1.759718e+00   3.357494e-02
  5.736134e-01    1.728154e+00   3.320170e-02
  5.758239e-01    1.740213e+00   3.324621e-02
  5.780343e-01    1.721923e+00   3.300109e-02
  5.802448e-01    1.690529e+00   3.263040e-02
  5.824552e-01    1.693901e+00   3.259441e-02
  5.846657e-01    1.677476e+00   3.236837e-02
  5.868762e-01    1.686443e+00   3.238720e-02
  5.890866e-01    1.675893e+00   3.221876e-02
  5.912971e-01    1.664741e+00   3.204489e-02
  5.935075e-01    1.671762e+00   3.204603e-02
  5.957180e-01    1.647957e+00   3.175177e-02
  5.979284e-01    1.708923e+00   3.226776e-02
  6.001389e-01    1.706049e+00   3.217498e-02
  6.023494e-01    1.659778e+00   3.167123e-02
  6.045598e-01    1.616842e+00   3.119524e-02
  6.067703e-01    1.623868e+00   3.120008e-02
  6.089807e-01    1.649126e+00   3.137857e-02
  6.111912e-01    1.676908e+00   3.157860e-02
  6.134016e-01    1.719683e+00   3.191504e-02
  6.156121e-01    1.708192e+00   3.174501e-02
  6.178226e-01    1.679586e+00   3.141576e-02
  6.200330e-01    1.758261e+00   3.207971e-02
  6.222435e-01    1.710674e+00   3.157995e-02
  6.244539e-01    1.712302e+00   3.153310e-02
  6.266644e-01    1.693485e+00   3.129819e-02
  6.288748e-01    1.708073e+00   3.137152e-02
  6.310853e-01    1.704309e+00   3.127609e-02
  6.332957e-01    1.708868e+00   3.125744e-02
  6.355062e-01    1.668825e+00   3.082903e-02
  6.377167e-01    1.721949e+00   3.125579e-02
  6.399271e-01    1.705916e+00   3.105033e-02
  6.421376e-01    1.726649e+00   3.117883e-02
  6.443480e-01    1.705039e+00   3.092417e-02
  6.465585e-01    1.703816e+00   3.085452e-02
  6.487689e-01    1.700248e+00   3.076398e-02
  6.509794e-01    1.705170e+00   3.075037e-02
  6.531899e-01    1.710142e+00   3.073726e-02
  6.554003e-01    1.660498e+00   3.023092e-02
  6.576108e-01    1.619366e+00   2.979854e-02
  6.598212e-01    1.600868e+00   2.957280e-02
  6.620317e-01    1.610183e+00   2.960374e-02
  6.642421e-01    1.595519e+00   2.941411e-02
  6.664526e-01    1.592898e+00   2.933581e-02
  6.686630e-01    1.596587e+00   2.931544e-02
  6.708735e-01    1.619326e+00   2.946931e-02
  6.730840e-01    1.624815e+00   2.946540e-02
  6.752944e-01    1.592267e+00   2.911575e-02
  6.775049e-01    1.603280e+00   2.916319e-02
  6.797153e-01    1.631486e+00   2.936536e-02
  6.819258e-01    1.598660e+00   2.901599e-02
  6.841362e-01    1.649500e+00   2.942075e-02
  6.863467e-01    1.673283e+00   2.957903e-02
  6.885572e-01    1.649759e+00   2.931775e-02
  6.907676e-01    1.616300e+00   2.896694e-02
  6.929781e-01    1.613424e+00   2.888970e-02
  6.951885e-01    1.621109e+00   2.890714e-02
  6.973990e-01    1.597247e+00   2.864287e-02
  6.996094e-01    1.592440e+00   2.854941e-02
  7.018199e-01    1.577924e+00   2.836912e-02
  7.040303e-01    1.611946e+00   2.862293e-02
  7.062408e-01    1.660957e+00   2.900394e-02
  7.084513e-01    1.614871e+00   2.854900e-02
  7.106617e-01    1.588656e+00   2.826710e-02
  7.128722e-01    1.602967e+00   2.834501e-02
  7.150826e-01    1.631323e+00   2.854532e-02
  7.172931e-01    1.648100e+00   2.864230e-02
  7.195035e-01    1.579772e+00   2.799406e-02
  7.217140e-01    1.550244e+00   2.778027e-02
  7.239245e-01    1.552295e+00   2.802375e-02
  7.261349e-01    1.566243e+00   2.825770e-02
  7.283454e-01    1.578620e+00   2.844163e-02
  7.305558e-01    1.573040e+00   2.844528e-02
  7.327663e-01    1.573496e+00   2.849188e-02
  7.349767e-01    1.606659e+00   2.880710e-02
  7.371872e-01    1.610760e+00   2.883253e-02
  7.393976e-01    1.590447e+00   2.863584e-02
  7.416081e-01    1.603488e+00   2.873666e-02
  7.438186e-01    1.570492e+00   2.829535e-02
  7.460290e-01    1.577009e+00   2.805952e-02
  7.482395e-01    1.555559e+00   2.769791e-02
  7.504499e-01    1.544960e+00   2.746841e-02
  7.526604e-01    1.593355e+00   2.777805e-02
  7.548708e-01    1.615464e+00   2.787956e-02
  7.570813e-01    1.553234e+00   2.728668e-02
  7.592918e-01    1.558988e+00   2.730215e-02
  7.615022e-01    1.628072e+00   2.786616e-02
  7.637127e-01    1.598286e+00   2.757707e-02
  7.659231e-01    1.614083e+00   2.768059e-02
  7.681336e-01    1.597295e+00   2.750446e-02
  7.703440e-01    1.578304e+00   2.730919e-02
  7.725545e-01    1.630476e+00   2.772545e-02
  7.747650e-01    1.695324e+00   2.823180e-02
  7.769754e-01    1.624817e+00   2.758502e-02
  7.791859e-01    1.568956e+00   2.705326e-02
  7.813963e-01    1.614758e+00   2.739212e-02
  7.836068e-01    1.603732e+00   2.724614e-02
  7.858172e-01    1.590233e+00   2.708049e-02
  7.880277e-01    1.608383e+00   2.718279e-02
  7.902381e-01    1.614597e+00   2.718575e-02
  7.924486e-01    1.662637e+00   2.753614e-02
  7.946591e-01    1.621805e+00   2.714730e-02
  7.968695e-01    1.649101e+00   2.732581e-02
  7.990800e-01    1.614964e+00   2.699320e-02
  8.012904e-01    1.600264e+00   2.682357e-02
  8.035009e-01    1.613391e+00   2.688544e-02
  8.057113e-01    1.614801e+00   2.685066e-02
  8.079218e-01    1.615426e+00   2.680953e-02
  8.101323e-01    1.626879e+00   2.685870e-02
  8.123427e-01    1.613711e+00   2.670421e-02
  8.145532e-01    1.600026e+00   2.654522e-02
  8.167636e-01    1.623086e+00   2.669085e-02
  8.189741e-01    1.686293e+00   2.716025e-02
  8.211845e-01    1.670139e+00   2.698455e-02
  8.233950e-01    1.643548e+00   2.672534e-02
  8.256054e-01    1.671958e+00   2.691066e-02
  8.278159e-01    1.658620e+00   2.675887e-02
  8.300264e-01    1.612641e+00   2.634261e-02
  8.322368e-01    1.663623e+00   2.671230e-02
  8.344473e-01    1.700582e+00   2.696322e-02
  8.366577e-01    1.675795e+00   2.672295e-02
  8.388682e-01    1.623951e+00   2.626429e-02
  8.410786e-01    1.655589e+00   2.647660e-02
  8.432891e-01    1.640788e+00   2.631614e-02
  8.454996e-01    1.658704e+00   2.641754e-02
  8.477100e-01    1.669008e+00   2.645742e-02
  8.499205e-01    1.646098e+00   2.623394e-02
  8.521309e-01    1.661305e+00   2.631375e-02
  8.543414e-01    1.621113e+00   2.595294e-02
  8.565518e-01    1.631706e+00   2.599704e-02
  8.587623e-01    1.643345e+00   2.604899e-02
  8.609727e-01    1.641626e+00   2.599499e-02
  8.631832e-01    1.625847e+00   2.582988e-02
  8.653937e-01    1.607320e+00   2.564282e-02
  8.676041e-01    1.603329e+00   2.557231e-02
  8.698146e-01    1.577371e+00   2.532571e-02
  8.720250e-01    1.591537e+00   2.540037e-02
  8.742355e-01    1.632595e+00   2.568678e-02
  8.764459e-01    1.610043e+00   2.546984e-02
  8.786564e-01    1.585356e+00   2.523614e-02
  8.808669e-01    1.608235e+00   2.537904e-02
  8.830773e-01    1.647712e+00   2.564996e-02
  8.852878e-01    1.641015e+00   2.555942e-02
  8.874982e-01    1.590185e+00   2.512395e-02
  8.897087e-01    1.563940e+00   2.487850e-02
  8.919191e-01    1.572173e+00   2.490649e-02
  8.941296e-01    1.534629e+00   2.457078e-02
  8.963401e-01    1.589077e+00   2.496656e-02
  8.985505e-01    1.598092e+00   2.500036e-02
  9.007610e-01    1.586527e+00   2.487312e-02
  9.029714e-01    1.587199e+00   2.484271e-02
  9.051819e-01    1.579746e+00   2.474732e-02
  9.073923e-01    1.615945e+00   2.499250e-02
  9.096028e-01    1.611079e+00   2.491981e-02
  9.118132e-01    1.617890e+00   2.493601e-02
  9.140237e-01    1.608312e+00   2.482536e-02
  9.162342e-01    1.621453e+00   2.489178e-02
  9.184446e-01    1.625413e+00   2.488613e-02
  9.206551e-01    1.578204e+00   2.448672e-02
  9.228655e-01    1.579771e+00   2.446385e-02
  9.250760e-01    1.615764e+00   2.470545e-02
  9.272864e-01    1.622000e+00   2.471863e-02
  9.294969e-01    1.601437e+00   2.452565e-02
  9.317074e-01    1.600393e+00   2.448299e-02
  9.339178e-01    1.643353e+00   2.477553e-02
  9.361283e-01    1.666625e+00   2.491357e-02
  9.383387e-01    1.697643e+00   2.511015e-02
  9.405492e-01    1.675019e+00   2.490742e-02
  9.427596e-01    1.698160e+00   2.504279e-02
  9.449701e-01    1.684784e+00   2.491008e-02
  9.471805e-01    1.656944e+00   2.466842e-02
  9.493910e-01    1.689877e+00   2.487817e-02
  9.516015e-01    1.702814e+00   2.493834e-02
  9.538119e-01    1.730687e+00   2.510718e-02
  9.560224e-01    1.722126e+00   2.500975e-02
  9.582328e-01    1.744183e+00   2.513563e-02
  9.604433e-01    1.761865e+00   2.522695e-02
  9.626537e-01    1.792998e+00   2.541464e-02
  9.648642e-01    1.811008e+00   2.550697e-02
  9.670747e-01    1.823273e+00   2.555791e-02
  9.692851e-01    1.833917e+00   2.559833e-02
  9.714956e-01    1.829090e+00   2.552858e-02
  9.737060e-01    1.885656e+00   2.588625e-02
  9.759165e-01    1.900224e+00   2.594944e-02
  9.781269e-01    1.888137e+00   2.583292e-02
  9.803374e-01    1.856367e+00   2.557926e-02
  9.825478e-01    1.843345e+00   2.545576e-02
  9.847583e-01    1.794190e+00   2.507995e-02
  9.869688e-01    1.784541e+00   2.497893e-02
  9.891792e-01    1.813908e+00   2.515016e-02
  9.913897e-01    1.801721e+00   2.503171e-02
  9.936001e-01    1.746743e+00   2.461458e-02
  9.958106e-01    1.689730e+00   2.417664e-02
  9.980210e-01    1.653738e+00   2.388671e-02
  1.000231e+00    1.617479e+00   2.375283e-02
  1.002442e+00    1.627737e+00   2.395460e-02
  1.004652e+00    1.633392e+00   2.406314e-02
  1.006863e+00    1.610211e+00   2.394135e-02
  1.009073e+00    1.618854e+00   2.404225e-02
  1.011284e+00    1.597175e+00   2.391268e-02
  1.013494e+00    1.577543e+00   2.378881e-02
  1.015705e+00    1.595940e+00   2.394973e-02
  1.017915e+00    1.549698e+00   2.361648e-02
  1.020126e+00    1.544844e+00   2.359540e-02
  1.022336e+00    1.546751e+00   2.362159e-02
  1.024547e+00    1.510667e+00   2.335551e-02
  1.026757e+00    1.520305e+00   2.343817e-02
  1.028967e+00    1.494005e+00   2.324214e-02
  1.031178e+00    1.473568e+00   2.308863e-02
  1.033388e+00    1.530987e+00   2.353923e-02
  1.035599e+00    1.538900e+00   2.360343e-02
  1.037809e+00    1.546085e+00   2.366175e-02
  1.040020e+00    1.541626e+00   2.362888e-02
  1.042230e+00    1.511603e+00   2.339960e-02
  1.044441e+00    1.513611e+00   2.341491e-02
  1.046651e+00    1.505211e+00   2.335003e-02
  1.048862e+00    1.490832e+00   2.323745e-02
  1.051072e+00    1.472948e+00   2.309530e-02
  1.053282e+00    1.530048e+00   2.353772e-02
  1.055493e+00    1.562215e+00   2.377948e-02
  1.057703e+00    1.557255e+00   2.374016e-02
  1.059914e+00    1.542885e+00   2.362603e-02
  1.062124e+00    1.581349e+00   2.391452e-02
  1.064335e+00    1.596803e+00   2.402754e-02
  1.066545e+00    1.595088e+00   2.400841e-02
  1.068756e+00    1.604474e+00   2.407506e-02
  1.070966e+00    1.551393e+00   2.366678e-02
  1.073177e+00    1.533368e+00   2.352271e-02
  1.075387e+00    1.500519e+00   2.326410e-02
  1.077597e+00    1.515255e+00   2.337069e-02
  1.079808e+00    1.483364e+00   2.298983e-02
  1.082018e+00    1.503651e+00   2.295482e-02
  1.084229e+00    1.463481e+00   2.253598e-02
  1.086439e+00    1.491069e+00   2.265885e-02
  1.088650e+00    1.512239e+00   2.274202e-02
  1.090860e+00    1.444359e+00   2.215834e-02
  1.093071e+00    1.452652e+00   2.215964e-02
  1.095281e+00    1.448666e+00   2.207190e-02
  1.097492e+00    1.433318e+00   2.189999e-02
  1.099702e+00    1.437035e+00   2.187703e-02
  1.101912e+00    1.427966e+00   2.175924e-02
  1.104123e+00    1.423139e+00   2.167442e-02
  1.106333e+00    1.424535e+00   2.164077e-02
  1.108544e+00    1.423145e+00   2.158605e-02
  1.110754e+00    1.409045e+00   2.143609e-02
  1.112965e+00    1.410528e+00   2.140700e-02
  1.115175e+00    1.411846e+00   2.137593e-02
  1.117386e+00    1.409201e+00   2.131672e-02
  1.119596e+00    1.407565e+00   2.126653e-02
  1.121807e+00    1.402766e+00   2.119154e-02
  1.124017e+00    1.382651e+00   2.100272e-02
  1.126228e+00    1.365426e+00   2.083622e-02
  1.128438e+00    1.415377e+00   2.117696e-02
  1.130648e+00    1.390411e+00   2.095517e-02
  1.132859e+00    1.365401e+00   2.073185e-02
  1.135069e+00    1.411727e+00   2.104565e-02
  1.137280e+00    1.387083e+00   2.082822e-02
  1.139490e+00    1.383997e+00   2.077197e-02
  1.141701e+00    1.382965e+00   2.073116e-02
  1.143911e+00    1.365748e+00   2.057004e-02
  1.146122e+00    1.385894e+00   2.068912e-02
  1.148332e+00    1.394171e+00   2.071878e-02
  1.150543e+00    1.379128e+00   2.057584e-02
  1.152753e+00    1.347565e+00   2.030852e-02
  1.154963e+00    1.363042e+00   2.039384e-02
  1.157174e+00    1.371037e+00   2.042348e-02
  1.159384e+00    1.360452e+00   2.031473e-02
  1.161595e+00    1.384628e+00   2.046445e-02
  1.163805e+00    1.372282e+00   2.034371e-02
  1.166016e+00    1.356322e+00   2.019577e-02
  1.168226e+00    1.354813e+00   2.015567e-02
  1.170437e+00    1.378070e+00   2.029920e-02
  1.172647e+00    1.369204e+00   2.020486e-02
  1.174858e+00    1.342548e+00   1.997935e-02
  1.177068e+00    1.345390e+00   1.997241e-02
  1.179278e+00    1.343102e+00   1.992705e-02
  1.181489e+00    1.334757e+00   1.983826e-02
  1.183699e+00    1.348327e+00   1.991140e-02
  1.185910e+00    1.367971e+00   2.002804e-02
  1.188120e+00    1.362652e+00   1.996232e-02
  1.190331e+00    1.360310e+00   1.991836e-02
  1.192541e+00    1.339808e+00   1.974045e-02
  1.194752e+00    1.320509e+00   1.957104e-02
  1.196962e+00    1.356931e+00   1.981330e-02
  1.199173e+00    1.352234e+00   1.975247e-02
  1.201383e+00    1.314754e+00   1.945001e-02
  1.203593e+00    1.329675e+00   1.953541e-02
  1.205804e+00    1.360061e+00   1.973135e-02
  1.208014e+00    1.379990e+00   1.984826e-02
  1.210225e+00    1.353874e+00   1.963417e-02
  1.212435e+00    1.384910e+00   1.983285e-02
  1.214646e+00    1.407855e+00   1.996978e-02
  1.216856e+00    1.431939e+00   2.011364e-02
  1.219067e+00    1.482067e+00   2.043703e-02
  1.221277e+00    1.509883e+00   2.060148e-02
  1.223488e+00    1.434047e+00   2.005094e-02
  1.225698e+00    1.374863e+00   1.960565e-02
  1.227909e+00    1.357236e+00   1.944930e-02
  1.230119e+00    1.370584e+00   1.951261e-02
  1.232329e+00    1.363451e+00   1.943090e-02
  1.234540e+00    1.352085e+00   1.931943e-02
  1.236750e+00    1.362988e+00   1.936674e-02
  1.238961e+00    1.377356e+00   1.944134e-02
  1.241171e+00    1.340495e+00   1.915532e-02
  1.243382e+00    1.340924e+00   1.913493e-02
  1.245592e+00    1.384393e+00   1.941822e-02
  1.247803e+00    1.393374e+00   1.945706e-02
  1.250013e+00    1.406204e+00   1.952242e-02
  1.252224e+00    1.430877e+00   1.966900e-02
  1.254434e+00    1.446350e+00   1.975049e-02
  1.256644e+00    1.460375e+00   1.982189e-02
  1.258855e+00    1.424989e+00   1.955638e-02
  1.261065e+00    1.366721e+00   1.912885e-02
  1.263276e+00    1.367497e+00   1.911117e-02
  1.265486e+00    1.378889e+00   1.916748e-02
  1.267697e+00    1.383290e+00   1.917477e-02
  1.269907e+00    1.350283e+00   1.892192e-02
  1.272118e+00    1.351390e+00   1.890708e-02
  1.274328e+00    1.343827e+00   1.883142e-02
  1.276539e+00    1.356508e+00   1.889722e-02
  1.278749e+00    1.352151e+00   1.884455e-02
  1.280959e+00    1.352867e+00   1.882698e-02
  1.283170e+00    1.377107e+00   1.897223e-02
  1.285380e+00    1.382785e+00   1.898859e-02
  1.287591e+00    1.344302e+00   1.870053e-02
  1.289801e+00    1.315644e+00   1.847916e-02
  1.292012e+00    1.336330e+00   1.860685e-02
  1.294222e+00    1.331374e+00   1.855619e-02
  1.296433e+00    1.348701e+00   1.866094e-02
  1.298643e+00    1.356366e+00   1.869741e-02
  1.300854e+00    1.342286e+00   1.858374e-02
  1.303064e+00    1.361516e+00   1.869707e-02
  1.305274e+00    1.374476e+00   1.876422e-02
  1.307485e+00    1.355072e+00   1.860972e-02
  1.309695e+00    1.329497e+00   1.841120e-02
  1.311906e+00    1.357037e+00   1.857912e-02
  1.314116e+00    1.369597e+00   1.864400e-02
  1.316327e+00    1.354431e+00   1.851874e-02
  1.318537e+00    1.358360e+00   1.852363e-02
  1.320748e+00    1.358576e+00   1.850348e-02
  1.322958e+00    1.372016e+00   1.857409e-02
  1.325169e+00    1.384179e+00   1.863496e-02
  1.327379e+00    1.381738e+00   1.859646e-02
  1.329589e+00    1.376710e+00   1.854131e-02
  1.331800e+00    1.387208e+00   1.859089e-02
  1.334010e+00    1.383063e+00   1.854220e-02
  1.336221e+00    1.378070e+00   1.848671e-02
  1.338431e+00    1.370781e+00   1.841675e-02
  1.340642e+00    1.344055e+00   1.830034e-02
  1.342852e+00    1.337333e+00   1.835472e-02
  1.345063e+00    1.334722e+00   1.838599e-02
  1.347273e+00    1.372916e+00   1.868274e-02
  1.349484e+00    1.338440e+00   1.847424e-02
  1.351694e+00    1.330758e+00   1.844369e-02
  1.353905e+00    1.333391e+00   1.847980e-02
  1.356115e+00    1.353571e+00   1.863419e-02
  1.358325e+00    1.340124e+00   1.855467e-02
  1.360536e+00    1.319435e+00   1.842238e-02
  1.362746e+00    1.316852e+00   1.841377e-02
  1.364957e+00    1.325531e+00   1.848196e-02
  1.367167e+00    1.335971e+00   1.856172e-02
  1.369378e+00    1.325082e+00   1.849189e-02
  1.371588e+00    1.339455e+00   1.859704e-02
  1.373799e+00    1.318727e+00   1.845623e-02
  1.376009e+00    1.322733e+00   1.848761e-02
  1.378220e+00    1.295695e+00   1.830018e-02
  1.380430e+00    1.317895e+00   1.845898e-02
  1.382640e+00    1.306052e+00   1.837676e-02
  1.384851e+00    1.286014e+00   1.823610e-02
  1.387061e+00    1.302379e+00   1.835205e-02
  1.389272e+00    1.298678e+00   1.832617e-02
  1.391482e+00    1.307373e+00   1.838674e-02
  1.393693e+00    1.286888e+00   1.824125e-02
  1.395903e+00    1.286382e+00   1.823616e-02
  1.398114e+00    1.294870e+00   1.829484e-02
  1.400324e+00    1.298186e+00   1.831612e-02
  1.402535e+00    1.262248e+00   1.805850e-02
  1.404745e+00    1.260780e+00   1.804565e-02
  1.406955e+00    1.284911e+00   1.821480e-02
  1.409166e+00    1.281052e+00   1.818414e-02
  1.411376e+00    1.264603e+00   1.806389e-02
  1.413587e+00    1.286422e+00   1.821522e-02
  1.415797e+00    1.271840e+00   1.810817e-02
  1.418008e+00    1.238308e+00   1.782651e-02
  1.420218e+00    1.264262e+00   1.786296e-02
  1.422429e+00    1.257376e+00   1.772935e-02
  1.424639e+00    1.266799e+00   1.773105e-02
  1.426850e+00    1.280128e+00   1.776918e-02
  1.429060e+00    1.268013e+00   1.763596e-02
  1.431270e+00    1.274268e+00   1.763498e-02
  1.433481e+00    1.308304e+00   1.782742e-02
  1.435691e+00    1.273458e+00   1.754992e-02
  1.437902e+00    1.279889e+00   1.755756e-02
  1.440112e+00    1.265495e+00   1.742328e-02
  1.442323e+00    1.274942e+00   1.745508e-02
  1.444533e+00    1.249351e+00   1.724673e-02
  1.446744e+00    1.279744e+00   1.742398e-02
  1.448954e+00    1.262200e+00   1.727407e-02
  1.451165e+00    1.274136e+00   1.732572e-02
  1.453375e+00    1.286983e+00   1.738463e-02
  1.455586e+00    1.288374e+00   1.736564e-02
  1.457796e+00    1.288886e+00   1.734140e-02
  1.460006e+00    1.267689e+00   1.717096e-02
  1.462217e+00    1.277645e+00   1.721198e-02
  1.464427e+00    1.252142e+00   1.701389e-02
  1.466638e+00    1.271749e+00   1.712121e-02
  1.468848e+00    1.276546e+00   1.712808e-02
  1.471059e+00    1.261225e+00   1.699997e-02
  1.473269e+00    1.270761e+00   1.703972e-02
  1.475480e+00    1.286295e+00   1.711964e-02
  1.477690e+00    1.251091e+00   1.686006e-02
  1.479901e+00    1.284210e+00   1.705775e-02
  1.482111e+00    1.270087e+00   1.694039e-02
  1.484321e+00    1.263338e+00   1.687220e-02
  1.486532e+00    1.288545e+00   1.701719e-02
  1.488742e+00    1.255899e+00   1.677766e-02
  1.490953e+00    1.253355e+00   1.673815e-02
  1.493163e+00    1.276125e+00   1.686711e-02
  1.495374e+00    1.258084e+00   1.672603e-02
  1.497584e+00    1.245292e+00   1.661924e-02
  1.499795e+00    1.289909e+00   1.689245e-02
  1.502005e+00    1.262225e+00   1.668852e-02
  1.504216e+00    1.231538e+00   1.646358e-02
  1.506426e+00    1.243823e+00   1.652480e-02
  1.508636e+00    1.255538e+00   1.658199e-02
  1.510847e+00    1.249232e+00   1.651857e-02
  1.513057e+00    1.241104e+00   1.643977e-02
  1.515268e+00    1.247328e+00   1.645532e-02
  1.517478e+00    1.249033e+00   1.644146e-02
  1.519689e+00    1.236477e+00   1.633383e-02
  1.521899e+00    1.251975e+00   1.641277e-02
  1.524110e+00    1.256624e+00   1.642287e-02
  1.526320e+00    1.258010e+00   1.641227e-02
  1.528531e+00    1.273213e+00   1.649122e-02
  1.530741e+00    1.262504e+00   1.640249e-02
  1.532951e+00    1.234836e+00   1.620228e-02
  1.535162e+00    1.253047e+00   1.640804e-02
  1.537372e+00    1.239175e+00   1.638360e-02
  1.539583e+00    1.245077e+00   1.645676e-02
  1.541793e+00    1.225996e+00   1.633706e-02
  1.544004e+00    1.230305e+00   1.636600e-02
  1.546214e+00    1.235216e+00   1.639713e-02
  1.548425e+00    1.243948e+00   1.645525e-02
  1.550635e+00    1.248209e+00   1.649310e-02
  1.552846e+00    1.221824e+00   1.632742e-02
  1.555056e+00    1.234433e+00   1.637014e-02
  1.557266e+00    1.221493e+00   1.617469e-02
  1.559477e+00    1.187524e+00   1.589045e-02
  1.561687e+00    1.234754e+00   1.617280e-02
  1.563898e+00    1.228768e+00   1.611652e-02
  1.566108e+00    1.241837e+00   1.618604e-02
  1.568319e+00    1.239714e+00   1.615663e-02
  1.570529e+00    1.218802e+00   1.599489e-02
  1.572740e+00    1.229376e+00   1.603667e-02
  1.574950e+00    1.248794e+00   1.613648e-02
  1.577161e+00    1.231245e+00   1.599735e-02
  1.579371e+00    1.246225e+00   1.607070e-02
  1.581582e+00    1.238255e+00   1.599950e-02
  1.583792e+00    1.238570e+00   1.598356e-02
  1.586002e+00    1.255309e+00   1.607351e-02
  1.588213e+00    1.234088e+00   1.591990e-02
  1.590423e+00    1.234356e+00   1.590164e-02
  1.592634e+00    1.238158e+00   1.590453e-02
  1.594844e+00    1.226525e+00   1.580838e-02
  1.597055e+00    1.228323e+00   1.579960e-02
  1.599265e+00    1.262618e+00   1.599773e-02
  1.601476e+00    1.267965e+00   1.601107e-02
  1.603686e+00    1.247888e+00   1.586396e-02
  1.605897e+00    1.261226e+00   1.592818e-02
  1.608107e+00    1.238918e+00   1.576713e-02
  1.610317e+00    1.223299e+00   1.564820e-02
  1.612528e+00    1.249352e+00   1.579468e-02
  1.614738e+00    1.255417e+00   1.581383e-02
  1.616949e+00    1.273476e+00   1.590783e-02
  1.619159e+00    1.232571e+00   1.563150e-02
  1.621370e+00    1.193457e+00   1.536320e-02
  1.623580e+00    1.195861e+00   1.536045e-02
  1.625791e+00    1.187918e+00   1.529127e-02
  1.628001e+00    1.181499e+00   1.523178e-02
  1.630212e+00    1.208834e+00   1.538910e-02
  1.632422e+00    1.200780e+00   1.531977e-02
  1.634632e+00    1.178145e+00   1.515739e-02
  1.636843e+00    1.198727e+00   1.527151e-02
  1.639053e+00    1.186445e+00   1.517572e-02
  1.641264e+00    1.158167e+00   1.497677e-02
  1.643474e+00    1.170225e+00   1.503705e-02
  1.645685e+00    1.179520e+00   1.507985e-02
  1.647895e+00    1.169201e+00   1.499705e-02
  1.650106e+00    1.175407e+00   1.501963e-02
  1.652316e+00    1.146555e+00   1.481766e-02
  1.654527e+00    1.148190e+00   1.481152e-02
  1.656737e+00    1.121230e+00   1.462014e-02
  1.658947e+00    1.124665e+00   1.462629e-02
  1.661158e+00    1.106889e+00   1.449412e-02
  1.663368e+00    1.120074e+00   1.456418e-02
  1.665579e+00    1.119801e+00   1.454625e-02
  1.667789e+00    1.131198e+00   1.460373e-02
  1.670000e+00    1.139725e+00   1.464303e-02
  1.672210e+00    1.103363e+00   1.439170e-02
  1.674421e+00    1.105526e+00   1.439045e-02
  1.676631e+00    1.125479e+00   1.450371e-02
  1.678842e+00    1.100947e+00   1.432898e-02
  1.681052e+00    1.118524e+00   1.442733e-02
  1.683263e+00    1.115988e+00   1.439568e-02
  1.685473e+00    1.092499e+00   1.422817e-02
  1.687683e+00    1.121827e+00   1.440216e-02
  1.689894e+00    1.121145e+00   1.438175e-02
  1.692104e+00    1.103083e+00   1.425033e-02
  1.694315e+00    1.098033e+00   1.420297e-02
  1.696525e+00    1.086802e+00   1.411490e-02
  1.698736e+00    1.085610e+00   1.409218e-02
  1.700946e+00    1.077857e+00   1.402652e-02
  1.703157e+00    1.078207e+00   1.401398e-02
  1.705367e+00    1.112435e+00   1.421981e-02
  1.707578e+00    1.093670e+00   1.408449e-02
  1.709788e+00    1.059008e+00   1.384529e-02
  1.711998e+00    1.063325e+00   1.385831e-02
  1.714209e+00    1.080592e+00   1.395567e-02
  1.716419e+00    1.095345e+00   1.403593e-02
  1.718630e+00    1.039053e+00   1.365619e-02
  1.720840e+00    1.010954e+00   1.345618e-02
  1.723051e+00    1.013203e+00   1.345737e-02
  1.725261e+00    1.006931e+00   1.340107e-02
  1.727472e+00    1.011394e+00   1.341661e-02
  1.729682e+00    1.014712e+00   1.342516e-02
  1.731893e+00    1.009884e+00   1.337928e-02
  1.734103e+00    9.874419e-01   1.321615e-02
  1.736313e+00    9.711387e-01   1.309281e-02
  1.738524e+00    9.758241e-01   1.311071e-02
  1.740734e+00    9.695665e-01   1.305513e-02
  1.742945e+00    9.546639e-01   1.294123e-02
  1.745155e+00    9.685046e-01   1.302142e-02
  1.747366e+00    9.863253e-01   1.312687e-02
  1.749576e+00    9.771410e-01   1.305202e-02
  1.751787e+00    9.437367e-01   1.281389e-02
  1.753997e+00    9.477065e-01   1.282766e-02
  1.756208e+00    9.714770e-01   1.297434e-02
  1.758418e+00    9.726380e-01   1.296899e-02
  1.760628e+00    9.343124e-01   1.269781e-02
  1.762839e+00    9.354625e-01   1.269258e-02
  1.765049e+00    9.570031e-01   1.282482e-02
  1.767260e+00    9.409158e-01   1.270388e-02
  1.769470e+00    9.397276e-01   1.268298e-02
  1.771681e+00    9.460152e-01   1.271224e-02
  1.773891e+00    9.267603e-01   1.256933e-02
  1.776102e+00    9.486210e-01   1.270380e-02
  1.778312e+00    9.512337e-01   1.270853e-02
  1.780523e+00    9.422084e-01   1.263534e-02
  1.782733e+00    9.690161e-01   1.280096e-02
  1.784944e+00    9.404290e-01   1.259781e-02
  1.787154e+00    9.462498e-01   1.262411e-02
  1.789364e+00    9.346498e-01   1.253397e-02
  1.791575e+00    9.621664e-01   1.270436e-02
  1.793785e+00    9.727691e-01   1.276144e-02
  1.795996e+00    9.809495e-01   1.280207e-02
  1.798206e+00    9.583734e-01   1.264110e-02
  1.800417e+00    9.610581e-01   1.264582e-02
  1.802627e+00    9.352750e-01   1.246298e-02
  1.804838e+00    9.175115e-01   1.233188e-02
  1.807048e+00    9.161170e-01   1.230964e-02
  1.809259e+00    9.099180e-01   1.225430e-02
  1.811469e+00    9.057365e-01   1.221113e-02
  1.813679e+00    9.052599e-01   1.219292e-02
  1.815890e+00    8.949087e-01   1.210827e-02
  1.818100e+00    8.991981e-01   1.212215e-02
  1.820311e+00    8.740415e-01   1.193676e-02
  1.822521e+00    8.660255e-01   1.186726e-02
  1.824732e+00    8.784420e-01   1.193729e-02
  1.826942e+00    8.860043e-01   1.197626e-02
  1.829153e+00    8.762189e-01   1.189831e-02
  1.831363e+00    8.687119e-01   1.183530e-02
  1.833574e+00    8.744787e-01   1.186287e-02
  1.835784e+00    8.696501e-01   1.181874e-02
  1.837994e+00    8.512519e-01   1.168150e-02
  1.840205e+00    8.597671e-01   1.172870e-02
  1.842415e+00    8.568880e-01   1.169738e-02
  1.844626e+00    8.576354e-01   1.169102e-02
  1.846836e+00    8.560054e-01   1.166854e-02
  1.849047e+00    8.494581e-01   1.161235e-02
  1.851257e+00    8.462145e-01   1.158067e-02
  1.853468e+00    8.656493e-01   1.170408e-02
  1.855678e+00    8.645076e-01   1.168747e-02
  1.857889e+00    8.466998e-01   1.155803e-02
  1.860099e+00    8.302545e-01   1.143674e-02
  1.862309e+00    8.301463e-01   1.142760e-02
  1.864520e+00    8.404332e-01   1.148971e-02
  1.866730e+00    8.470916e-01   1.152577e-02
  1.868941e+00    8.324872e-01   1.141519e-02
  1.871151e+00    8.343250e-01   1.141650e-02
  1.873362e+00    8.495809e-01   1.150906e-02
  1.875572e+00    8.324049e-01   1.138131e-02
  1.877783e+00    8.386855e-01   1.141279e-02
  1.879993e+00    8.406923e-01   1.141533e-02
  1.882204e+00    8.287796e-01   1.132335e-02
  1.884414e+00    8.461453e-01   1.143029e-02
  1.886624e+00    8.390772e-01   1.137142e-02
  1.888835e+00    8.285886e-01   1.128922e-02
  1.891045e+00    8.400092e-01   1.135587e-02
  1.893256e+00    8.327667e-01   1.129578e-02
  1.895466e+00    8.330206e-01   1.128633e-02
  1.897677e+00    8.366870e-01   1.130024e-02
  1.899887e+00    8.139371e-01   1.113469e-02
  1.902098e+00    8.175437e-01   1.114858e-02
  1.904308e+00    8.130504e-01   1.110743e-02
  1.906519e+00    8.126041e-01   1.109367e-02
  1.908729e+00    8.116764e-01   1.107683e-02
  1.910940e+00    8.127716e-01   1.107328e-02
  1.913150e+00    8.249512e-01   1.114534e-02
  1.915360e+00    8.223504e-01   1.111718e-02
  1.917571e+00    8.260209e-01   1.113103e-02
  1.919781e+00    8.315393e-01   1.115744e-02
  1.921992e+00    8.129068e-01   1.102114e-02
  1.924202e+00    7.961959e-01   1.089665e-02
  1.926413e+00    8.176553e-01   1.103220e-02
  1.928623e+00    8.109764e-01   1.097655e-02
  1.930834e+00    7.964717e-01   1.086761e-02
  1.933044e+00    7.906298e-01   1.081715e-02
  1.935255e+00    7.991133e-01   1.086478e-02
  1.937465e+00    7.843725e-01   1.075385e-02
  1.939675e+00    7.935175e-01   1.080561e-02
  1.941886e+00    7.910037e-01   1.077828e-02
  1.944096e+00    8.060316e-01   1.086998e-02
  1.946307e+00    8.102212e-01   1.088782e-02
  1.948517e+00    8.035545e-01   1.083245e-02
  1.950728e+00    8.075715e-01   1.084919e-02
  1.952938e+00    7.880858e-01   1.070749e-02
  1.955149e+00    7.800311e-01   1.064248e-02
  1.957359e+00    7.977627e-01   1.075272e-02
  1.959570e+00    7.695124e-01   1.054993e-02
  1.961780e+00    7.679833e-01   1.052968e-02
  1.963990e+00    7.786472e-01   1.059249e-02
  1.966201e+00    7.846050e-01   1.062292e-02
  1.968411e+00    7.898149e-01   1.064798e-02
  1.970622e+00    7.923405e-01   1.065487e-02
  1.972832e+00    7.851120e-01   1.059619e-02
  1.975043e+00    7.960463e-01   1.065963e-02
  1.977253e+00    7.838680e-01   1.056783e-02
  1.979464e+00    8.153709e-01   1.076785e-02
  1.981674e+00    8.327306e-01   1.087129e-02
  1.983885e+00    8.207552e-01   1.078258e-02
  1.986095e+00    7.914551e-01   1.057861e-02
  1.988305e+00    7.684729e-01   1.041405e-02
  1.990516e+00    7.904809e-01   1.055211e-02
  1.992726e+00    7.954582e-01   1.057552e-02
  1.994937e+00    7.964653e-01   1.057195e-02
  1.997147e+00    7.969058e-01   1.056501e-02
  1.999358e+00    7.947580e-01   1.054079e-02
  2.001568e+00    7.851747e-01   1.046615e-02
  2.003779e+00    7.823875e-01   1.043556e-02
  2.005989e+00    8.084831e-01   1.059585e-02
  2.008200e+00    8.084598e-01   1.058393e-02
  2.010410e+00    7.825659e-01   1.040117e-02
  2.012621e+00    7.958837e-01   1.047740e-02
  2.014831e+00    7.778721e-01   1.034663e-02
  2.017041e+00    7.568001e-01   1.019521e-02
  2.019252e+00    7.693750e-01   1.026955e-02
  2.021462e+00    7.933710e-01   1.041881e-02
  2.023673e+00    7.760675e-01   1.029510e-02
  2.025883e+00    8.061441e-01   1.048290e-02
  2.028094e+00    7.976850e-01   1.041792e-02
  2.030304e+00    7.823781e-01   1.030780e-02
  2.032515e+00    7.815950e-01   1.029322e-02
  2.034725e+00    7.710279e-01   1.021389e-02
  2.036936e+00    7.680451e-01   1.018471e-02
  2.039146e+00    7.637959e-01   1.014689e-02
  2.041356e+00    7.626287e-01   1.012945e-02
  2.043567e+00    7.590792e-01   1.009652e-02
  2.045777e+00    7.661313e-01   1.013399e-02
  2.047988e+00    7.524363e-01   1.003367e-02
  2.050198e+00    7.446373e-01   9.973144e-03
  2.052409e+00    7.390777e-01   9.928248e-03
  2.054619e+00    7.513071e-01   1.000269e-02
  2.056830e+00    7.589210e-01   1.004603e-02
  2.059040e+00    7.472939e-01   9.961288e-03
  2.061251e+00    7.547992e-01   1.000391e-02
  2.063461e+00    7.552251e-01   9.999109e-03
  2.065671e+00    7.525420e-01   9.972573e-03
  2.067882e+00    7.635179e-01   1.003596e-02
  2.070092e+00    7.636607e-01   1.002761e-02
  2.072303e+00    7.506642e-01   9.932740e-03
  2.074513e+00    7.691082e-01   1.004454e-02
  2.076724e+00    7.745152e-01   1.007016e-02
  2.078934e+00    7.529476e-01   9.919896e-03
  2.081145e+00    7.271000e-01   9.739167e-03
  2.083355e+00    7.375868e-01   9.799965e-03
  2.085566e+00    7.640109e-01   9.964937e-03
  2.087776e+00    7.635696e-01   9.952395e-03
  2.089986e+00    7.707251e-01   9.989952e-03
  2.092197e+00    7.775601e-01   1.002494e-02
  2.094407e+00    7.848208e-01   1.006212e-02
  2.096618e+00    7.735612e-01   9.980557e-03
  2.098828e+00    7.287403e-01   9.677854e-03
  2.101039e+00    7.284794e-01   9.667122e-03
  2.103249e+00    7.328163e-01   9.687199e-03
  2.105460e+00    7.345548e-01   9.689641e-03
  2.107670e+00    7.216877e-01   9.595696e-03
  2.109881e+00    7.151239e-01   9.542881e-03
  2.112091e+00    7.148237e-01   9.531952e-03
  2.114301e+00    7.192363e-01   9.552580e-03
  2.116512e+00    7.256834e-01   9.586482e-03
  2.118722e+00    7.205712e-01   9.543865e-03
  2.120933e+00    6.996035e-01   9.395229e-03
  2.123143e+00    7.202554e-01   9.523973e-03
  2.125354e+00    7.244363e-01   9.543008e-03
  2.127564e+00    7.238171e-01   9.530166e-03
  2.129775e+00    7.160547e-01   9.470182e-03
  2.131985e+00    7.226175e-01   9.504382e-03
  2.134196e+00    7.166204e-01   9.456241e-03
  2.136406e+00    7.132208e-01   9.425053e-03
  2.138617e+00    7.119403e-01   9.408106e-03
  2.140827e+00    7.076434e-01   9.395729e-03
  2.143037e+00    7.169251e-01   9.502918e-03
  2.145248e+00    7.050891e-01   9.446169e-03
  2.147458e+00    6.848420e-01   9.324469e-03
  2.149669e+00    6.922561e-01   9.386553e-03
  2.151879e+00    6.982556e-01   9.436352e-03
  2.154090e+00    6.951307e-01   9.422486e-03
  2.156300e+00    7.069063e-01   9.508592e-03
  2.158511e+00    7.056270e-01   9.505332e-03
  2.160721e+00    6.743116e-01   9.296751e-03
  2.162932e+00    6.763073e-01   9.314155e-03
  2.165142e+00    6.979241e-01   9.464866e-03
  2.167352e+00    6.937688e-01   9.439566e-03
  2.169563e+00    6.943509e-01   9.445481e-03
  2.171773e+00    6.764601e-01   9.325417e-03
  2.173984e+00    6.744320e-01   9.312807e-03
  2.176194e+00    6.826382e-01   9.370496e-03
  2.178405e+00    6.733968e-01   9.307534e-03
  2.180615e+00    6.776131e-01   9.337303e-03
  2.182826e+00    6.679500e-01   9.271150e-03
  2.185036e+00    6.801738e-01   9.355638e-03
  2.187247e+00    7.013665e-01   9.500249e-03
  2.189457e+00    6.828287e-01   9.373425e-03
  2.191667e+00    7.119249e-01   9.570879e-03
  2.193878e+00    6.886134e-01   9.412332e-03
  2.196088e+00    6.738793e-01   9.310396e-03
  2.198299e+00    6.592838e-01   9.207959e-03
  2.200509e+00    6.510459e-01   9.149200e-03
  2.202720e+00    6.811219e-01   9.356997e-03
  2.204930e+00    6.740799e-01   9.307271e-03
  2.207141e+00    6.929322e-01   9.435394e-03
  2.209351e+00    7.001957e-01   9.482826e-03
  2.211562e+00    6.720410e-01   9.288593e-03
  2.213772e+00    6.750787e-01   9.254160e-03
  2.215982e+00    6.801287e-01   9.244348e-03
  2.218193e+00    6.725193e-01   9.162939e-03
  2.220403e+00    6.728888e-01   9.140901e-03
  2.222614e+00    6.711106e-01   9.107906e-03
  2.224824e+00    6.777706e-01   9.133525e-03
  2.227035e+00    6.870389e-01   9.178161e-03
  2.229245e+00    6.818630e-01   9.126421e-03
  2.231456e+00    6.835557e-01   9.121983e-03
  2.233666e+00    6.703619e-01   9.018440e-03
  2.235877e+00    6.756038e-01   9.039291e-03
  2.238087e+00    6.737389e-01   9.013307e-03
  2.240298e+00    6.629171e-01   8.926924e-03
  2.242508e+00    6.542858e-01   8.853646e-03
  2.244718e+00    6.609214e-01   8.882714e-03
  2.246929e+00    6.659354e-01   8.901939e-03
  2.249139e+00    6.506004e-01   8.786650e-03
  2.251350e+00    6.611433e-01   8.845866e-03
  2.253560e+00    6.686912e-01   8.884663e-03
  2.255771e+00    6.676800e-01   8.866488e-03
  2.257981e+00    6.782191e-01   8.924924e-03
  2.260192e+00    6.728742e-01   8.878510e-03
  2.262402e+00    6.544976e-01   8.745655e-03
  2.264613e+00    6.534621e-01   8.727981e-03
  2.266823e+00    6.591501e-01   8.755516e-03
  2.269033e+00    6.606594e-01   8.755174e-03
  2.271244e+00    6.513926e-01   8.683249e-03
  2.273454e+00    6.601555e-01   8.731202e-03
  2.275665e+00    6.670082e-01   8.766088e-03
  2.277875e+00    6.507322e-01   8.648603e-03
  2.280086e+00    6.515475e-01   8.644059e-03
  2.282296e+00    6.519928e-01   8.637635e-03
  2.284507e+00    6.629019e-01   8.699454e-03
  2.286717e+00    6.581210e-01   8.658549e-03
  2.288928e+00    6.668974e-01   8.706164e-03
  2.291138e+00    6.492863e-01   8.581063e-03
  2.293348e+00    6.569955e-01   8.622305e-03
  2.295559e+00    6.551027e-01   8.600569e-03
  2.297769e+00    6.333717e-01   8.447627e-03
  2.299980e+00    6.489137e-01   8.541322e-03
  2.302190e+00    6.640286e-01   8.631027e-03
  2.304401e+00    6.655944e-01   8.631808e-03
  2.306611e+00    6.486983e-01   8.512345e-03
  2.308822e+00    6.502053e-01   8.513853e-03
  2.311032e+00    6.569901e-01   8.551683e-03
  2.313243e+00    6.594444e-01   8.561301e-03
  2.315453e+00    6.648335e-01   8.588581e-03
  2.317663e+00    6.371269e-01   8.398647e-03
  2.319874e+00    6.317553e-01   8.354535e-03
  2.322084e+00    6.456366e-01   8.436851e-03
  2.324295e+00    6.552932e-01   8.491434e-03
  2.326505e+00    6.443213e-01   8.410997e-03
  2.328716e+00    6.403624e-01   8.376578e-03
  2.330926e+00    6.470585e-01   8.411436e-03
  2.333137e+00    6.580479e-01   8.474094e-03
  2.335347e+00    6.424358e-01   8.364102e-03
  2.337558e+00    6.310035e-01   8.281149e-03
  2.339768e+00    6.427077e-01   8.349017e-03
  2.341979e+00    6.456841e-01   8.359924e-03
  2.344189e+00    6.506423e-01   8.383474e-03
  2.346399e+00    6.466690e-01   8.349271e-03
  2.348610e+00    6.400374e-01   8.297865e-03
  2.350820e+00    6.320509e-01   8.237783e-03
  2.353031e+00    6.310436e-01   8.222922e-03
  2.355241e+00    6.474965e-01   8.321302e-03
  2.357452e+00    6.222413e-01   8.149058e-03
  2.359662e+00    6.181400e-01   8.114020e-03
  2.361873e+00    6.153042e-01   8.087239e-03
  2.364083e+00    6.230730e-01   8.130195e-03
  2.366294e+00    6.294875e-01   8.163810e-03
  2.368504e+00    6.142104e-01   8.056174e-03
  2.370714e+00    6.051446e-01   7.988528e-03
  2.372925e+00    6.200109e-01   8.078063e-03
  2.375135e+00    6.134031e-01   8.026914e-03
  2.377346e+00    6.246067e-01   8.091929e-03
  2.379556e+00    6.304965e-01   8.122050e-03
  2.381767e+00    6.159078e-01   8.019709e-03
  2.383977e+00    6.223473e-01   8.053584e-03
  2.386188e+00    6.113446e-01   7.974210e-03
  2.388398e+00    6.090925e-01   7.951604e-03
  2.390609e+00    6.086638e-01   7.941135e-03
  2.392819e+00    6.114125e-01   7.951318e-03
  2.395029e+00    6.042788e-01   7.897189e-03
  2.397240e+00    6.117982e-01   7.938324e-03
  2.399450e+00    5.977425e-01   7.838906e-03
  2.401661e+00    6.007124e-01   7.850740e-03
  2.403871e+00    6.099615e-01   7.903184e-03
  2.406082e+00    6.119511e-01   7.908646e-03
  2.408292e+00    6.001675e-01   7.824379e-03
  2.410503e+00    5.919647e-01   7.763349e-03
  2.412713e+00    5.934327e-01   7.765249e-03
  2.414924e+00    6.006697e-01   7.805014e-03
  2.417134e+00    6.022657e-01   7.807745e-03
  2.419344e+00    6.118947e-01   7.862458e-03
  2.421555e+00    6.094405e-01   7.839122e-03
  2.423765e+00    6.019129e-01   7.783144e-03
  2.425976e+00    6.072137e-01   7.809488e-03
  2.428186e+00    5.988805e-01   7.748494e-03
  2.430397e+00    5.928347e-01   7.701835e-03
  2.432607e+00    5.977572e-01   7.726450e-03
  2.434818e+00    5.750028e-01   7.570553e-03
  2.437028e+00    5.835180e-01   7.619316e-03
  2.439239e+00    6.042343e-01   7.745656e-03
  2.441449e+00    6.010247e-01   7.717823e-03
  2.443659e+00    5.941725e-01   7.666318e-03
  2.445870e+00    5.917645e-01   7.663055e-03
  2.448080e+00    5.838279e-01   7.646314e-03
  2.450291e+00    5.865691e-01   7.680979e-03
  2.452501e+00    5.866648e-01   7.692889e-03
  2.454712e+00    5.698944e-01   7.590530e-03
  2.456922e+00    5.605012e-01   7.534280e-03
  2.459133e+00    5.667416e-01   7.581520e-03
  2.461343e+00    5.728015e-01   7.626334e-03
  2.463554e+00    5.666649e-01   7.588842e-03
  2.465764e+00    5.652263e-01   7.582353e-03
  2.467975e+00    5.481763e-01   7.469377e-03
  2.470185e+00    5.428014e-01   7.434882e-03
  2.472395e+00    5.545748e-01   7.516303e-03
  2.474606e+00    5.413731e-01   7.427860e-03
  2.476816e+00    5.416502e-01   7.430470e-03
  2.479027e+00    5.521359e-01   7.502892e-03
  2.481237e+00    5.895655e-01   7.753309e-03
  2.483448e+00    6.645097e-01   8.231680e-03
  2.485658e+00    6.743712e-01   8.292467e-03
  2.487869e+00    5.800372e-01   7.690661e-03
  2.490079e+00    5.399542e-01   7.419647e-03
  2.492290e+00    5.353406e-01   7.387417e-03
  2.494500e+00    5.494770e-01   7.483594e-03
  2.496710e+00    5.377311e-01   7.402497e-03
  2.498921e+00    5.324169e-01   7.364805e-03
  2.501131e+00    5.261890e-01   7.320690e-03
  2.503342e+00    5.275976e-01   7.329191e-03
  2.505552e+00    5.409607e-01   7.420319e-03
  2.507763e+00    5.388765e-01   7.404563e-03
  2.509973e+00    5.350322e-01   7.376715e-03
  2.512184e+00    5.270156e-01   7.319632e-03
  2.514394e+00    5.176364e-01   7.244912e-03
  2.516605e+00    5.497834e-01   7.418390e-03
  2.518815e+00    5.413089e-01   7.332292e-03
  2.521025e+00    5.285306e-01   7.224191e-03
  2.523236e+00    5.304594e-01   7.219291e-03
  2.525446e+00    5.289856e-01   7.193603e-03
  2.527657e+00    5.218303e-01   7.130233e-03
  2.529867e+00    5.258075e-01   7.143155e-03
  2.532078e+00    5.215067e-01   7.098902e-03
  2.534288e+00    5.184583e-01   7.064316e-03
  2.536499e+00    5.374751e-01   7.180622e-03
  2.538709e+00    5.268844e-01   7.098515e-03
  2.540920e+00    5.131217e-01   6.994654e-03
  2.543130e+00    5.138558e-01   6.989392e-03
  2.545340e+00    5.134869e-01   6.976918e-03
  2.547551e+00    5.085164e-01   6.933259e-03
  2.549761e+00    5.132151e-01   6.955711e-03
  2.551972e+00    5.132584e-01   6.946753e-03
  2.554182e+00    5.161014e-01   6.956811e-03
  2.556393e+00    5.187852e-01   6.965807e-03
  2.558603e+00    5.275339e-01   7.015171e-03
  2.560814e+00    5.127665e-01   6.907652e-03
  2.563024e+00    5.116365e-01   6.891486e-03
  2.565235e+00    5.259371e-01   6.977586e-03
  2.567445e+00    5.309604e-01   7.001152e-03
  2.569656e+00    5.210519e-01   6.925764e-03
  2.571866e+00    5.207033e-01   6.914057e-03
  2.574076e+00    5.120816e-01   6.847350e-03
  2.576287e+00    5.097378e-01   6.823380e-03
  2.578497e+00    5.105851e-01   6.821257e-03
  2.580708e+00    4.959073e-01   6.714573e-03
  2.582918e+00    4.955088e-01   6.704236e-03
  2.585129e+00    5.114843e-01   6.803736e-03
  2.587339e+00    5.039650e-01   6.745941e-03
  2.589550e+00    5.061843e-01   6.753269e-03
  2.591760e+00    5.181144e-01   6.824604e-03
  2.593971e+00    5.098489e-01   6.762453e-03
  2.596181e+00    4.989643e-01   6.683720e-03
  2.598391e+00    5.006314e-01   6.689744e-03
  2.600602e+00    4.949987e-01   6.646170e-03
  2.602812e+00    5.124024e-01   6.754434e-03
  2.605023e+00    4.959084e-01   6.637781e-03
  2.607233e+00    5.043517e-01   6.686899e-03
  2.609444e+00    5.041398e-01   6.678320e-03
  2.611654e+00    5.062994e-01   6.685267e-03
  2.613865e+00    5.097586e-01   6.701025e-03
  2.616075e+00    5.000045e-01   6.629499e-03
  2.618286e+00    5.135208e-01   6.711454e-03
  2.620496e+00    4.989637e-01   6.608997e-03
  2.622706e+00    4.981140e-01   6.597654e-03
  2.624917e+00    4.999431e-01   6.603932e-03
  2.627127e+00    5.130381e-01   6.684068e-03
  2.629338e+00    5.130258e-01   6.677970e-03
  2.631548e+00    5.056400e-01   6.623540e-03
  2.633759e+00    4.927428e-01   6.531440e-03
  2.635969e+00    4.961588e-01   6.547392e-03
  2.638180e+00    4.893022e-01   6.495088e-03
  2.640390e+00    4.972210e-01   6.540868e-03
  2.642601e+00    4.853686e-01   6.455876e-03
  2.644811e+00    4.989855e-01   6.538737e-03
  2.647021e+00    5.055496e-01   6.574997e-03
  2.649232e+00    5.011773e-01   6.539804e-03
  2.651442e+00    4.913504e-01   6.468891e-03
  2.653653e+00    5.018523e-01   6.530854e-03
  2.655863e+00    4.981897e-01   6.500295e-03
  2.658074e+00    4.920881e-01   6.453798e-03
  2.660284e+00    5.050225e-01   6.531660e-03
  2.662495e+00    4.982689e-01   6.481083e-03
  2.664705e+00    4.997478e-01   6.484097e-03
  2.666916e+00    5.104913e-01   6.546874e-03
  2.669126e+00    4.960014e-01   6.446852e-03
  2.671337e+00    4.804325e-01   6.338354e-03
  2.673547e+00    4.954090e-01   6.430033e-03
  2.675757e+00    4.875267e-01   6.372262e-03
  2.677968e+00    4.960419e-01   6.421129e-03
  2.680178e+00    4.920388e-01   6.388779e-03
  2.682389e+00    4.867318e-01   6.347887e-03
  2.684599e+00    4.993341e-01   6.423317e-03
  2.686810e+00    4.868827e-01   6.336140e-03
  2.689020e+00    4.999139e-01   6.414040e-03
  2.691231e+00    4.956393e-01   6.380235e-03
  2.693441e+00    4.949059e-01   6.369345e-03
  2.695652e+00    4.922045e-01   6.345404e-03
  2.697862e+00    4.858637e-01   6.298081e-03
  2.700072e+00    4.921196e-01   6.332412e-03
  2.702283e+00    4.790351e-01   6.241503e-03
  2.704493e+00    4.916619e-01   6.316922e-03
  2.706704e+00    4.913200e-01   6.308299e-03
  2.708914e+00    4.929600e-01   6.312827e-03
  2.711125e+00    4.956625e-01   6.323807e-03
  2.713335e+00    4.925919e-01   6.298076e-03
  2.715546e+00    5.012745e-01   6.346766e-03
  2.717756e+00    5.029463e-01   6.351378e-03
  2.719967e+00    4.938263e-01   6.287252e-03
  2.722177e+00    5.050569e-01   6.352108e-03
  2.724387e+00    4.870963e-01   6.232026e-03
  2.726598e+00    4.784386e-01   6.170369e-03
  2.728808e+00    4.719019e-01   6.122016e-03
  2.731019e+00    4.697867e-01   6.102247e-03
  2.733229e+00    4.828568e-01   6.180744e-03
  2.735440e+00    4.967445e-01   6.262654e-03
  2.737650e+00    4.858041e-01   6.187279e-03
  2.739861e+00    5.012503e-01   6.278683e-03
  2.742071e+00    4.808459e-01   6.143861e-03
  2.744282e+00    4.689382e-01   6.061128e-03
  2.746492e+00    4.828623e-01   6.144409e-03
  2.748702e+00    4.762250e-01   6.096186e-03
  2.750913e+00    4.839048e-01   6.139315e-03
  2.753123e+00    4.818483e-01   6.120156e-03
  2.755334e+00    4.817219e-01   6.113268e-03
  2.757544e+00    4.786110e-01   6.087766e-03
  2.759755e+00    4.777771e-01   6.076594e-03
  2.761965e+00    4.744092e-01   6.049193e-03
  2.764176e+00    4.731658e-01   6.035314e-03
  2.766386e+00    4.878798e-01   6.122592e-03
  2.768597e+00    4.915524e-01   6.139670e-03
  2.770807e+00    4.756635e-01   6.033767e-03
  2.773017e+00    4.768886e-01   6.035572e-03
  2.775228e+00    4.868922e-01   6.092710e-03
  2.777438e+00    4.801550e-01   6.044609e-03
  2.779649e+00    4.872192e-01   6.082954e-03
  2.781859e+00    4.789392e-01   6.025270e-03
  2.784070e+00    4.798007e-01   6.024811e-03
  2.786280e+00    4.783336e-01   6.009827e-03
  2.788491e+00    4.763237e-01   5.991352e-03
  2.790701e+00    4.696906e-01   5.943880e-03
  2.792912e+00    4.689124e-01   5.933028e-03
  2.795122e+00    4.743836e-01   5.961833e-03
  2.797333e+00    4.640672e-01   5.891151e-03
  2.799543e+00    4.712276e-01   5.930588e-03
  2.801753e+00    4.747396e-01   5.946797e-03
  2.803964e+00    4.618162e-01   5.859711e-03
  2.806174e+00    4.750617e-01   5.937015e-03
  2.808385e+00    4.695904e-01   5.895959e-03
  2.810595e+00    4.759112e-01   5.928635e-03
  2.812806e+00    4.840215e-01   5.972262e-03
  2.815016e+00    4.737583e-01   5.903870e-03
  2.817227e+00    4.664491e-01   5.883859e-03
  2.819437e+00    4.687875e-01   5.909622e-03
  2.821648e+00    4.737155e-01   5.942880e-03
  2.823858e+00    4.750531e-01   5.956622e-03
  2.826068e+00    4.686974e-01   5.921605e-03
  2.828279e+00    4.494974e-01   5.802976e-03
  2.830489e+00    4.670050e-01   5.918221e-03
  2.832700e+00    4.757309e-01   5.975821e-03
  2.834910e+00    4.859257e-01   6.041623e-03
  2.837121e+00    4.860435e-01   6.044087e-03
  2.839331e+00    4.687628e-01   5.936904e-03
  2.841542e+00    4.608812e-01   5.887776e-03
  2.843752e+00    4.745695e-01   5.975357e-03
  2.845963e+00    4.823191e-01   6.024354e-03
  2.848173e+00    4.649927e-01   5.915255e-03
  2.850383e+00    4.589278e-01   5.876828e-03
  2.852594e+00    4.681036e-01   5.935209e-03
  2.854804e+00    4.724086e-01   5.961932e-03
  2.857015e+00    4.712720e-01   5.954324e-03
  2.859225e+00    4.799845e-01   6.008862e-03
  2.861436e+00    4.714648e-01   5.954634e-03
  2.863646e+00    4.682767e-01   5.934509e-03
  2.865857e+00    4.547457e-01   5.848474e-03
  2.868067e+00    4.586216e-01   5.873554e-03
  2.870278e+00    4.519112e-01   5.830097e-03
  2.872488e+00    4.597596e-01   5.879335e-03
  2.874698e+00    4.529378e-01   5.834522e-03
  2.876909e+00    4.551776e-01   5.847616e-03
  2.879119e+00    4.695950e-01   5.937879e-03
  2.881330e+00    4.461551e-01   5.786339e-03
  2.883540e+00    4.431412e-01   5.765398e-03
  2.885751e+00    4.582140e-01   5.860975e-03
  2.887961e+00    4.705139e-01   5.937237e-03
  2.890172e+00    4.533621e-01   5.826440e-03
  2.892382e+00    4.493687e-01   5.798907e-03
  2.894593e+00    4.700650e-01   5.929132e-03
  2.896803e+00    4.624567e-01   5.878952e-03
  2.899014e+00    4.583023e-01   5.850599e-03
  2.901224e+00    4.587668e-01   5.851560e-03
  2.903434e+00    4.606524e-01   5.861627e-03
  2.905645e+00    4.567634e-01   5.834633e-03
  2.907855e+00    4.455292e-01   5.760350e-03
  2.910066e+00    4.592766e-01   5.846455e-03
  2.912276e+00    4.651212e-01   5.881425e-03
  2.914487e+00    4.465389e-01   5.760314e-03
  2.916697e+00    4.592858e-01   5.839722e-03
  2.918908e+00    4.566751e-01   5.821099e-03
  2.921118e+00    4.659138e-01   5.876975e-03
  2.923329e+00    4.552391e-01   5.806943e-03
  2.925539e+00    4.602902e-01   5.836790e-03
  2.927749e+00    4.560123e-01   5.807279e-03
  2.929960e+00    4.596862e-01   5.827872e-03
  2.932170e+00    4.547071e-01   5.793870e-03
  2.934381e+00    4.705475e-01   5.891463e-03
  2.936591e+00    4.536829e-01   5.782355e-03
  2.938802e+00    4.577495e-01   5.805491e-03
  2.941012e+00    4.528867e-01   5.772249e-03
  2.943223e+00    4.450561e-01   5.719458e-03
  2.945433e+00    4.590215e-01   5.804755e-03
  2.947644e+00    4.600103e-01   5.806845e-03
  2.949854e+00    4.644446e-01   5.830457e-03
  2.952064e+00    4.605381e-01   5.801638e-03
  2.954275e+00    4.550547e-01   5.762591e-03
  2.956485e+00    4.627058e-01   5.806590e-03
  2.958696e+00    4.659438e-01   5.822472e-03
  2.960906e+00    4.535499e-01   5.740320e-03
  2.963117e+00    4.650056e-01   5.807834e-03
  2.965327e+00    4.645718e-01   5.801178e-03
  2.967538e+00    4.589435e-01   5.763005e-03
  2.969748e+00    4.603535e-01   5.769020e-03
  2.971959e+00    4.502327e-01   5.702125e-03
  2.974169e+00    4.602591e-01   5.762657e-03
  2.976379e+00    4.560810e-01   5.733534e-03
  2.978590e+00    4.578217e-01   5.741298e-03
  2.980800e+00    4.692924e-01   5.809944e-03
  2.983011e+00    4.625219e-01   5.765058e-03
  2.985221e+00    4.558135e-01   5.719947e-03
  2.987432e+00    4.470884e-01   5.661840e-03
  2.989642e+00    4.526499e-01   5.694319e-03
  2.991853e+00    4.477240e-01   5.660016e-03
  2.994063e+00    4.465629e-01   5.649764e-03
  2.996274e+00    4.508221e-01   5.673481e-03
  2.998484e+00    4.517437e-01   5.676563e-03
  3.000694e+00    4.640259e-01   5.749748e-03
  3.002905e+00    4.502147e-01   5.660607e-03
  3.005115e+00    4.491785e-01   5.651112e-03
  3.007326e+00    4.456497e-01   5.625747e-03
  3.009536e+00    4.564118e-01   5.689997e-03
  3.011747e+00    4.459852e-01   5.621753e-03
  3.013957e+00    4.505411e-01   5.647200e-03
  3.016168e+00    4.651181e-01   5.734541e-03
  3.018378e+00    4.507990e-01   5.642550e-03
  3.020589e+00    4.586189e-01   5.688032e-03
  3.022799e+00    4.607767e-01   5.698220e-03
  3.025010e+00    4.555542e-01   5.662588e-03
  3.027220e+00    4.484497e-01   5.615161e-03
  3.029430e+00    4.448023e-01   5.589048e-03
  3.031641e+00    4.480003e-01   5.605986e-03
  3.033851e+00    4.535992e-01   5.637389e-03
  3.036062e+00    4.564767e-01   5.652438e-03
  3.038272e+00    4.512692e-01   5.616527e-03
  3.040483e+00    4.705191e-01   5.731784e-03
  3.042693e+00    4.444633e-01   5.567599e-03
  3.044904e+00    4.492449e-01   5.593424e-03
  3.047114e+00    4.470886e-01   5.575224e-03
  3.049325e+00    4.432892e-01   5.547111e-03
  3.051535e+00    4.437670e-01   5.545742e-03
  3.053745e+00    4.413162e-01   5.525706e-03
  3.055956e+00    4.477423e-01   5.561236e-03
  3.058166e+00    4.443579e-01   5.535947e-03
  3.060377e+00    4.391161e-01   5.498485e-03
  3.062587e+00    4.554081e-01   5.594881e-03
  3.064798e+00    4.558067e-01   5.593081e-03
  3.067008e+00    4.556600e-01   5.587390e-03
  3.069219e+00    4.599634e-01   5.609170e-03
  3.071429e+00    4.570737e-01   5.587976e-03
  3.073640e+00    4.490429e-01   5.535347e-03
  3.075850e+00    4.406674e-01   5.479924e-03
  3.078060e+00    4.495783e-01   5.531938e-03
  3.080271e+00    4.691017e-01   5.647230e-03
  3.082481e+00    4.487464e-01   5.519919e-03
  3.084692e+00    4.465194e-01   5.502814e-03
  3.086902e+00    4.516133e-01   5.530862e-03
  3.089113e+00    4.535747e-01   5.539267e-03
  3.091323e+00    4.513947e-01   5.522549e-03
  3.093534e+00    4.550062e-01   5.541202e-03
  3.095744e+00    4.534774e-01   5.528478e-03
  3.097955e+00    4.510376e-01   5.510055e-03
  3.100165e+00    4.292544e-01   5.372058e-03
  3.102375e+00    4.495353e-01   5.494070e-03
  3.104586e+00    4.596617e-01   5.552074e-03
  3.106796e+00    4.416806e-01   5.438894e-03
  3.109007e+00    4.448390e-01   5.455101e-03
  3.111217e+00    4.379617e-01   5.409108e-03
  3.113428e+00    4.395270e-01   5.415366e-03
  3.115638e+00    4.309603e-01   5.359161e-03
  3.117849e+00    4.393976e-01   5.407649e-03
  3.120059e+00    4.446866e-01   5.436658e-03
  3.122270e+00    4.457629e-01   5.439948e-03
  3.124480e+00    4.463359e-01   5.439768e-03
  3.126691e+00    4.449950e-01   5.428025e-03
  3.128901e+00    4.471876e-01   5.438254e-03
  3.131111e+00    4.457003e-01   5.425350e-03
  3.133322e+00    4.453898e-01   5.420023e-03
  3.135532e+00    4.423395e-01   5.398006e-03
  3.137743e+00    4.498241e-01   5.440015e-03
  3.139953e+00    4.378861e-01   5.363664e-03
  3.142164e+00    4.393239e-01   5.384441e-03
  3.144374e+00    4.332291e-01   5.375065e-03
  3.146585e+00    4.311465e-01   5.376505e-03
  3.148795e+00    4.297803e-01   5.378616e-03
  3.151006e+00    4.356498e-01   5.423678e-03
  3.153216e+00    4.371684e-01   5.440225e-03
  3.155426e+00    4.443232e-01   5.490912e-03
  3.157637e+00    4.349384e-01   5.438097e-03
  3.159847e+00    4.460326e-01   5.511920e-03
  3.162058e+00    4.314819e-01   5.425661e-03
  3.164268e+00    4.312517e-01   5.428228e-03
  3.166479e+00    4.463565e-01   5.526148e-03
  3.168689e+00    4.326592e-01   5.444054e-03
  3.170900e+00    4.379762e-01   5.480540e-03
  3.173110e+00    4.467683e-01   5.538209e-03
  3.175321e+00    4.385465e-01   5.489489e-03
  3.177531e+00    4.484862e-01   5.554131e-03
  3.179741e+00    4.314431e-01   5.449629e-03
  3.181952e+00    4.348652e-01   5.473313e-03
  3.184162e+00    4.288529e-01   5.437498e-03
  3.186373e+00    4.292643e-01   5.441702e-03
  3.188583e+00    4.253555e-01   5.418622e-03
  3.190794e+00    4.357407e-01   5.486137e-03
  3.193004e+00    4.414535e-01   5.523224e-03
  3.195215e+00    4.389470e-01   5.509027e-03
  3.197425e+00    4.455592e-01   5.551601e-03
  3.199636e+00    4.395229e-01   5.513089e-03
  3.201846e+00    4.352038e-01   5.485340e-03
  3.204056e+00    4.273346e-01   5.436391e-03
  3.206267e+00    4.306901e-01   5.458538e-03
  3.208477e+00    4.252388e-01   5.424799e-03
  3.210688e+00    4.339381e-01   5.480860e-03
  3.212898e+00    4.220921e-01   5.406096e-03
  3.215109e+00    4.241938e-01   5.420282e-03
  3.217319e+00    4.206365e-01   5.398138e-03
  3.219530e+00    4.229447e-01   5.413304e-03
  3.221740e+00    4.267354e-01   5.438094e-03
  3.223951e+00    4.164571e-01   5.372644e-03
  3.226161e+00    4.204246e-01   5.398372e-03
  3.228372e+00    4.251005e-01   5.428818e-03
  3.230582e+00    4.375548e-01   5.507925e-03
  3.232792e+00    4.355642e-01   5.495593e-03
  3.235003e+00    4.297664e-01   5.459171e-03
  3.237213e+00    4.287714e-01   5.452927e-03
  3.239424e+00    4.244652e-01   5.425480e-03
  3.241634e+00    4.272391e-01   5.443306e-03
  3.243845e+00    4.313552e-01   5.469520e-03
  3.246055e+00    4.353930e-01   5.494807e-03
  3.248266e+00    4.396489e-01   5.521787e-03
  3.250476e+00    4.265282e-01   5.438479e-03
  3.252687e+00    4.338378e-01   5.484776e-03
  3.254897e+00    4.324297e-01   5.475782e-03
  3.257107e+00    4.198288e-01   5.395074e-03
  3.259318e+00    4.268488e-01   5.439761e-03
  3.261528e+00    4.169444e-01   5.376157e-03
  3.263739e+00    4.397127e-01   5.520404e-03
  3.265949e+00    4.284922e-01   5.449408e-03
  3.268160e+00    4.316803e-01   5.469225e-03
  3.270370e+00    4.332017e-01   5.478327e-03
  3.272581e+00    4.308285e-01   5.463037e-03
  3.274791e+00    4.307417e-01   5.461952e-03
  3.277002e+00    4.243776e-01   5.420887e-03
  3.279212e+00    4.144064e-01   5.356446e-03
  3.281422e+00    4.237689e-01   5.416036e-03
  3.283633e+00    4.379661e-01   5.505325e-03
  3.285843e+00    4.422985e-01   5.532139e-03
  3.288054e+00    4.271915e-01   5.435924e-03
  3.290264e+00    4.278685e-01   5.439896e-03
  3.292475e+00    4.247861e-01   5.419429e-03
  3.294685e+00    4.213341e-01   5.396738e-03
  3.296896e+00    4.144058e-01   5.351437e-03
  3.299106e+00    4.158517e-01   5.360209e-03
  3.301317e+00    4.156460e-01   5.357854e-03
  3.303527e+00    4.284605e-01   5.439352e-03
  3.305737e+00    4.281253e-01   5.436200e-03
  3.307948e+00    4.025339e-01   5.270551e-03
  3.310158e+00    4.276071e-01   5.431346e-03
  3.312369e+00    4.281984e-01   5.434236e-03
  3.314579e+00    4.216827e-01   5.391811e-03
  3.316790e+00    4.322765e-01   5.458413e-03
  3.319000e+00    4.331441e-01   5.462669e-03
  3.321211e+00    4.404380e-01   5.507872e-03
  3.323421e+00    4.379272e-01   5.490927e-03
  3.325632e+00    4.256540e-01   5.412529e-03
  3.327842e+00    4.241202e-01   5.401855e-03
  3.330052e+00    4.256082e-01   5.410265e-03
  3.332263e+00    4.042856e-01   5.271995e-03
  3.334473e+00    4.263210e-01   5.412823e-03
  3.336684e+00    4.327154e-01   5.452005e-03
  3.338894e+00    4.139130e-01   5.331418e-03
  3.341105e+00    4.139321e-01   5.330311e-03
  3.343315e+00    4.194652e-01   5.364703e-03
  3.345526e+00    4.145503e-01   5.332278e-03
  3.347736e+00    4.178008e-01   5.351744e-03
  3.349947e+00    4.190001e-01   5.358486e-03
  3.352157e+00    4.311567e-01   5.434468e-03
  3.354368e+00    4.337274e-01   5.449337e-03
  3.356578e+00    4.171174e-01   5.342953e-03
  3.358788e+00    4.154985e-01   5.331262e-03
  3.360999e+00    4.140592e-01   5.320761e-03
  3.363209e+00    4.144805e-01   5.322478e-03
  3.365420e+00    4.115961e-01   5.302398e-03
  3.367630e+00    4.152440e-01   5.324846e-03
  3.369841e+00    4.282924e-01   5.406398e-03
  3.372051e+00    4.185759e-01   5.342772e-03
  3.374262e+00    4.047095e-01   5.251101e-03
  3.376472e+00    4.165146e-01   5.324686e-03
  3.378683e+00    4.188993e-01   5.337413e-03
  3.380893e+00    4.161971e-01   5.317830e-03
  3.383103e+00    4.065334e-01   5.253056e-03
  3.385314e+00    4.024599e-01   5.224454e-03
  3.387524e+00    4.149429e-01   5.302144e-03
  3.389735e+00    4.042504e-01   5.230781e-03
  3.391945e+00    4.185561e-01   5.318831e-03
  3.394156e+00    4.016364e-01   5.206068e-03
  3.396366e+00    3.883393e-01   5.115837e-03
  3.398577e+00    4.146397e-01   5.283168e-03
  3.400787e+00    4.193048e-01   5.324869e-03
  3.402998e+00    4.054751e-01   5.274148e-03
  3.405208e+00    4.074915e-01   5.307986e-03
  3.407418e+00    3.866401e-01   5.185877e-03
  3.409629e+00    3.773767e-01   5.136922e-03
  3.411839e+00    3.938458e-01   5.259499e-03
  3.414050e+00    3.865534e-01   5.221437e-03
  3.416260e+00    3.837308e-01   5.211858e-03
  3.418471e+00    3.857910e-01   5.235129e-03
  3.420681e+00    3.835982e-01   5.228647e-03
  3.422892e+00    3.825784e-01   5.229593e-03
  3.425102e+00    3.968821e-01   5.334370e-03
  3.427313e+00    3.619439e-01   5.101092e-03
  3.429523e+00    3.759755e-01   5.205983e-03
  3.431733e+00    3.648708e-01   5.135010e-03
  3.433944e+00    3.859753e-01   5.287923e-03
  3.436154e+00    3.686248e-01   5.173831e-03
  3.438365e+00    3.791713e-01   5.253200e-03
  3.440575e+00    3.835493e-01   5.289445e-03
  3.442786e+00    3.798116e-01   5.269197e-03
  3.444996e+00    3.762180e-01   5.249722e-03
  3.447207e+00    3.489994e-01   5.061349e-03
  3.449417e+00    3.441044e-01   5.064997e-03
  3.451628e+00    3.547422e-01   5.171559e-03
  3.453838e+00    3.711556e-01   5.311107e-03
  3.456049e+00    3.778706e-01   5.383212e-03
  3.458259e+00    3.659613e-01   5.319622e-03
  3.460469e+00    3.557083e-01   5.264060e-03
  3.462680e+00    3.602593e-01   5.316539e-03
  3.464890e+00    3.605725e-01   5.336485e-03
  3.467101e+00    3.689366e-01   5.415536e-03
  3.469311e+00    3.777207e-01   5.496326e-03
  3.471522e+00    3.994517e-01   5.669153e-03
  3.473732e+00    4.040292e-01   5.718029e-03
  3.475943e+00    4.028477e-01   5.725770e-03
  3.478153e+00    3.999088e-01   5.720538e-03
  3.480364e+00    4.015980e-01   5.747888e-03
  3.482574e+00    4.115016e-01   5.833832e-03
  3.484784e+00    4.099692e-01   5.837820e-03
  3.486995e+00    4.160281e-01   5.895880e-03
  3.489205e+00    4.125253e-01   5.885508e-03
  3.491416e+00    4.271578e-01   6.003889e-03
  3.493626e+00    4.538561e-01   6.203562e-03
  3.495837e+00    4.465055e-01   6.168005e-03
  3.498047e+00    4.520281e-01   6.220612e-03
  3.500258e+00    4.628972e-01   6.309741e-03
  3.502468e+00    4.789340e-01   6.432909e-03
  3.504679e+00    4.782009e-01   6.442741e-03
  3.506889e+00    4.781839e-01   6.457264e-03
  3.509099e+00    4.759758e-01   6.456761e-03
  3.511310e+00    4.887194e-01   6.557274e-03
  3.513520e+00    4.966560e-01   6.624936e-03
  3.515731e+00    4.963432e-01   6.637401e-03
  3.517941e+00    4.948767e-01   6.642017e-03
  3.520152e+00    5.179433e-01   6.809659e-03
  3.522362e+00    5.171674e-01   6.819316e-03
  3.524573e+00    5.078386e-01   6.771828e-03
  3.526783e+00    5.154476e-01   6.835781e-03
  3.528994e+00    5.236653e-01   6.902379e-03
  3.531204e+00    5.214996e-01   6.900538e-03
  3.533414e+00    5.415286e-01   7.044077e-03
  3.535625e+00    5.343364e-01   7.009602e-03
  3.537835e+00    5.317045e-01   7.004392e-03
  3.540046e+00    5.272243e-01   6.983710e-03
  3.542256e+00    5.328494e-01   7.028358e-03
  3.544467e+00    5.386605e-01   7.074217e-03
  3.546677e+00    5.584405e-01   7.210675e-03
  3.548888e+00    5.525455e-01   7.180141e-03
  3.551098e+00    5.443213e-01   7.133828e-03
  3.553309e+00    5.354754e-01   7.083795e-03
  3.555519e+00    5.424023e-01   7.140840e-03
  3.557729e+00    5.356715e-01   7.108111e-03
  3.559940e+00    5.350469e-01   7.115485e-03
  3.562150e+00    5.464056e-01   7.202453e-03
  3.564361e+00    5.403357e-01   7.175721e-03
  3.566571e+00    5.327594e-01   7.139008e-03
  3.568782e+00    5.477450e-01   7.252976e-03
  3.570992e+00    5.413685e-01   7.224489e-03
  3.573203e+00    5.386425e-01   7.220416e-03
  3.575413e+00    5.402366e-01   7.244973e-03
  3.577624e+00    5.484248e-01   7.313911e-03
  3.579834e+00    5.401787e-01   7.272677e-03
  3.582045e+00    5.417773e-01   7.297545e-03
  3.584255e+00    5.412360e-01   7.308010e-03
  3.586465e+00    5.290170e-01   7.238906e-03
  3.588676e+00    5.485625e-01   7.385711e-03
  3.590886e+00    5.643580e-01   7.505429e-03
  3.593097e+00    5.294690e-01   7.284141e-03
  3.595307e+00    5.359460e-01   7.342469e-03
  3.597518e+00    5.131152e-01   7.198303e-03
  3.599728e+00    5.273986e-01   7.311784e-03
  3.601939e+00    5.284601e-01   7.333096e-03
  3.604149e+00    5.429322e-01   7.447335e-03
  3.606360e+00    5.470445e-01   7.489782e-03
  3.608570e+00    5.623825e-01   7.608579e-03
  3.610780e+00    5.461640e-01   7.509274e-03
  3.612991e+00    5.458217e-01   7.516976e-03
  3.615201e+00    5.358425e-01   7.457792e-03
  3.617412e+00    5.531312e-01   7.584527e-03
  3.619622e+00    5.502200e-01   7.570603e-03
  3.621833e+00    5.302083e-01   7.438323e-03
  3.624043e+00    5.475122e-01   7.568335e-03
  3.626254e+00    5.579975e-01   7.650394e-03
  3.628464e+00    5.493916e-01   7.602308e-03
  3.630675e+00    5.293959e-01   7.476745e-03
  3.632885e+00    5.206366e-01   7.428881e-03
  3.635095e+00    5.391615e-01   7.574355e-03
  3.637306e+00    5.460871e-01   7.637385e-03
  3.639516e+00    5.294383e-01   7.534566e-03
  3.641727e+00    5.384384e-01   7.612935e-03
  3.643937e+00    5.341051e-01   7.596816e-03
  3.646148e+00    5.405992e-01   7.657585e-03
  3.648358e+00    5.382648e-01   7.655946e-03
  3.650569e+00    5.477974e-01   7.738387e-03
  3.652779e+00    5.347832e-01   7.660738e-03
  3.654990e+00    5.251237e-01   7.606003e-03
  3.657200e+00    5.431788e-01   7.750651e-03
  3.659410e+00    5.448802e-01   7.777995e-03
  3.661621e+00    5.398275e-01   7.757039e-03
  3.663831e+00    5.382408e-01   7.760858e-03
  3.666042e+00    5.459292e-01   7.831411e-03
  3.668252e+00    5.351992e-01   7.769436e-03
  3.670463e+00    5.309873e-01   7.753978e-03
  3.672673e+00    5.313340e-01   7.771977e-03
  3.674884e+00    5.315609e-01   7.788994e-03
  3.677094e+00    5.300280e-01   7.793307e-03
  3.679305e+00    5.561144e-01   7.998670e-03
  3.681515e+00    5.480197e-01   7.956160e-03
  3.683726e+00    5.467764e-01   7.963211e-03
  3.685936e+00    5.235138e-01   7.807552e-03
  3.688146e+00    5.335001e-01   7.897526e-03
  3.690357e+00    5.217546e-01   7.825988e-03
  3.692567e+00    5.102695e-01   7.755199e-03
  3.694778e+00    5.232037e-01   7.868906e-03
  3.696988e+00    5.240739e-01   7.891362e-03
  3.699199e+00    5.310186e-01   7.959820e-03
  3.701409e+00    5.329254e-01   7.990616e-03
  3.703620e+00    5.397174e-01   8.057880e-03
  3.705830e+00    5.306467e-01   8.006422e-03
  3.708041e+00    5.070831e-01   7.842947e-03
  3.710251e+00    5.342078e-01   8.066822e-03
  3.712461e+00    5.305167e-01   8.055802e-03
  3.714672e+00    5.273545e-01   8.048553e-03
  3.716882e+00    5.316139e-01   8.097932e-03
  3.719093e+00    5.036675e-01   7.899030e-03
  3.721303e+00    5.012327e-01   7.896575e-03
  3.723514e+00    5.053609e-01   7.946060e-03
  3.725724e+00    5.169250e-01   8.053597e-03
  3.727935e+00    5.212829e-01   8.104978e-03
  3.730145e+00    5.312579e-01   8.199713e-03
  3.732356e+00    5.185498e-01   8.118670e-03
  3.734566e+00    5.153359e-01   8.110985e-03
  3.736776e+00    5.050710e-01   8.047368e-03
  3.738987e+00    5.253814e-01   8.225510e-03
  3.741197e+00    5.005053e-01   8.046233e-03
  3.743408e+00    5.178692e-01   8.202704e-03
  3.745618e+00    5.190874e-01   8.230802e-03
  3.747829e+00    4.936567e-01   8.044402e-03
  3.750039e+00    5.208560e-01   8.281616e-03
  3.752250e+00    5.051388e-01   8.174018e-03
  3.754460e+00    5.045996e-01   8.188163e-03
  3.756671e+00    5.253758e-01   8.374025e-03
  3.758881e+00    5.442014e-01   8.542117e-03
  3.761091e+00    5.328653e-01   8.472252e-03
  3.763302e+00    4.953349e-01   8.187274e-03
  3.765512e+00    5.095156e-01   8.322932e-03
  3.767723e+00    5.129904e-01   8.370719e-03
  3.769933e+00    5.179557e-01   8.430697e-03
  3.772144e+00    4.950197e-01   8.261294e-03
  3.774354e+00    4.953991e-01   8.284079e-03
  3.776565e+00    5.117188e-01   8.439397e-03
  3.778775e+00    5.024499e-01   8.382579e-03
  3.780986e+00    5.155140e-01   8.511303e-03
  3.783196e+00    5.055659e-01   8.449126e-03
  3.785407e+00    5.015222e-01   8.435658e-03
  3.787617e+00    5.072387e-01   8.504422e-03
  3.789827e+00    5.096264e-01   8.545158e-03
  3.792038e+00    5.148365e-01   8.609726e-03
  3.794248e+00    5.272345e-01   8.734535e-03
  3.796459e+00    5.133590e-01   8.640441e-03
  3.798669e+00    5.152312e-01   8.677898e-03
  3.800880e+00    4.948670e-01   8.525972e-03
  3.803090e+00    4.885598e-01   8.493033e-03
  3.805301e+00    5.227713e-01   8.807909e-03
  3.807511e+00    5.252979e-01   8.851790e-03
  3.809722e+00    4.960884e-01   8.624273e-03
  3.811932e+00    5.131494e-01   8.793864e-03
  3.814142e+00    5.085419e-01   8.777338e-03
  3.816353e+00    5.261627e-01   8.951631e-03
  3.818563e+00    5.178590e-01   8.904216e-03
  3.820774e+00    5.056858e-01   8.822317e-03
  3.822984e+00    4.992623e-01   8.789449e-03
  3.825195e+00    5.071418e-01   8.882480e-03
  3.827405e+00    5.057287e-01   8.894233e-03
  3.829616e+00    5.052781e-01   8.914473e-03
  3.831826e+00    5.131930e-01   9.008575e-03
  3.834037e+00    4.938690e-01   8.861830e-03
  3.836247e+00    4.960367e-01   8.905835e-03
  3.838457e+00    5.020152e-01   8.984555e-03
  3.840668e+00    4.926805e-01   8.925731e-03
  3.842878e+00    4.737844e-01   8.777802e-03
  3.845089e+00    4.891827e-01   8.944743e-03
  3.847299e+00    4.799350e-01   8.885167e-03
  3.849510e+00    4.856679e-01   8.963658e-03
  3.851720e+00    4.996606e-01   9.113418e-03
  3.853931e+00    5.009939e-01   9.144634e-03
  3.856141e+00    5.250043e-01   9.380827e-03
  3.858352e+00    4.901886e-01   9.083643e-03
  3.860562e+00    4.854935e-01   9.059178e-03
  3.862772e+00    4.650956e-01   8.885783e-03
  3.864983e+00    4.927643e-01   9.165876e-03
  3.867193e+00    5.188960e-01   9.426133e-03
  3.869404e+00    5.003954e-01   9.276495e-03
  3.871614e+00    4.964090e-01   9.259525e-03
  3.873825e+00    4.955489e-01   9.271827e-03
  3.876035e+00    5.085487e-01   9.413580e-03
  3.878246e+00    5.077062e-01   9.431929e-03
  3.880456e+00    5.169479e-01   9.547109e-03
  3.882667e+00    4.887575e-01   9.312372e-03
  3.884877e+00    5.245563e-01   9.678094e-03
  3.887087e+00    5.274287e-01   9.735576e-03
  3.889298e+00    5.152623e-01   9.653763e-03
  3.891508e+00    5.091558e-01   9.627434e-03
  3.893719e+00    4.855362e-01   9.432381e-03
  3.895929e+00    4.906276e-01   9.513068e-03
  3.898140e+00    4.926723e-01   9.564678e-03
  3.900350e+00    4.882538e-01   9.553733e-03
  3.902561e+00    4.686297e-01   9.391394e-03
  3.904771e+00    4.956036e-01   9.690947e-03
  3.906982e+00    4.848942e-01   9.618587e-03
  3.909192e+00    5.099854e-01   9.898539e-03
  3.911403e+00    5.131184e-01   9.963805e-03
  3.913613e+00    4.721469e-01   9.591321e-03
  3.915823e+00    5.180631e-01   1.008275e-02
  3.918034e+00    4.753875e-01   9.693376e-03
  3.920244e+00    5.003610e-01   9.980865e-03
  3.922455e+00    4.803678e-01   9.815273e-03
  3.924665e+00    4.635567e-01   9.677423e-03
  3.926876e+00    5.079759e-01   1.016830e-02
  3.929086e+00    5.057182e-01   1.018381e-02
  3.931297e+00    4.717538e-01   9.870159e-03
  3.933507e+00    4.956959e-01   1.014657e-02
  3.935718e+00    4.886199e-01   1.010281e-02
  3.937928e+00    4.951190e-01   1.019938e-02
  3.940138e+00    4.875159e-01   1.015016e-02
  3.942349e+00    4.908342e-01   1.021455e-02
  3.944559e+00    5.086591e-01   1.042902e-02
  3.946770e+00    5.045061e-01   1.041719e-02
  3.948980e+00    4.634525e-01   1.001427e-02
  3.951191e+00    4.749962e-01   1.016866e-02
  3.953401e+00    4.937086e-01   1.039865e-02
  3.955612e+00    4.672768e-01   1.014757e-02
  3.957822e+00    4.765979e-01   1.027952e-02
  3.960033e+00    4.883437e-01   1.043814e-02
  3.962243e+00    4.916527e-01   1.050656e-02
  3.964453e+00    4.540270e-01   1.012851e-02
  3.966664e+00    4.601602e-01   1.022914e-02
  3.968874e+00    4.929370e-01   1.061583e-02
  3.971085e+00    5.106448e-01   1.082731e-02
  3.973295e+00    4.884239e-01   1.061068e-02
  3.975506e+00    5.018451e-01   1.077744e-02
  3.977716e+00    4.776146e-01   1.053589e-02
  3.979927e+00    4.797592e-01   1.058144e-02
  3.982137e+00    4.833219e-01   1.064294e-02
  3.984348e+00    4.748896e-01   1.057205e-02
  3.986558e+00    4.831779e-01   1.068607e-02
  3.988768e+00    4.422185e-01   1.024528e-02
  3.990979e+00    4.560084e-01   1.042560e-02
  3.993189e+00    4.968030e-01   1.090544e-02
  3.995400e+00    4.907321e-01   1.086219e-02
  3.997610e+00    4.779863e-01   1.074989e-02
  3.999821e+00    4.854986e-01   1.087149e-02
  4.002031e+00    4.874708e-01   1.093220e-02
  4.004242e+00    4.867662e-01   1.096270e-02
  4.006452e+00    4.692127e-01   1.080205e-02
  4.008663e+00    4.865974e-01   1.104034e-02
  4.010873e+00    4.882529e-01   1.109938e-02
  4.013084e+00    4.643717e-01   1.086451e-02
  4.015294e+00    4.880425e-01   1.117906e-02
  4.017504e+00    4.880571e-01   1.122136e-02
  4.019715e+00    4.767248e-01   1.113241e-02
  4.021925e+00    5.083909e-01   1.154023e-02
  4.024136e+00    5.022488e-01   1.151488e-02
  4.026346e+00    4.883829e-01   1.139916e-02
  4.028557e+00    4.768578e-01   1.130786e-02
  4.030767e+00    4.672155e-01   1.123769e-02
  4.032978e+00    4.870592e-01   1.152047e-02
  4.035188e+00    4.662555e-01   1.131694e-02
  4.037399e+00    4.934988e-01   1.169102e-02
  4.039609e+00    5.115046e-01   1.195147e-02
  4.041819e+00    4.971192e-01   1.183173e-02
  4.044030e+00    4.606552e-01   1.143818e-02
  4.046240e+00    4.796231e-01   1.172101e-02
  4.048451e+00    5.015507e-01   1.203772e-02
  4.050661e+00    5.115050e-01   1.220967e-02
  4.052872e+00    4.791230e-01   1.186954e-02
  4.055082e+00    4.666478e-01   1.176637e-02
  4.057293e+00    4.777020e-01   1.195860e-02
  4.059503e+00    4.575450e-01   1.175653e-02
  4.061714e+00    5.043580e-01   1.240133e-02
  4.063924e+00    4.797923e-01   1.215209e-02
  4.066134e+00    4.873695e-01   1.230539e-02
  4.068345e+00    4.754717e-01   1.221278e-02
  4.070555e+00    4.726177e-01   1.223483e-02
  4.072766e+00    4.740359e-01   1.231349e-02
  4.074976e+00    4.771802e-01   1.241580e-02
  4.077187e+00    4.917599e-01   1.266683e-02
  4.079397e+00    4.677628e-01   1.241690e-02
  4.081608e+00    4.633950e-01   1.242308e-02
  4.083818e+00    4.917441e-01   1.286397e-02
  4.086029e+00    5.022103e-01   1.306883e-02
  4.088239e+00    4.337414e-01   1.221074e-02
  4.090449e+00    4.386661e-01   1.234629e-02
  4.092660e+00    4.837591e-01   1.303670e-02
  4.094870e+00    4.683442e-01   1.289882e-02
  4.097081e+00    4.641575e-01   1.291121e-02
  4.099291e+00    4.433788e-01   1.267122e-02
  4.101502e+00    4.173684e-01   1.233979e-02
  4.103712e+00    4.373340e-01   1.267835e-02
  4.105923e+00    4.849383e-01   1.340244e-02
  4.108133e+00    4.947071e-01   1.358885e-02
  4.110344e+00    5.331544e-01   1.416111e-02
  4.112554e+00    4.860543e-01   1.357445e-02
  4.114764e+00    4.758716e-01   1.348566e-02
  4.116975e+00    4.960338e-01   1.382247e-02
  4.119185e+00    5.129089e-01   1.411279e-02
  4.121396e+00    4.523904e-01   1.330885e-02
  4.123606e+00    4.767193e-01   1.371794e-02
  4.125817e+00    4.712652e-01   1.369643e-02
  4.128027e+00    5.283471e-01   1.456334e-02
  4.130238e+00    4.979636e-01   1.419889e-02
  4.132448e+00    4.953278e-01   1.422297e-02
  4.134659e+00    4.644023e-01   1.383091e-02
  4.136869e+00    4.961245e-01   1.435941e-02
  4.139080e+00    5.076298e-01   1.459015e-02
  4.141290e+00    5.097446e-01   1.468544e-02
  4.143500e+00    4.866549e-01   1.441515e-02
  4.145711e+00    4.406008e-01   1.378024e-02
  4.147921e+00    4.802172e-01   1.445228e-02
  4.150132e+00    5.109283e-01   1.497847e-02
  4.152342e+00    4.807901e-01   1.460050e-02
  4.154553e+00    5.083994e-01   1.508512e-02
  4.156763e+00    4.598527e-01   1.441791e-02
  4.158974e+00    4.931754e-01   1.500601e-02
  4.161184e+00    5.279562e-01   1.560316e-02
  4.163395e+00    5.226981e-01   1.560477e-02
  4.165605e+00    4.854324e-01   1.511632e-02
  4.167815e+00    4.702196e-01   1.495524e-02
  4.170026e+00    4.935654e-01   1.540248e-02
  4.172236e+00    5.251760e-01   1.597427e-02
  4.174447e+00    4.880276e-01   1.548258e-02
  4.176657e+00    5.229453e-01   1.611443e-02
  4.178868e+00    5.227132e-01   1.620225e-02
  4.181078e+00    4.830470e-01   1.566301e-02
  4.183289e+00    4.735962e-01   1.559791e-02
  4.185499e+00    4.711085e-01   1.564845e-02
  4.187710e+00    5.203049e-01   1.654154e-02
  4.189920e+00    5.149719e-01   1.655607e-02
  4.192130e+00    4.891025e-01   1.623313e-02
  4.194341e+00    4.696434e-01   1.600459e-02
  4.196551e+00    5.124387e-01   1.682367e-02
  4.198762e+00    4.785521e-01   1.636134e-02
  4.200972e+00    4.455863e-01   1.588970e-02
  4.203183e+00    4.196853e-01   1.552265e-02
  4.205393e+00    4.818239e-01   1.674288e-02
  4.207604e+00    4.291919e-01   1.590984e-02
  4.209814e+00    5.056587e-01   1.738716e-02
  4.212025e+00    4.697115e-01   1.687682e-02
  4.214235e+00    4.225160e-01   1.612001e-02
  4.216445e+00    4.693520e-01   1.711267e-02
  4.218656e+00    4.809723e-01   1.745322e-02
  4.220866e+00    4.899526e-01   1.774550e-02
  4.223077e+00    4.557910e-01   1.724771e-02
  4.225287e+00    5.128666e-01   1.843920e-02
  4.227498e+00    5.335870e-01   1.895596e-02
  4.229708e+00    5.025237e-01   1.854544e-02
  4.231919e+00    5.020541e-01   1.868996e-02
  4.234129e+00    4.794881e-01   1.841873e-02
  4.236340e+00    3.761511e-01   1.645281e-02
  4.238550e+00    4.999933e-01   1.913626e-02
  4.240761e+00    5.274596e-01   1.982867e-02
  4.242971e+00    5.273381e-01   2.000804e-02
  4.245181e+00    4.758858e-01   1.918554e-02
  4.247392e+00    4.675666e-01   1.919482e-02
  4.249602e+00    5.069245e-01   2.018478e-02
  4.251813e+00    4.441094e-01   1.907917e-02
  4.254023e+00    4.337245e-01   1.904492e-02
  4.256234e+00    4.678667e-01   1.999119e-02
  4.258444e+00    5.017800e-01   2.091993e-02
  4.260655e+00    4.042946e-01   1.898494e-02
  4.262865e+00    4.441550e-01   2.012416e-02
  4.265076e+00    4.178627e-01   1.974110e-02
  4.267286e+00    4.841084e-01   2.150084e-02
  4.269496e+00    4.653702e-01   2.133804e-02
  4.271707e+00    4.542305e-01   2.134127e-02
  4.273917e+00    4.579227e-01   2.170457e-02
  4.276128e+00    4.309403e-01   2.133526e-02
  4.278338e+00    4.274793e-01   2.153390e-02
  4.280549e+00    4.317093e-01   2.194954e-02
  4.282759e+00    4.651107e-01   2.311067e-02
  4.284970e+00    4.900465e-01   2.407312e-02
  4.287180e+00    5.070376e-01   2.478031e-02
  4.289391e+00    4.374403e-01   2.318973e-02
  4.291601e+00    4.906991e-01   2.475685e-02
  4.293811e+00    5.064831e-01   2.534893e-02
  4.296022e+00    4.246553e-01   2.339721e-02
  4.298232e+00    4.852753e-01   2.522102e-02
  4.300443e+00    4.715854e-01   2.506871e-02
  4.302653e+00    4.082378e-01   2.352512e-02
  4.304864e+00    4.537906e-01   2.501854e-02
  4.307074e+00    4.831442e-01   2.604628e-02
  4.309285e+00    4.857549e-01   2.635461e-02
  4.311495e+00    4.382903e-01   2.526809e-02
  4.313706e+00    5.052565e-01   2.738384e-02
  4.315916e+00    4.842804e-01   2.707437e-02
  4.318126e+00    3.960316e-01   2.472542e-02
  4.320337e+00    4.713798e-01   2.724743e-02
  4.322547e+00    5.282304e-01   2.915005e-02
  4.324758e+00    4.983674e-01   2.860878e-02
  4.326968e+00    4.694331e-01   2.807888e-02
  4.329179e+00    4.015777e-01   2.625556e-02
  4.331389e+00    3.781700e-01   2.577344e-02
  4.333600e+00    3.469134e-01   2.497942e-02
  4.335810e+00    3.030609e-01   2.362502e-02
  4.338021e+00    4.890876e-01   3.039717e-02
  4.340231e+00    4.508199e-01   2.954970e-02
  4.342442e+00    4.986483e-01   3.149554e-02
  4.344652e+00    4.399602e-01   2.998562e-02
  4.346862e+00    3.883777e-01   2.856608e-02
  4.349073e+00    5.116702e-01   3.326654e-02
  4.351283e+00    4.325863e-01   3.104450e-02
  4.353494e+00    4.826125e-01   3.329761e-02
  4.355704e+00    4.405919e-01   3.232648e-02
  4.357915e+00    4.990185e-01   3.497695e-02
  4.360125e+00    4.771208e-01   3.478270e-02
  4.362336e+00    5.457218e-01   3.787870e-02
  4.364546e+00    5.475318e-01   3.863346e-02
  4.366757e+00    4.667219e-01   3.637642e-02
  4.368967e+00    5.134651e-01   3.891826e-02
  4.371177e+00    3.992526e-01   3.504535e-02
  4.373388e+00    3.921438e-01   3.550794e-02
  4.375598e+00    4.663942e-01   3.961032e-02
  4.377809e+00    3.360803e-01   3.447361e-02
  4.380019e+00    3.443003e-01   3.577067e-02
  4.382230e+00    4.883850e-01   4.379021e-02
  4.384440e+00    3.180075e-01   3.635455e-02
  4.386651e+00    4.296007e-01   4.355560e-02
  4.388861e+00    3.504399e-01   4.066102e-02
  4.391072e+00    5.447341e-01   5.247081e-02
  4.393282e+00    4.284608e-01   4.833694e-02
  4.395492e+00    7.476094e-01   6.650412e-02
  4.397703e+00    3.031682e-01   4.428857e-02
  4.399913e+00    4.750597e-01   5.824007e-02
  4.402124e+00    3.168879e-01   5.026349e-02
  4.404334e+00    4.582306e-01   6.424938e-02
  4.406545e+00    5.172308e-01   7.334019e-02
  4.408755e+00    5.294498e-01   8.047868e-02
  4.410966e+00    4.532468e-01   8.240570e-02
  4.413176e+00    4.841228e-01   9.640914e-02
  4.415387e+00   -5.336769e-01            nan
  4.417597e+00   -2.029266e+00            nan
  4.419807e+00    2.807437e-01   1.902519e-01
