# == pyFAI calibration ==
# Distance Sample to Detector: 0.216 m
# PONI: 1.166e-01, 1.308e-01 m
# Rotations: 0.000000 0.000000 0.000000 rad
# 
# == Fit2d calibration ==
# Distance Sample-beamCenter: 216.000 mm
# Center: x=1744.293, y=1555.000 pix
# Tilt: 0.000 deg  TiltPlanRot: 0.000 deg
# 
# Detector Eiger 9M	 PixelSize= 7.500e-05, 7.500e-05 m
#    Detector has a mask: True 
#    Detector has a dark current: False 
#    detector has a flat field: False 
# 
# Wavelength: 9.8e-11 m
# Mask applied: from detector
# Dark current applied: False
# Flat field applied: False
# Polarization factor: None
# Normalization factor: 1.0
# 
# Headers of the input frame:
# {
# "_array_data.header_convention": "SLS_1.0",
# "_array_data.header_contents": "# Detector: Dectris Eiger 9M, S/N E-18-0102\r\n# Pixel_size 75e-6 m x 75e-6 m\r\n# Silicon sensor, thickness 0.000450 m\r\n# Exposure_time 0.024997 s\r\n# Exposure_period 0.025000 s\r\n# Count_cutoff 62318 counts\r\n# Wavelength 0.980106 A\r\n# Detector_distance 0.215992 m\r\n# Beam_xy (1555, 1744) pixels\r\n# Start_angle 0.000000 deg.\r\n# Angle_increment 0.000000 deg.",
# "Content-Type": "application/octet-stream;",
# "conversions": "x-CBF_BYTE_OFFSET",
# "Content-Transfer-Encoding": "BINARY",
# "X-Binary-Size": "10166596",
# "X-Binary-ID": "1",
# "X-Binary-Element-Type": "signed 32-bit integer",
# "X-Binary-Element-Byte-Order": "LITTLE_ENDIAN",
# "Content-MD5": "lYMIWnAUonnzIBxl7ZITbg==",
# "X-Binary-Number-of-Elements": "10166590",
# "X-Binary-Size-Fastest-Dimension": "3110",
# "X-Binary-Size-Second-Dimension": "3269",
# "X-Binary-Size-Padding": "4095"
# }
# --> H:/Proxima2a_2019-04-05/RAW_DATA/C5_gel17_position5/C5_mesh_1_data.cbf/C5_mesh_1_data.cbf000052.dat
#        q_A^-1              I           sigma 
  1.105228e-03    1.566282e+00   6.772078e-01
  3.315685e-03    8.886154e-01   3.101004e-01
  5.526141e-03    1.313764e+00   2.915620e-01
  7.736597e-03    1.365077e+00   2.510723e-01
  9.947054e-03    1.406463e+00   2.246677e-01
  1.215751e-02    1.458129e+00   2.068552e-01
  1.436797e-02    1.450132e+00   1.897490e-01
  1.657842e-02    1.416831e+00   1.745836e-01
  1.878888e-02    1.297506e+00   1.569345e-01
  2.099934e-02    1.387468e+00   1.535372e-01
  2.320979e-02    1.301831e+00   1.414524e-01
  2.542025e-02    1.294971e+00   1.348154e-01
  2.763070e-02    1.276125e+00   1.283621e-01
  2.984116e-02    1.362313e+00   1.276189e-01
  3.205162e-02    1.320082e+00   1.212235e-01
  3.426207e-02    1.386465e+00   1.201515e-01
  3.647253e-02    1.322751e+00   1.137440e-01
  3.868299e-02    1.413080e+00   1.141640e-01
  4.089344e-02    1.319126e+00   1.072813e-01
  4.310390e-02    1.436473e+00   1.090367e-01
  4.531436e-02    1.618178e+00   1.128701e-01
  4.752481e-02    1.342808e+00   1.003982e-01
  4.973527e-02    1.287744e+00   9.610955e-02
  5.194572e-02    1.310516e+00   9.486895e-02
  5.415618e-02    1.369348e+00   9.497201e-02
  5.636664e-02    1.318323e+00   9.134318e-02
  5.857709e-02    1.476946e+00   9.484115e-02
  6.078755e-02    1.416603e+00   9.117618e-02
  6.299801e-02    1.385047e+00   8.855820e-02
  6.520846e-02    1.348077e+00   8.587528e-02
  6.741892e-02    1.391722e+00   8.580764e-02
  6.962938e-02    1.473081e+00   8.687199e-02
  7.183983e-02    1.424477e+00   8.410072e-02
  7.405029e-02    1.472858e+00   8.422902e-02
  7.626074e-02    1.376065e+00   8.022502e-02
  7.847120e-02    1.415474e+00   8.020934e-02
  8.068166e-02    1.399647e+00   7.865885e-02
  8.289211e-02    1.484077e+00   7.990884e-02
  8.510257e-02    1.467849e+00   7.843144e-02
  8.731303e-02    1.438903e+00   7.666206e-02
  8.952348e-02    1.590958e+00   7.961171e-02
  9.173394e-02    1.480743e+00   7.587065e-02
  9.394439e-02    1.399897e+00   7.289494e-02
  9.615485e-02    1.479521e+00   7.407135e-02
  9.836531e-02    1.529814e+00   7.446663e-02
  1.005758e-01    1.516651e+00   7.332673e-02
  1.027862e-01    1.481765e+00   7.169313e-02
  1.049967e-01    1.494745e+00   7.124322e-02
  1.072071e-01    1.411438e+00   6.851123e-02
  1.094176e-01    1.394097e+00   6.739673e-02
  1.116280e-01    1.452126e+00   6.809916e-02
  1.138385e-01    1.507568e+00   6.870871e-02
  1.160490e-01    1.407852e+00   6.576133e-02
  1.182594e-01    1.428697e+00   6.562288e-02
  1.204699e-01    1.548511e+00   6.768892e-02
  1.226803e-01    1.657539e+00   6.939470e-02
  1.248908e-01    1.549933e+00   6.650711e-02
  1.271012e-01    1.604478e+00   6.707492e-02
  1.293117e-01    1.552248e+00   6.540704e-02
  1.315222e-01    1.471054e+00   6.313461e-02
  1.337326e-01    1.518817e+00   6.361776e-02
  1.359431e-01    1.604868e+00   6.543340e-02
  1.381535e-01    1.563449e+00   6.545042e-02
  1.403640e-01    1.600085e+00   6.649870e-02
  1.425744e-01    1.696262e+00   6.857745e-02
  1.447849e-01    1.631595e+00   6.727306e-02
  1.469953e-01    1.592082e+00   6.641187e-02
  1.492058e-01    1.577220e+00   6.602433e-02
  1.514163e-01    1.553010e+00   6.540685e-02
  1.536267e-01    1.535553e+00   6.491122e-02
  1.558372e-01    1.583266e+00   6.576646e-02
  1.580476e-01    1.617986e+00   6.632233e-02
  1.602581e-01    1.659850e+00   6.700425e-02
  1.624685e-01    1.618384e+00   6.598090e-02
  1.646790e-01    1.622656e+00   6.587819e-02
  1.668895e-01    1.662944e+00   6.649838e-02
  1.690999e-01    1.713105e+00   6.729120e-02
  1.713104e-01    1.823641e+00   6.921273e-02
  1.735208e-01    1.808975e+00   6.871952e-02
  1.757313e-01    1.769066e+00   6.774426e-02
  1.779417e-01    1.840302e+00   6.886941e-02
  1.801522e-01    1.760238e+00   6.714015e-02
  1.823626e-01    1.736284e+00   6.645972e-02
  1.845731e-01    1.893142e+00   6.917206e-02
  1.867836e-01    1.930606e+00   6.961742e-02
  1.889940e-01    1.919905e+00   6.919736e-02
  1.912045e-01    1.922096e+00   6.900560e-02
  1.934149e-01    1.939195e+00   6.907988e-02
  1.956254e-01    1.933013e+00   6.874224e-02
  1.978358e-01    1.960540e+00   6.899270e-02
  2.000463e-01    2.006716e+00   6.956916e-02
  2.022568e-01    1.976066e+00   6.880920e-02
  2.044672e-01    1.992192e+00   6.885274e-02
  2.066777e-01    1.958254e+00   6.803717e-02
  2.088881e-01    1.906814e+00   6.691795e-02
  2.110986e-01    1.897144e+00   6.651917e-02
  2.133090e-01    1.943633e+00   6.711037e-02
  2.155195e-01    1.943397e+00   6.688371e-02
  2.177300e-01    1.919438e+00   6.594795e-02
  2.199404e-01    1.891934e+00   6.374852e-02
  2.221509e-01    1.949885e+00   6.365480e-02
  2.243613e-01    1.895645e+00   6.196756e-02
  2.265718e-01    1.906142e+00   6.145398e-02
  2.287822e-01    2.047387e+00   6.305974e-02
  2.309927e-01    2.100053e+00   6.328388e-02
  2.332031e-01    2.087253e+00   6.255073e-02
  2.354136e-01    2.039562e+00   6.133086e-02
  2.376241e-01    2.051475e+00   6.103230e-02
  2.398345e-01    2.111943e+00   6.146692e-02
  2.420450e-01    2.115306e+00   6.107623e-02
  2.442554e-01    2.064807e+00   5.992707e-02
  2.464659e-01    2.134912e+00   6.052678e-02
  2.486763e-01    2.141711e+00   6.022461e-02
  2.508868e-01    2.138479e+00   5.979950e-02
  2.530973e-01    2.121729e+00   5.919557e-02
  2.553077e-01    2.102511e+00   5.856944e-02
  2.575182e-01    2.104201e+00   5.824630e-02
  2.597286e-01    2.101716e+00   5.787351e-02
  2.619391e-01    2.062265e+00   5.699772e-02
  2.641495e-01    2.030658e+00   5.624622e-02
  2.663600e-01    2.026833e+00   5.588419e-02
  2.685704e-01    2.089266e+00   5.643081e-02
  2.707809e-01    1.992255e+00   5.481264e-02
  2.729914e-01    1.969504e+00   5.421473e-02
  2.752018e-01    1.979391e+00   5.406777e-02
  2.774123e-01    1.930000e+00   5.311622e-02
  2.796227e-01    1.949534e+00   5.312027e-02
  2.818332e-01    1.952161e+00   5.289087e-02
  2.840436e-01    1.945012e+00   5.253803e-02
  2.862541e-01    1.946883e+00   5.231062e-02
  2.884646e-01    1.936112e+00   5.191814e-02
  2.906750e-01    1.931159e+00   5.160585e-02
  2.928855e-01    1.922614e+00   5.125294e-02
  2.950959e-01    1.995280e+00   5.197269e-02
  2.973064e-01    2.001018e+00   5.181345e-02
  2.995168e-01    1.975328e+00   5.124663e-02
  3.017273e-01    1.880944e+00   4.978684e-02
  3.039377e-01    1.931762e+00   5.023396e-02
  3.061482e-01    1.973445e+00   5.055342e-02
  3.083587e-01    1.872623e+00   4.903198e-02
  3.105691e-01    1.857719e+00   4.862786e-02
  3.127796e-01    1.839309e+00   4.818287e-02
  3.149900e-01    1.890556e+00   4.864597e-02
  3.172005e-01    1.901155e+00   4.858268e-02
  3.194109e-01    1.862407e+00   4.788654e-02
  3.216214e-01    1.826352e+00   4.722726e-02
  3.238319e-01    1.829781e+00   4.708427e-02
  3.260423e-01    1.803302e+00   4.655617e-02
  3.282528e-01    1.833158e+00   4.675312e-02
  3.304632e-01    1.832290e+00   4.656097e-02
  3.326737e-01    1.873232e+00   4.689459e-02
  3.348841e-01    1.863317e+00   4.658898e-02
  3.370946e-01    1.799418e+00   4.561089e-02
  3.393050e-01    1.842427e+00   4.597795e-02
  3.415155e-01    1.819380e+00   4.551769e-02
  3.437260e-01    1.788481e+00   4.496223e-02
  3.459364e-01    1.809424e+00   4.505743e-02
  3.481469e-01    1.828511e+00   4.512911e-02
  3.503573e-01    1.815858e+00   4.480888e-02
  3.525678e-01    1.782310e+00   4.423481e-02
  3.547782e-01    1.783999e+00   4.409583e-02
  3.569887e-01    1.735658e+00   4.334017e-02
  3.591992e-01    1.734723e+00   4.317518e-02
  3.614096e-01    1.752694e+00   4.324777e-02
  3.636201e-01    1.729812e+00   4.281357e-02
  3.658305e-01    1.788631e+00   4.338685e-02
  3.680410e-01    1.839988e+00   4.385400e-02
  3.702514e-01    1.761781e+00   4.276758e-02
  3.724619e-01    1.796416e+00   4.303883e-02
  3.746724e-01    1.794539e+00   4.287284e-02
  3.768828e-01    1.757945e+00   4.229066e-02
  3.790933e-01    1.753039e+00   4.209401e-02
  3.813037e-01    1.788744e+00   4.238138e-02
  3.835142e-01    1.771229e+00   4.203489e-02
  3.857246e-01    1.759822e+00   4.176371e-02
  3.879351e-01    1.688461e+00   4.077578e-02
  3.901455e-01    1.753396e+00   4.142016e-02
  3.923560e-01    1.732138e+00   4.103748e-02
  3.945665e-01    1.763742e+00   4.127883e-02
  3.967769e-01    1.761357e+00   4.112174e-02
  3.989874e-01    1.744038e+00   4.079128e-02
  4.011978e-01    1.806360e+00   4.138606e-02
  4.034083e-01    1.761986e+00   4.074909e-02
  4.056187e-01    1.758429e+00   4.058252e-02
  4.078292e-01    1.770824e+00   4.060207e-02
  4.100397e-01    1.823767e+00   4.107872e-02
  4.122501e-01    1.802166e+00   4.071259e-02
  4.144606e-01    1.732950e+00   3.980470e-02
  4.166710e-01    1.778997e+00   4.021014e-02
  4.188815e-01    1.787210e+00   4.018382e-02
  4.210919e-01    1.750521e+00   3.965266e-02
  4.233024e-01    1.748039e+00   3.950797e-02
  4.255128e-01    1.847661e+00   4.050076e-02
  4.277233e-01    1.803757e+00   3.990173e-02
  4.299338e-01    1.774969e+00   3.946812e-02
  4.321442e-01    1.810817e+00   3.975061e-02
  4.343547e-01    1.771867e+00   3.920961e-02
  4.365651e-01    1.734627e+00   3.868516e-02
  4.387756e-01    1.771369e+00   3.898322e-02
  4.409860e-01    1.731747e+00   3.843801e-02
  4.431965e-01    1.691917e+00   3.788833e-02
  4.454070e-01    1.685050e+00   3.770617e-02
  4.476174e-01    1.716743e+00   3.795461e-02
  4.498279e-01    1.701099e+00   3.767851e-02
  4.520383e-01    1.678854e+00   3.732860e-02
  4.542488e-01    1.677512e+00   3.721307e-02
  4.564592e-01    1.681747e+00   3.716004e-02
  4.586697e-01    1.706300e+00   3.733099e-02
  4.608801e-01    1.701922e+00   3.718320e-02
  4.630906e-01    1.719404e+00   3.727471e-02
  4.653011e-01    1.663020e+00   3.656207e-02
  4.675115e-01    1.677360e+00   3.662262e-02
  4.697220e-01    1.718442e+00   3.697139e-02
  4.719324e-01    1.680655e+00   3.646803e-02
  4.741429e-01    1.674947e+00   3.631226e-02
  4.763533e-01    1.676579e+00   3.623681e-02
  4.785638e-01    1.647931e+00   3.583307e-02
  4.807743e-01    1.697620e+00   3.627678e-02
  4.829847e-01    1.703612e+00   3.624897e-02
  4.851952e-01    1.687176e+00   3.598237e-02
  4.874056e-01    1.681452e+00   3.583073e-02
  4.896161e-01    1.687442e+00   3.580546e-02
  4.918265e-01    1.670700e+00   3.553894e-02
  4.940370e-01    1.651037e+00   3.524195e-02
  4.962475e-01    1.718612e+00   3.586714e-02
  4.984579e-01    1.654140e+00   3.510123e-02
  5.006684e-01    1.665161e+00   3.513210e-02
  5.028788e-01    1.649632e+00   3.488317e-02
  5.050893e-01    1.627024e+00   3.455904e-02
  5.072997e-01    1.634356e+00   3.455318e-02
  5.095102e-01    1.668997e+00   3.483380e-02
  5.117206e-01    1.681489e+00   3.488079e-02
  5.139311e-01    1.688692e+00   3.487270e-02
  5.161416e-01    1.623458e+00   3.411170e-02
  5.183520e-01    1.643810e+00   3.424327e-02
  5.205625e-01    1.664469e+00   3.437705e-02
  5.227729e-01    1.666987e+00   3.432282e-02
  5.249834e-01    1.665076e+00   3.422350e-02
  5.271938e-01    1.678452e+00   3.428052e-02
  5.294043e-01    1.701700e+00   3.443743e-02
  5.316148e-01    1.771789e+00   3.505901e-02
  5.338252e-01    1.760478e+00   3.486705e-02
  5.360357e-01    1.776471e+00   3.494534e-02
  5.382461e-01    1.771998e+00   3.482242e-02
  5.404566e-01    1.760275e+00   3.462804e-02
  5.426670e-01    1.779723e+00   3.474036e-02
  5.448775e-01    1.778410e+00   3.464996e-02
  5.470879e-01    1.766714e+00   3.445883e-02
  5.492984e-01    1.760211e+00   3.431885e-02
  5.515089e-01    1.756480e+00   3.420643e-02
  5.537193e-01    1.738122e+00   3.395225e-02
  5.559298e-01    1.740969e+00   3.390549e-02
  5.581402e-01    1.773872e+00   3.414961e-02
  5.603507e-01    1.738114e+00   3.373010e-02
  5.625611e-01    1.712274e+00   3.340577e-02
  5.647716e-01    1.732176e+00   3.352642e-02
  5.669821e-01    1.758730e+00   3.370956e-02
  5.691925e-01    1.775560e+00   3.379778e-02
  5.714030e-01    1.744874e+00   3.343304e-02
  5.736134e-01    1.696782e+00   3.289894e-02
  5.758239e-01    1.719399e+00   3.304679e-02
  5.780343e-01    1.660505e+00   3.240721e-02
  5.802448e-01    1.639123e+00   3.213046e-02
  5.824552e-01    1.614727e+00   3.182355e-02
  5.846657e-01    1.625119e+00   3.185924e-02
  5.868762e-01    1.634840e+00   3.188786e-02
  5.890866e-01    1.615172e+00   3.162970e-02
  5.912971e-01    1.639241e+00   3.179851e-02
  5.935075e-01    1.677330e+00   3.209936e-02
  5.957180e-01    1.665069e+00   3.191621e-02
  5.979284e-01    1.653118e+00   3.173656e-02
  6.001389e-01    1.673319e+00   3.186482e-02
  6.023494e-01    1.650450e+00   3.158211e-02
  6.045598e-01    1.643305e+00   3.144949e-02
  6.067703e-01    1.661710e+00   3.156153e-02
  6.089807e-01    1.654663e+00   3.143121e-02
  6.111912e-01    1.651519e+00   3.133864e-02
  6.134016e-01    1.649582e+00   3.125777e-02
  6.156121e-01    1.702253e+00   3.168977e-02
  6.178226e-01    1.686316e+00   3.147863e-02
  6.200330e-01    1.686696e+00   3.142008e-02
  6.222435e-01    1.678444e+00   3.128104e-02
  6.244539e-01    1.685632e+00   3.128656e-02
  6.266644e-01    1.734508e+00   3.167500e-02
  6.288748e-01    1.687231e+00   3.117954e-02
  6.310853e-01    1.702612e+00   3.126053e-02
  6.332957e-01    1.657658e+00   3.078553e-02
  6.355062e-01    1.677798e+00   3.091179e-02
  6.377167e-01    1.686014e+00   3.092794e-02
  6.399271e-01    1.728606e+00   3.125614e-02
  6.421376e-01    1.706568e+00   3.099701e-02
  6.443480e-01    1.670815e+00   3.061222e-02
  6.465585e-01    1.680294e+00   3.064080e-02
  6.487689e-01    1.640589e+00   3.021944e-02
  6.509794e-01    1.627347e+00   3.004047e-02
  6.531899e-01    1.621457e+00   2.992965e-02
  6.554003e-01    1.612251e+00   2.978848e-02
  6.576108e-01    1.574889e+00   2.938647e-02
  6.598212e-01    1.568199e+00   2.926951e-02
  6.620317e-01    1.586481e+00   2.938506e-02
  6.642421e-01    1.545832e+00   2.895249e-02
  6.664526e-01    1.583731e+00   2.925124e-02
  6.686630e-01    1.597073e+00   2.931992e-02
  6.708735e-01    1.596378e+00   2.925976e-02
  6.730840e-01    1.591770e+00   2.916423e-02
  6.752944e-01    1.551840e+00   2.874376e-02
  6.775049e-01    1.554368e+00   2.871489e-02
  6.797153e-01    1.595850e+00   2.904287e-02
  6.819258e-01    1.566668e+00   2.872421e-02
  6.841362e-01    1.548672e+00   2.850739e-02
  6.863467e-01    1.569438e+00   2.864648e-02
  6.885572e-01    1.619798e+00   2.905029e-02
  6.907676e-01    1.616887e+00   2.897220e-02
  6.929781e-01    1.611805e+00   2.887519e-02
  6.951885e-01    1.592235e+00   2.864855e-02
  6.973990e-01    1.556201e+00   2.827244e-02
  6.996094e-01    1.571143e+00   2.835786e-02
  7.018199e-01    1.591223e+00   2.848840e-02
  7.040303e-01    1.585562e+00   2.838775e-02
  7.062408e-01    1.526179e+00   2.780229e-02
  7.084513e-01    1.563030e+00   2.808699e-02
  7.106617e-01    1.546098e+00   2.788591e-02
  7.128722e-01    1.569847e+00   2.805066e-02
  7.150826e-01    1.589405e+00   2.817619e-02
  7.172931e-01    1.590300e+00   2.813556e-02
  7.195035e-01    1.568662e+00   2.789544e-02
  7.217140e-01    1.556463e+00   2.783594e-02
  7.239245e-01    1.544342e+00   2.795187e-02
  7.261349e-01    1.577224e+00   2.835658e-02
  7.283454e-01    1.572212e+00   2.838385e-02
  7.305558e-01    1.580806e+00   2.851540e-02
  7.327663e-01    1.564200e+00   2.840760e-02
  7.349767e-01    1.566198e+00   2.844206e-02
  7.371872e-01    1.572341e+00   2.848662e-02
  7.393976e-01    1.542478e+00   2.820067e-02
  7.416081e-01    1.556488e+00   2.831239e-02
  7.438186e-01    1.529869e+00   2.792699e-02
  7.460290e-01    1.582338e+00   2.810688e-02
  7.482395e-01    1.567521e+00   2.780422e-02
  7.504499e-01    1.566958e+00   2.766326e-02
  7.526604e-01    1.593018e+00   2.777513e-02
  7.548708e-01    1.556695e+00   2.736774e-02
  7.570813e-01    1.584791e+00   2.756247e-02
  7.592918e-01    1.563584e+00   2.734239e-02
  7.615022e-01    1.564547e+00   2.731710e-02
  7.637127e-01    1.563682e+00   2.727690e-02
  7.659231e-01    1.517472e+00   2.683942e-02
  7.681336e-01    1.534310e+00   2.695670e-02
  7.703440e-01    1.557155e+00   2.712560e-02
  7.725545e-01    1.575463e+00   2.725370e-02
  7.747650e-01    1.576339e+00   2.722309e-02
  7.769754e-01    1.551644e+00   2.695667e-02
  7.791859e-01    1.567197e+00   2.703812e-02
  7.813963e-01    1.566941e+00   2.698350e-02
  7.836068e-01    1.536320e+00   2.666736e-02
  7.858172e-01    1.577194e+00   2.696923e-02
  7.880277e-01    1.588221e+00   2.701188e-02
  7.902381e-01    1.587410e+00   2.695592e-02
  7.924486e-01    1.566619e+00   2.672921e-02
  7.946591e-01    1.565370e+00   2.667078e-02
  7.968695e-01    1.579904e+00   2.674638e-02
  7.990800e-01    1.587655e+00   2.676397e-02
  8.012904e-01    1.639297e+00   2.714873e-02
  8.035009e-01    1.602098e+00   2.679119e-02
  8.057113e-01    1.608050e+00   2.679448e-02
  8.079218e-01    1.632357e+00   2.694965e-02
  8.101323e-01    1.608324e+00   2.670511e-02
  8.123427e-01    1.595582e+00   2.655375e-02
  8.145532e-01    1.650798e+00   2.696308e-02
  8.167636e-01    1.660612e+00   2.699765e-02
  8.189741e-01    1.639338e+00   2.677945e-02
  8.211845e-01    1.620525e+00   2.658072e-02
  8.233950e-01    1.593391e+00   2.631439e-02
  8.256054e-01    1.618418e+00   2.647627e-02
  8.278159e-01    1.659359e+00   2.676482e-02
  8.300264e-01    1.623815e+00   2.643372e-02
  8.322368e-01    1.641480e+00   2.653395e-02
  8.344473e-01    1.622595e+00   2.633771e-02
  8.366577e-01    1.630644e+00   2.636048e-02
  8.388682e-01    1.597989e+00   2.605350e-02
  8.410786e-01    1.613758e+00   2.613999e-02
  8.432891e-01    1.623824e+00   2.617974e-02
  8.454996e-01    1.627993e+00   2.617184e-02
  8.477100e-01    1.606704e+00   2.595889e-02
  8.499205e-01    1.649547e+00   2.626140e-02
  8.521309e-01    1.646474e+00   2.619603e-02
  8.543414e-01    1.624590e+00   2.598074e-02
  8.565518e-01    1.648658e+00   2.613174e-02
  8.587623e-01    1.661386e+00   2.619158e-02
  8.609727e-01    1.658705e+00   2.612986e-02
  8.631832e-01    1.662463e+00   2.611911e-02
  8.653937e-01    1.630224e+00   2.582489e-02
  8.676041e-01    1.603217e+00   2.557143e-02
  8.698146e-01    1.603348e+00   2.553337e-02
  8.720250e-01    1.606463e+00   2.551922e-02
  8.742355e-01    1.627442e+00   2.564620e-02
  8.764459e-01    1.639143e+00   2.569897e-02
  8.786564e-01    1.641424e+00   2.567851e-02
  8.808669e-01    1.727607e+00   2.630403e-02
  8.830773e-01    1.868378e+00   2.731356e-02
  8.852878e-01    1.863776e+00   2.723905e-02
  8.874982e-01    1.717509e+00   2.611043e-02
  8.897087e-01    1.607732e+00   2.522444e-02
  8.919191e-01    1.572670e+00   2.491042e-02
  8.941296e-01    1.601775e+00   2.510255e-02
  8.963401e-01    1.618240e+00   2.519462e-02
  8.985505e-01    1.608819e+00   2.508410e-02
  9.007610e-01    1.656301e+00   2.541419e-02
  9.029714e-01    1.654288e+00   2.536231e-02
  9.051819e-01    1.617873e+00   2.504418e-02
  9.073923e-01    1.631308e+00   2.511102e-02
  9.096028e-01    1.623640e+00   2.501676e-02
  9.118132e-01    1.601127e+00   2.480650e-02
  9.140237e-01    1.555034e+00   2.441071e-02
  9.162342e-01    1.598737e+00   2.471680e-02
  9.184446e-01    1.609656e+00   2.476521e-02
  9.206551e-01    1.614454e+00   2.476634e-02
  9.228655e-01    1.649053e+00   2.499453e-02
  9.250760e-01    1.604853e+00   2.462191e-02
  9.272864e-01    1.614462e+00   2.466111e-02
  9.294969e-01    1.611398e+00   2.460181e-02
  9.317074e-01    1.581091e+00   2.433491e-02
  9.339178e-01    1.602296e+00   2.446409e-02
  9.361283e-01    1.618929e+00   2.455449e-02
  9.383387e-01    1.608057e+00   2.443863e-02
  9.405492e-01    1.611496e+00   2.443056e-02
  9.427596e-01    1.639185e+00   2.460410e-02
  9.449701e-01    1.635280e+00   2.454138e-02
  9.471805e-01    1.619475e+00   2.438792e-02
  9.493910e-01    1.636381e+00   2.448120e-02
  9.516015e-01    1.677611e+00   2.475311e-02
  9.538119e-01    1.707297e+00   2.493693e-02
  9.560224e-01    1.738371e+00   2.512742e-02
  9.582328e-01    1.755337e+00   2.521588e-02
  9.604433e-01    1.823083e+00   2.566146e-02
  9.626537e-01    1.841701e+00   2.575751e-02
  9.648642e-01    1.835807e+00   2.568101e-02
  9.670747e-01    1.840409e+00   2.567774e-02
  9.692851e-01    1.830127e+00   2.557188e-02
  9.714956e-01    1.817101e+00   2.544479e-02
  9.737060e-01    1.791474e+00   2.523152e-02
  9.759165e-01    1.799393e+00   2.525157e-02
  9.781269e-01    1.824226e+00   2.539196e-02
  9.803374e-01    1.817924e+00   2.531301e-02
  9.825478e-01    1.810099e+00   2.522516e-02
  9.847583e-01    1.775725e+00   2.495056e-02
  9.869688e-01    1.774242e+00   2.490675e-02
  9.891792e-01    1.778911e+00   2.490635e-02
  9.913897e-01    1.758726e+00   2.473125e-02
  9.936001e-01    1.696826e+00   2.426033e-02
  9.958106e-01    1.694640e+00   2.421173e-02
  9.980210e-01    1.634538e+00   2.374766e-02
  1.000231e+00    1.625527e+00   2.381182e-02
  1.002442e+00    1.641310e+00   2.405429e-02
  1.004652e+00    1.589000e+00   2.373391e-02
  1.006863e+00    1.581893e+00   2.372988e-02
  1.009073e+00    1.589872e+00   2.382608e-02
  1.011284e+00    1.563261e+00   2.365743e-02
  1.013494e+00    1.550359e+00   2.358296e-02
  1.015705e+00    1.509670e+00   2.329344e-02
  1.017915e+00    1.549348e+00   2.361379e-02
  1.020126e+00    1.542280e+00   2.357581e-02
  1.022336e+00    1.542338e+00   2.358787e-02
  1.024547e+00    1.506477e+00   2.332310e-02
  1.026757e+00    1.486446e+00   2.317572e-02
  1.028967e+00    1.469845e+00   2.305343e-02
  1.031178e+00    1.480396e+00   2.314208e-02
  1.033388e+00    1.482838e+00   2.316614e-02
  1.035599e+00    1.499256e+00   2.329741e-02
  1.037809e+00    1.490771e+00   2.323462e-02
  1.040020e+00    1.488100e+00   2.321505e-02
  1.042230e+00    1.487662e+00   2.321355e-02
  1.044441e+00    1.474501e+00   2.311044e-02
  1.046651e+00    1.424005e+00   2.271142e-02
  1.048862e+00    1.450538e+00   2.292124e-02
  1.051072e+00    1.477667e+00   2.313226e-02
  1.053282e+00    1.522596e+00   2.348035e-02
  1.055493e+00    1.482388e+00   2.316398e-02
  1.057703e+00    1.483285e+00   2.316946e-02
  1.059914e+00    1.464400e+00   2.301728e-02
  1.062124e+00    1.464208e+00   2.301171e-02
  1.064335e+00    1.518530e+00   2.343125e-02
  1.066545e+00    1.501612e+00   2.329433e-02
  1.068756e+00    1.447589e+00   2.286777e-02
  1.070966e+00    1.448216e+00   2.286624e-02
  1.073177e+00    1.419909e+00   2.263572e-02
  1.075387e+00    1.434138e+00   2.274368e-02
  1.077597e+00    1.446272e+00   2.283250e-02
  1.079808e+00    1.419816e+00   2.249200e-02
  1.082018e+00    1.415284e+00   2.227010e-02
  1.084229e+00    1.377679e+00   2.186536e-02
  1.086439e+00    1.398680e+00   2.194566e-02
  1.088650e+00    1.390303e+00   2.180586e-02
  1.090860e+00    1.424251e+00   2.200355e-02
  1.093071e+00    1.395064e+00   2.171597e-02
  1.095281e+00    1.399801e+00   2.169645e-02
  1.097492e+00    1.412064e+00   2.173700e-02
  1.099702e+00    1.414587e+00   2.170549e-02
  1.101912e+00    1.398284e+00   2.153191e-02
  1.104123e+00    1.372259e+00   2.128345e-02
  1.106333e+00    1.382771e+00   2.132116e-02
  1.108544e+00    1.388625e+00   2.132263e-02
  1.110754e+00    1.391964e+00   2.130578e-02
  1.112965e+00    1.378401e+00   2.116178e-02
  1.115175e+00    1.403116e+00   2.130977e-02
  1.117386e+00    1.374015e+00   2.104890e-02
  1.119596e+00    1.386660e+00   2.110802e-02
  1.121807e+00    1.389289e+00   2.108948e-02
  1.124017e+00    1.376380e+00   2.095503e-02
  1.126228e+00    1.391829e+00   2.103671e-02
  1.128438e+00    1.381102e+00   2.091899e-02
  1.130648e+00    1.421272e+00   2.118642e-02
  1.132859e+00    1.390813e+00   2.092391e-02
  1.135069e+00    1.374732e+00   2.076808e-02
  1.137280e+00    1.379379e+00   2.077029e-02
  1.139490e+00    1.366119e+00   2.063740e-02
  1.141701e+00    1.374656e+00   2.066877e-02
  1.143911e+00    1.382575e+00   2.069637e-02
  1.146122e+00    1.374828e+00   2.060637e-02
  1.148332e+00    1.380174e+00   2.061449e-02
  1.150543e+00    1.388188e+00   2.064332e-02
  1.152753e+00    1.369896e+00   2.047609e-02
  1.154963e+00    1.354329e+00   2.032859e-02
  1.157174e+00    1.363013e+00   2.036360e-02
  1.159384e+00    1.387839e+00   2.051820e-02
  1.161595e+00    1.356367e+00   2.025455e-02
  1.163805e+00    1.362323e+00   2.026974e-02
  1.166016e+00    1.354573e+00   2.018275e-02
  1.168226e+00    1.334604e+00   2.000480e-02
  1.170437e+00    1.334138e+00   1.997301e-02
  1.172647e+00    1.359978e+00   2.013666e-02
  1.174858e+00    1.366637e+00   2.015781e-02
  1.177068e+00    1.363315e+00   2.010502e-02
  1.179278e+00    1.352253e+00   1.999481e-02
  1.181489e+00    1.343056e+00   1.989984e-02
  1.183699e+00    1.369213e+00   2.006502e-02
  1.185910e+00    1.357490e+00   1.995118e-02
  1.188120e+00    1.352774e+00   1.988983e-02
  1.190331e+00    1.335067e+00   1.973269e-02
  1.192541e+00    1.300559e+00   1.944916e-02
  1.194752e+00    1.342332e+00   1.973208e-02
  1.196962e+00    1.348506e+00   1.975171e-02
  1.199173e+00    1.344094e+00   1.969293e-02
  1.201383e+00    1.342450e+00   1.965379e-02
  1.203593e+00    1.339165e+00   1.960502e-02
  1.205804e+00    1.331039e+00   1.951970e-02
  1.208014e+00    1.342423e+00   1.957623e-02
  1.210225e+00    1.312171e+00   1.932944e-02
  1.212435e+00    1.298601e+00   1.920490e-02
  1.214646e+00    1.332945e+00   1.943125e-02
  1.216856e+00    1.328714e+00   1.937512e-02
  1.219067e+00    1.324270e+00   1.931847e-02
  1.221277e+00    1.329189e+00   1.932947e-02
  1.223488e+00    1.345366e+00   1.942104e-02
  1.225698e+00    1.346174e+00   1.940002e-02
  1.227909e+00    1.330080e+00   1.925374e-02
  1.230119e+00    1.330045e+00   1.922189e-02
  1.232329e+00    1.307531e+00   1.902826e-02
  1.234540e+00    1.336356e+00   1.920672e-02
  1.236750e+00    1.337143e+00   1.918227e-02
  1.238961e+00    1.330793e+00   1.910988e-02
  1.241171e+00    1.340405e+00   1.915467e-02
  1.243382e+00    1.346634e+00   1.917565e-02
  1.245592e+00    1.331019e+00   1.904022e-02
  1.247803e+00    1.357650e+00   1.920603e-02
  1.250013e+00    1.328772e+00   1.897733e-02
  1.252224e+00    1.297050e+00   1.872665e-02
  1.254434e+00    1.286052e+00   1.862389e-02
  1.256644e+00    1.328416e+00   1.890513e-02
  1.258855e+00    1.329401e+00   1.888907e-02
  1.261065e+00    1.298002e+00   1.864174e-02
  1.263276e+00    1.340743e+00   1.892329e-02
  1.265486e+00    1.370252e+00   1.910737e-02
  1.267697e+00    1.344600e+00   1.890472e-02
  1.269907e+00    1.317701e+00   1.869223e-02
  1.272118e+00    1.310212e+00   1.861680e-02
  1.274328e+00    1.313237e+00   1.861585e-02
  1.276539e+00    1.322233e+00   1.865694e-02
  1.278749e+00    1.357518e+00   1.888191e-02
  1.280959e+00    1.346606e+00   1.878335e-02
  1.283170e+00    1.368551e+00   1.891321e-02
  1.285380e+00    1.352708e+00   1.878094e-02
  1.287591e+00    1.340850e+00   1.867650e-02
  1.289801e+00    1.313302e+00   1.846271e-02
  1.292012e+00    1.342866e+00   1.865228e-02
  1.294222e+00    1.368359e+00   1.881218e-02
  1.296433e+00    1.361385e+00   1.874850e-02
  1.298643e+00    1.334293e+00   1.854466e-02
  1.300854e+00    1.345147e+00   1.860351e-02
  1.303064e+00    1.359373e+00   1.868237e-02
  1.305274e+00    1.328714e+00   1.844921e-02
  1.307485e+00    1.331898e+00   1.844989e-02
  1.309695e+00    1.351092e+00   1.856010e-02
  1.311906e+00    1.383382e+00   1.875861e-02
  1.314116e+00    1.404118e+00   1.887747e-02
  1.316327e+00    1.395797e+00   1.879942e-02
  1.318537e+00    1.395904e+00   1.877785e-02
  1.320748e+00    1.393473e+00   1.873963e-02
  1.322958e+00    1.366553e+00   1.853708e-02
  1.325169e+00    1.361104e+00   1.847897e-02
  1.327379e+00    1.358208e+00   1.843743e-02
  1.329589e+00    1.356212e+00   1.840277e-02
  1.331800e+00    1.353385e+00   1.836285e-02
  1.334010e+00    1.356686e+00   1.836453e-02
  1.336221e+00    1.369447e+00   1.842878e-02
  1.338431e+00    1.374267e+00   1.844013e-02
  1.340642e+00    1.383422e+00   1.856641e-02
  1.342852e+00    1.355823e+00   1.848118e-02
  1.345063e+00    1.346874e+00   1.846950e-02
  1.347273e+00    1.333413e+00   1.841201e-02
  1.349484e+00    1.331283e+00   1.842478e-02
  1.351694e+00    1.338639e+00   1.849822e-02
  1.353905e+00    1.334881e+00   1.849014e-02
  1.356115e+00    1.347867e+00   1.859487e-02
  1.358325e+00    1.342412e+00   1.857052e-02
  1.360536e+00    1.323607e+00   1.845148e-02
  1.362746e+00    1.305927e+00   1.833725e-02
  1.364957e+00    1.321253e+00   1.845211e-02
  1.367167e+00    1.317771e+00   1.843486e-02
  1.369378e+00    1.312678e+00   1.840514e-02
  1.371588e+00    1.308361e+00   1.837991e-02
  1.373799e+00    1.316654e+00   1.844172e-02
  1.376009e+00    1.290547e+00   1.826129e-02
  1.378220e+00    1.300274e+00   1.833247e-02
  1.380430e+00    1.280758e+00   1.819706e-02
  1.382640e+00    1.291175e+00   1.827178e-02
  1.384851e+00    1.274270e+00   1.815265e-02
  1.387061e+00    1.274313e+00   1.815324e-02
  1.389272e+00    1.287916e+00   1.825008e-02
  1.391482e+00    1.267226e+00   1.810223e-02
  1.393693e+00    1.282168e+00   1.820775e-02
  1.395903e+00    1.268451e+00   1.810864e-02
  1.398114e+00    1.275001e+00   1.815393e-02
  1.400324e+00    1.273731e+00   1.814278e-02
  1.402535e+00    1.270885e+00   1.812019e-02
  1.404745e+00    1.250335e+00   1.797074e-02
  1.406955e+00    1.298433e+00   1.831040e-02
  1.409166e+00    1.288130e+00   1.823431e-02
  1.411376e+00    1.244964e+00   1.792309e-02
  1.413587e+00    1.253637e+00   1.798161e-02
  1.415797e+00    1.269179e+00   1.808920e-02
  1.418008e+00    1.252707e+00   1.792986e-02
  1.420218e+00    1.246787e+00   1.773908e-02
  1.422429e+00    1.225680e+00   1.750448e-02
  1.424639e+00    1.227076e+00   1.745085e-02
  1.426850e+00    1.234753e+00   1.745141e-02
  1.429060e+00    1.268396e+00   1.763860e-02
  1.431270e+00    1.297833e+00   1.779732e-02
  1.433481e+00    1.294579e+00   1.773366e-02
  1.435691e+00    1.296823e+00   1.771017e-02
  1.437902e+00    1.288421e+00   1.761599e-02
  1.440112e+00    1.272724e+00   1.747298e-02
  1.442323e+00    1.244830e+00   1.724771e-02
  1.444533e+00    1.263781e+00   1.734603e-02
  1.446744e+00    1.271319e+00   1.736654e-02
  1.448954e+00    1.282279e+00   1.741091e-02
  1.451165e+00    1.262625e+00   1.724729e-02
  1.453375e+00    1.297643e+00   1.745645e-02
  1.455586e+00    1.304260e+00   1.747240e-02
  1.457796e+00    1.298661e+00   1.740702e-02
  1.460006e+00    1.268193e+00   1.717440e-02
  1.462217e+00    1.222976e+00   1.683970e-02
  1.464427e+00    1.232600e+00   1.688059e-02
  1.466638e+00    1.258622e+00   1.703263e-02
  1.468848e+00    1.251983e+00   1.696249e-02
  1.471059e+00    1.231948e+00   1.680151e-02
  1.473269e+00    1.222538e+00   1.671329e-02
  1.475480e+00    1.255496e+00   1.691342e-02
  1.477690e+00    1.259533e+00   1.691685e-02
  1.479901e+00    1.257535e+00   1.687969e-02
  1.482111e+00    1.241202e+00   1.674662e-02
  1.484321e+00    1.260068e+00   1.685036e-02
  1.486532e+00    1.263130e+00   1.684853e-02
  1.488742e+00    1.256571e+00   1.678215e-02
  1.490953e+00    1.252312e+00   1.673118e-02
  1.493163e+00    1.267222e+00   1.680819e-02
  1.495374e+00    1.260776e+00   1.674389e-02
  1.497584e+00    1.267315e+00   1.676558e-02
  1.499795e+00    1.272089e+00   1.677537e-02
  1.502005e+00    1.233496e+00   1.649750e-02
  1.504216e+00    1.249001e+00   1.657988e-02
  1.506426e+00    1.251337e+00   1.657464e-02
  1.508636e+00    1.250402e+00   1.654804e-02
  1.510847e+00    1.259504e+00   1.658633e-02
  1.513057e+00    1.269833e+00   1.662897e-02
  1.515268e+00    1.258457e+00   1.652857e-02
  1.517478e+00    1.262632e+00   1.653073e-02
  1.519689e+00    1.243497e+00   1.638013e-02
  1.521899e+00    1.249640e+00   1.639747e-02
  1.524110e+00    1.243794e+00   1.633881e-02
  1.526320e+00    1.259955e+00   1.642497e-02
  1.528531e+00    1.235041e+00   1.624214e-02
  1.530741e+00    1.213037e+00   1.607793e-02
  1.532951e+00    1.216255e+00   1.607992e-02
  1.535162e+00    1.237491e+00   1.630586e-02
  1.537372e+00    1.239286e+00   1.638434e-02
  1.539583e+00    1.207337e+00   1.620544e-02
  1.541793e+00    1.206607e+00   1.620735e-02
  1.544004e+00    1.228368e+00   1.635311e-02
  1.546214e+00    1.231821e+00   1.637459e-02
  1.548425e+00    1.244121e+00   1.645639e-02
  1.550635e+00    1.238884e+00   1.643139e-02
  1.552846e+00    1.218386e+00   1.630443e-02
  1.555056e+00    1.221677e+00   1.628533e-02
  1.557266e+00    1.228473e+00   1.622085e-02
  1.559477e+00    1.211807e+00   1.605208e-02
  1.561687e+00    1.243661e+00   1.623105e-02
  1.563898e+00    1.233375e+00   1.614669e-02
  1.566108e+00    1.237603e+00   1.615843e-02
  1.568319e+00    1.254029e+00   1.624962e-02
  1.570529e+00    1.257264e+00   1.624532e-02
  1.572740e+00    1.258192e+00   1.622353e-02
  1.574950e+00    1.260878e+00   1.621437e-02
  1.577161e+00    1.220910e+00   1.593009e-02
  1.579371e+00    1.232752e+00   1.598358e-02
  1.581582e+00    1.248188e+00   1.606356e-02
  1.583792e+00    1.238946e+00   1.598599e-02
  1.586002e+00    1.236212e+00   1.595078e-02
  1.588213e+00    1.224441e+00   1.585755e-02
  1.590423e+00    1.246837e+00   1.598182e-02
  1.592634e+00    1.242412e+00   1.593184e-02
  1.594844e+00    1.238561e+00   1.588575e-02
  1.597055e+00    1.244719e+00   1.590470e-02
  1.599265e+00    1.234278e+00   1.581718e-02
  1.601476e+00    1.230623e+00   1.577353e-02
  1.603686e+00    1.227911e+00   1.573646e-02
  1.605897e+00    1.229519e+00   1.572669e-02
  1.608107e+00    1.224145e+00   1.567281e-02
  1.610317e+00    1.227233e+00   1.567336e-02
  1.612528e+00    1.196226e+00   1.545524e-02
  1.614738e+00    1.172477e+00   1.528253e-02
  1.616949e+00    1.175956e+00   1.528663e-02
  1.619159e+00    1.187204e+00   1.534108e-02
  1.621370e+00    1.207954e+00   1.545622e-02
  1.623580e+00    1.177755e+00   1.524375e-02
  1.625791e+00    1.162464e+00   1.512654e-02
  1.628001e+00    1.176899e+00   1.520210e-02
  1.630212e+00    1.168735e+00   1.513173e-02
  1.632422e+00    1.164096e+00   1.508391e-02
  1.634632e+00    1.181108e+00   1.517645e-02
  1.636843e+00    1.182805e+00   1.516975e-02
  1.639053e+00    1.170417e+00   1.507286e-02
  1.641264e+00    1.158111e+00   1.497639e-02
  1.643474e+00    1.157100e+00   1.495250e-02
  1.645685e+00    1.122567e+00   1.471129e-02
  1.647895e+00    1.139502e+00   1.480534e-02
  1.650106e+00    1.111477e+00   1.460547e-02
  1.652316e+00    1.092563e+00   1.446457e-02
  1.654527e+00    1.088647e+00   1.442234e-02
  1.656737e+00    1.096986e+00   1.446121e-02
  1.658947e+00    1.101817e+00   1.447695e-02
  1.661158e+00    1.122667e+00   1.459705e-02
  1.663368e+00    1.102848e+00   1.445176e-02
  1.665579e+00    1.093771e+00   1.437620e-02
  1.667789e+00    1.079866e+00   1.426855e-02
  1.670000e+00    1.096056e+00   1.435975e-02
  1.672210e+00    1.051237e+00   1.404764e-02
  1.674421e+00    1.069856e+00   1.415640e-02
  1.676631e+00    1.072478e+00   1.415808e-02
  1.678842e+00    1.083037e+00   1.421194e-02
  1.681052e+00    1.102070e+00   1.432083e-02
  1.683263e+00    1.081113e+00   1.416895e-02
  1.685473e+00    1.072432e+00   1.409689e-02
  1.687683e+00    1.067791e+00   1.405104e-02
  1.689894e+00    1.048464e+00   1.390776e-02
  1.692104e+00    1.038307e+00   1.382559e-02
  1.694315e+00    1.021396e+00   1.369839e-02
  1.696525e+00    1.024765e+00   1.370610e-02
  1.698736e+00    1.041370e+00   1.380206e-02
  1.700946e+00    1.038090e+00   1.376532e-02
  1.703157e+00    1.036546e+00   1.374059e-02
  1.705367e+00    1.045492e+00   1.378531e-02
  1.707578e+00    1.031421e+00   1.367779e-02
  1.709788e+00    1.013375e+00   1.354370e-02
  1.711998e+00    1.022999e+00   1.359299e-02
  1.714209e+00    1.030397e+00   1.362769e-02
  1.716419e+00    1.035047e+00   1.364410e-02
  1.718630e+00    1.044725e+00   1.369341e-02
  1.720840e+00    9.882426e-01   1.330420e-02
  1.723051e+00    9.753393e-01   1.320352e-02
  1.725261e+00    9.719359e-01   1.316614e-02
  1.727472e+00    1.005993e+00   1.338072e-02
  1.729682e+00    1.009915e+00   1.339339e-02
  1.731893e+00    9.945372e-01   1.327723e-02
  1.734103e+00    1.005477e+00   1.333629e-02
  1.736313e+00    1.016121e+00   1.339261e-02
  1.738524e+00    1.005290e+00   1.330720e-02
  1.740734e+00    9.826652e-01   1.314301e-02
  1.742945e+00    9.609337e-01   1.298367e-02
  1.745155e+00    9.540924e-01   1.292416e-02
  1.747366e+00    9.844900e-01   1.311465e-02
  1.749576e+00    9.881545e-01   1.312536e-02
  1.751787e+00    9.725497e-01   1.300804e-02
  1.753997e+00    9.434001e-01   1.279849e-02
  1.756208e+00    9.378545e-01   1.274785e-02
  1.758418e+00    9.530198e-01   1.283752e-02
  1.760628e+00    9.663134e-01   1.291342e-02
  1.762839e+00    9.490451e-01   1.278441e-02
  1.765049e+00    9.437367e-01   1.273562e-02
  1.767260e+00    9.164186e-01   1.253743e-02
  1.769470e+00    9.219178e-01   1.256220e-02
  1.771681e+00    9.522995e-01   1.275440e-02
  1.773891e+00    9.116791e-01   1.246664e-02
  1.776102e+00    9.247146e-01   1.254271e-02
  1.778312e+00    9.162689e-01   1.247277e-02
  1.780523e+00    9.180515e-01   1.247232e-02
  1.782733e+00    9.321482e-01   1.255507e-02
  1.784944e+00    9.262863e-01   1.250272e-02
  1.787154e+00    9.178560e-01   1.243326e-02
  1.789364e+00    9.128505e-01   1.238694e-02
  1.791575e+00    9.193917e-01   1.241877e-02
  1.793785e+00    9.184204e-01   1.239981e-02
  1.795996e+00    9.099558e-01   1.233012e-02
  1.798206e+00    8.927633e-01   1.220074e-02
  1.800417e+00    8.895130e-01   1.216602e-02
  1.802627e+00    8.863107e-01   1.213235e-02
  1.804838e+00    8.701511e-01   1.200940e-02
  1.807048e+00    8.892290e-01   1.212763e-02
  1.809259e+00    9.028059e-01   1.220630e-02
  1.811469e+00    9.203906e-01   1.230953e-02
  1.813679e+00    8.765197e-01   1.199781e-02
  1.815890e+00    8.816085e-01   1.201796e-02
  1.818100e+00    8.766471e-01   1.196918e-02
  1.820311e+00    8.441604e-01   1.173096e-02
  1.822521e+00    8.295898e-01   1.161492e-02
  1.824732e+00    8.404543e-01   1.167634e-02
  1.826942e+00    8.359196e-01   1.163283e-02
  1.829153e+00    8.458126e-01   1.169003e-02
  1.831363e+00    8.502668e-01   1.170896e-02
  1.833574e+00    8.637412e-01   1.178983e-02
  1.835784e+00    8.471686e-01   1.166496e-02
  1.837994e+00    8.536329e-01   1.169782e-02
  1.840205e+00    8.579149e-01   1.171606e-02
  1.842415e+00    8.589596e-01   1.171152e-02
  1.844626e+00    8.326455e-01   1.151943e-02
  1.846836e+00    8.471118e-01   1.160777e-02
  1.849047e+00    8.248522e-01   1.144293e-02
  1.851257e+00    8.380041e-01   1.152434e-02
  1.853468e+00    8.440285e-01   1.155701e-02
  1.855678e+00    8.505662e-01   1.159283e-02
  1.857889e+00    8.570406e-01   1.162839e-02
  1.860099e+00    8.509988e-01   1.157874e-02
  1.862309e+00    8.376231e-01   1.147896e-02
  1.864520e+00    8.134307e-01   1.130363e-02
  1.866730e+00    8.248705e-01   1.137359e-02
  1.868941e+00    8.528757e-01   1.155412e-02
  1.871151e+00    8.349627e-01   1.142087e-02
  1.873362e+00    8.407058e-01   1.144879e-02
  1.875572e+00    8.716239e-01   1.164631e-02
  1.877783e+00    8.711638e-01   1.163169e-02
  1.879993e+00    8.581684e-01   1.153336e-02
  1.882204e+00    8.492710e-01   1.146251e-02
  1.884414e+00    8.303767e-01   1.132328e-02
  1.886624e+00    8.404851e-01   1.138095e-02
  1.888835e+00    8.383657e-01   1.135563e-02
  1.891045e+00    8.386400e-01   1.134662e-02
  1.893256e+00    8.448941e-01   1.137770e-02
  1.895466e+00    8.665745e-01   1.151142e-02
  1.897677e+00    8.303010e-01   1.125704e-02
  1.899887e+00    8.219661e-01   1.118946e-02
  1.902098e+00    8.364552e-01   1.127679e-02
  1.904308e+00    8.327532e-01   1.124122e-02
  1.906519e+00    8.321021e-01   1.122596e-02
  1.908729e+00    8.410673e-01   1.127561e-02
  1.910940e+00    8.220814e-01   1.113651e-02
  1.913150e+00    8.390504e-01   1.124018e-02
  1.915360e+00    8.683231e-01   1.142367e-02
  1.917571e+00    8.775614e-01   1.147308e-02
  1.919781e+00    8.502983e-01   1.128258e-02
  1.921992e+00    8.351139e-01   1.117066e-02
  1.924202e+00    8.431068e-01   1.121305e-02
  1.926413e+00    8.662460e-01   1.135526e-02
  1.928623e+00    8.700330e-01   1.136919e-02
  1.930834e+00    8.456645e-01   1.119820e-02
  1.933044e+00    8.022709e-01   1.089651e-02
  1.935255e+00    8.156063e-01   1.097630e-02
  1.937465e+00    8.426489e-01   1.114619e-02
  1.939675e+00    8.232376e-01   1.100612e-02
  1.941886e+00    7.959974e-01   1.081225e-02
  1.944096e+00    7.989804e-01   1.082234e-02
  1.946307e+00    8.018982e-01   1.083174e-02
  1.948517e+00    7.964292e-01   1.078433e-02
  1.950728e+00    7.839767e-01   1.068953e-02
  1.952938e+00    7.789877e-01   1.064549e-02
  1.955149e+00    7.912173e-01   1.071852e-02
  1.957359e+00    8.095517e-01   1.083188e-02
  1.959570e+00    7.844943e-01   1.065213e-02
  1.961780e+00    7.772820e-01   1.059322e-02
  1.963990e+00    7.876090e-01   1.065328e-02
  1.966201e+00    7.913888e-01   1.066874e-02
  1.968411e+00    8.117548e-01   1.079486e-02
  1.970622e+00    7.638617e-01   1.046165e-02
  1.972832e+00    7.737269e-01   1.051906e-02
  1.975043e+00    7.898046e-01   1.061776e-02
  1.977253e+00    7.795398e-01   1.053861e-02
  1.979464e+00    7.963807e-01   1.064171e-02
  1.981674e+00    8.193918e-01   1.078387e-02
  1.983885e+00    8.201460e-01   1.077859e-02
  1.986095e+00    7.840102e-01   1.052872e-02
  1.988305e+00    7.984250e-01   1.061506e-02
  1.990516e+00    7.743396e-01   1.044385e-02
  1.992726e+00    7.814737e-01   1.048211e-02
  1.994937e+00    8.419619e-01   1.086968e-02
  1.997147e+00    8.718906e-01   1.105091e-02
  1.999358e+00    8.168227e-01   1.068612e-02
  2.001568e+00    8.024513e-01   1.058068e-02
  2.003779e+00    7.701433e-01   1.035359e-02
  2.005989e+00    7.710522e-01   1.034768e-02
  2.008200e+00    7.606609e-01   1.026626e-02
  2.010410e+00    7.659093e-01   1.028989e-02
  2.012621e+00    7.716110e-01   1.031639e-02
  2.014831e+00    7.784563e-01   1.035051e-02
  2.017041e+00    7.739518e-01   1.031008e-02
  2.019252e+00    7.603303e-01   1.020902e-02
  2.021462e+00    7.541616e-01   1.015809e-02
  2.023673e+00    7.561239e-01   1.016197e-02
  2.025883e+00    7.422433e-01   1.005886e-02
  2.028094e+00    7.442936e-01   1.006321e-02
  2.030304e+00    7.693992e-01   1.022194e-02
  2.032515e+00    7.733354e-01   1.023868e-02
  2.034725e+00    7.719988e-01   1.022032e-02
  2.036936e+00    7.579099e-01   1.011729e-02
  2.039146e+00    7.586359e-01   1.011255e-02
  2.041356e+00    7.706085e-01   1.018230e-02
  2.043567e+00    7.705411e-01   1.017247e-02
  2.045777e+00    7.394835e-01   9.956208e-03
  2.047988e+00    7.335430e-01   9.906879e-03
  2.050198e+00    7.402749e-01   9.943893e-03
  2.052409e+00    7.289644e-01   9.860090e-03
  2.054619e+00    7.390763e-01   9.920936e-03
  2.056830e+00    7.538192e-01   1.001220e-02
  2.059040e+00    7.426190e-01   9.930077e-03
  2.061251e+00    7.596180e-01   1.003579e-02
  2.063461e+00    7.583932e-01   1.002006e-02
  2.065671e+00    7.613593e-01   1.003084e-02
  2.067882e+00    7.574856e-01   9.996237e-03
  2.070092e+00    7.600895e-01   1.000413e-02
  2.072303e+00    7.492811e-01   9.923586e-03
  2.074513e+00    7.386321e-01   9.843554e-03
  2.076724e+00    7.205006e-01   9.712666e-03
  2.078934e+00    7.210032e-01   9.707174e-03
  2.081145e+00    7.319898e-01   9.771842e-03
  2.083355e+00    7.344524e-01   9.779151e-03
  2.085566e+00    7.415772e-01   9.817530e-03
  2.087776e+00    7.323696e-01   9.746970e-03
  2.089986e+00    7.102321e-01   9.589889e-03
  2.092197e+00    7.269045e-01   9.692896e-03
  2.094407e+00    7.386340e-01   9.761550e-03
  2.096618e+00    7.300908e-01   9.696078e-03
  2.098828e+00    7.119573e-01   9.565736e-03
  2.101039e+00    7.175527e-01   9.594362e-03
  2.103249e+00    7.144231e-01   9.564857e-03
  2.105460e+00    6.986279e-01   9.449705e-03
  2.107670e+00    7.053017e-01   9.486140e-03
  2.109881e+00    7.110184e-01   9.515438e-03
  2.112091e+00    7.218454e-01   9.578659e-03
  2.114301e+00    7.106752e-01   9.495565e-03
  2.116512e+00    6.993284e-01   9.410799e-03
  2.118722e+00    6.943352e-01   9.368481e-03
  2.120933e+00    7.227109e-01   9.549125e-03
  2.123143e+00    7.040136e-01   9.416002e-03
  2.125354e+00    7.006237e-01   9.384849e-03
  2.127564e+00    7.212371e-01   9.513146e-03
  2.129775e+00    7.157811e-01   9.468390e-03
  2.131985e+00    7.035083e-01   9.377867e-03
  2.134196e+00    7.089427e-01   9.405460e-03
  2.136406e+00    6.933359e-01   9.292726e-03
  2.138617e+00    6.956668e-01   9.299964e-03
  2.140827e+00    6.967841e-01   9.323342e-03
  2.143037e+00    7.040699e-01   9.417358e-03
  2.145248e+00    6.926348e-01   9.362360e-03
  2.147458e+00    6.816460e-01   9.302686e-03
  2.149669e+00    6.816670e-01   9.314497e-03
  2.151879e+00    6.752415e-01   9.279530e-03
  2.154090e+00    6.902372e-01   9.389257e-03
  2.156300e+00    7.051787e-01   9.496977e-03
  2.158511e+00    6.989049e-01   9.459945e-03
  2.160721e+00    6.823471e-01   9.351964e-03
  2.162932e+00    6.930416e-01   9.428699e-03
  2.165142e+00    6.804638e-01   9.345729e-03
  2.167352e+00    6.945008e-01   9.444539e-03
  2.169563e+00    6.927910e-01   9.434858e-03
  2.171773e+00    6.963059e-01   9.461226e-03
  2.173984e+00    6.843846e-01   9.381271e-03
  2.176194e+00    6.713473e-01   9.292688e-03
  2.178405e+00    6.638740e-01   9.241482e-03
  2.180615e+00    6.679096e-01   9.270210e-03
  2.182826e+00    6.734501e-01   9.309233e-03
  2.185036e+00    6.894158e-01   9.419000e-03
  2.187247e+00    6.891142e-01   9.416888e-03
  2.189457e+00    6.753560e-01   9.322012e-03
  2.191667e+00    6.730269e-01   9.305751e-03
  2.193878e+00    6.681455e-01   9.271376e-03
  2.196088e+00    6.646460e-01   9.246399e-03
  2.198299e+00    6.671090e-01   9.262425e-03
  2.200509e+00    6.645234e-01   9.243431e-03
  2.202720e+00    6.835923e-01   9.373942e-03
  2.204930e+00    6.733285e-01   9.302087e-03
  2.207141e+00    6.751747e-01   9.313719e-03
  2.209351e+00    6.812611e-01   9.353716e-03
  2.211562e+00    6.815869e-01   9.354327e-03
  2.213772e+00    6.778567e-01   9.273183e-03
  2.215982e+00    6.657600e-01   9.146187e-03
  2.218193e+00    6.698187e-01   9.144514e-03
  2.220403e+00    6.740658e-01   9.148899e-03
  2.222614e+00    6.648579e-01   9.065374e-03
  2.224824e+00    6.558292e-01   8.984498e-03
  2.227035e+00    6.536145e-01   8.952100e-03
  2.229245e+00    6.594840e-01   8.975408e-03
  2.231456e+00    6.602650e-01   8.965223e-03
  2.233666e+00    6.689034e-01   9.008617e-03
  2.235877e+00    6.634029e-01   8.957306e-03
  2.238087e+00    6.685290e-01   8.978382e-03
  2.240298e+00    6.745400e-01   9.004834e-03
  2.242508e+00    6.701608e-01   8.960417e-03
  2.244718e+00    6.700221e-01   8.943656e-03
  2.246929e+00    6.815603e-01   9.005788e-03
  2.249139e+00    6.802858e-01   8.984841e-03
  2.251350e+00    6.702781e-01   8.906799e-03
  2.253560e+00    6.569254e-01   8.806132e-03
  2.255771e+00    6.646067e-01   8.846076e-03
  2.257981e+00    6.628320e-01   8.823097e-03
  2.260192e+00    6.711509e-01   8.867121e-03
  2.262402e+00    6.616725e-01   8.793472e-03
  2.264613e+00    6.616278e-01   8.782329e-03
  2.266823e+00    6.764203e-01   8.869486e-03
  2.269033e+00    6.814556e-01   8.891885e-03
  2.271244e+00    6.858384e-01   8.909895e-03
  2.273454e+00    6.513442e-01   8.672764e-03
  2.275665e+00    6.453732e-01   8.622722e-03
  2.277875e+00    6.731266e-01   8.796170e-03
  2.280086e+00    6.484994e-01   8.623813e-03
  2.282296e+00    6.529776e-01   8.644172e-03
  2.284507e+00    6.595566e-01   8.677466e-03
  2.286717e+00    6.429647e-01   8.558276e-03
  2.288928e+00    6.345722e-01   8.492546e-03
  2.291138e+00    6.272704e-01   8.434325e-03
  2.293348e+00    6.341654e-01   8.471170e-03
  2.295559e+00    6.380749e-01   8.488049e-03
  2.297769e+00    6.604224e-01   8.626121e-03
  2.299980e+00    6.473512e-01   8.531049e-03
  2.302190e+00    6.640694e-01   8.631296e-03
  2.304401e+00    6.425582e-01   8.481113e-03
  2.306611e+00    6.435183e-01   8.478288e-03
  2.308822e+00    6.526824e-01   8.530058e-03
  2.311032e+00    6.371675e-01   8.421684e-03
  2.313243e+00    6.445997e-01   8.464412e-03
  2.315453e+00    6.337456e-01   8.385357e-03
  2.317663e+00    6.365505e-01   8.394840e-03
  2.319874e+00    6.493542e-01   8.470108e-03
  2.322084e+00    6.362016e-01   8.374990e-03
  2.324295e+00    6.302285e-01   8.327462e-03
  2.326505e+00    6.222143e-01   8.265430e-03
  2.328716e+00    6.416742e-01   8.385156e-03
  2.330926e+00    6.459751e-01   8.404402e-03
  2.333137e+00    6.351485e-01   8.325339e-03
  2.335347e+00    6.360949e-01   8.322710e-03
  2.337558e+00    6.317270e-01   8.285909e-03
  2.339768e+00    6.304147e-01   8.268789e-03
  2.341979e+00    6.119122e-01   8.138360e-03
  2.344189e+00    6.285763e-01   8.240079e-03
  2.346399e+00    6.216611e-01   8.186251e-03
  2.348610e+00    6.250505e-01   8.200131e-03
  2.350820e+00    6.223462e-01   8.174290e-03
  2.353031e+00    6.098477e-01   8.083662e-03
  2.355241e+00    6.136348e-01   8.100790e-03
  2.357452e+00    6.081895e-01   8.056509e-03
  2.359662e+00    6.270006e-01   8.171952e-03
  2.361873e+00    6.328751e-01   8.201908e-03
  2.364083e+00    6.281990e-01   8.163577e-03
  2.366294e+00    6.182204e-01   8.090414e-03
  2.368504e+00    6.105942e-01   8.032416e-03
  2.370714e+00    6.277253e-01   8.136211e-03
  2.372925e+00    6.135630e-01   8.035954e-03
  2.375135e+00    6.103147e-01   8.006679e-03
  2.377346e+00    6.110078e-01   8.003366e-03
  2.379556e+00    6.061053e-01   7.963392e-03
  2.381767e+00    6.119990e-01   7.994216e-03
  2.383977e+00    6.270025e-01   8.083642e-03
  2.386188e+00    6.179613e-01   8.017248e-03
  2.388398e+00    5.992573e-01   7.887172e-03
  2.390609e+00    5.917711e-01   7.830144e-03
  2.392819e+00    6.104069e-01   7.944765e-03
  2.395029e+00    6.168655e-01   7.979007e-03
  2.397240e+00    6.157638e-01   7.964019e-03
  2.399450e+00    6.066009e-01   7.896781e-03
  2.401661e+00    5.968791e-01   7.825650e-03
  2.403871e+00    6.022630e-01   7.853152e-03
  2.406082e+00    6.176385e-01   7.945311e-03
  2.408292e+00    6.079507e-01   7.874949e-03
  2.410503e+00    6.015291e-01   7.825817e-03
  2.412713e+00    5.900196e-01   7.742895e-03
  2.414924e+00    6.044152e-01   7.829304e-03
  2.417134e+00    5.875666e-01   7.711893e-03
  2.419344e+00    5.815457e-01   7.664999e-03
  2.421555e+00    5.851883e-01   7.681549e-03
  2.423765e+00    5.982471e-01   7.759410e-03
  2.425976e+00    6.142935e-01   7.854857e-03
  2.428186e+00    6.172113e-01   7.866199e-03
  2.430397e+00    5.990509e-01   7.742108e-03
  2.432607e+00    5.991848e-01   7.735671e-03
  2.434818e+00    5.880774e-01   7.656141e-03
  2.437028e+00    5.852552e-01   7.630655e-03
  2.439239e+00    5.929335e-01   7.672884e-03
  2.441449e+00    5.989804e-01   7.704682e-03
  2.443659e+00    5.813686e-01   7.583283e-03
  2.445870e+00    5.729184e-01   7.540040e-03
  2.448080e+00    5.712547e-01   7.563528e-03
  2.450291e+00    5.698123e-01   7.570481e-03
  2.452501e+00    5.603307e-01   7.518247e-03
  2.454712e+00    5.583432e-01   7.513204e-03
  2.456922e+00    5.615941e-01   7.541609e-03
  2.459133e+00    5.573584e-01   7.518513e-03
  2.461343e+00    5.587050e-01   7.531902e-03
  2.463554e+00    5.463210e-01   7.451383e-03
  2.465764e+00    5.437728e-01   7.437065e-03
  2.467975e+00    5.432934e-01   7.436019e-03
  2.470185e+00    5.569893e-01   7.531423e-03
  2.472395e+00    5.592193e-01   7.547711e-03
  2.474606e+00    5.511633e-01   7.494714e-03
  2.476816e+00    5.415233e-01   7.429617e-03
  2.479027e+00    5.398709e-01   7.419103e-03
  2.481237e+00    5.360898e-01   7.393342e-03
  2.483448e+00    5.489699e-01   7.481954e-03
  2.485658e+00    5.502430e-01   7.490464e-03
  2.487869e+00    5.378358e-01   7.405584e-03
  2.490079e+00    5.338519e-01   7.377589e-03
  2.492290e+00    5.322758e-01   7.366255e-03
  2.494500e+00    5.302123e-01   7.351229e-03
  2.496710e+00    5.289534e-01   7.341826e-03
  2.498921e+00    5.377569e-01   7.401644e-03
  2.501131e+00    5.268971e-01   7.325614e-03
  2.503342e+00    5.109783e-01   7.212857e-03
  2.505552e+00    5.265252e-01   7.320618e-03
  2.507763e+00    5.270310e-01   7.322746e-03
  2.509973e+00    5.138267e-01   7.229044e-03
  2.512184e+00    5.299150e-01   7.339719e-03
  2.514394e+00    5.388284e-01   7.391734e-03
  2.516605e+00    5.370053e-01   7.331703e-03
  2.518815e+00    5.191115e-01   7.180368e-03
  2.521025e+00    5.265603e-01   7.210714e-03
  2.523236e+00    5.290563e-01   7.209731e-03
  2.525446e+00    5.267492e-01   7.178389e-03
  2.527657e+00    5.245512e-01   7.148795e-03
  2.529867e+00    5.294589e-01   7.167915e-03
  2.532078e+00    5.366632e-01   7.201319e-03
  2.534288e+00    5.208448e-01   7.080568e-03
  2.536499e+00    5.006070e-01   6.929983e-03
  2.538709e+00    5.135807e-01   7.008296e-03
  2.540920e+00    5.353178e-01   7.144322e-03
  2.543130e+00    5.475556e-01   7.214948e-03
  2.545340e+00    5.268074e-01   7.066839e-03
  2.547551e+00    5.221699e-01   7.025724e-03
  2.549761e+00    5.189015e-01   6.994151e-03
  2.551972e+00    5.186149e-01   6.982894e-03
  2.554182e+00    5.222798e-01   6.998337e-03
  2.556393e+00    5.266947e-01   7.018697e-03
  2.558603e+00    5.348212e-01   7.063466e-03
  2.560814e+00    5.094249e-01   6.885092e-03
  2.563024e+00    5.253878e-01   6.983487e-03
  2.565235e+00    5.285164e-01   6.994681e-03
  2.567445e+00    5.200039e-01   6.928558e-03
  2.569656e+00    5.005454e-01   6.788105e-03
  2.571866e+00    5.214448e-01   6.918958e-03
  2.574076e+00    5.175369e-01   6.883732e-03
  2.576287e+00    5.311435e-01   6.965165e-03
  2.578497e+00    5.382420e-01   7.003568e-03
  2.580708e+00    5.215979e-01   6.886301e-03
  2.582918e+00    5.170981e-01   6.848741e-03
  2.585129e+00    5.115388e-01   6.804104e-03
  2.587339e+00    5.059457e-01   6.759187e-03
  2.589550e+00    5.072345e-01   6.760260e-03
  2.591760e+00    5.096474e-01   6.768627e-03
  2.593971e+00    4.935290e-01   6.653338e-03
  2.596181e+00    4.970514e-01   6.670887e-03
  2.598391e+00    5.078591e-01   6.737860e-03
  2.600602e+00    5.106926e-01   6.750701e-03
  2.602812e+00    5.125453e-01   6.755390e-03
  2.605023e+00    5.135348e-01   6.754690e-03
  2.607233e+00    5.135342e-01   6.747524e-03
  2.609444e+00    4.981696e-01   6.638648e-03
  2.611654e+00    5.146090e-01   6.739916e-03
  2.613865e+00    5.050749e-01   6.670158e-03
  2.616075e+00    4.908045e-01   6.568231e-03
  2.618286e+00    5.113922e-01   6.697530e-03
  2.620496e+00    5.112752e-01   6.690030e-03
  2.622706e+00    5.051422e-01   6.644043e-03
  2.624917e+00    4.909946e-01   6.544572e-03
  2.627127e+00    5.006994e-01   6.603203e-03
  2.629338e+00    4.997096e-01   6.590731e-03
  2.631548e+00    4.940793e-01   6.547379e-03
  2.633759e+00    4.999445e-01   6.578993e-03
  2.635969e+00    4.931071e-01   6.527223e-03
  2.638180e+00    5.022641e-01   6.580555e-03
  2.640390e+00    5.042677e-01   6.587056e-03
  2.642601e+00    4.908058e-01   6.491933e-03
  2.644811e+00    5.086243e-01   6.601593e-03
  2.647021e+00    4.943579e-01   6.501819e-03
  2.649232e+00    4.995764e-01   6.529338e-03
  2.651442e+00    4.923905e-01   6.475739e-03
  2.653653e+00    5.001872e-01   6.520011e-03
  2.655863e+00    4.946859e-01   6.477403e-03
  2.658074e+00    5.012822e-01   6.513797e-03
  2.660284e+00    4.994267e-01   6.495381e-03
  2.662495e+00    4.944268e-01   6.456045e-03
  2.664705e+00    4.928908e-01   6.439457e-03
  2.666916e+00    5.015391e-01   6.489219e-03
  2.669126e+00    4.893465e-01   6.403447e-03
  2.671337e+00    4.969693e-01   6.446526e-03
  2.673547e+00    4.977278e-01   6.445058e-03
  2.675757e+00    5.004367e-01   6.456078e-03
  2.677968e+00    4.929633e-01   6.401184e-03
  2.680178e+00    4.843473e-01   6.338660e-03
  2.682389e+00    4.930481e-01   6.388923e-03
  2.684599e+00    4.975028e-01   6.411532e-03
  2.686810e+00    4.836147e-01   6.314838e-03
  2.689020e+00    4.903055e-01   6.352114e-03
  2.691231e+00    4.779462e-01   6.265315e-03
  2.693441e+00    4.888113e-01   6.329998e-03
  2.695652e+00    4.881212e-01   6.319033e-03
  2.697862e+00    4.969505e-01   6.369540e-03
  2.700072e+00    4.816429e-01   6.264639e-03
  2.702283e+00    4.736055e-01   6.206041e-03
  2.704493e+00    4.755085e-01   6.212283e-03
  2.706704e+00    4.827633e-01   6.253123e-03
  2.708914e+00    4.775081e-01   6.213109e-03
  2.711125e+00    4.747179e-01   6.188759e-03
  2.713335e+00    4.832481e-01   6.238041e-03
  2.715546e+00    4.813463e-01   6.219352e-03
  2.717756e+00    4.789211e-01   6.197801e-03
  2.719967e+00    4.971960e-01   6.308671e-03
  2.722177e+00    4.904537e-01   6.259606e-03
  2.724387e+00    4.822388e-01   6.200867e-03
  2.726598e+00    4.874134e-01   6.227976e-03
  2.728808e+00    4.897541e-01   6.236731e-03
  2.731019e+00    4.865800e-01   6.210355e-03
  2.733229e+00    4.931027e-01   6.245985e-03
  2.735440e+00    4.790656e-01   6.150211e-03
  2.737650e+00    4.869444e-01   6.194528e-03
  2.739861e+00    4.928611e-01   6.225925e-03
  2.742071e+00    4.880534e-01   6.189723e-03
  2.744282e+00    4.797707e-01   6.130739e-03
  2.746492e+00    4.712786e-01   6.070273e-03
  2.748702e+00    4.869568e-01   6.164477e-03
  2.750913e+00    4.779000e-01   6.101112e-03
  2.753123e+00    4.799029e-01   6.107789e-03
  2.755334e+00    4.829829e-01   6.121253e-03
  2.757544e+00    4.767421e-01   6.075876e-03
  2.759755e+00    4.746823e-01   6.056885e-03
  2.761965e+00    4.872316e-01   6.130385e-03
  2.764176e+00    4.775968e-01   6.063515e-03
  2.766386e+00    4.732633e-01   6.030193e-03
  2.768597e+00    4.836251e-01   6.089951e-03
  2.770807e+00    4.716050e-01   6.007971e-03
  2.773017e+00    4.742063e-01   6.018570e-03
  2.775228e+00    4.891098e-01   6.106574e-03
  2.777438e+00    4.715618e-01   5.990279e-03
  2.779649e+00    4.630720e-01   5.930299e-03
  2.781859e+00    4.588703e-01   5.897683e-03
  2.784070e+00    4.682398e-01   5.951787e-03
  2.786280e+00    4.686521e-01   5.948683e-03
  2.788491e+00    4.744182e-01   5.979356e-03
  2.790701e+00    4.751990e-01   5.978628e-03
  2.792912e+00    4.791861e-01   5.997678e-03
  2.795122e+00    4.722996e-01   5.948724e-03
  2.797333e+00    4.647662e-01   5.895579e-03
  2.799543e+00    4.773345e-01   5.968901e-03
  2.801753e+00    4.739196e-01   5.941655e-03
  2.803964e+00    4.713653e-01   5.919993e-03
  2.806174e+00    4.610809e-01   5.848996e-03
  2.808385e+00    4.676845e-01   5.883985e-03
  2.810595e+00    4.837040e-01   5.976966e-03
  2.812806e+00    4.695263e-01   5.882171e-03
  2.815016e+00    4.688854e-01   5.873421e-03
  2.817227e+00    4.693485e-01   5.902120e-03
  2.819437e+00    4.744754e-01   5.945354e-03
  2.821648e+00    4.711239e-01   5.926621e-03
  2.823858e+00    4.579982e-01   5.848709e-03
  2.826068e+00    4.703581e-01   5.932078e-03
  2.828279e+00    4.790769e-01   5.990859e-03
  2.830489e+00    4.706722e-01   5.941438e-03
  2.832700e+00    4.667376e-01   5.919069e-03
  2.834910e+00    4.764491e-01   5.982407e-03
  2.837121e+00    4.853528e-01   6.039802e-03
  2.839331e+00    4.811780e-01   6.014995e-03
  2.841542e+00    4.792913e-01   6.004230e-03
  2.843752e+00    4.826013e-01   6.025713e-03
  2.845963e+00    4.707135e-01   5.951449e-03
  2.848173e+00    4.688358e-01   5.939619e-03
  2.850383e+00    4.839813e-01   6.035117e-03
  2.852594e+00    4.705942e-01   5.950993e-03
  2.854804e+00    4.572121e-01   5.865262e-03
  2.857015e+00    4.567706e-01   5.862000e-03
  2.859225e+00    4.676453e-01   5.931109e-03
  2.861436e+00    4.708061e-01   5.950483e-03
  2.863646e+00    4.602539e-01   5.883446e-03
  2.865857e+00    4.583703e-01   5.871728e-03
  2.868067e+00    4.690867e-01   5.940198e-03
  2.870278e+00    4.667640e-01   5.925123e-03
  2.872488e+00    4.625931e-01   5.897420e-03
  2.874698e+00    4.631424e-01   5.899891e-03
  2.876909e+00    4.640841e-01   5.904551e-03
  2.879119e+00    4.611174e-01   5.884031e-03
  2.881330e+00    4.608140e-01   5.880623e-03
  2.883540e+00    4.642308e-01   5.900997e-03
  2.885751e+00    4.581845e-01   5.860806e-03
  2.887961e+00    4.661494e-01   5.909631e-03
  2.890172e+00    4.687236e-01   5.924309e-03
  2.892382e+00    4.526761e-01   5.820232e-03
  2.894593e+00    4.596877e-01   5.863304e-03
  2.896803e+00    4.633229e-01   5.884471e-03
  2.899014e+00    4.626611e-01   5.878332e-03
  2.901224e+00    4.671757e-01   5.904958e-03
  2.903434e+00    4.555705e-01   5.829213e-03
  2.905645e+00    4.592380e-01   5.850400e-03
  2.907855e+00    4.479595e-01   5.776057e-03
  2.910066e+00    4.512382e-01   5.795069e-03
  2.912276e+00    4.572609e-01   5.831509e-03
  2.914487e+00    4.517863e-01   5.794066e-03
  2.916697e+00    4.448007e-01   5.746880e-03
  2.918908e+00    4.638002e-01   5.866344e-03
  2.921118e+00    4.648724e-01   5.870395e-03
  2.923329e+00    4.545497e-01   5.802558e-03
  2.925539e+00    4.511026e-01   5.778233e-03
  2.927749e+00    4.712913e-01   5.903776e-03
  2.929960e+00    4.534175e-01   5.787987e-03
  2.932170e+00    4.517974e-01   5.775306e-03
  2.934381e+00    4.507968e-01   5.766493e-03
  2.936591e+00    4.670053e-01   5.866634e-03
  2.938802e+00    4.523028e-01   5.770858e-03
  2.941012e+00    4.487293e-01   5.745689e-03
  2.943223e+00    4.443245e-01   5.714761e-03
  2.945433e+00    4.495147e-01   5.744333e-03
  2.947644e+00    4.467655e-01   5.722631e-03
  2.949854e+00    4.503063e-01   5.741034e-03
  2.952064e+00    4.527617e-01   5.752447e-03
  2.954275e+00    4.510720e-01   5.737309e-03
  2.956485e+00    4.552561e-01   5.759674e-03
  2.958696e+00    4.541059e-01   5.748023e-03
  2.960906e+00    4.476510e-01   5.702874e-03
  2.963117e+00    4.474479e-01   5.697128e-03
  2.965327e+00    4.548972e-01   5.740463e-03
  2.967538e+00    4.413593e-01   5.651515e-03
  2.969748e+00    4.477004e-01   5.689183e-03
  2.971959e+00    4.513281e-01   5.709055e-03
  2.974169e+00    4.432593e-01   5.655244e-03
  2.976379e+00    4.470672e-01   5.676578e-03
  2.978590e+00    4.522202e-01   5.706086e-03
  2.980800e+00    4.425552e-01   5.642002e-03
  2.983011e+00    4.547211e-01   5.716235e-03
  2.985221e+00    4.437239e-01   5.643577e-03
  2.987432e+00    4.533097e-01   5.701086e-03
  2.989642e+00    4.542855e-01   5.704612e-03
  2.991853e+00    4.445595e-01   5.639957e-03
  2.994063e+00    4.503678e-01   5.673789e-03
  2.996274e+00    4.489564e-01   5.661721e-03
  2.998484e+00    4.633146e-01   5.748816e-03
  3.000694e+00    4.583600e-01   5.714536e-03
  3.002905e+00    4.544965e-01   5.687452e-03
  3.005115e+00    4.647501e-01   5.748228e-03
  3.007326e+00    4.635788e-01   5.737792e-03
  3.009536e+00    4.652004e-01   5.744530e-03
  3.011747e+00    4.624502e-01   5.724582e-03
  3.013957e+00    4.556746e-01   5.679294e-03
  3.016168e+00    4.571771e-01   5.685377e-03
  3.018378e+00    4.490982e-01   5.631893e-03
  3.020589e+00    4.444408e-01   5.599436e-03
  3.022799e+00    4.486231e-01   5.622557e-03
  3.025010e+00    4.436609e-01   5.588173e-03
  3.027220e+00    4.561539e-01   5.663175e-03
  3.029430e+00    4.587702e-01   5.676135e-03
  3.031641e+00    4.506929e-01   5.622811e-03
  3.033851e+00    4.545784e-01   5.643466e-03
  3.036062e+00    4.410026e-01   5.555821e-03
  3.038272e+00    4.447162e-01   5.575595e-03
  3.040483e+00    4.514629e-01   5.614514e-03
  3.042693e+00    4.484342e-01   5.592401e-03
  3.044904e+00    4.532606e-01   5.618374e-03
  3.047114e+00    4.572734e-01   5.638366e-03
  3.049325e+00    4.595804e-01   5.648118e-03
  3.051535e+00    4.515651e-01   5.594251e-03
  3.053745e+00    4.397407e-01   5.515852e-03
  3.055956e+00    4.306743e-01   5.454204e-03
  3.058166e+00    4.438396e-01   5.532708e-03
  3.060377e+00    4.373854e-01   5.487643e-03
  3.062587e+00    4.537607e-01   5.584766e-03
  3.064798e+00    4.509894e-01   5.563431e-03
  3.067008e+00    4.446490e-01   5.519481e-03
  3.069219e+00    4.474291e-01   5.532207e-03
  3.071429e+00    4.485053e-01   5.535354e-03
  3.073640e+00    4.530197e-01   5.559797e-03
  3.075850e+00    4.482675e-01   5.526976e-03
  3.078060e+00    4.455793e-01   5.507299e-03
  3.080271e+00    4.449237e-01   5.499769e-03
  3.082481e+00    4.497157e-01   5.525859e-03
  3.084692e+00    4.493498e-01   5.520235e-03
  3.086902e+00    4.499372e-01   5.520592e-03
  3.089113e+00    4.421486e-01   5.469057e-03
  3.091323e+00    4.518894e-01   5.525573e-03
  3.093534e+00    4.320581e-01   5.399670e-03
  3.095744e+00    4.456721e-01   5.480697e-03
  3.097955e+00    4.392804e-01   5.437745e-03
  3.100165e+00    4.382021e-01   5.427766e-03
  3.102375e+00    4.475541e-01   5.481956e-03
  3.104586e+00    4.372525e-01   5.415048e-03
  3.106796e+00    4.403279e-01   5.430565e-03
  3.109007e+00    4.498740e-01   5.485868e-03
  3.111217e+00    4.540859e-01   5.507772e-03
  3.113428e+00    4.439833e-01   5.442761e-03
  3.115638e+00    4.363694e-01   5.392686e-03
  3.117849e+00    4.516759e-01   5.482689e-03
  3.120059e+00    4.612435e-01   5.536923e-03
  3.122270e+00    4.493285e-01   5.461694e-03
  3.124480e+00    4.490865e-01   5.456489e-03
  3.126691e+00    4.618166e-01   5.529666e-03
  3.128901e+00    4.564548e-01   5.494318e-03
  3.131111e+00    4.465517e-01   5.430525e-03
  3.133322e+00    4.463621e-01   5.425949e-03
  3.135532e+00    4.354179e-01   5.355621e-03
  3.137743e+00    4.482948e-01   5.430740e-03
  3.139953e+00    4.283467e-01   5.304937e-03
  3.142164e+00    4.293281e-01   5.322816e-03
  3.144374e+00    4.395494e-01   5.414129e-03
  3.146585e+00    4.344147e-01   5.396842e-03
  3.148795e+00    4.372460e-01   5.425123e-03
  3.151006e+00    4.409766e-01   5.456726e-03
  3.153216e+00    4.628205e-01   5.597580e-03
  3.155426e+00    4.408582e-01   5.469461e-03
  3.157637e+00    4.299825e-01   5.407033e-03
  3.159847e+00    4.267220e-01   5.391274e-03
  3.162058e+00    4.396357e-01   5.476682e-03
  3.164268e+00    4.375789e-01   5.467915e-03
  3.166479e+00    4.288203e-01   5.416510e-03
  3.168689e+00    4.376534e-01   5.475367e-03
  3.170900e+00    4.307359e-01   5.435077e-03
  3.173110e+00    4.365766e-01   5.474665e-03
  3.175321e+00    4.296659e-01   5.433625e-03
  3.177531e+00    4.438887e-01   5.525569e-03
  3.179741e+00    4.441107e-01   5.529069e-03
  3.181952e+00    4.435934e-01   5.527955e-03
  3.184162e+00    4.363316e-01   5.484719e-03
  3.186373e+00    4.301629e-01   5.447384e-03
  3.188583e+00    4.250276e-01   5.416543e-03
  3.190794e+00    4.318924e-01   5.461862e-03
  3.193004e+00    4.274934e-01   5.435191e-03
  3.195215e+00    4.308861e-01   5.458211e-03
  3.197425e+00    4.354370e-01   5.488169e-03
  3.199636e+00    4.328393e-01   5.471014e-03
  3.201846e+00    4.158047e-01   5.361705e-03
  3.204056e+00    4.134493e-01   5.347334e-03
  3.206267e+00    4.367867e-01   5.497032e-03
  3.208477e+00    4.179052e-01   5.377826e-03
  3.210688e+00    4.226308e-01   5.408972e-03
  3.212898e+00    4.133338e-01   5.349702e-03
  3.215109e+00    4.326956e-01   5.474329e-03
  3.217319e+00    4.343986e-01   5.485721e-03
  3.219530e+00    4.201580e-01   5.395473e-03
  3.221740e+00    4.124293e-01   5.346138e-03
  3.223951e+00    4.201375e-01   5.396332e-03
  3.226161e+00    4.383292e-01   5.512111e-03
  3.228372e+00    4.328744e-01   5.478257e-03
  3.230582e+00    4.326451e-01   5.476929e-03
  3.232792e+00    4.248987e-01   5.427911e-03
  3.235003e+00    4.199512e-01   5.396457e-03
  3.237213e+00    4.120623e-01   5.345622e-03
  3.239424e+00    4.235877e-01   5.419876e-03
  3.241634e+00    4.121809e-01   5.346511e-03
  3.243845e+00    4.160141e-01   5.371394e-03
  3.246055e+00    4.250580e-01   5.429187e-03
  3.248266e+00    4.175620e-01   5.381319e-03
  3.250476e+00    4.236110e-01   5.419808e-03
  3.252687e+00    4.360612e-01   5.498845e-03
  3.254897e+00    4.293281e-01   5.456078e-03
  3.257107e+00    4.316549e-01   5.470555e-03
  3.259318e+00    4.176406e-01   5.380761e-03
  3.261528e+00    4.206309e-01   5.399864e-03
  3.263739e+00    4.185230e-01   5.385764e-03
  3.265949e+00    4.301968e-01   5.460223e-03
  3.268160e+00    4.259734e-01   5.432961e-03
  3.270370e+00    4.202401e-01   5.395755e-03
  3.272581e+00    4.029213e-01   5.283134e-03
  3.274791e+00    4.225787e-01   5.409941e-03
  3.277002e+00    4.155738e-01   5.364370e-03
  3.279212e+00    4.131110e-01   5.348071e-03
  3.281422e+00    4.134609e-01   5.349766e-03
  3.283633e+00    4.157521e-01   5.363882e-03
  3.285843e+00    4.235812e-01   5.413826e-03
  3.288054e+00    4.314709e-01   5.463070e-03
  3.290264e+00    4.139487e-01   5.350669e-03
  3.292475e+00    4.232149e-01   5.409407e-03
  3.294685e+00    4.251295e-01   5.420991e-03
  3.296896e+00    4.040039e-01   5.283840e-03
  3.299106e+00    4.142214e-01   5.349682e-03
  3.301317e+00    4.163600e-01   5.362474e-03
  3.303527e+00    4.252698e-01   5.419049e-03
  3.305737e+00    4.296778e-01   5.446029e-03
  3.307948e+00    4.281153e-01   5.435457e-03
  3.310158e+00    4.238440e-01   5.407412e-03
  3.312369e+00    4.038974e-01   5.277783e-03
  3.314579e+00    4.153939e-01   5.351448e-03
  3.316790e+00    4.265223e-01   5.421947e-03
  3.319000e+00    4.195419e-01   5.376227e-03
  3.321211e+00    4.221218e-01   5.392125e-03
  3.323421e+00    4.363290e-01   5.480872e-03
  3.325632e+00    4.189709e-01   5.369897e-03
  3.327842e+00    4.177152e-01   5.360916e-03
  3.330052e+00    4.232314e-01   5.395116e-03
  3.332263e+00    4.227822e-01   5.391242e-03
  3.334473e+00    4.291466e-01   5.430751e-03
  3.336684e+00    4.260367e-01   5.409759e-03
  3.338894e+00    4.152461e-01   5.339982e-03
  3.341105e+00    4.202185e-01   5.370653e-03
  3.343315e+00    4.185729e-01   5.359002e-03
  3.345526e+00    4.241265e-01   5.393500e-03
  3.347736e+00    4.171826e-01   5.347786e-03
  3.349947e+00    4.201358e-01   5.365747e-03
  3.352157e+00    4.125659e-01   5.316021e-03
  3.354368e+00    4.101256e-01   5.299000e-03
  3.356578e+00    4.084190e-01   5.286942e-03
  3.358788e+00    4.240802e-01   5.386028e-03
  3.360999e+00    4.134137e-01   5.316629e-03
  3.363209e+00    4.125959e-01   5.310355e-03
  3.365420e+00    4.061857e-01   5.267445e-03
  3.367630e+00    4.064937e-01   5.268439e-03
  3.369841e+00    4.142343e-01   5.316940e-03
  3.372051e+00    4.089816e-01   5.281173e-03
  3.374262e+00    4.078405e-01   5.271372e-03
  3.376472e+00    4.116319e-01   5.293396e-03
  3.378683e+00    4.088470e-01   5.272983e-03
  3.380893e+00    4.011199e-01   5.220603e-03
  3.383103e+00    4.098397e-01   5.274369e-03
  3.385314e+00    4.011646e-01   5.216060e-03
  3.387524e+00    4.106340e-01   5.274531e-03
  3.389735e+00    4.136655e-01   5.291344e-03
  3.391945e+00    4.146855e-01   5.294181e-03
  3.394156e+00    4.172420e-01   5.306229e-03
  3.396366e+00    4.161723e-01   5.296017e-03
  3.398577e+00    4.006358e-01   5.193199e-03
  3.400787e+00    4.027327e-01   5.218569e-03
  3.402998e+00    3.932566e-01   5.194084e-03
  3.405208e+00    3.841708e-01   5.153853e-03
  3.407418e+00    3.920752e-01   5.222180e-03
  3.409629e+00    3.976632e-01   5.273192e-03
  3.411839e+00    3.803695e-01   5.168749e-03
  3.414050e+00    3.907419e-01   5.249628e-03
  3.416260e+00    3.807759e-01   5.191766e-03
  3.418471e+00    3.826725e-01   5.213932e-03
  3.420681e+00    3.812363e-01   5.212524e-03
  3.422892e+00    3.838061e-01   5.237981e-03
  3.425102e+00    3.885941e-01   5.278358e-03
  3.427313e+00    3.896490e-01   5.292734e-03
  3.429523e+00    3.748183e-01   5.197970e-03
  3.431733e+00    3.804752e-01   5.243655e-03
  3.433944e+00    3.750715e-01   5.212716e-03
  3.436154e+00    3.836126e-01   5.277933e-03
  3.438365e+00    3.902436e-01   5.329395e-03
  3.440575e+00    3.761436e-01   5.238116e-03
  3.442786e+00    3.667050e-01   5.177481e-03
  3.444996e+00    3.662072e-01   5.179408e-03
  3.447207e+00    3.559206e-01   5.111287e-03
  3.449417e+00    3.570829e-01   5.159602e-03
  3.451628e+00    3.722034e-01   5.297337e-03
  3.453838e+00    3.601179e-01   5.231551e-03
  3.456049e+00    3.534922e-01   5.206669e-03
  3.458259e+00    3.610807e-01   5.284016e-03
  3.460469e+00    3.605453e-01   5.299721e-03
  3.462680e+00    3.679740e-01   5.373162e-03
  3.464890e+00    3.489036e-01   5.249429e-03
  3.467101e+00    3.543666e-01   5.307532e-03
  3.469311e+00    3.646452e-01   5.400350e-03
  3.471522e+00    3.743682e-01   5.488289e-03
  3.473732e+00    3.947282e-01   5.651813e-03
  3.475943e+00    4.031172e-01   5.727663e-03
  3.478153e+00    4.144457e-01   5.823581e-03
  3.480364e+00    4.141102e-01   5.836749e-03
  3.482574e+00    4.093397e-01   5.818501e-03
  3.484784e+00    4.069544e-01   5.816302e-03
  3.486995e+00    4.243914e-01   5.954857e-03
  3.489205e+00    4.334710e-01   6.033067e-03
  3.491416e+00    4.457583e-01   6.133201e-03
  3.493626e+00    4.474182e-01   6.159430e-03
  3.495837e+00    4.637620e-01   6.286039e-03
  3.498047e+00    4.582013e-01   6.262977e-03
  3.500258e+00    4.421541e-01   6.166759e-03
  3.502468e+00    4.433447e-01   6.189257e-03
  3.504679e+00    4.806059e-01   6.458903e-03
  3.506889e+00    4.911266e-01   6.544078e-03
  3.509099e+00    4.734496e-01   6.439618e-03
  3.511310e+00    4.798241e-01   6.497321e-03
  3.513520e+00    4.889571e-01   6.573397e-03
  3.515731e+00    4.943990e-01   6.624375e-03
  3.517941e+00    5.083100e-01   6.731541e-03
  3.520152e+00    5.058143e-01   6.729498e-03
  3.522362e+00    5.013854e-01   6.714439e-03
  3.524573e+00    5.201395e-01   6.853346e-03
  3.526783e+00    5.006809e-01   6.737166e-03
  3.528994e+00    5.167471e-01   6.856611e-03
  3.531204e+00    5.392600e-01   7.017072e-03
  3.533414e+00    5.180588e-01   6.889775e-03
  3.535625e+00    5.241502e-01   6.942416e-03
  3.537835e+00    5.439403e-01   7.084541e-03
  3.540046e+00    5.382129e-01   7.056125e-03
  3.542256e+00    5.291354e-01   7.003820e-03
  3.544467e+00    5.459601e-01   7.121996e-03
  3.546677e+00    5.427803e-01   7.108854e-03
  3.548888e+00    5.466490e-01   7.141715e-03
  3.551098e+00    5.309764e-01   7.045855e-03
  3.553309e+00    5.255960e-01   7.018166e-03
  3.555519e+00    5.204282e-01   6.994663e-03
  3.557729e+00    5.365386e-01   7.113845e-03
  3.559940e+00    5.357584e-01   7.120224e-03
  3.562150e+00    5.362430e-01   7.135177e-03
  3.564361e+00    5.313075e-01   7.115480e-03
  3.566571e+00    5.574580e-01   7.302625e-03
  3.568782e+00    5.253299e-01   7.103055e-03
  3.570992e+00    5.223339e-01   7.096337e-03
  3.573203e+00    5.190353e-01   7.087791e-03
  3.575413e+00    5.282556e-01   7.164156e-03
  3.577624e+00    5.338576e-01   7.216153e-03
  3.579834e+00    5.285131e-01   7.193698e-03
  3.582045e+00    5.336875e-01   7.242850e-03
  3.584255e+00    5.300910e-01   7.232381e-03
  3.586465e+00    5.193811e-01   7.172655e-03
  3.588676e+00    5.400055e-01   7.327924e-03
  3.590886e+00    5.423099e-01   7.357338e-03
  3.593097e+00    5.155690e-01   7.187878e-03
  3.595307e+00    5.243925e-01   7.262907e-03
  3.597518e+00    5.340304e-01   7.343535e-03
  3.599728e+00    5.312729e-01   7.338565e-03
  3.601939e+00    5.400505e-01   7.413120e-03
  3.604149e+00    5.281118e-01   7.344996e-03
  3.606360e+00    5.191482e-01   7.296322e-03
  3.608570e+00    5.409868e-01   7.462434e-03
  3.610780e+00    5.306112e-01   7.401584e-03
  3.612991e+00    5.164635e-01   7.312054e-03
  3.615201e+00    4.994633e-01   7.200151e-03
  3.617412e+00    5.472331e-01   7.543960e-03
  3.619622e+00    5.387953e-01   7.491603e-03
  3.621833e+00    5.396968e-01   7.504568e-03
  3.624043e+00    5.315964e-01   7.457556e-03
  3.626254e+00    5.271155e-01   7.435651e-03
  3.628464e+00    5.491137e-01   7.600381e-03
  3.630675e+00    5.361641e-01   7.524368e-03
  3.632885e+00    5.361551e-01   7.538811e-03
  3.635095e+00    5.204119e-01   7.441478e-03
  3.637306e+00    5.393077e-01   7.589824e-03
  3.639516e+00    5.342119e-01   7.568451e-03
  3.641727e+00    5.181918e-01   7.468461e-03
  3.643937e+00    5.335843e-01   7.593099e-03
  3.646148e+00    5.321798e-01   7.597726e-03
  3.648358e+00    5.361338e-01   7.640759e-03
  3.650569e+00    5.295316e-01   7.608305e-03
  3.652779e+00    5.128189e-01   7.501753e-03
  3.654990e+00    5.127875e-01   7.516100e-03
  3.657200e+00    5.438606e-01   7.755570e-03
  3.659410e+00    5.449721e-01   7.778637e-03
  3.661621e+00    5.320207e-01   7.700747e-03
  3.663831e+00    5.260140e-01   7.672191e-03
  3.666042e+00    5.425339e-01   7.807043e-03
  3.668252e+00    5.327212e-01   7.751395e-03
  3.670463e+00    5.235316e-01   7.699382e-03
  3.672673e+00    5.098087e-01   7.612898e-03
  3.674884e+00    5.203834e-01   7.706674e-03
  3.677094e+00    5.343597e-01   7.825085e-03
  3.679305e+00    5.022801e-01   7.601699e-03
  3.681515e+00    5.138842e-01   7.704380e-03
  3.683726e+00    5.090666e-01   7.683650e-03
  3.685936e+00    5.227147e-01   7.801590e-03
  3.688146e+00    5.203697e-01   7.799765e-03
  3.690357e+00    5.404985e-01   7.965271e-03
  3.692567e+00    5.195894e-01   7.825743e-03
  3.694778e+00    5.163810e-01   7.817418e-03
  3.696988e+00    5.120045e-01   7.799971e-03
  3.699199e+00    5.282786e-01   7.939241e-03
  3.701409e+00    5.344903e-01   8.002367e-03
  3.703620e+00    5.257899e-01   7.953222e-03
  3.705830e+00    5.071665e-01   7.827262e-03
  3.708041e+00    5.300651e-01   8.018684e-03
  3.710251e+00    5.257038e-01   8.002420e-03
  3.712461e+00    5.200867e-01   7.976191e-03
  3.714672e+00    5.268130e-01   8.044449e-03
  3.716882e+00    5.194911e-01   8.005041e-03
  3.719093e+00    5.242767e-01   8.059011e-03
  3.721303e+00    5.201379e-01   8.044126e-03
  3.723514e+00    5.193323e-01   8.055167e-03
  3.725724e+00    5.085641e-01   7.988165e-03
  3.727935e+00    5.280560e-01   8.157470e-03
  3.730145e+00    5.200076e-01   8.112477e-03
  3.732356e+00    4.864395e-01   7.863281e-03
  3.734566e+00    4.979562e-01   7.972999e-03
  3.736776e+00    5.012787e-01   8.017134e-03
  3.738987e+00    4.791954e-01   7.855682e-03
  3.741197e+00    4.879779e-01   7.944839e-03
  3.743408e+00    4.956181e-01   8.024570e-03
  3.745618e+00    4.993157e-01   8.072509e-03
  3.747829e+00    5.016409e-01   8.109204e-03
  3.750039e+00    5.111614e-01   8.204132e-03
  3.752250e+00    5.148480e-01   8.252257e-03
  3.754460e+00    4.928001e-01   8.091861e-03
  3.756671e+00    5.093085e-01   8.245003e-03
  3.758881e+00    5.211794e-01   8.359445e-03
  3.761091e+00    5.140506e-01   8.321340e-03
  3.763302e+00    4.744907e-01   8.013187e-03
  3.765512e+00    4.894887e-01   8.157695e-03
  3.767723e+00    5.005898e-01   8.268932e-03
  3.769933e+00    5.082533e-01   8.351340e-03
  3.772144e+00    4.822735e-01   8.154245e-03
  3.774354e+00    5.045142e-01   8.359927e-03
  3.776565e+00    4.997972e-01   8.340545e-03
  3.778775e+00    4.890179e-01   8.269721e-03
  3.780986e+00    5.025840e-01   8.403930e-03
  3.783196e+00    4.982840e-01   8.388051e-03
  3.785407e+00    4.852195e-01   8.297429e-03
  3.787617e+00    4.941287e-01   8.393809e-03
  3.789827e+00    4.995543e-01   8.460241e-03
  3.792038e+00    5.194494e-01   8.648247e-03
  3.794248e+00    4.995835e-01   8.502473e-03
  3.796459e+00    4.944249e-01   8.479553e-03
  3.798669e+00    4.906496e-01   8.468362e-03
  3.800880e+00    4.789064e-01   8.387336e-03
  3.803090e+00    4.945695e-01   8.545113e-03
  3.805301e+00    5.006806e-01   8.619822e-03
  3.807511e+00    5.051025e-01   8.679899e-03
  3.809722e+00    5.147657e-01   8.785155e-03
  3.811932e+00    5.010155e-01   8.689273e-03
  3.814142e+00    5.025718e-01   8.725695e-03
  3.816353e+00    4.769258e-01   8.522530e-03
  3.818563e+00    4.806494e-01   8.578295e-03
  3.820774e+00    5.151153e-01   8.904144e-03
  3.822984e+00    5.215505e-01   8.983543e-03
  3.825195e+00    4.907900e-01   8.738114e-03
  3.827405e+00    5.042573e-01   8.881271e-03
  3.829616e+00    4.878708e-01   8.759616e-03
  3.831826e+00    5.066652e-01   8.951047e-03
  3.834037e+00    4.895086e-01   8.822612e-03
  3.836247e+00    4.742319e-01   8.707989e-03
  3.838457e+00    4.710938e-01   8.703363e-03
  3.840668e+00    5.251316e-01   9.215002e-03
  3.842878e+00    4.925009e-01   8.949528e-03
  3.845089e+00    4.997180e-01   9.040521e-03
  3.847299e+00    4.964841e-01   9.037066e-03
  3.849510e+00    4.942337e-01   9.042383e-03
  3.851720e+00    4.899354e-01   9.024283e-03
  3.853931e+00    4.894335e-01   9.038529e-03
  3.856141e+00    4.987189e-01   9.142946e-03
  3.858352e+00    4.954311e-01   9.132033e-03
  3.860562e+00    5.051765e-01   9.240972e-03
  3.862772e+00    5.074011e-01   9.281144e-03
  3.864983e+00    4.722792e-01   8.973434e-03
  3.867193e+00    4.877354e-01   9.138664e-03
  3.869404e+00    5.017065e-01   9.288630e-03
  3.871614e+00    4.878661e-01   9.179512e-03
  3.873825e+00    5.232121e-01   9.527065e-03
  3.876035e+00    5.099158e-01   9.426261e-03
  3.878246e+00    4.924939e-01   9.289574e-03
  3.880456e+00    4.969875e-01   9.360974e-03
  3.882667e+00    4.825831e-01   9.253384e-03
  3.884877e+00    4.893330e-01   9.347518e-03
  3.887087e+00    4.922755e-01   9.405549e-03
  3.889298e+00    4.675173e-01   9.195684e-03
  3.891508e+00    4.795249e-01   9.343067e-03
  3.893719e+00    5.214566e-01   9.774993e-03
  3.895929e+00    5.010121e-01   9.613246e-03
  3.898140e+00    4.999854e-01   9.635384e-03
  3.900350e+00    4.619586e-01   9.292979e-03
  3.902561e+00    5.040156e-01   9.739439e-03
  3.904771e+00    4.852838e-01   9.589492e-03
  3.906982e+00    4.919176e-01   9.688092e-03
  3.909192e+00    4.932691e-01   9.734908e-03
  3.911403e+00    4.762204e-01   9.598868e-03
  3.913613e+00    4.671331e-01   9.540334e-03
  3.915823e+00    4.698811e-01   9.602414e-03
  3.918034e+00    4.836495e-01   9.777250e-03
  3.920244e+00    4.812101e-01   9.787967e-03
  3.922455e+00    4.735383e-01   9.745241e-03
  3.924665e+00    4.918832e-01   9.968637e-03
  3.926876e+00    5.144192e-01   1.023273e-02
  3.929086e+00    4.822543e-01   9.944708e-03
  3.931297e+00    5.332378e-01   1.049357e-02
  3.933507e+00    4.912922e-01   1.010151e-02
  3.935718e+00    4.623090e-01   9.827016e-03
  3.937928e+00    4.549516e-01   9.776908e-03
  3.940138e+00    4.809363e-01   1.008137e-02
  3.942349e+00    4.766249e-01   1.006564e-02
  3.944559e+00    4.881134e-01   1.021625e-02
  3.946770e+00    4.790330e-01   1.015080e-02
  3.948980e+00    4.432842e-01   9.793937e-03
  3.951191e+00    4.860671e-01   1.028643e-02
  3.953401e+00    4.882557e-01   1.034110e-02
  3.955612e+00    4.573334e-01   1.003897e-02
  3.957822e+00    4.754641e-01   1.026735e-02
  3.960033e+00    4.615298e-01   1.014752e-02
  3.962243e+00    4.767980e-01   1.034660e-02
  3.964453e+00    4.688444e-01   1.029245e-02
  3.966664e+00    4.458595e-01   1.006901e-02
  3.968874e+00    4.634197e-01   1.029306e-02
  3.971085e+00    4.655314e-01   1.033803e-02
  3.973295e+00    4.704978e-01   1.041412e-02
  3.975506e+00    4.958672e-01   1.071299e-02
  3.977716e+00    5.007333e-01   1.078788e-02
  3.979927e+00    4.734364e-01   1.051154e-02
  3.982137e+00    4.657559e-01   1.044775e-02
  3.984348e+00    4.761950e-01   1.058646e-02
  3.986558e+00    4.901877e-01   1.076338e-02
  3.988768e+00    4.787911e-01   1.066039e-02
  3.990979e+00    4.564790e-01   1.043107e-02
  3.993189e+00    4.690870e-01   1.059684e-02
  3.995400e+00    4.512141e-01   1.041576e-02
  3.997610e+00    4.846392e-01   1.082435e-02
  3.999821e+00    4.897400e-01   1.091891e-02
  4.002031e+00    4.852472e-01   1.090720e-02
  4.004242e+00    4.536733e-01   1.058357e-02
  4.006452e+00    4.753864e-01   1.087286e-02
  4.008663e+00    4.828792e-01   1.099817e-02
  4.010873e+00    4.543975e-01   1.070756e-02
  4.013084e+00    4.788548e-01   1.103259e-02
  4.015294e+00    4.561791e-01   1.080803e-02
  4.017504e+00    4.884870e-01   1.122620e-02
  4.019715e+00    5.056297e-01   1.146502e-02
  4.021925e+00    4.909555e-01   1.134065e-02
  4.024136e+00    4.890773e-01   1.136288e-02
  4.026346e+00    4.979250e-01   1.150988e-02
  4.028557e+00    4.791037e-01   1.133449e-02
  4.030767e+00    4.781429e-01   1.136835e-02
  4.032978e+00    4.875247e-01   1.152593e-02
  4.035188e+00    4.934637e-01   1.164246e-02
  4.037399e+00    5.065408e-01   1.184453e-02
  4.039609e+00    4.850659e-01   1.163852e-02
  4.041819e+00    4.801269e-01   1.162764e-02
  4.044030e+00    4.879980e-01   1.177283e-02
  4.046240e+00    5.013438e-01   1.198341e-02
  4.048451e+00    4.864728e-01   1.185552e-02
  4.050661e+00    4.661124e-01   1.165534e-02
  4.052872e+00    4.755639e-01   1.182520e-02
  4.055082e+00    4.537061e-01   1.160220e-02
  4.057293e+00    4.816173e-01   1.200744e-02
  4.059503e+00    4.771929e-01   1.200633e-02
  4.061714e+00    4.749744e-01   1.203477e-02
  4.063924e+00    4.690757e-01   1.201547e-02
  4.066134e+00    4.751893e-01   1.215067e-02
  4.068345e+00    4.727136e-01   1.217736e-02
  4.070555e+00    4.563335e-01   1.202222e-02
  4.072766e+00    4.690796e-01   1.224894e-02
  4.074976e+00    4.742054e-01   1.237694e-02
  4.077187e+00    5.098453e-01   1.289778e-02
  4.079397e+00    4.583932e-01   1.229185e-02
  4.081608e+00    4.906257e-01   1.278291e-02
  4.083818e+00    4.844681e-01   1.276845e-02
  4.086029e+00    4.580472e-01   1.248093e-02
  4.088239e+00    5.019674e-01   1.313603e-02
  4.090449e+00    4.572084e-01   1.260448e-02
  4.092660e+00    4.598678e-01   1.271092e-02
  4.094870e+00    4.198461e-01   1.221257e-02
  4.097081e+00    4.261339e-01   1.237116e-02
  4.099291e+00    4.724275e-01   1.307952e-02
  4.101502e+00    5.023597e-01   1.353804e-02
  4.103712e+00    4.712854e-01   1.316147e-02
  4.105923e+00    4.607377e-01   1.306375e-02
  4.108133e+00    4.554547e-01   1.303867e-02
  4.110344e+00    4.726729e-01   1.333356e-02
  4.112554e+00    5.253972e-01   1.411316e-02
  4.114764e+00    5.168086e-01   1.405362e-02
  4.116975e+00    4.764749e-01   1.354730e-02
  4.119185e+00    4.865773e-01   1.374583e-02
  4.121396e+00    4.753607e-01   1.364245e-02
  4.123606e+00    4.753738e-01   1.369863e-02
  4.125817e+00    4.489800e-01   1.336878e-02
  4.128027e+00    4.853220e-01   1.395775e-02
  4.130238e+00    4.898155e-01   1.408239e-02
  4.132448e+00    4.646382e-01   1.377510e-02
  4.134659e+00    4.737768e-01   1.396991e-02
  4.136869e+00    5.061042e-01   1.450305e-02
  4.139080e+00    4.988055e-01   1.446280e-02
  4.141290e+00    4.859968e-01   1.433939e-02
  4.143500e+00    4.741271e-01   1.422830e-02
  4.145711e+00    5.303212e-01   1.511827e-02
  4.147921e+00    4.910460e-01   1.461435e-02
  4.150132e+00    5.021276e-01   1.484901e-02
  4.152342e+00    5.132893e-01   1.508548e-02
  4.154553e+00    5.432367e-01   1.559366e-02
  4.156763e+00    4.786862e-01   1.471002e-02
  4.158974e+00    4.948301e-01   1.503138e-02
  4.161184e+00    4.783217e-01   1.485171e-02
  4.163395e+00    5.145897e-01   1.548312e-02
  4.165605e+00    4.882553e-01   1.516023e-02
  4.167815e+00    5.016491e-01   1.544694e-02
  4.170026e+00    5.429321e-01   1.615462e-02
  4.172236e+00    4.893779e-01   1.542021e-02
  4.174447e+00    4.723094e-01   1.523117e-02
  4.176657e+00    5.306281e-01   1.623244e-02
  4.178868e+00    5.209728e-01   1.617518e-02
  4.181078e+00    4.999928e-01   1.593522e-02
  4.183289e+00    5.138839e-01   1.624778e-02
  4.185499e+00    4.555087e-01   1.538735e-02
  4.187710e+00    5.269668e-01   1.664723e-02
  4.189920e+00    5.227501e-01   1.668042e-02
  4.192130e+00    4.708994e-01   1.592838e-02
  4.194341e+00    4.545240e-01   1.574487e-02
  4.196551e+00    4.510133e-01   1.578304e-02
  4.198762e+00    4.600649e-01   1.604194e-02
  4.200972e+00    5.036402e-01   1.689317e-02
  4.203183e+00    4.485016e-01   1.604677e-02
  4.205393e+00    4.957030e-01   1.698211e-02
  4.207604e+00    4.487816e-01   1.626914e-02
  4.209814e+00    4.958587e-01   1.721778e-02
  4.212025e+00    4.822199e-01   1.710014e-02
  4.214235e+00    4.579655e-01   1.678235e-02
  4.216445e+00    5.137321e-01   1.790369e-02
  4.218656e+00    4.460439e-01   1.680746e-02
  4.220866e+00    4.725945e-01   1.742867e-02
  4.223077e+00    4.154989e-01   1.646777e-02
  4.225287e+00    4.082448e-01   1.645113e-02
  4.227498e+00    4.664911e-01   1.772435e-02
  4.229708e+00    4.255674e-01   1.706634e-02
  4.231919e+00    4.550903e-01   1.779423e-02
  4.234129e+00    5.098370e-01   1.899241e-02
  4.236340e+00    4.756731e-01   1.850208e-02
  4.238550e+00    4.575794e-01   1.830676e-02
  4.240761e+00    5.372343e-01   2.001153e-02
  4.242971e+00    4.624898e-01   1.873764e-02
  4.245181e+00    5.028857e-01   1.972179e-02
  4.247392e+00    5.366671e-01   2.056459e-02
  4.249602e+00    5.116922e-01   2.027932e-02
  4.251813e+00    4.857836e-01   1.995421e-02
  4.254023e+00    3.952661e-01   1.818105e-02
  4.256234e+00    4.353944e-01   1.928496e-02
  4.258444e+00    4.406975e-01   1.960516e-02
  4.260655e+00    4.790159e-01   2.066493e-02
  4.262865e+00    4.817449e-01   2.095818e-02
  4.265076e+00    3.947657e-01   1.918823e-02
  4.267286e+00    4.789719e-01   2.138617e-02
  4.269496e+00    4.390602e-01   2.072604e-02
  4.271707e+00    4.577301e-01   2.142329e-02
  4.273917e+00    4.847614e-01   2.233146e-02
  4.276128e+00    4.814861e-01   2.255201e-02
  4.278338e+00    4.769566e-01   2.274525e-02
  4.280549e+00    4.763765e-01   2.305783e-02
  4.282759e+00    4.612877e-01   2.301515e-02
  4.284970e+00    4.634925e-01   2.341202e-02
  4.287180e+00    4.083043e-01   2.223759e-02
  4.289391e+00    4.230511e-01   2.280472e-02
  4.291601e+00    4.676528e-01   2.416844e-02
  4.293811e+00    4.369904e-01   2.354539e-02
  4.296022e+00    4.207073e-01   2.328912e-02
  4.298232e+00    4.077767e-01   2.311899e-02
  4.300443e+00    4.035081e-01   2.318837e-02
  4.302653e+00    4.256037e-01   2.402051e-02
  4.304864e+00    4.107016e-01   2.380113e-02
  4.307074e+00    4.422412e-01   2.491969e-02
  4.309285e+00    4.501459e-01   2.536947e-02
  4.311495e+00    4.885178e-01   2.667649e-02
  4.313706e+00    5.106474e-01   2.752991e-02
  4.315916e+00    6.025440e-01   3.019872e-02
  4.318126e+00    5.176066e-01   2.826715e-02
  4.320337e+00    3.825317e-01   2.454657e-02
  4.322547e+00    4.453667e-01   2.676594e-02
  4.324758e+00    4.628494e-01   2.757050e-02
  4.326968e+00    5.322103e-01   2.989680e-02
  4.329179e+00    4.821205e-01   2.876928e-02
  4.331389e+00    3.960700e-01   2.637566e-02
  4.333600e+00    3.939132e-01   2.661791e-02
  4.335810e+00    4.428379e-01   2.855880e-02
  4.338021e+00    5.071887e-01   3.095411e-02
  4.340231e+00    4.323421e-01   2.893799e-02
  4.342442e+00    4.503257e-01   2.993003e-02
  4.344652e+00    3.499154e-01   2.674073e-02
  4.346862e+00    3.895078e-01   2.860851e-02
  4.349073e+00    4.804275e-01   3.223552e-02
  4.351283e+00    4.359771e-01   3.116543e-02
  4.353494e+00    4.820094e-01   3.327656e-02
  4.355704e+00    4.977148e-01   3.435848e-02
  4.357915e+00    4.393688e-01   3.281974e-02
  4.360125e+00    3.869245e-01   3.132472e-02
  4.362336e+00    4.724126e-01   3.524141e-02
  4.364546e+00    5.333386e-01   3.812842e-02
  4.366757e+00    3.767399e-01   3.268428e-02
  4.368967e+00    3.606713e-01   3.261518e-02
  4.371177e+00    5.127181e-01   3.971543e-02
  4.373388e+00    6.320194e-01   4.507894e-02
  4.375598e+00    5.247865e-01   4.201561e-02
  4.377809e+00    6.719210e-01   4.874393e-02
  4.380019e+00    4.639868e-01   4.152673e-02
  4.382230e+00    3.224358e-01   3.558081e-02
  4.384440e+00    4.084630e-01   4.120078e-02
  4.386651e+00    3.555247e-01   3.962402e-02
  4.388861e+00    4.645900e-01   4.681614e-02
  4.391072e+00    3.714271e-01   4.332671e-02
  4.393282e+00    6.270207e-01   5.847620e-02
  4.395492e+00    3.517889e-01   4.561860e-02
  4.397703e+00    6.164453e-01   6.314838e-02
  4.399913e+00    4.928928e-01   5.932380e-02
  4.402124e+00    4.110683e-01   5.725227e-02
  4.404334e+00    4.009477e-01   6.010003e-02
  4.406545e+00    1.444517e-01   3.877003e-02
  4.408755e+00    9.957697e-02   3.488711e-02
  4.410966e+00    3.809291e-01   7.555309e-02
  4.413176e+00    1.171874e-01   4.744634e-02
  4.415387e+00   -6.462583e-01            nan
  4.417597e+00   -1.914176e+00            nan
  4.419807e+00   -3.766224e-01            nan
