# == pyFAI calibration ==
# Distance Sample to Detector: 0.216 m
# PONI: 1.166e-01, 1.308e-01 m
# Rotations: 0.000000 0.000000 0.000000 rad
# 
# == Fit2d calibration ==
# Distance Sample-beamCenter: 216.000 mm
# Center: x=1744.293, y=1555.000 pix
# Tilt: 0.000 deg  TiltPlanRot: 0.000 deg
# 
# Detector Eiger 9M	 PixelSize= 7.500e-05, 7.500e-05 m
#    Detector has a mask: True 
#    Detector has a dark current: False 
#    detector has a flat field: False 
# 
# Wavelength: 9.8e-11 m
# Mask applied: from detector
# Dark current applied: False
# Flat field applied: False
# Polarization factor: None
# Normalization factor: 1.0
# 
# Headers of the input frame:
# {
# "_array_data.header_convention": "SLS_1.0",
# "_array_data.header_contents": "# Detector: Dectris Eiger 9M, S/N E-18-0102\r\n# Pixel_size 75e-6 m x 75e-6 m\r\n# Silicon sensor, thickness 0.000450 m\r\n# Exposure_time 0.024997 s\r\n# Exposure_period 0.025000 s\r\n# Count_cutoff 62318 counts\r\n# Wavelength 0.980106 A\r\n# Detector_distance 0.215992 m\r\n# Beam_xy (1555, 1744) pixels\r\n# Start_angle 0.000000 deg.\r\n# Angle_increment 0.000000 deg.",
# "Content-Type": "application/octet-stream;",
# "conversions": "x-CBF_BYTE_OFFSET",
# "Content-Transfer-Encoding": "BINARY",
# "X-Binary-Size": "10166610",
# "X-Binary-ID": "1",
# "X-Binary-Element-Type": "signed 32-bit integer",
# "X-Binary-Element-Byte-Order": "LITTLE_ENDIAN",
# "Content-MD5": "aN8uzY8cNU1s1DbDxkWQlg==",
# "X-Binary-Number-of-Elements": "10166590",
# "X-Binary-Size-Fastest-Dimension": "3110",
# "X-Binary-Size-Second-Dimension": "3269",
# "X-Binary-Size-Padding": "4095"
# }
# --> H:/Proxima2a_2019-04-05/RAW_DATA/C5_gel17_position5/C5_mesh_1_data.cbf/C5_mesh_1_data.cbf000192.dat
#        q_A^-1              I           sigma 
  1.105228e-03    1.630784e+00   6.910114e-01
  3.315685e-03    1.175073e+00   3.565971e-01
  5.526141e-03    1.296736e+00   2.896662e-01
  7.736597e-03    1.335156e+00   2.483054e-01
  9.947054e-03    1.855225e+00   2.580328e-01
  1.215751e-02    1.163817e+00   1.848039e-01
  1.436797e-02    1.171141e+00   1.705220e-01
  1.657842e-02    1.530998e+00   1.814812e-01
  1.878888e-02    1.517985e+00   1.697451e-01
  2.099934e-02    1.382930e+00   1.532859e-01
  2.320979e-02    1.679085e+00   1.606457e-01
  2.542025e-02    1.606575e+00   1.501620e-01
  2.763070e-02    1.658030e+00   1.463142e-01
  2.984116e-02    1.506141e+00   1.341866e-01
  3.205162e-02    1.445593e+00   1.268555e-01
  3.426207e-02    1.438879e+00   1.224016e-01
  3.647253e-02    1.578063e+00   1.242372e-01
  3.868299e-02    1.627367e+00   1.225148e-01
  4.089344e-02    1.435658e+00   1.119196e-01
  4.310390e-02    1.335142e+00   1.051206e-01
  4.531436e-02    1.378164e+00   1.041636e-01
  4.752481e-02    1.329440e+00   9.989722e-02
  4.973527e-02    1.418950e+00   1.008870e-01
  5.194572e-02    1.564719e+00   1.036623e-01
  5.415618e-02    1.580659e+00   1.020371e-01
  5.636664e-02    1.476381e+00   9.666391e-02
  5.857709e-02    1.382008e+00   9.174234e-02
  6.078755e-02    1.383575e+00   9.010704e-02
  6.299801e-02    1.494987e+00   9.200579e-02
  6.520846e-02    1.521585e+00   9.123445e-02
  6.741892e-02    1.555406e+00   9.071349e-02
  6.962938e-02    1.287911e+00   8.122866e-02
  7.183983e-02    1.403532e+00   8.348014e-02
  7.405029e-02    1.457226e+00   8.378082e-02
  7.626074e-02    1.568694e+00   8.565632e-02
  7.847120e-02    1.490865e+00   8.231770e-02
  8.068166e-02    1.519683e+00   8.196241e-02
  8.289211e-02    1.420094e+00   7.816734e-02
  8.510257e-02    1.494012e+00   7.912732e-02
  8.731303e-02    1.376323e+00   7.497645e-02
  8.952348e-02    1.521249e+00   7.784804e-02
  9.173394e-02    1.525976e+00   7.702074e-02
  9.394439e-02    1.514699e+00   7.582502e-02
  9.615485e-02    1.543876e+00   7.566515e-02
  9.836531e-02    1.536380e+00   7.462627e-02
  1.005758e-01    1.609587e+00   7.553993e-02
  1.027862e-01    1.605220e+00   7.462000e-02
  1.049967e-01    1.474781e+00   7.076585e-02
  1.072071e-01    1.558647e+00   7.199538e-02
  1.094176e-01    1.563543e+00   7.137520e-02
  1.116280e-01    1.545595e+00   7.025667e-02
  1.138385e-01    1.573826e+00   7.020237e-02
  1.160490e-01    1.575595e+00   6.956875e-02
  1.182594e-01    1.562021e+00   6.861652e-02
  1.204699e-01    1.532637e+00   6.734113e-02
  1.226803e-01    1.526879e+00   6.660344e-02
  1.248908e-01    1.583859e+00   6.723104e-02
  1.271012e-01    1.663413e+00   6.829568e-02
  1.293117e-01    1.641626e+00   6.726371e-02
  1.315222e-01    1.650991e+00   6.688452e-02
  1.337326e-01    1.618192e+00   6.566601e-02
  1.359431e-01    1.622179e+00   6.578535e-02
  1.381535e-01    1.556238e+00   6.529930e-02
  1.403640e-01    1.507414e+00   6.454431e-02
  1.425744e-01    1.561227e+00   6.579121e-02
  1.447849e-01    1.582285e+00   6.624871e-02
  1.469953e-01    1.518978e+00   6.486921e-02
  1.492058e-01    1.559875e+00   6.566027e-02
  1.514163e-01    1.620327e+00   6.680937e-02
  1.536267e-01    1.661430e+00   6.751937e-02
  1.558372e-01    1.592917e+00   6.596659e-02
  1.580476e-01    1.567500e+00   6.527941e-02
  1.602581e-01    1.591232e+00   6.560465e-02
  1.624685e-01    1.644492e+00   6.651096e-02
  1.646790e-01    1.660920e+00   6.665039e-02
  1.668895e-01    1.733772e+00   6.789979e-02
  1.690999e-01    1.759038e+00   6.818736e-02
  1.713104e-01    1.745792e+00   6.771933e-02
  1.735208e-01    1.786246e+00   6.828643e-02
  1.757313e-01    1.826310e+00   6.883159e-02
  1.779417e-01    1.803223e+00   6.817210e-02
  1.801522e-01    1.866252e+00   6.913239e-02
  1.823626e-01    1.876155e+00   6.908483e-02
  1.845731e-01    1.910277e+00   6.948440e-02
  1.867836e-01    2.009580e+00   7.102703e-02
  1.889940e-01    1.995042e+00   7.053842e-02
  1.912045e-01    1.964632e+00   6.976496e-02
  1.934149e-01    1.966646e+00   6.956711e-02
  1.956254e-01    1.969454e+00   6.938717e-02
  1.978358e-01    1.977985e+00   6.929896e-02
  2.000463e-01    1.961856e+00   6.878716e-02
  2.022568e-01    1.934770e+00   6.808642e-02
  2.044672e-01    1.967628e+00   6.842693e-02
  2.066777e-01    2.025938e+00   6.920299e-02
  2.088881e-01    1.918508e+00   6.712284e-02
  2.110986e-01    1.978110e+00   6.792377e-02
  2.133090e-01    2.048912e+00   6.890397e-02
  2.155195e-01    1.937151e+00   6.677616e-02
  2.177300e-01    1.862247e+00   6.495805e-02
  2.199404e-01    1.928314e+00   6.435850e-02
  2.221509e-01    1.952647e+00   6.369989e-02
  2.243613e-01    1.945219e+00   6.277258e-02
  2.265718e-01    1.974254e+00   6.254230e-02
  2.287822e-01    2.046533e+00   6.304660e-02
  2.309927e-01    2.062406e+00   6.271408e-02
  2.332031e-01    2.139541e+00   6.332935e-02
  2.354136e-01    2.241457e+00   6.429479e-02
  2.376241e-01    2.205255e+00   6.327848e-02
  2.398345e-01    2.127793e+00   6.169717e-02
  2.420450e-01    2.224273e+00   6.262957e-02
  2.442554e-01    2.290787e+00   6.312126e-02
  2.464659e-01    2.119483e+00   6.030770e-02
  2.486763e-01    2.130305e+00   6.006400e-02
  2.508868e-01    2.220137e+00   6.093054e-02
  2.530973e-01    2.173736e+00   5.991667e-02
  2.553077e-01    2.122065e+00   5.884116e-02
  2.575182e-01    2.091297e+00   5.806743e-02
  2.597286e-01    2.086514e+00   5.766382e-02
  2.619391e-01    2.104683e+00   5.758092e-02
  2.641495e-01    2.005231e+00   5.589299e-02
  2.663600e-01    2.016082e+00   5.573575e-02
  2.685704e-01    2.098276e+00   5.655238e-02
  2.707809e-01    2.081226e+00   5.602317e-02
  2.729914e-01    2.046447e+00   5.526360e-02
  2.752018e-01    1.991932e+00   5.423877e-02
  2.774123e-01    2.026744e+00   5.443119e-02
  2.796227e-01    2.004217e+00   5.386012e-02
  2.818332e-01    1.988463e+00   5.338040e-02
  2.840436e-01    1.966028e+00   5.282109e-02
  2.862541e-01    2.042900e+00   5.358503e-02
  2.884646e-01    2.007208e+00   5.286280e-02
  2.906750e-01    2.072589e+00   5.346216e-02
  2.928855e-01    1.995649e+00   5.221737e-02
  2.950959e-01    1.950566e+00   5.138704e-02
  2.973064e-01    2.016990e+00   5.201982e-02
  2.995168e-01    1.998371e+00   5.154467e-02
  3.017273e-01    1.963170e+00   5.086340e-02
  3.039377e-01    1.902093e+00   4.984676e-02
  3.061482e-01    1.865026e+00   4.914510e-02
  3.083587e-01    1.966392e+00   5.024457e-02
  3.105691e-01    1.955548e+00   4.989183e-02
  3.127796e-01    1.907359e+00   4.906612e-02
  3.149900e-01    1.913357e+00   4.893843e-02
  3.172005e-01    1.901318e+00   4.858476e-02
  3.194109e-01    1.896355e+00   4.832098e-02
  3.216214e-01    1.947728e+00   4.877133e-02
  3.238319e-01    1.899948e+00   4.797855e-02
  3.260423e-01    1.926460e+00   4.811971e-02
  3.282528e-01    1.895529e+00   4.754183e-02
  3.304632e-01    1.865038e+00   4.697522e-02
  3.326737e-01    1.824764e+00   4.628396e-02
  3.348841e-01    1.853557e+00   4.646678e-02
  3.370946e-01    1.848205e+00   4.622509e-02
  3.393050e-01    1.853435e+00   4.611510e-02
  3.415155e-01    1.834758e+00   4.570963e-02
  3.437260e-01    1.852157e+00   4.575564e-02
  3.459364e-01    1.878953e+00   4.591495e-02
  3.481469e-01    1.916714e+00   4.620475e-02
  3.503573e-01    1.847716e+00   4.520025e-02
  3.525678e-01    1.874593e+00   4.536554e-02
  3.547782e-01    1.856511e+00   4.498304e-02
  3.569887e-01    1.838318e+00   4.460350e-02
  3.591992e-01    1.771052e+00   4.362495e-02
  3.614096e-01    1.789304e+00   4.369711e-02
  3.636201e-01    1.847830e+00   4.424996e-02
  3.658305e-01    1.787866e+00   4.337759e-02
  3.680410e-01    1.756712e+00   4.285012e-02
  3.702514e-01    1.766963e+00   4.283042e-02
  3.724619e-01    1.757992e+00   4.257609e-02
  3.746724e-01    1.753024e+00   4.237402e-02
  3.768828e-01    1.811397e+00   4.292880e-02
  3.790933e-01    1.779909e+00   4.241537e-02
  3.813037e-01    1.803308e+00   4.255359e-02
  3.835142e-01    1.779994e+00   4.213876e-02
  3.857246e-01    1.791239e+00   4.213485e-02
  3.879351e-01    1.858911e+00   4.278443e-02
  3.901455e-01    1.846670e+00   4.250760e-02
  3.923560e-01    1.797319e+00   4.180246e-02
  3.945665e-01    1.808408e+00   4.179827e-02
  3.967769e-01    1.808667e+00   4.167031e-02
  3.989874e-01    1.861330e+00   4.214065e-02
  4.011978e-01    1.774570e+00   4.102030e-02
  4.034083e-01    1.751267e+00   4.062494e-02
  4.056187e-01    1.777072e+00   4.079710e-02
  4.078292e-01    1.804597e+00   4.098740e-02
  4.100397e-01    1.808058e+00   4.090143e-02
  4.122501e-01    1.772506e+00   4.037618e-02
  4.144606e-01    1.787237e+00   4.042334e-02
  4.166710e-01    1.809382e+00   4.055209e-02
  4.188815e-01    1.797711e+00   4.030169e-02
  4.210919e-01    1.797379e+00   4.017987e-02
  4.233024e-01    1.797366e+00   4.006154e-02
  4.255128e-01    1.829473e+00   4.030094e-02
  4.277233e-01    1.781328e+00   3.965287e-02
  4.299338e-01    1.780899e+00   3.953399e-02
  4.321442e-01    1.816857e+00   3.981686e-02
  4.343547e-01    1.758614e+00   3.906270e-02
  4.365651e-01    1.739437e+00   3.873874e-02
  4.387756e-01    1.734222e+00   3.857233e-02
  4.409860e-01    1.755645e+00   3.870229e-02
  4.431965e-01    1.850677e+00   3.962610e-02
  4.454070e-01    1.769693e+00   3.864161e-02
  4.476174e-01    1.740723e+00   3.821877e-02
  4.498279e-01    1.728894e+00   3.798506e-02
  4.520383e-01    1.752134e+00   3.813459e-02
  4.542488e-01    1.776053e+00   3.829046e-02
  4.564592e-01    1.758286e+00   3.799625e-02
  4.586697e-01    1.767002e+00   3.798921e-02
  4.608801e-01    1.734466e+00   3.753702e-02
  4.630906e-01    1.731078e+00   3.740104e-02
  4.653011e-01    1.758074e+00   3.759243e-02
  4.675115e-01    1.770287e+00   3.762343e-02
  4.697220e-01    1.686465e+00   3.662577e-02
  4.719324e-01    1.692609e+00   3.659750e-02
  4.741429e-01    1.708411e+00   3.667321e-02
  4.763533e-01    1.709064e+00   3.658617e-02
  4.785638e-01    1.715400e+00   3.655925e-02
  4.807743e-01    1.713019e+00   3.644095e-02
  4.829847e-01    1.716868e+00   3.638971e-02
  4.851952e-01    1.709460e+00   3.621922e-02
  4.874056e-01    1.727518e+00   3.631822e-02
  4.896161e-01    1.733387e+00   3.628965e-02
  4.918265e-01    1.690211e+00   3.574585e-02
  4.940370e-01    1.703652e+00   3.579909e-02
  4.962475e-01    1.714700e+00   3.582629e-02
  4.984579e-01    1.705735e+00   3.564445e-02
  5.006684e-01    1.714702e+00   3.565087e-02
  5.028788e-01    1.702766e+00   3.544050e-02
  5.050893e-01    1.696386e+00   3.528801e-02
  5.072997e-01    1.703212e+00   3.527353e-02
  5.095102e-01    1.668301e+00   3.482655e-02
  5.117206e-01    1.711088e+00   3.518644e-02
  5.139311e-01    1.700035e+00   3.498963e-02
  5.161416e-01    1.700701e+00   3.491377e-02
  5.183520e-01    1.676774e+00   3.458492e-02
  5.205625e-01    1.654244e+00   3.427130e-02
  5.227729e-01    1.691781e+00   3.457711e-02
  5.249834e-01    1.715649e+00   3.473936e-02
  5.271938e-01    1.665789e+00   3.415096e-02
  5.294043e-01    1.682102e+00   3.423856e-02
  5.316148e-01    1.748726e+00   3.483007e-02
  5.338252e-01    1.749663e+00   3.475982e-02
  5.360357e-01    1.722924e+00   3.441462e-02
  5.382461e-01    1.784242e+00   3.494252e-02
  5.404566e-01    1.767204e+00   3.469614e-02
  5.426670e-01    1.742661e+00   3.437673e-02
  5.448775e-01    1.758299e+00   3.445347e-02
  5.470879e-01    1.818267e+00   3.495797e-02
  5.492984e-01    1.767709e+00   3.439187e-02
  5.515089e-01    1.799721e+00   3.462492e-02
  5.537193e-01    1.860033e+00   3.512274e-02
  5.559298e-01    1.828910e+00   3.475130e-02
  5.581402e-01    1.750954e+00   3.392830e-02
  5.603507e-01    1.762855e+00   3.396930e-02
  5.625611e-01    1.777881e+00   3.403974e-02
  5.647716e-01    1.816637e+00   3.433404e-02
  5.669821e-01    1.830426e+00   3.438981e-02
  5.691925e-01    1.842255e+00   3.442670e-02
  5.714030e-01    1.825058e+00   3.419258e-02
  5.736134e-01    1.788819e+00   3.377943e-02
  5.758239e-01    1.700153e+00   3.286131e-02
  5.780343e-01    1.689746e+00   3.269129e-02
  5.802448e-01    1.667167e+00   3.240416e-02
  5.824552e-01    1.704502e+00   3.269623e-02
  5.846657e-01    1.638007e+00   3.198534e-02
  5.868762e-01    1.641551e+00   3.195322e-02
  5.890866e-01    1.646360e+00   3.193363e-02
  5.912971e-01    1.622432e+00   3.163506e-02
  5.935075e-01    1.660877e+00   3.194154e-02
  5.957180e-01    1.634268e+00   3.161963e-02
  5.979284e-01    1.648238e+00   3.168966e-02
  6.001389e-01    1.648111e+00   3.162391e-02
  6.023494e-01    1.635349e+00   3.143728e-02
  6.045598e-01    1.684963e+00   3.184561e-02
  6.067703e-01    1.735453e+00   3.225425e-02
  6.089807e-01    1.690113e+00   3.176614e-02
  6.111912e-01    1.662122e+00   3.143907e-02
  6.134016e-01    1.684392e+00   3.158588e-02
  6.156121e-01    1.671272e+00   3.140007e-02
  6.178226e-01    1.709266e+00   3.169211e-02
  6.200330e-01    1.716004e+00   3.169191e-02
  6.222435e-01    1.672378e+00   3.122446e-02
  6.244539e-01    1.710408e+00   3.151565e-02
  6.266644e-01    1.759398e+00   3.190145e-02
  6.288748e-01    1.775845e+00   3.198785e-02
  6.310853e-01    1.733261e+00   3.154063e-02
  6.332957e-01    1.744367e+00   3.158043e-02
  6.355062e-01    1.737114e+00   3.145349e-02
  6.377167e-01    1.722784e+00   3.126337e-02
  6.399271e-01    1.722924e+00   3.120474e-02
  6.421376e-01    1.726017e+00   3.117312e-02
  6.443480e-01    1.682317e+00   3.071743e-02
  6.465585e-01    1.729362e+00   3.108493e-02
  6.487689e-01    1.738212e+00   3.110555e-02
  6.509794e-01    1.683473e+00   3.055413e-02
  6.531899e-01    1.613554e+00   2.985663e-02
  6.554003e-01    1.647419e+00   3.011160e-02
  6.576108e-01    1.589296e+00   2.952059e-02
  6.598212e-01    1.589332e+00   2.946606e-02
  6.620317e-01    1.623622e+00   2.972702e-02
  6.642421e-01    1.592655e+00   2.938772e-02
  6.664526e-01    1.590754e+00   2.931604e-02
  6.686630e-01    1.620910e+00   2.953791e-02
  6.708735e-01    1.594037e+00   2.923829e-02
  6.730840e-01    1.607814e+00   2.931084e-02
  6.752944e-01    1.616918e+00   2.934025e-02
  6.775049e-01    1.609454e+00   2.921929e-02
  6.797153e-01    1.640682e+00   2.944798e-02
  6.819258e-01    1.633404e+00   2.932962e-02
  6.841362e-01    1.567792e+00   2.868283e-02
  6.863467e-01    1.595382e+00   2.888227e-02
  6.885572e-01    1.618552e+00   2.903914e-02
  6.907676e-01    1.579793e+00   2.863793e-02
  6.929781e-01    1.589274e+00   2.867267e-02
  6.951885e-01    1.622976e+00   2.892376e-02
  6.973990e-01    1.637088e+00   2.899789e-02
  6.996094e-01    1.608390e+00   2.869204e-02
  7.018199e-01    1.573740e+00   2.833148e-02
  7.040303e-01    1.605312e+00   2.856398e-02
  7.062408e-01    1.623466e+00   2.867473e-02
  7.084513e-01    1.598211e+00   2.840135e-02
  7.106617e-01    1.597748e+00   2.834787e-02
  7.128722e-01    1.581177e+00   2.815170e-02
  7.150826e-01    1.601654e+00   2.828457e-02
  7.172931e-01    1.596825e+00   2.819321e-02
  7.195035e-01    1.558065e+00   2.780106e-02
  7.217140e-01    1.597407e+00   2.819967e-02
  7.239245e-01    1.568914e+00   2.817338e-02
  7.261349e-01    1.575167e+00   2.833807e-02
  7.283454e-01    1.597696e+00   2.861296e-02
  7.305558e-01    1.566517e+00   2.838625e-02
  7.327663e-01    1.559311e+00   2.836317e-02
  7.349767e-01    1.570683e+00   2.848275e-02
  7.371872e-01    1.613979e+00   2.886132e-02
  7.393976e-01    1.619062e+00   2.889229e-02
  7.416081e-01    1.591359e+00   2.862780e-02
  7.438186e-01    1.553101e+00   2.813823e-02
  7.460290e-01    1.556529e+00   2.787673e-02
  7.482395e-01    1.534904e+00   2.751340e-02
  7.504499e-01    1.547965e+00   2.749510e-02
  7.526604e-01    1.587045e+00   2.772299e-02
  7.548708e-01    1.570498e+00   2.748882e-02
  7.570813e-01    1.557020e+00   2.731991e-02
  7.592918e-01    1.537889e+00   2.711679e-02
  7.615022e-01    1.570376e+00   2.736794e-02
  7.637127e-01    1.554864e+00   2.719988e-02
  7.659231e-01    1.559380e+00   2.720749e-02
  7.681336e-01    1.585669e+00   2.740416e-02
  7.703440e-01    1.579689e+00   2.732118e-02
  7.725545e-01    1.579165e+00   2.728570e-02
  7.747650e-01    1.572552e+00   2.719036e-02
  7.769754e-01    1.582940e+00   2.722717e-02
  7.791859e-01    1.571156e+00   2.707224e-02
  7.813963e-01    1.601029e+00   2.727543e-02
  7.836068e-01    1.587785e+00   2.711032e-02
  7.858172e-01    1.641874e+00   2.751668e-02
  7.880277e-01    1.595541e+00   2.707408e-02
  7.902381e-01    1.584726e+00   2.693310e-02
  7.924486e-01    1.603372e+00   2.704092e-02
  7.946591e-01    1.638307e+00   2.728505e-02
  7.968695e-01    1.623480e+00   2.711273e-02
  7.990800e-01    1.599958e+00   2.686747e-02
  8.012904e-01    1.637282e+00   2.713204e-02
  8.035009e-01    1.632926e+00   2.704773e-02
  8.057113e-01    1.651063e+00   2.715047e-02
  8.079218e-01    1.658518e+00   2.716475e-02
  8.101323e-01    1.626735e+00   2.685754e-02
  8.123427e-01    1.630283e+00   2.684095e-02
  8.145532e-01    1.625589e+00   2.675645e-02
  8.167636e-01    1.615768e+00   2.663062e-02
  8.189741e-01    1.655579e+00   2.691177e-02
  8.211845e-01    1.644013e+00   2.677266e-02
  8.233950e-01    1.611081e+00   2.646006e-02
  8.256054e-01    1.656904e+00   2.678922e-02
  8.278159e-01    1.662057e+00   2.678658e-02
  8.300264e-01    1.668382e+00   2.679401e-02
  8.322368e-01    1.662512e+00   2.670340e-02
  8.344473e-01    1.664389e+00   2.667476e-02
  8.366577e-01    1.631868e+00   2.637037e-02
  8.388682e-01    1.639958e+00   2.639341e-02
  8.410786e-01    1.637075e+00   2.632817e-02
  8.432891e-01    1.635483e+00   2.627356e-02
  8.454996e-01    1.631835e+00   2.620271e-02
  8.477100e-01    1.640832e+00   2.623313e-02
  8.499205e-01    1.646592e+00   2.623788e-02
  8.521309e-01    1.659341e+00   2.629817e-02
  8.543414e-01    1.676093e+00   2.638936e-02
  8.565518e-01    1.629910e+00   2.598277e-02
  8.587623e-01    1.606882e+00   2.575837e-02
  8.609727e-01    1.620162e+00   2.582448e-02
  8.631832e-01    1.646713e+00   2.599509e-02
  8.653937e-01    1.636548e+00   2.587492e-02
  8.676041e-01    1.608449e+00   2.561311e-02
  8.698146e-01    1.584264e+00   2.538097e-02
  8.720250e-01    1.566553e+00   2.520023e-02
  8.742355e-01    1.543367e+00   2.497498e-02
  8.764459e-01    1.554972e+00   2.503045e-02
  8.786564e-01    1.571226e+00   2.512342e-02
  8.808669e-01    1.585427e+00   2.519844e-02
  8.830773e-01    1.580367e+00   2.512032e-02
  8.852878e-01    1.596934e+00   2.521378e-02
  8.874982e-01    1.616346e+00   2.532974e-02
  8.897087e-01    1.642725e+00   2.549746e-02
  8.919191e-01    1.627435e+00   2.534044e-02
  8.941296e-01    1.584398e+00   2.496603e-02
  8.963401e-01    1.614471e+00   2.516526e-02
  8.985505e-01    1.577455e+00   2.483841e-02
  9.007610e-01    1.609209e+00   2.505030e-02
  9.029714e-01    1.594434e+00   2.489927e-02
  9.051819e-01    1.584738e+00   2.478640e-02
  9.073923e-01    1.589066e+00   2.478377e-02
  9.096028e-01    1.574832e+00   2.463789e-02
  9.118132e-01    1.596542e+00   2.477093e-02
  9.140237e-01    1.618082e+00   2.490064e-02
  9.162342e-01    1.627990e+00   2.494192e-02
  9.184446e-01    1.639640e+00   2.499479e-02
  9.206551e-01    1.667398e+00   2.516916e-02
  9.228655e-01    1.623886e+00   2.480308e-02
  9.250760e-01    1.623250e+00   2.476262e-02
  9.272864e-01    1.634836e+00   2.481625e-02
  9.294969e-01    1.620772e+00   2.467325e-02
  9.317074e-01    1.627063e+00   2.468615e-02
  9.339178e-01    1.623138e+00   2.462269e-02
  9.361283e-01    1.629529e+00   2.463475e-02
  9.383387e-01    1.589232e+00   2.429516e-02
  9.405492e-01    1.618354e+00   2.448248e-02
  9.427596e-01    1.657197e+00   2.473890e-02
  9.449701e-01    1.649812e+00   2.465019e-02
  9.471805e-01    1.665197e+00   2.472976e-02
  9.493910e-01    1.709870e+00   2.502490e-02
  9.516015e-01    1.693919e+00   2.487314e-02
  9.538119e-01    1.698493e+00   2.487256e-02
  9.560224e-01    1.714830e+00   2.495670e-02
  9.582328e-01    1.763248e+00   2.527263e-02
  9.604433e-01    1.765960e+00   2.525626e-02
  9.626537e-01    1.775268e+00   2.528867e-02
  9.648642e-01    1.805579e+00   2.546871e-02
  9.670747e-01    1.839283e+00   2.566986e-02
  9.692851e-01    1.894535e+00   2.601796e-02
  9.714956e-01    1.877869e+00   2.586675e-02
  9.737060e-01    1.867643e+00   2.576234e-02
  9.759165e-01    1.870135e+00   2.574315e-02
  9.781269e-01    1.865229e+00   2.567575e-02
  9.803374e-01    1.826905e+00   2.537546e-02
  9.825478e-01    1.846860e+00   2.547999e-02
  9.847583e-01    1.849650e+00   2.546462e-02
  9.869688e-01    1.820546e+00   2.522968e-02
  9.891792e-01    1.760785e+00   2.477915e-02
  9.913897e-01    1.738061e+00   2.458551e-02
  9.936001e-01    1.694651e+00   2.424477e-02
  9.958106e-01    1.697880e+00   2.423485e-02
  9.980210e-01    1.701128e+00   2.422654e-02
  1.000231e+00    1.735687e+00   2.460545e-02
  1.002442e+00    1.734601e+00   2.472846e-02
  1.004652e+00    1.661954e+00   2.427262e-02
  1.006863e+00    1.625253e+00   2.405292e-02
  1.009073e+00    1.597802e+00   2.388542e-02
  1.011284e+00    1.564025e+00   2.366321e-02
  1.013494e+00    1.588182e+00   2.386887e-02
  1.015705e+00    1.569229e+00   2.374848e-02
  1.017915e+00    1.511298e+00   2.332206e-02
  1.020126e+00    1.525117e+00   2.344425e-02
  1.022336e+00    1.584307e+00   2.390661e-02
  1.024547e+00    1.644047e+00   2.436474e-02
  1.026757e+00    1.670242e+00   2.456678e-02
  1.028967e+00    1.619558e+00   2.419905e-02
  1.031178e+00    1.544872e+00   2.364067e-02
  1.033388e+00    1.554567e+00   2.371982e-02
  1.035599e+00    1.567363e+00   2.382070e-02
  1.037809e+00    1.651645e+00   2.445614e-02
  1.040020e+00    1.744718e+00   2.513714e-02
  1.042230e+00    1.775775e+00   2.536200e-02
  1.044441e+00    1.725125e+00   2.499746e-02
  1.046651e+00    1.796092e+00   2.550658e-02
  1.048862e+00    1.889953e+00   2.616371e-02
  1.051072e+00    1.766968e+00   2.529562e-02
  1.053282e+00    1.622290e+00   2.423691e-02
  1.055493e+00    1.538644e+00   2.359942e-02
  1.057703e+00    1.520893e+00   2.346134e-02
  1.059914e+00    1.572412e+00   2.385101e-02
  1.062124e+00    1.628725e+00   2.427009e-02
  1.064335e+00    1.818453e+00   2.564091e-02
  1.066545e+00    2.057509e+00   2.726727e-02
  1.068756e+00    1.817710e+00   2.562509e-02
  1.070966e+00    1.525656e+00   2.346968e-02
  1.073177e+00    1.468609e+00   2.302062e-02
  1.075387e+00    1.480114e+00   2.310537e-02
  1.077597e+00    1.491222e+00   2.318460e-02
  1.079808e+00    1.466895e+00   2.286186e-02
  1.082018e+00    1.430957e+00   2.239308e-02
  1.084229e+00    1.434288e+00   2.231005e-02
  1.086439e+00    1.461032e+00   2.242949e-02
  1.088650e+00    1.430210e+00   2.211661e-02
  1.090860e+00    1.441306e+00   2.213491e-02
  1.093071e+00    1.452964e+00   2.216200e-02
  1.095281e+00    1.498342e+00   2.244714e-02
  1.097492e+00    1.485932e+00   2.229832e-02
  1.099702e+00    1.460313e+00   2.205350e-02
  1.101912e+00    1.472491e+00   2.209587e-02
  1.104123e+00    1.476554e+00   2.207744e-02
  1.106333e+00    1.437508e+00   2.173909e-02
  1.108544e+00    1.384320e+00   2.128956e-02
  1.110754e+00    1.394362e+00   2.132412e-02
  1.112965e+00    1.398325e+00   2.131418e-02
  1.115175e+00    1.427413e+00   2.149346e-02
  1.117386e+00    1.422135e+00   2.141434e-02
  1.119596e+00    1.389783e+00   2.113178e-02
  1.121807e+00    1.393962e+00   2.112492e-02
  1.124017e+00    1.379645e+00   2.097987e-02
  1.126228e+00    1.376907e+00   2.092364e-02
  1.128438e+00    1.374592e+00   2.086964e-02
  1.130648e+00    1.367393e+00   2.078097e-02
  1.132859e+00    1.395229e+00   2.095708e-02
  1.135069e+00    1.380680e+00   2.081297e-02
  1.137280e+00    1.364179e+00   2.065552e-02
  1.139490e+00    1.356814e+00   2.056699e-02
  1.141701e+00    1.359248e+00   2.055261e-02
  1.143911e+00    1.377849e+00   2.066097e-02
  1.146122e+00    1.365576e+00   2.053692e-02
  1.148332e+00    1.372633e+00   2.055811e-02
  1.150543e+00    1.376440e+00   2.055578e-02
  1.152753e+00    1.368362e+00   2.046462e-02
  1.154963e+00    1.365979e+00   2.041583e-02
  1.157174e+00    1.355003e+00   2.030369e-02
  1.159384e+00    1.362573e+00   2.033057e-02
  1.161595e+00    1.373983e+00   2.038564e-02
  1.163805e+00    1.332138e+00   2.004395e-02
  1.166016e+00    1.345617e+00   2.011589e-02
  1.168226e+00    1.353342e+00   2.014474e-02
  1.170437e+00    1.364841e+00   2.020152e-02
  1.172647e+00    1.361228e+00   2.014593e-02
  1.174858e+00    1.373099e+00   2.020539e-02
  1.177068e+00    1.370379e+00   2.015704e-02
  1.179278e+00    1.357659e+00   2.003473e-02
  1.181489e+00    1.393454e+00   2.026978e-02
  1.183699e+00    1.362876e+00   2.001854e-02
  1.185910e+00    1.341503e+00   1.983334e-02
  1.188120e+00    1.356941e+00   1.992045e-02
  1.190331e+00    1.351849e+00   1.985630e-02
  1.192541e+00    1.365391e+00   1.992803e-02
  1.194752e+00    1.353851e+00   1.981658e-02
  1.196962e+00    1.358633e+00   1.982572e-02
  1.199173e+00    1.345866e+00   1.970592e-02
  1.201383e+00    1.320978e+00   1.949599e-02
  1.203593e+00    1.339253e+00   1.960566e-02
  1.205804e+00    1.327554e+00   1.949415e-02
  1.208014e+00    1.337914e+00   1.954331e-02
  1.210225e+00    1.366675e+00   1.972679e-02
  1.212435e+00    1.363763e+00   1.968084e-02
  1.214646e+00    1.330508e+00   1.941350e-02
  1.216856e+00    1.310445e+00   1.924145e-02
  1.219067e+00    1.318573e+00   1.927686e-02
  1.221277e+00    1.338438e+00   1.939661e-02
  1.223488e+00    1.341146e+00   1.939056e-02
  1.225698e+00    1.332653e+00   1.930234e-02
  1.227909e+00    1.340453e+00   1.932868e-02
  1.230119e+00    1.324805e+00   1.918398e-02
  1.232329e+00    1.324188e+00   1.914908e-02
  1.234540e+00    1.326530e+00   1.913599e-02
  1.236750e+00    1.323853e+00   1.908669e-02
  1.238961e+00    1.326282e+00   1.907747e-02
  1.241171e+00    1.354449e+00   1.925475e-02
  1.243382e+00    1.352299e+00   1.921595e-02
  1.245592e+00    1.323555e+00   1.898676e-02
  1.247803e+00    1.355375e+00   1.918994e-02
  1.250013e+00    1.351720e+00   1.914048e-02
  1.252224e+00    1.339143e+00   1.902808e-02
  1.254434e+00    1.355067e+00   1.911707e-02
  1.256644e+00    1.395633e+00   1.937753e-02
  1.258855e+00    1.355928e+00   1.907659e-02
  1.261065e+00    1.332428e+00   1.888734e-02
  1.263276e+00    1.335203e+00   1.888415e-02
  1.265486e+00    1.355980e+00   1.900761e-02
  1.267697e+00    1.339290e+00   1.886735e-02
  1.269907e+00    1.354707e+00   1.895287e-02
  1.272118e+00    1.355448e+00   1.893545e-02
  1.274328e+00    1.334296e+00   1.876453e-02
  1.276539e+00    1.338114e+00   1.876866e-02
  1.278749e+00    1.321848e+00   1.863219e-02
  1.280959e+00    1.342421e+00   1.875414e-02
  1.283170e+00    1.358291e+00   1.884218e-02
  1.285380e+00    1.339533e+00   1.868927e-02
  1.287591e+00    1.333001e+00   1.862173e-02
  1.289801e+00    1.317266e+00   1.849056e-02
  1.292012e+00    1.306234e+00   1.839613e-02
  1.294222e+00    1.327242e+00   1.852737e-02
  1.296433e+00    1.350783e+00   1.867536e-02
  1.298643e+00    1.338039e+00   1.857067e-02
  1.300854e+00    1.368522e+00   1.876447e-02
  1.303064e+00    1.378127e+00   1.881078e-02
  1.305274e+00    1.368320e+00   1.872216e-02
  1.307485e+00    1.371256e+00   1.872052e-02
  1.309695e+00    1.336297e+00   1.845823e-02
  1.311906e+00    1.320434e+00   1.832687e-02
  1.314116e+00    1.340150e+00   1.844244e-02
  1.316327e+00    1.359388e+00   1.855261e-02
  1.318537e+00    1.345626e+00   1.843659e-02
  1.320748e+00    1.359858e+00   1.851221e-02
  1.322958e+00    1.356799e+00   1.847081e-02
  1.325169e+00    1.365485e+00   1.850868e-02
  1.327379e+00    1.372955e+00   1.853726e-02
  1.329589e+00    1.390298e+00   1.863259e-02
  1.331800e+00    1.391472e+00   1.861945e-02
  1.334010e+00    1.369459e+00   1.845078e-02
  1.336221e+00    1.374857e+00   1.846514e-02
  1.338431e+00    1.380930e+00   1.848478e-02
  1.340642e+00    1.376451e+00   1.851958e-02
  1.342852e+00    1.342215e+00   1.838819e-02
  1.345063e+00    1.331878e+00   1.836640e-02
  1.347273e+00    1.334043e+00   1.841634e-02
  1.349484e+00    1.330760e+00   1.842117e-02
  1.351694e+00    1.341069e+00   1.851499e-02
  1.353905e+00    1.351299e+00   1.860350e-02
  1.356115e+00    1.312277e+00   1.834775e-02
  1.358325e+00    1.312077e+00   1.835948e-02
  1.360536e+00    1.333121e+00   1.851767e-02
  1.362746e+00    1.333726e+00   1.853138e-02
  1.364957e+00    1.328794e+00   1.850471e-02
  1.367167e+00    1.312072e+00   1.839494e-02
  1.369378e+00    1.325186e+00   1.849262e-02
  1.371588e+00    1.310466e+00   1.839470e-02
  1.373799e+00    1.350815e+00   1.867941e-02
  1.376009e+00    1.319651e+00   1.846607e-02
  1.378220e+00    1.319084e+00   1.846460e-02
  1.380430e+00    1.312971e+00   1.842447e-02
  1.382640e+00    1.298904e+00   1.832639e-02
  1.384851e+00    1.297249e+00   1.831559e-02
  1.387061e+00    1.292299e+00   1.828088e-02
  1.389272e+00    1.305628e+00   1.837515e-02
  1.391482e+00    1.289971e+00   1.826396e-02
  1.393693e+00    1.302528e+00   1.835175e-02
  1.395903e+00    1.294560e+00   1.829404e-02
  1.398114e+00    1.290746e+00   1.826569e-02
  1.400324e+00    1.281609e+00   1.819880e-02
  1.402535e+00    1.267611e+00   1.809683e-02
  1.404745e+00    1.245876e+00   1.793866e-02
  1.406955e+00    1.282025e+00   1.819435e-02
  1.409166e+00    1.277716e+00   1.816043e-02
  1.411376e+00    1.287522e+00   1.822685e-02
  1.413587e+00    1.263970e+00   1.805558e-02
  1.415797e+00    1.252110e+00   1.796715e-02
  1.418008e+00    1.278881e+00   1.811618e-02
  1.420218e+00    1.253469e+00   1.778657e-02
  1.422429e+00    1.258916e+00   1.774020e-02
  1.424639e+00    1.269896e+00   1.775273e-02
  1.426850e+00    1.265251e+00   1.766562e-02
  1.429060e+00    1.273271e+00   1.767248e-02
  1.431270e+00    1.264937e+00   1.757033e-02
  1.433481e+00    1.250797e+00   1.743120e-02
  1.435691e+00    1.278861e+00   1.758709e-02
  1.437902e+00    1.298424e+00   1.768425e-02
  1.440112e+00    1.271853e+00   1.746700e-02
  1.442323e+00    1.257788e+00   1.733725e-02
  1.444533e+00    1.263829e+00   1.734635e-02
  1.446744e+00    1.275598e+00   1.739575e-02
  1.448954e+00    1.291889e+00   1.747602e-02
  1.451165e+00    1.264552e+00   1.726046e-02
  1.453375e+00    1.259827e+00   1.720023e-02
  1.455586e+00    1.274184e+00   1.726975e-02
  1.457796e+00    1.269939e+00   1.721346e-02
  1.460006e+00    1.249339e+00   1.704624e-02
  1.462217e+00    1.255317e+00   1.706090e-02
  1.464427e+00    1.264246e+00   1.709592e-02
  1.466638e+00    1.252586e+00   1.699175e-02
  1.468848e+00    1.259173e+00   1.701111e-02
  1.471059e+00    1.265912e+00   1.703154e-02
  1.473269e+00    1.253857e+00   1.692601e-02
  1.475480e+00    1.231423e+00   1.675050e-02
  1.477690e+00    1.254511e+00   1.688307e-02
  1.479901e+00    1.262627e+00   1.691384e-02
  1.482111e+00    1.252234e+00   1.682088e-02
  1.484321e+00    1.261842e+00   1.686222e-02
  1.486532e+00    1.255227e+00   1.679574e-02
  1.488742e+00    1.262386e+00   1.682093e-02
  1.490953e+00    1.268456e+00   1.683870e-02
  1.493163e+00    1.246645e+00   1.667115e-02
  1.495374e+00    1.263635e+00   1.676288e-02
  1.497584e+00    1.238526e+00   1.657405e-02
  1.499795e+00    1.268715e+00   1.675309e-02
  1.502005e+00    1.272956e+00   1.675929e-02
  1.504216e+00    1.250573e+00   1.659034e-02
  1.506426e+00    1.225137e+00   1.640020e-02
  1.508636e+00    1.237705e+00   1.646381e-02
  1.510847e+00    1.250184e+00   1.652485e-02
  1.513057e+00    1.247642e+00   1.648303e-02
  1.515268e+00    1.234714e+00   1.637192e-02
  1.517478e+00    1.248010e+00   1.643472e-02
  1.519689e+00    1.249375e+00   1.641879e-02
  1.521899e+00    1.260880e+00   1.647105e-02
  1.524110e+00    1.262929e+00   1.646402e-02
  1.526320e+00    1.259996e+00   1.642524e-02
  1.528531e+00    1.267171e+00   1.645203e-02
  1.530741e+00    1.259758e+00   1.638465e-02
  1.532951e+00    1.237160e+00   1.621752e-02
  1.535162e+00    1.230005e+00   1.625647e-02
  1.537372e+00    1.242397e+00   1.640488e-02
  1.539583e+00    1.236224e+00   1.639815e-02
  1.541793e+00    1.243757e+00   1.645496e-02
  1.544004e+00    1.221856e+00   1.630972e-02
  1.546214e+00    1.252071e+00   1.650861e-02
  1.548425e+00    1.277705e+00   1.667703e-02
  1.550635e+00    1.249790e+00   1.650355e-02
  1.552846e+00    1.238299e+00   1.643713e-02
  1.555056e+00    1.238865e+00   1.639950e-02
  1.557266e+00    1.226889e+00   1.621038e-02
  1.559477e+00    1.212980e+00   1.605985e-02
  1.561687e+00    1.252204e+00   1.628668e-02
  1.563898e+00    1.276016e+00   1.642344e-02
  1.566108e+00    1.268837e+00   1.636106e-02
  1.568319e+00    1.243800e+00   1.618323e-02
  1.570529e+00    1.255895e+00   1.623646e-02
  1.572740e+00    1.238652e+00   1.609708e-02
  1.574950e+00    1.249755e+00   1.614267e-02
  1.577161e+00    1.262293e+00   1.619780e-02
  1.579371e+00    1.244560e+00   1.605996e-02
  1.581582e+00    1.240809e+00   1.601600e-02
  1.583792e+00    1.234183e+00   1.595524e-02
  1.586002e+00    1.217000e+00   1.582635e-02
  1.588213e+00    1.230050e+00   1.589382e-02
  1.590423e+00    1.238860e+00   1.593063e-02
  1.592634e+00    1.215365e+00   1.575747e-02
  1.594844e+00    1.225615e+00   1.580252e-02
  1.597055e+00    1.236487e+00   1.585202e-02
  1.599265e+00    1.208798e+00   1.565308e-02
  1.601476e+00    1.208395e+00   1.563041e-02
  1.603686e+00    1.227659e+00   1.573485e-02
  1.605897e+00    1.202098e+00   1.555034e-02
  1.608107e+00    1.200442e+00   1.552035e-02
  1.610317e+00    1.229979e+00   1.569086e-02
  1.612528e+00    1.232118e+00   1.568538e-02
  1.614738e+00    1.167919e+00   1.525283e-02
  1.616949e+00    1.163026e+00   1.520234e-02
  1.619159e+00    1.167100e+00   1.521066e-02
  1.621370e+00    1.175606e+00   1.524785e-02
  1.623580e+00    1.180046e+00   1.525856e-02
  1.625791e+00    1.158166e+00   1.509856e-02
  1.628001e+00    1.142905e+00   1.498095e-02
  1.630212e+00    1.151954e+00   1.502269e-02
  1.632422e+00    1.158440e+00   1.504723e-02
  1.634632e+00    1.172031e+00   1.511802e-02
  1.636843e+00    1.151273e+00   1.496619e-02
  1.639053e+00    1.138114e+00   1.486340e-02
  1.641264e+00    1.149274e+00   1.491914e-02
  1.643474e+00    1.156823e+00   1.495070e-02
  1.645685e+00    1.164646e+00   1.498447e-02
  1.647895e+00    1.168552e+00   1.499289e-02
  1.650106e+00    1.174665e+00   1.501487e-02
  1.652316e+00    1.169251e+00   1.496361e-02
  1.654527e+00    1.125271e+00   1.466294e-02
  1.656737e+00    1.137027e+00   1.472276e-02
  1.658947e+00    1.135484e+00   1.469647e-02
  1.661158e+00    1.144400e+00   1.473767e-02
  1.663368e+00    1.164662e+00   1.485123e-02
  1.665579e+00    1.143827e+00   1.470149e-02
  1.667789e+00    1.107451e+00   1.444966e-02
  1.670000e+00    1.070013e+00   1.418813e-02
  1.672210e+00    1.068664e+00   1.416359e-02
  1.674421e+00    1.087095e+00   1.426999e-02
  1.676631e+00    1.096758e+00   1.431745e-02
  1.678842e+00    1.099276e+00   1.431809e-02
  1.681052e+00    1.102010e+00   1.432045e-02
  1.683263e+00    1.082534e+00   1.417825e-02
  1.685473e+00    1.095608e+00   1.424840e-02
  1.687683e+00    1.069276e+00   1.406081e-02
  1.689894e+00    1.056717e+00   1.396240e-02
  1.692104e+00    1.061827e+00   1.398128e-02
  1.694315e+00    1.049343e+00   1.388452e-02
  1.696525e+00    1.042589e+00   1.382481e-02
  1.698736e+00    1.030511e+00   1.372990e-02
  1.700946e+00    1.027747e+00   1.369659e-02
  1.703157e+00    1.020487e+00   1.363373e-02
  1.705367e+00    1.016406e+00   1.359220e-02
  1.707578e+00    1.021349e+00   1.361082e-02
  1.709788e+00    1.020872e+00   1.359371e-02
  1.711998e+00    1.004011e+00   1.346624e-02
  1.714209e+00    1.012264e+00   1.350723e-02
  1.716419e+00    1.027422e+00   1.359378e-02
  1.718630e+00    1.006618e+00   1.344134e-02
  1.720840e+00    1.015836e+00   1.348863e-02
  1.723051e+00    1.030576e+00   1.357227e-02
  1.725261e+00    1.014072e+00   1.344851e-02
  1.727472e+00    9.854398e-01   1.324337e-02
  1.729682e+00    9.637558e-01   1.308372e-02
  1.731893e+00    9.675632e-01   1.309593e-02
  1.734103e+00    1.005162e+00   1.333418e-02
  1.736313e+00    9.987661e-01   1.327776e-02
  1.738524e+00    9.960510e-01   1.324590e-02
  1.740734e+00    9.970829e-01   1.323908e-02
  1.742945e+00    9.760474e-01   1.308536e-02
  1.745155e+00    9.908072e-01   1.317048e-02
  1.747366e+00    9.732617e-01   1.303967e-02
  1.749576e+00    9.742510e-01   1.303269e-02
  1.751787e+00    9.622770e-01   1.293915e-02
  1.753997e+00    9.490143e-01   1.283651e-02
  1.756208e+00    9.421594e-01   1.277708e-02
  1.758418e+00    9.542302e-01   1.284568e-02
  1.760628e+00    9.358751e-01   1.270842e-02
  1.762839e+00    9.427295e-01   1.274179e-02
  1.765049e+00    9.432298e-01   1.273220e-02
  1.767260e+00    9.380680e-01   1.268464e-02
  1.769470e+00    9.373797e-01   1.266712e-02
  1.771681e+00    9.467077e-01   1.271689e-02
  1.773891e+00    9.567173e-01   1.277084e-02
  1.776102e+00    9.394869e-01   1.264252e-02
  1.778312e+00    9.323300e-01   1.258160e-02
  1.780523e+00    9.376578e-01   1.260481e-02
  1.782733e+00    9.383885e-01   1.259703e-02
  1.784944e+00    9.227934e-01   1.247913e-02
  1.787154e+00    9.239322e-01   1.247434e-02
  1.789364e+00    9.207938e-01   1.244072e-02
  1.791575e+00    9.260526e-01   1.246367e-02
  1.793785e+00    9.094968e-01   1.233944e-02
  1.795996e+00    9.210889e-01   1.240532e-02
  1.798206e+00    9.179658e-01   1.237174e-02
  1.800417e+00    9.765646e-01   1.274741e-02
  1.802627e+00    1.001690e+00   1.289788e-02
  1.804838e+00    9.981596e-01   1.286243e-02
  1.807048e+00    1.024339e+00   1.301644e-02
  1.809259e+00    9.721118e-01   1.266618e-02
  1.811469e+00    9.338233e-01   1.239903e-02
  1.813679e+00    9.250238e-01   1.232530e-02
  1.815890e+00    9.190835e-01   1.227074e-02
  1.818100e+00    9.190946e-01   1.225551e-02
  1.820311e+00    9.140161e-01   1.220668e-02
  1.822521e+00    9.050979e-01   1.213202e-02
  1.824732e+00    8.630669e-01   1.183239e-02
  1.826942e+00    8.742477e-01   1.189653e-02
  1.829153e+00    8.566796e-01   1.176490e-02
  1.831363e+00    8.660377e-01   1.181706e-02
  1.833574e+00    8.667946e-01   1.181065e-02
  1.835784e+00    8.572248e-01   1.173399e-02
  1.837994e+00    8.739567e-01   1.183625e-02
  1.840205e+00    8.731698e-01   1.181977e-02
  1.842415e+00    8.585739e-01   1.170889e-02
  1.844626e+00    8.577426e-01   1.169175e-02
  1.846836e+00    8.347425e-01   1.152271e-02
  1.849047e+00    8.442669e-01   1.157681e-02
  1.851257e+00    8.564205e-01   1.165029e-02
  1.853468e+00    8.560436e-01   1.163897e-02
  1.855678e+00    8.382079e-01   1.150833e-02
  1.857889e+00    8.317333e-01   1.145541e-02
  1.860099e+00    8.527515e-01   1.159065e-02
  1.862309e+00    8.632811e-01   1.165343e-02
  1.864520e+00    8.710681e-01   1.169724e-02
  1.866730e+00    8.659467e-01   1.165334e-02
  1.868941e+00    8.756275e-01   1.170722e-02
  1.871151e+00    8.513447e-01   1.153235e-02
  1.873362e+00    8.424993e-01   1.146100e-02
  1.875572e+00    8.433872e-01   1.145614e-02
  1.877783e+00    8.378931e-01   1.140740e-02
  1.879993e+00    8.233528e-01   1.129699e-02
  1.882204e+00    8.509695e-01   1.147394e-02
  1.884414e+00    8.458699e-01   1.142843e-02
  1.886624e+00    8.338306e-01   1.133581e-02
  1.888835e+00    8.511759e-01   1.144205e-02
  1.891045e+00    8.467971e-01   1.140167e-02
  1.893256e+00    8.371363e-01   1.132537e-02
  1.895466e+00    8.366372e-01   1.131082e-02
  1.897677e+00    8.318889e-01   1.126777e-02
  1.899887e+00    8.398288e-01   1.131041e-02
  1.902098e+00    8.199082e-01   1.116470e-02
  1.904308e+00    8.259069e-01   1.119491e-02
  1.906519e+00    8.164026e-01   1.111957e-02
  1.908729e+00    8.161804e-01   1.110751e-02
  1.910940e+00    8.330508e-01   1.121058e-02
  1.913150e+00    8.109703e-01   1.105051e-02
  1.915360e+00    8.187347e-01   1.109269e-02
  1.917571e+00    8.207586e-01   1.109554e-02
  1.919781e+00    8.076322e-01   1.099587e-02
  1.921992e+00    8.026507e-01   1.095138e-02
  1.924202e+00    8.136256e-01   1.101527e-02
  1.926413e+00    8.199869e-01   1.104792e-02
  1.928623e+00    7.964620e-01   1.087787e-02
  1.930834e+00    7.959863e-01   1.086430e-02
  1.933044e+00    7.995776e-01   1.087818e-02
  1.935255e+00    8.037039e-01   1.089595e-02
  1.937465e+00    7.773782e-01   1.070580e-02
  1.939675e+00    7.984600e-01   1.083920e-02
  1.941886e+00    8.165588e-01   1.095100e-02
  1.944096e+00    8.160735e-01   1.093751e-02
  1.946307e+00    8.072858e-01   1.086807e-02
  1.948517e+00    8.000413e-01   1.080874e-02
  1.950728e+00    8.149921e-01   1.089893e-02
  1.952938e+00    8.045416e-01   1.081869e-02
  1.955149e+00    8.056011e-01   1.081553e-02
  1.957359e+00    7.773064e-01   1.061397e-02
  1.959570e+00    7.909253e-01   1.069569e-02
  1.961780e+00    7.898175e-01   1.067832e-02
  1.963990e+00    7.630189e-01   1.048566e-02
  1.966201e+00    7.888243e-01   1.065143e-02
  1.968411e+00    7.970123e-01   1.069639e-02
  1.970622e+00    7.790005e-01   1.056480e-02
  1.972832e+00    7.641318e-01   1.045366e-02
  1.975043e+00    7.768726e-01   1.053046e-02
  1.977253e+00    7.750745e-01   1.050838e-02
  1.979464e+00    7.862957e-01   1.057412e-02
  1.981674e+00    7.907118e-01   1.059347e-02
  1.983885e+00    7.927507e-01   1.059702e-02
  1.986095e+00    7.764619e-01   1.047793e-02
  1.988305e+00    7.707515e-01   1.042947e-02
  1.990516e+00    7.665501e-01   1.039118e-02
  1.992726e+00    7.564205e-01   1.031275e-02
  1.994937e+00    7.696486e-01   1.039245e-02
  1.997147e+00    7.535982e-01   1.027393e-02
  1.999358e+00    7.824900e-01   1.045910e-02
  2.001568e+00    7.791948e-01   1.042623e-02
  2.003779e+00    7.664447e-01   1.032870e-02
  2.005989e+00    7.777093e-01   1.039224e-02
  2.008200e+00    7.629713e-01   1.028185e-02
  2.010410e+00    7.586883e-01   1.024127e-02
  2.012621e+00    7.584443e-01   1.022799e-02
  2.014831e+00    7.571158e-01   1.020763e-02
  2.017041e+00    7.682357e-01   1.027193e-02
  2.019252e+00    7.767955e-01   1.031897e-02
  2.021462e+00    7.647167e-01   1.022892e-02
  2.023673e+00    7.736676e-01   1.027918e-02
  2.025883e+00    7.628149e-01   1.019730e-02
  2.028094e+00    7.595530e-01   1.016586e-02
  2.030304e+00    7.630012e-01   1.017934e-02
  2.032515e+00    7.798423e-01   1.028168e-02
  2.034725e+00    7.673766e-01   1.018966e-02
  2.036936e+00    7.705809e-01   1.020151e-02
  2.039146e+00    7.556460e-01   1.009261e-02
  2.041356e+00    7.639730e-01   1.013836e-02
  2.043567e+00    7.398682e-01   9.967949e-03
  2.045777e+00    7.435673e-01   9.983641e-03
  2.047988e+00    7.498795e-01   1.001660e-02
  2.050198e+00    7.570644e-01   1.005602e-02
  2.052409e+00    7.478179e-01   9.986783e-03
  2.054619e+00    7.613597e-01   1.006939e-02
  2.056830e+00    7.503866e-01   9.989382e-03
  2.059040e+00    7.542195e-01   1.000733e-02
  2.061251e+00    7.667558e-01   1.008284e-02
  2.063461e+00    7.515551e-01   9.974786e-03
  2.065671e+00    7.477838e-01   9.940999e-03
  2.067882e+00    7.719099e-01   1.009096e-02
  2.070092e+00    7.613105e-01   1.001216e-02
  2.072303e+00    7.512589e-01   9.936685e-03
  2.074513e+00    7.517987e-01   9.930886e-03
  2.076724e+00    7.372659e-01   9.825017e-03
  2.078934e+00    7.491145e-01   9.894597e-03
  2.081145e+00    7.537525e-01   9.916058e-03
  2.083355e+00    7.406278e-01   9.820164e-03
  2.085566e+00    7.329621e-01   9.760360e-03
  2.087776e+00    7.278519e-01   9.716837e-03
  2.089986e+00    7.493832e-01   9.850656e-03
  2.092197e+00    7.528279e-01   9.864221e-03
  2.094407e+00    7.363450e-01   9.746440e-03
  2.096618e+00    7.222602e-01   9.643921e-03
  2.098828e+00    7.337159e-01   9.710809e-03
  2.101039e+00    7.208844e-01   9.616619e-03
  2.103249e+00    7.190768e-01   9.595945e-03
  2.105460e+00    7.076451e-01   9.510508e-03
  2.107670e+00    7.251749e-01   9.618836e-03
  2.109881e+00    7.299393e-01   9.641229e-03
  2.112091e+00    7.182804e-01   9.554981e-03
  2.114301e+00    7.086770e-01   9.482193e-03
  2.116512e+00    7.104500e-01   9.485335e-03
  2.118722e+00    7.271414e-01   9.587261e-03
  2.120933e+00    7.054225e-01   9.434231e-03
  2.123143e+00    7.100990e-01   9.456585e-03
  2.125354e+00    7.229044e-01   9.532917e-03
  2.127564e+00    6.954342e-01   9.341444e-03
  2.129775e+00    7.135627e-01   9.453686e-03
  2.131985e+00    7.087017e-01   9.412423e-03
  2.134196e+00    7.078144e-01   9.397962e-03
  2.136406e+00    7.071836e-01   9.385073e-03
  2.138617e+00    6.981685e-01   9.316669e-03
  2.140827e+00    7.037472e-01   9.369832e-03
  2.143037e+00    6.883106e-01   9.311349e-03
  2.145248e+00    6.954017e-01   9.381035e-03
  2.147458e+00    6.951990e-01   9.394722e-03
  2.149669e+00    6.828122e-01   9.322302e-03
  2.151879e+00    7.036667e-01   9.472842e-03
  2.154090e+00    6.955136e-01   9.425094e-03
  2.156300e+00    6.980577e-01   9.448894e-03
  2.158511e+00    7.035886e-01   9.491580e-03
  2.160721e+00    7.067949e-01   9.518022e-03
  2.162932e+00    6.991763e-01   9.470351e-03
  2.165142e+00    6.724717e-01   9.290687e-03
  2.167352e+00    6.931921e-01   9.435636e-03
  2.169563e+00    6.903296e-01   9.418081e-03
  2.171773e+00    6.899765e-01   9.418116e-03
  2.173984e+00    6.956767e-01   9.458357e-03
  2.176194e+00    6.816586e-01   9.363764e-03
  2.178405e+00    6.891376e-01   9.415688e-03
  2.180615e+00    6.757773e-01   9.324647e-03
  2.182826e+00    6.814934e-01   9.364675e-03
  2.185036e+00    6.781496e-01   9.341716e-03
  2.187247e+00    6.902813e-01   9.424856e-03
  2.189457e+00    6.890827e-01   9.416264e-03
  2.191667e+00    6.737625e-01   9.310848e-03
  2.193878e+00    6.709606e-01   9.290865e-03
  2.196088e+00    7.075279e-01   9.540007e-03
  2.198299e+00    7.182463e-01   9.610884e-03
  2.200509e+00    7.006667e-01   9.491486e-03
  2.202720e+00    6.794626e-01   9.345599e-03
  2.204930e+00    6.865174e-01   9.392736e-03
  2.207141e+00    6.988954e-01   9.475910e-03
  2.209351e+00    7.009958e-01   9.488231e-03
  2.211562e+00    6.784420e-01   9.332750e-03
  2.213772e+00    6.441639e-01   9.039774e-03
  2.215982e+00    6.577775e-01   9.091189e-03
  2.218193e+00    6.527664e-01   9.027367e-03
  2.220403e+00    6.569653e-01   9.032086e-03
  2.222614e+00    6.688396e-01   9.092488e-03
  2.224824e+00    6.572000e-01   8.993872e-03
  2.227035e+00    6.524081e-01   8.943843e-03
  2.229245e+00    6.735170e-01   9.070390e-03
  2.231456e+00    6.672399e-01   9.012466e-03
  2.233666e+00    6.512872e-01   8.889198e-03
  2.235877e+00    6.583772e-01   8.923315e-03
  2.238087e+00    6.522911e-01   8.868673e-03
  2.240298e+00    6.705431e-01   8.978112e-03
  2.242508e+00    6.704810e-01   8.962549e-03
  2.244718e+00    6.706446e-01   8.947819e-03
  2.246929e+00    6.482564e-01   8.783004e-03
  2.249139e+00    6.501465e-01   8.783561e-03
  2.251350e+00    6.622258e-01   8.853121e-03
  2.253560e+00    6.559363e-01   8.799510e-03
  2.255771e+00    6.572691e-01   8.797104e-03
  2.257981e+00    6.597398e-01   8.802489e-03
  2.260192e+00    6.610588e-01   8.800209e-03
  2.262402e+00    6.648990e-01   8.814871e-03
  2.264613e+00    6.598642e-01   8.770629e-03
  2.266823e+00    6.670228e-01   8.807648e-03
  2.269033e+00    6.690462e-01   8.810569e-03
  2.271244e+00    6.626213e-01   8.757780e-03
  2.273454e+00    6.485871e-01   8.654373e-03
  2.275665e+00    6.590374e-01   8.713537e-03
  2.277875e+00    6.632525e-01   8.731412e-03
  2.280086e+00    6.720309e-01   8.778874e-03
  2.282296e+00    6.742210e-01   8.783645e-03
  2.284507e+00    6.763769e-01   8.787436e-03
  2.286717e+00    6.670374e-01   8.717011e-03
  2.288928e+00    6.544738e-01   8.624689e-03
  2.291138e+00    6.475903e-01   8.569851e-03
  2.293348e+00    6.441023e-01   8.537283e-03
  2.295559e+00    6.616893e-01   8.643682e-03
  2.297769e+00    6.631221e-01   8.643750e-03
  2.299980e+00    6.547285e-01   8.579518e-03
  2.302190e+00    6.596897e-01   8.602797e-03
  2.304401e+00    6.492152e-01   8.524916e-03
  2.306611e+00    6.591738e-01   8.580809e-03
  2.308822e+00    6.532103e-01   8.533499e-03
  2.311032e+00    6.615165e-01   8.581085e-03
  2.313243e+00    6.548579e-01   8.531504e-03
  2.315453e+00    6.380914e-01   8.414058e-03
  2.317663e+00    6.396481e-01   8.415245e-03
  2.319874e+00    6.331888e-01   8.364012e-03
  2.322084e+00    6.384542e-01   8.389797e-03
  2.324295e+00    6.444647e-01   8.420977e-03
  2.326505e+00    6.564975e-01   8.490089e-03
  2.328716e+00    6.442983e-01   8.402290e-03
  2.330926e+00    6.568664e-01   8.474940e-03
  2.333137e+00    6.610947e-01   8.493693e-03
  2.335347e+00    6.389036e-01   8.341067e-03
  2.337558e+00    6.420190e-01   8.353137e-03
  2.339768e+00    6.392274e-01   8.326381e-03
  2.341979e+00    6.317966e-01   8.269533e-03
  2.344189e+00    6.329283e-01   8.268561e-03
  2.346399e+00    6.275313e-01   8.224814e-03
  2.348610e+00    6.309841e-01   8.238963e-03
  2.350820e+00    6.379095e-01   8.275849e-03
  2.353031e+00    6.450623e-01   8.313780e-03
  2.355241e+00    6.254212e-01   8.178218e-03
  2.357452e+00    6.331558e-01   8.220209e-03
  2.359662e+00    6.367073e-01   8.234979e-03
  2.361873e+00    6.279431e-01   8.169885e-03
  2.364083e+00    6.265596e-01   8.152916e-03
  2.366294e+00    6.151812e-01   8.070510e-03
  2.368504e+00    6.236431e-01   8.117761e-03
  2.370714e+00    6.265074e-01   8.128346e-03
  2.372925e+00    6.086280e-01   8.003565e-03
  2.375135e+00    6.110607e-01   8.011571e-03
  2.377346e+00    6.156494e-01   8.033703e-03
  2.379556e+00    6.130332e-01   8.008778e-03
  2.381767e+00    6.053594e-01   7.950741e-03
  2.383977e+00    6.039932e-01   7.933928e-03
  2.386188e+00    6.157620e-01   8.002962e-03
  2.388398e+00    6.156390e-01   7.994225e-03
  2.390609e+00    6.083847e-01   7.939320e-03
  2.392819e+00    6.084610e-01   7.932092e-03
  2.395029e+00    6.145304e-01   7.963895e-03
  2.397240e+00    6.242281e-01   8.018558e-03
  2.399450e+00    6.167138e-01   7.962333e-03
  2.401661e+00    6.057931e-01   7.883875e-03
  2.403871e+00    6.230571e-01   7.987573e-03
  2.406082e+00    6.035884e-01   7.854419e-03
  2.408292e+00    6.048270e-01   7.854699e-03
  2.410503e+00    6.120468e-01   7.893927e-03
  2.412713e+00    6.033042e-01   7.829565e-03
  2.414924e+00    6.070445e-01   7.846333e-03
  2.417134e+00    6.054428e-01   7.828304e-03
  2.419344e+00    6.262310e-01   7.954037e-03
  2.421555e+00    6.140419e-01   7.868663e-03
  2.423765e+00    5.886595e-01   7.696994e-03
  2.425976e+00    5.831887e-01   7.653420e-03
  2.428186e+00    5.975054e-01   7.739593e-03
  2.430397e+00    5.903566e-01   7.685714e-03
  2.432607e+00    5.867374e-01   7.654910e-03
  2.434818e+00    5.786602e-01   7.594581e-03
  2.437028e+00    5.956050e-01   7.697823e-03
  2.439239e+00    5.895728e-01   7.651124e-03
  2.441449e+00    5.861937e-01   7.621999e-03
  2.443659e+00    5.788688e-01   7.566958e-03
  2.445870e+00    5.651079e-01   7.488469e-03
  2.448080e+00    5.672271e-01   7.536813e-03
  2.450291e+00    5.877903e-01   7.688979e-03
  2.452501e+00    5.785408e-01   7.639426e-03
  2.454712e+00    5.672787e-01   7.573094e-03
  2.456922e+00    5.592467e-01   7.525832e-03
  2.459133e+00    5.747902e-01   7.635173e-03
  2.461343e+00    5.601855e-01   7.541890e-03
  2.463554e+00    5.411274e-01   7.415865e-03
  2.465764e+00    5.410353e-01   7.418331e-03
  2.467975e+00    5.384458e-01   7.402767e-03
  2.470185e+00    5.534543e-01   7.507491e-03
  2.472395e+00    5.431729e-01   7.438641e-03
  2.474606e+00    5.398992e-01   7.417724e-03
  2.476816e+00    5.340937e-01   7.378473e-03
  2.479027e+00    5.301549e-01   7.352037e-03
  2.481237e+00    5.432100e-01   7.442285e-03
  2.483448e+00    5.484895e-01   7.478670e-03
  2.485658e+00    5.333723e-01   7.374754e-03
  2.487869e+00    5.381370e-01   7.407646e-03
  2.490079e+00    5.430918e-01   7.441155e-03
  2.492290e+00    5.518947e-01   7.500771e-03
  2.494500e+00    5.502985e-01   7.489193e-03
  2.496710e+00    5.366897e-01   7.395308e-03
  2.498921e+00    5.327956e-01   7.367449e-03
  2.501131e+00    5.270495e-01   7.326659e-03
  2.503342e+00    5.193486e-01   7.271694e-03
  2.505552e+00    5.202353e-01   7.276765e-03
  2.507763e+00    5.285988e-01   7.333621e-03
  2.509973e+00    5.173821e-01   7.254027e-03
  2.512184e+00    5.049968e-01   7.165084e-03
  2.514394e+00    5.188468e-01   7.253376e-03
  2.516605e+00    5.324118e-01   7.300267e-03
  2.518815e+00    5.194727e-01   7.182863e-03
  2.521025e+00    5.186632e-01   7.156441e-03
  2.523236e+00    5.290995e-01   7.210025e-03
  2.525446e+00    5.257491e-01   7.171568e-03
  2.527657e+00    5.268394e-01   7.164372e-03
  2.529867e+00    5.253966e-01   7.140369e-03
  2.532078e+00    5.443541e-01   7.252709e-03
  2.534288e+00    5.452497e-01   7.244572e-03
  2.536499e+00    5.221769e-01   7.077698e-03
  2.538709e+00    5.282729e-01   7.107848e-03
  2.540920e+00    5.311517e-01   7.116475e-03
  2.543130e+00    5.273420e-01   7.080517e-03
  2.545340e+00    5.249402e-01   7.054305e-03
  2.547551e+00    5.044663e-01   6.905605e-03
  2.549761e+00    5.220821e-01   7.015541e-03
  2.551972e+00    5.139074e-01   6.951135e-03
  2.554182e+00    5.099237e-01   6.915058e-03
  2.556393e+00    5.209027e-01   6.980008e-03
  2.558603e+00    5.082803e-01   6.885964e-03
  2.560814e+00    5.000085e-01   6.821165e-03
  2.563024e+00    5.078911e-01   6.866225e-03
  2.565235e+00    5.045663e-01   6.834351e-03
  2.567445e+00    5.235517e-01   6.952140e-03
  2.569656e+00    5.072709e-01   6.833551e-03
  2.571866e+00    5.195423e-01   6.906345e-03
  2.574076e+00    4.996309e-01   6.763601e-03
  2.576287e+00    5.050688e-01   6.792058e-03
  2.578497e+00    5.132245e-01   6.838861e-03
  2.580708e+00    4.980237e-01   6.728880e-03
  2.582918e+00    5.044080e-01   6.764174e-03
  2.585129e+00    5.089560e-01   6.786905e-03
  2.587339e+00    5.122947e-01   6.801457e-03
  2.589550e+00    5.036445e-01   6.736304e-03
  2.591760e+00    5.228779e-01   6.855907e-03
  2.593971e+00    5.177958e-01   6.814945e-03
  2.596181e+00    5.127333e-01   6.775315e-03
  2.598391e+00    5.078056e-01   6.737507e-03
  2.600602e+00    5.057483e-01   6.717951e-03
  2.602812e+00    4.985561e-01   6.662563e-03
  2.605023e+00    4.941746e-01   6.626145e-03
  2.607233e+00    5.037629e-01   6.683007e-03
  2.609444e+00    5.071268e-01   6.698059e-03
  2.611654e+00    4.980591e-01   6.630665e-03
  2.613865e+00    5.023813e-01   6.652340e-03
  2.616075e+00    5.057342e-01   6.667377e-03
  2.618286e+00    4.966128e-01   6.600055e-03
  2.620496e+00    5.013433e-01   6.624719e-03
  2.622706e+00    4.968017e-01   6.588965e-03
  2.624917e+00    4.976839e-01   6.588999e-03
  2.627127e+00    5.015702e-01   6.608942e-03
  2.629338e+00    4.961580e-01   6.567268e-03
  2.631548e+00    4.950271e-01   6.553654e-03
  2.633759e+00    5.032265e-01   6.600544e-03
  2.635969e+00    5.182250e-01   6.691399e-03
  2.638180e+00    5.042959e-01   6.593867e-03
  2.640390e+00    5.049481e-01   6.591491e-03
  2.642601e+00    5.043113e-01   6.580640e-03
  2.644811e+00    5.018545e-01   6.557525e-03
  2.647021e+00    4.951523e-01   6.507035e-03
  2.649232e+00    5.035223e-01   6.555071e-03
  2.651442e+00    4.884545e-01   6.449816e-03
  2.653653e+00    4.857908e-01   6.425493e-03
  2.655863e+00    4.899675e-01   6.446429e-03
  2.658074e+00    4.991513e-01   6.499953e-03
  2.660284e+00    5.027745e-01   6.517095e-03
  2.662495e+00    5.045237e-01   6.521629e-03
  2.664705e+00    5.141310e-01   6.576760e-03
  2.666916e+00    5.011867e-01   6.486935e-03
  2.669126e+00    4.815299e-01   6.352108e-03
  2.671337e+00    4.843306e-01   6.364025e-03
  2.673547e+00    4.971159e-01   6.441082e-03
  2.675757e+00    5.060294e-01   6.492052e-03
  2.677968e+00    4.998965e-01   6.446049e-03
  2.680178e+00    4.884161e-01   6.365217e-03
  2.682389e+00    4.965374e-01   6.411505e-03
  2.684599e+00    4.871255e-01   6.344305e-03
  2.686810e+00    4.827953e-01   6.309490e-03
  2.689020e+00    4.942437e-01   6.377554e-03
  2.691231e+00    4.862481e-01   6.319508e-03
  2.693441e+00    4.922541e-01   6.352255e-03
  2.695652e+00    4.933389e-01   6.352709e-03
  2.697862e+00    4.838588e-01   6.285088e-03
  2.700072e+00    4.886717e-01   6.310176e-03
  2.702283e+00    4.797122e-01   6.245920e-03
  2.704493e+00    4.714237e-01   6.185553e-03
  2.706704e+00    4.835549e-01   6.258238e-03
  2.708914e+00    4.951183e-01   6.326627e-03
  2.711125e+00    4.865085e-01   6.265160e-03
  2.713335e+00    4.912770e-01   6.289656e-03
  2.715546e+00    4.814126e-01   6.219772e-03
  2.717756e+00    4.846686e-01   6.234884e-03
  2.719967e+00    4.796234e-01   6.196194e-03
  2.722177e+00    4.703367e-01   6.129874e-03
  2.724387e+00    4.736066e-01   6.145119e-03
  2.726598e+00    4.778009e-01   6.166250e-03
  2.728808e+00    4.882968e-01   6.227450e-03
  2.731019e+00    4.815340e-01   6.178065e-03
  2.733229e+00    4.886075e-01   6.217458e-03
  2.735440e+00    4.745331e-01   6.121043e-03
  2.737650e+00    4.899147e-01   6.213387e-03
  2.739861e+00    4.723999e-01   6.095340e-03
  2.742071e+00    4.548277e-01   5.975313e-03
  2.744282e+00    4.651436e-01   6.036544e-03
  2.746492e+00    4.828135e-01   6.144110e-03
  2.748702e+00    4.799568e-01   6.120007e-03
  2.750913e+00    4.933785e-01   6.199125e-03
  2.753123e+00    4.858494e-01   6.145516e-03
  2.755334e+00    4.815627e-01   6.112258e-03
  2.757544e+00    4.767728e-01   6.076061e-03
  2.759755e+00    4.755351e-01   6.062321e-03
  2.761965e+00    4.819415e-01   6.097023e-03
  2.764176e+00    4.838834e-01   6.103280e-03
  2.766386e+00    4.862705e-01   6.112501e-03
  2.768597e+00    4.697807e-01   6.002159e-03
  2.770807e+00    4.693617e-01   5.993661e-03
  2.773017e+00    4.755480e-01   6.027083e-03
  2.775228e+00    4.860432e-01   6.087398e-03
  2.777438e+00    4.687264e-01   5.972241e-03
  2.779649e+00    4.657161e-01   5.947200e-03
  2.781859e+00    4.769813e-01   6.012939e-03
  2.784070e+00    4.852397e-01   6.058865e-03
  2.786280e+00    4.817216e-01   6.031071e-03
  2.788491e+00    4.899961e-01   6.076723e-03
  2.790701e+00    4.812969e-01   6.016867e-03
  2.792912e+00    4.868910e-01   6.045704e-03
  2.795122e+00    4.880586e-01   6.047153e-03
  2.797333e+00    4.860563e-01   6.029105e-03
  2.799543e+00    4.816169e-01   5.995611e-03
  2.801753e+00    4.758993e-01   5.954067e-03
  2.803964e+00    4.714700e-01   5.920647e-03
  2.806174e+00    4.652101e-01   5.875126e-03
  2.808385e+00    4.730554e-01   5.917672e-03
  2.810595e+00    4.788191e-01   5.946715e-03
  2.812806e+00    4.763663e-01   5.924860e-03
  2.815016e+00    4.624456e-01   5.832952e-03
  2.817227e+00    4.683305e-01   5.895709e-03
  2.819437e+00    4.742444e-01   5.943920e-03
  2.821648e+00    4.708518e-01   5.924897e-03
  2.823858e+00    4.661163e-01   5.900320e-03
  2.826068e+00    4.763339e-01   5.969635e-03
  2.828279e+00    4.900404e-01   6.059027e-03
  2.830489e+00    4.684966e-01   5.927694e-03
  2.832700e+00    4.554182e-01   5.846849e-03
  2.834910e+00    4.699640e-01   5.941569e-03
  2.837121e+00    4.646480e-01   5.909562e-03
  2.839331e+00    4.628591e-01   5.899382e-03
  2.841542e+00    4.667486e-01   5.925148e-03
  2.843752e+00    4.650639e-01   5.915211e-03
  2.845963e+00    4.727609e-01   5.964361e-03
  2.848173e+00    4.570775e-01   5.864692e-03
  2.850383e+00    4.610167e-01   5.890186e-03
  2.852594e+00    4.731609e-01   5.967188e-03
  2.854804e+00    4.624099e-01   5.898512e-03
  2.857015e+00    4.730546e-01   5.965559e-03
  2.859225e+00    4.707129e-01   5.950551e-03
  2.861436e+00    4.636999e-01   5.905388e-03
  2.863646e+00    4.735031e-01   5.967530e-03
  2.865857e+00    4.759922e-01   5.983536e-03
  2.868067e+00    4.559879e-01   5.856682e-03
  2.870278e+00    4.500351e-01   5.817976e-03
  2.872488e+00    4.500174e-01   5.816710e-03
  2.874698e+00    4.547142e-01   5.845955e-03
  2.876909e+00    4.679519e-01   5.929101e-03
  2.879119e+00    4.628566e-01   5.895117e-03
  2.881330e+00    4.641496e-01   5.901862e-03
  2.883540e+00    4.527228e-01   5.827407e-03
  2.885751e+00    4.568914e-01   5.852526e-03
  2.887961e+00    4.675109e-01   5.918246e-03
  2.890172e+00    4.649941e-01   5.900691e-03
  2.892382e+00    4.754854e-01   5.965059e-03
  2.894593e+00    4.691535e-01   5.923382e-03
  2.896803e+00    4.588754e-01   5.856154e-03
  2.899014e+00    4.506721e-01   5.801687e-03
  2.901224e+00    4.500149e-01   5.795476e-03
  2.903434e+00    4.738387e-01   5.944927e-03
  2.905645e+00    4.572883e-01   5.837983e-03
  2.907855e+00    4.584742e-01   5.843425e-03
  2.910066e+00    4.485561e-01   5.777849e-03
  2.912276e+00    4.511731e-01   5.792542e-03
  2.914487e+00    4.732529e-01   5.930118e-03
  2.916697e+00    4.576892e-01   5.829562e-03
  2.918908e+00    4.567766e-01   5.821756e-03
  2.921118e+00    4.568094e-01   5.819263e-03
  2.923329e+00    4.606680e-01   5.841464e-03
  2.925539e+00    4.609248e-01   5.840824e-03
  2.927749e+00    4.462036e-01   5.744485e-03
  2.929960e+00    4.552009e-01   5.799350e-03
  2.932170e+00    4.598699e-01   5.826677e-03
  2.934381e+00    4.578009e-01   5.811129e-03
  2.936591e+00    4.548316e-01   5.789651e-03
  2.938802e+00    4.539534e-01   5.781386e-03
  2.941012e+00    4.472968e-01   5.736507e-03
  2.943223e+00    4.475016e-01   5.735156e-03
  2.945433e+00    4.537612e-01   5.771398e-03
  2.947644e+00    4.580628e-01   5.794538e-03
  2.949854e+00    4.609969e-01   5.808782e-03
  2.952064e+00    4.513488e-01   5.743473e-03
  2.954275e+00    4.488658e-01   5.723253e-03
  2.956485e+00    4.606945e-01   5.793975e-03
  2.958696e+00    4.496450e-01   5.719726e-03
  2.960906e+00    4.467126e-01   5.696888e-03
  2.963117e+00    4.522035e-01   5.727321e-03
  2.965327e+00    4.584398e-01   5.762761e-03
  2.967538e+00    4.502135e-01   5.707926e-03
  2.969748e+00    4.508936e-01   5.709435e-03
  2.971959e+00    4.601153e-01   5.764361e-03
  2.974169e+00    4.631679e-01   5.780852e-03
  2.976379e+00    4.570716e-01   5.739756e-03
  2.978590e+00    4.457546e-01   5.665140e-03
  2.980800e+00    4.529723e-01   5.708020e-03
  2.983011e+00    4.495488e-01   5.683633e-03
  2.985221e+00    4.508656e-01   5.688803e-03
  2.987432e+00    4.484920e-01   5.670729e-03
  2.989642e+00    4.475367e-01   5.662069e-03
  2.991853e+00    4.557541e-01   5.710531e-03
  2.994063e+00    4.532762e-01   5.692074e-03
  2.996274e+00    4.532838e-01   5.688956e-03
  2.998484e+00    4.527911e-01   5.683154e-03
  3.000694e+00    4.459784e-01   5.636828e-03
  3.002905e+00    4.439282e-01   5.620932e-03
  3.005115e+00    4.560471e-01   5.694147e-03
  3.007326e+00    4.575793e-01   5.700559e-03
  3.009536e+00    4.518648e-01   5.661578e-03
  3.011747e+00    4.636115e-01   5.731767e-03
  3.013957e+00    4.575139e-01   5.690744e-03
  3.016168e+00    4.369060e-01   5.557906e-03
  3.018378e+00    4.540802e-01   5.663043e-03
  3.020589e+00    4.520151e-01   5.646933e-03
  3.022799e+00    4.435312e-01   5.590576e-03
  3.025010e+00    4.500214e-01   5.628070e-03
  3.027220e+00    4.605547e-01   5.690444e-03
  3.029430e+00    4.626490e-01   5.700077e-03
  3.031641e+00    4.566134e-01   5.659621e-03
  3.033851e+00    4.558858e-01   5.651578e-03
  3.036062e+00    4.447347e-01   5.579275e-03
  3.038272e+00    4.485600e-01   5.599645e-03
  3.040483e+00    4.477775e-01   5.591544e-03
  3.042693e+00    4.499078e-01   5.601597e-03
  3.044904e+00    4.408886e-01   5.541176e-03
  3.047114e+00    4.518169e-01   5.604598e-03
  3.049325e+00    4.602340e-01   5.652138e-03
  3.051535e+00    4.439928e-01   5.547165e-03
  3.053745e+00    4.535103e-01   5.601518e-03
  3.055956e+00    4.549782e-01   5.605999e-03
  3.058166e+00    4.407854e-01   5.513641e-03
  3.060377e+00    4.585134e-01   5.618613e-03
  3.062587e+00    4.505041e-01   5.564704e-03
  3.064798e+00    4.410911e-01   5.502035e-03
  3.067008e+00    4.355267e-01   5.462577e-03
  3.069219e+00    4.481542e-01   5.536680e-03
  3.071429e+00    4.622470e-01   5.619504e-03
  3.073640e+00    4.511004e-01   5.548019e-03
  3.075850e+00    4.475501e-01   5.522548e-03
  3.078060e+00    4.493465e-01   5.530518e-03
  3.080271e+00    4.506353e-01   5.534967e-03
  3.082481e+00    4.465772e-01   5.506546e-03
  3.084692e+00    4.385423e-01   5.453442e-03
  3.086902e+00    4.513621e-01   5.529321e-03
  3.089113e+00    4.527049e-01   5.533951e-03
  3.091323e+00    4.518241e-01   5.525183e-03
  3.093534e+00    4.384047e-01   5.439177e-03
  3.095744e+00    4.417057e-01   5.456260e-03
  3.097955e+00    4.439571e-01   5.466610e-03
  3.100165e+00    4.493529e-01   5.496385e-03
  3.102375e+00    4.502120e-01   5.498214e-03
  3.104586e+00    4.547605e-01   5.522391e-03
  3.106796e+00    4.471634e-01   5.472555e-03
  3.109007e+00    4.493299e-01   5.482564e-03
  3.111217e+00    4.457860e-01   5.457208e-03
  3.113428e+00    4.318387e-01   5.367799e-03
  3.115638e+00    4.560534e-01   5.512945e-03
  3.117849e+00    4.594302e-01   5.529573e-03
  3.120059e+00    4.418714e-01   5.419414e-03
  3.122270e+00    4.535682e-01   5.487384e-03
  3.124480e+00    4.399354e-01   5.400624e-03
  3.126691e+00    4.326297e-01   5.352073e-03
  3.128901e+00    4.457279e-01   5.429363e-03
  3.131111e+00    4.468127e-01   5.432129e-03
  3.133322e+00    4.469576e-01   5.429535e-03
  3.135532e+00    4.513028e-01   5.452442e-03
  3.137743e+00    4.526534e-01   5.457078e-03
  3.139953e+00    4.384987e-01   5.367435e-03
  3.142164e+00    4.401850e-01   5.389699e-03
  3.144374e+00    4.408536e-01   5.422170e-03
  3.146585e+00    4.310018e-01   5.375596e-03
  3.148795e+00    4.350319e-01   5.411369e-03
  3.151006e+00    4.381937e-01   5.439485e-03
  3.153216e+00    4.513763e-01   5.527951e-03
  3.155426e+00    4.367559e-01   5.443934e-03
  3.157637e+00    4.334191e-01   5.428609e-03
  3.159847e+00    4.314807e-01   5.421245e-03
  3.162058e+00    4.420457e-01   5.491677e-03
  3.164268e+00    4.423194e-01   5.497448e-03
  3.166479e+00    4.327174e-01   5.441063e-03
  3.168689e+00    4.294620e-01   5.423903e-03
  3.170900e+00    4.305013e-01   5.433582e-03
  3.173110e+00    4.417385e-01   5.506922e-03
  3.175321e+00    4.384345e-01   5.488807e-03
  3.177531e+00    4.383531e-01   5.491009e-03
  3.179741e+00    4.456779e-01   5.538811e-03
  3.181952e+00    4.347911e-01   5.472839e-03
  3.184162e+00    4.339910e-01   5.469986e-03
  3.186373e+00    4.273470e-01   5.429531e-03
  3.188583e+00    4.314464e-01   5.457277e-03
  3.190794e+00    4.479805e-01   5.562665e-03
  3.193004e+00    4.388394e-01   5.506845e-03
  3.195215e+00    4.240840e-01   5.414974e-03
  3.197425e+00    4.188479e-01   5.382615e-03
  3.199636e+00    4.232185e-01   5.409860e-03
  3.201846e+00    4.314909e-01   5.461880e-03
  3.204056e+00    4.317164e-01   5.464209e-03
  3.206267e+00    4.258768e-01   5.427933e-03
  3.208477e+00    4.464737e-01   5.558589e-03
  3.210688e+00    4.286456e-01   5.447346e-03
  3.212898e+00    4.252563e-01   5.426315e-03
  3.215109e+00    4.288127e-01   5.449702e-03
  3.217319e+00    4.338414e-01   5.482225e-03
  3.219530e+00    4.337363e-01   5.481933e-03
  3.221740e+00    4.312941e-01   5.467052e-03
  3.223951e+00    4.349343e-01   5.490543e-03
  3.226161e+00    4.186269e-01   5.386815e-03
  3.228372e+00    4.214483e-01   5.405467e-03
  3.230582e+00    4.278208e-01   5.446306e-03
  3.232792e+00    4.350893e-01   5.492601e-03
  3.235003e+00    4.366165e-01   5.502488e-03
  3.237213e+00    4.230476e-01   5.416430e-03
  3.239424e+00    4.266698e-01   5.439543e-03
  3.241634e+00    4.216471e-01   5.407558e-03
  3.243845e+00    4.178420e-01   5.383183e-03
  3.246055e+00    4.264888e-01   5.438318e-03
  3.248266e+00    4.266264e-01   5.439408e-03
  3.250476e+00    4.107291e-01   5.336784e-03
  3.252687e+00    4.216835e-01   5.407422e-03
  3.254897e+00    4.115879e-01   5.342173e-03
  3.257107e+00    4.157779e-01   5.368988e-03
  3.259318e+00    4.288468e-01   5.452474e-03
  3.261528e+00    4.360660e-01   5.498044e-03
  3.263739e+00    4.244139e-01   5.423540e-03
  3.265949e+00    4.325106e-01   5.474888e-03
  3.268160e+00    4.248599e-01   5.425852e-03
  3.270370e+00    4.171577e-01   5.375928e-03
  3.272581e+00    4.164003e-01   5.370775e-03
  3.274791e+00    4.257829e-01   5.430414e-03
  3.277002e+00    4.224412e-01   5.408507e-03
  3.279212e+00    4.219014e-01   5.404664e-03
  3.281422e+00    4.425196e-01   5.534562e-03
  3.283633e+00    4.523408e-01   5.594933e-03
  3.285843e+00    4.342459e-01   5.481560e-03
  3.288054e+00    4.326569e-01   5.470579e-03
  3.290264e+00    4.216315e-01   5.400112e-03
  3.292475e+00    4.140440e-01   5.350458e-03
  3.294685e+00    4.306023e-01   5.455764e-03
  3.296896e+00    4.168968e-01   5.367498e-03
  3.299106e+00    4.240957e-01   5.413072e-03
  3.301317e+00    4.271057e-01   5.431239e-03
  3.303527e+00    4.080326e-01   5.308111e-03
  3.305737e+00    4.251036e-01   5.416938e-03
  3.307948e+00    4.249269e-01   5.415190e-03
  3.310158e+00    4.231371e-01   5.402880e-03
  3.312369e+00    4.323102e-01   5.460266e-03
  3.314579e+00    4.185109e-01   5.371510e-03
  3.316790e+00    4.187768e-01   5.372502e-03
  3.319000e+00    4.136005e-01   5.338017e-03
  3.321211e+00    4.214169e-01   5.387608e-03
  3.323421e+00    4.211257e-01   5.384562e-03
  3.325632e+00    4.184857e-01   5.366763e-03
  3.327842e+00    4.167922e-01   5.354994e-03
  3.330052e+00    4.135120e-01   5.332812e-03
  3.332263e+00    4.142595e-01   5.336616e-03
  3.334473e+00    4.375657e-01   5.483754e-03
  3.336684e+00    4.380620e-01   5.485586e-03
  3.338894e+00    4.309631e-01   5.440105e-03
  3.341105e+00    4.239771e-01   5.394633e-03
  3.343315e+00    4.089085e-01   5.296759e-03
  3.345526e+00    4.109218e-01   5.308894e-03
  3.347736e+00    4.146953e-01   5.331812e-03
  3.349947e+00    4.098094e-01   5.299401e-03
  3.352157e+00    4.202748e-01   5.365435e-03
  3.354368e+00    4.088306e-01   5.290634e-03
  3.356578e+00    4.088834e-01   5.289954e-03
  3.358788e+00    4.121953e-01   5.310016e-03
  3.360999e+00    4.157025e-01   5.331320e-03
  3.363209e+00    4.157721e-01   5.330738e-03
  3.365420e+00    4.181831e-01   5.344680e-03
  3.367630e+00    4.325162e-01   5.434459e-03
  3.369841e+00    4.220680e-01   5.366986e-03
  3.372051e+00    4.111364e-01   5.295044e-03
  3.374262e+00    4.246111e-01   5.378687e-03
  3.376472e+00    4.014248e-01   5.227364e-03
  3.378683e+00    4.145325e-01   5.309482e-03
  3.380893e+00    4.200880e-01   5.342636e-03
  3.383103e+00    4.164733e-01   5.316884e-03
  3.385314e+00    4.183790e-01   5.326777e-03
  3.387524e+00    4.252575e-01   5.367636e-03
  3.389735e+00    4.055984e-01   5.239515e-03
  3.391945e+00    4.126118e-01   5.280905e-03
  3.394156e+00    4.194944e-01   5.320544e-03
  3.396366e+00    4.262681e-01   5.359857e-03
  3.398577e+00    3.985482e-01   5.179652e-03
  3.400787e+00    4.153498e-01   5.299686e-03
  3.402998e+00    3.978655e-01   5.224441e-03
  3.405208e+00    3.948098e-01   5.224720e-03
  3.407418e+00    4.017293e-01   5.286085e-03
  3.409629e+00    4.041039e-01   5.315729e-03
  3.411839e+00    3.838304e-01   5.192216e-03
  3.414050e+00    3.821144e-01   5.191360e-03
  3.416260e+00    3.960347e-01   5.294741e-03
  3.418471e+00    3.857595e-01   5.234946e-03
  3.420681e+00    3.752342e-01   5.171322e-03
  3.422892e+00    3.694599e-01   5.139159e-03
  3.425102e+00    3.776572e-01   5.203541e-03
  3.427313e+00    3.824573e-01   5.243650e-03
  3.429523e+00    3.747391e-01   5.197425e-03
  3.431733e+00    3.753531e-01   5.208242e-03
  3.433944e+00    3.924375e-01   5.332003e-03
  3.436154e+00    3.879203e-01   5.307517e-03
  3.438365e+00    3.824204e-01   5.275683e-03
  3.440575e+00    3.882933e-01   5.322041e-03
  3.442786e+00    3.708267e-01   5.206511e-03
  3.444996e+00    3.728461e-01   5.226123e-03
  3.447207e+00    3.627789e-01   5.160310e-03
  3.449417e+00    3.508062e-01   5.114081e-03
  3.451628e+00    3.563935e-01   5.183586e-03
  3.453838e+00    3.711304e-01   5.310927e-03
  3.456049e+00    3.573605e-01   5.235089e-03
  3.458259e+00    3.708214e-01   5.354810e-03
  3.460469e+00    3.732399e-01   5.392213e-03
  3.462680e+00    3.819719e-01   5.474409e-03
  3.464890e+00    3.693030e-01   5.400725e-03
  3.467101e+00    3.710320e-01   5.430887e-03
  3.469311e+00    3.793167e-01   5.507937e-03
  3.471522e+00    3.840221e-01   5.558601e-03
  3.473732e+00    3.796096e-01   5.542521e-03
  3.475943e+00    3.995335e-01   5.702155e-03
  3.478153e+00    4.144812e-01   5.823825e-03
  3.480364e+00    3.984472e-01   5.725308e-03
  3.482574e+00    4.034891e-01   5.776760e-03
  3.484784e+00    4.207135e-01   5.913787e-03
  3.486995e+00    4.465333e-01   6.108230e-03
  3.489205e+00    4.339330e-01   6.036290e-03
  3.491416e+00    4.375244e-01   6.076292e-03
  3.493626e+00    4.666848e-01   6.290645e-03
  3.495837e+00    4.592822e-01   6.255638e-03
  3.498047e+00    4.425409e-01   6.154996e-03
  3.500258e+00    4.561372e-01   6.263484e-03
  3.502468e+00    4.614994e-01   6.314735e-03
  3.504679e+00    4.757178e-01   6.425984e-03
  3.506889e+00    4.800121e-01   6.469597e-03
  3.509099e+00    4.816793e-01   6.495332e-03
  3.511310e+00    4.873030e-01   6.547779e-03
  3.513520e+00    4.760658e-01   6.486161e-03
  3.515731e+00    4.877680e-01   6.579803e-03
  3.517941e+00    4.895026e-01   6.605844e-03
  3.520152e+00    5.062277e-01   6.732217e-03
  3.522362e+00    5.099372e-01   6.771472e-03
  3.524573e+00    5.160096e-01   6.826058e-03
  3.526783e+00    5.138063e-01   6.824929e-03
  3.528994e+00    5.332332e-01   6.965114e-03
  3.531204e+00    5.378523e-01   7.007907e-03
  3.533414e+00    5.541789e-01   7.125884e-03
  3.535625e+00    5.462614e-01   7.087373e-03
  3.537835e+00    5.440029e-01   7.084943e-03
  3.540046e+00    5.430869e-01   7.087993e-03
  3.542256e+00    5.333435e-01   7.031652e-03
  3.544467e+00    5.266200e-01   6.994681e-03
  3.546677e+00    5.617876e-01   7.232266e-03
  3.548888e+00    5.366811e-01   7.076291e-03
  3.551098e+00    5.557435e-01   7.208285e-03
  3.553309e+00    5.699310e-01   7.308161e-03
  3.555519e+00    5.499243e-01   7.190176e-03
  3.557729e+00    5.445035e-01   7.166467e-03
  3.559940e+00    5.403864e-01   7.150921e-03
  3.562150e+00    5.524579e-01   7.242215e-03
  3.564361e+00    5.445518e-01   7.203646e-03
  3.566571e+00    5.448461e-01   7.219557e-03
  3.568782e+00    5.420492e-01   7.215175e-03
  3.570992e+00    5.388598e-01   7.207725e-03
  3.573203e+00    5.287424e-01   7.153761e-03
  3.575413e+00    5.367250e-01   7.221371e-03
  3.577624e+00    5.262134e-01   7.164298e-03
  3.579834e+00    5.460618e-01   7.312148e-03
  3.582045e+00    5.428303e-01   7.304634e-03
  3.584255e+00    5.278215e-01   7.216872e-03
  3.586465e+00    5.534167e-01   7.403962e-03
  3.588676e+00    5.425819e-01   7.345365e-03
  3.590886e+00    5.516042e-01   7.420128e-03
  3.593097e+00    5.344551e-01   7.318331e-03
  3.595307e+00    5.334996e-01   7.325703e-03
  3.597518e+00    5.366924e-01   7.361820e-03
  3.599728e+00    5.435400e-01   7.422811e-03
  3.601939e+00    5.519947e-01   7.494626e-03
  3.604149e+00    5.514976e-01   7.505864e-03
  3.606360e+00    5.391217e-01   7.435376e-03
  3.608570e+00    5.483125e-01   7.512768e-03
  3.610780e+00    5.434902e-01   7.490877e-03
  3.612991e+00    5.348102e-01   7.440777e-03
  3.615201e+00    5.447815e-01   7.519736e-03
  3.617412e+00    5.189108e-01   7.346184e-03
  3.619622e+00    5.328728e-01   7.450273e-03
  3.621833e+00    5.378286e-01   7.491585e-03
  3.624043e+00    5.438243e-01   7.542816e-03
  3.626254e+00    5.438715e-01   7.552927e-03
  3.628464e+00    5.405753e-01   7.541074e-03
  3.630675e+00    5.236614e-01   7.436126e-03
  3.632885e+00    5.150391e-01   7.388846e-03
  3.635095e+00    5.320538e-01   7.524249e-03
  3.637306e+00    5.327370e-01   7.543473e-03
  3.639516e+00    5.242484e-01   7.497518e-03
  3.641727e+00    5.286034e-01   7.543100e-03
  3.643937e+00    5.328501e-01   7.587889e-03
  3.646148e+00    5.412532e-01   7.662202e-03
  3.648358e+00    5.456099e-01   7.708018e-03
  3.650569e+00    5.237600e-01   7.566713e-03
  3.652779e+00    5.391634e-01   7.692009e-03
  3.654990e+00    5.399461e-01   7.712612e-03
  3.657200e+00    5.486995e-01   7.789965e-03
  3.659410e+00    5.429039e-01   7.763870e-03
  3.661621e+00    5.368677e-01   7.735737e-03
  3.663831e+00    5.379848e-01   7.759040e-03
  3.666042e+00    5.192330e-01   7.637526e-03
  3.668252e+00    5.282415e-01   7.718725e-03
  3.670463e+00    5.492817e-01   7.886425e-03
  3.672673e+00    5.270165e-01   7.740354e-03
  3.674884e+00    5.200031e-01   7.703867e-03
  3.677094e+00    5.511606e-01   7.947095e-03
  3.679305e+00    5.366176e-01   7.857274e-03
  3.681515e+00    5.240631e-01   7.780308e-03
  3.683726e+00    5.474225e-01   7.967849e-03
  3.685936e+00    5.517995e-01   8.015712e-03
  3.688146e+00    5.501568e-01   8.019895e-03
  3.690357e+00    5.180117e-01   7.797841e-03
  3.692567e+00    5.260919e-01   7.874529e-03
  3.694778e+00    5.580022e-01   8.126367e-03
  3.696988e+00    5.203075e-01   7.862997e-03
  3.699199e+00    5.147426e-01   7.836878e-03
  3.701409e+00    5.043211e-01   7.773217e-03
  3.703620e+00    5.238046e-01   7.938196e-03
  3.705830e+00    5.262306e-01   7.973017e-03
  3.708041e+00    5.252607e-01   7.982282e-03
  3.710251e+00    5.269920e-01   8.012176e-03
  3.712461e+00    5.369023e-01   8.104138e-03
  3.714672e+00    5.295138e-01   8.065028e-03
  3.716882e+00    5.286583e-01   8.075369e-03
  3.719093e+00    5.389512e-01   8.171003e-03
  3.721303e+00    5.354961e-01   8.162022e-03
  3.723514e+00    5.234126e-01   8.086750e-03
  3.725724e+00    5.054262e-01   7.963504e-03
  3.727935e+00    5.034740e-01   7.965364e-03
  3.730145e+00    5.144343e-01   8.068844e-03
  3.732356e+00    5.136538e-01   8.080214e-03
  3.734566e+00    5.258611e-01   8.193398e-03
  3.736776e+00    5.006524e-01   8.012115e-03
  3.738987e+00    5.176378e-01   8.164659e-03
  3.741197e+00    5.196116e-01   8.198351e-03
  3.743408e+00    5.180428e-01   8.204102e-03
  3.745618e+00    5.195982e-01   8.234840e-03
  3.747829e+00    5.070716e-01   8.152952e-03
  3.750039e+00    5.061688e-01   8.164013e-03
  3.752250e+00    5.170827e-01   8.270146e-03
  3.754460e+00    5.064616e-01   8.203208e-03
  3.756671e+00    5.200539e-01   8.331567e-03
  3.758881e+00    4.990722e-01   8.180239e-03
  3.761091e+00    5.141132e-01   8.321828e-03
  3.763302e+00    4.904773e-01   8.147055e-03
  3.765512e+00    4.897195e-01   8.159639e-03
  3.767723e+00    5.204134e-01   8.431031e-03
  3.769933e+00    5.082420e-01   8.351291e-03
  3.772144e+00    5.008216e-01   8.309525e-03
  3.774354e+00    4.926219e-01   8.260840e-03
  3.776565e+00    4.933130e-01   8.286261e-03
  3.778775e+00    5.099800e-01   8.445111e-03
  3.780986e+00    4.921916e-01   8.316602e-03
  3.783196e+00    5.113719e-01   8.497462e-03
  3.785407e+00    4.896379e-01   8.335144e-03
  3.787617e+00    5.098037e-01   8.525884e-03
  3.789827e+00    5.095289e-01   8.544313e-03
  3.792038e+00    5.077984e-01   8.550737e-03
  3.794248e+00    4.879602e-01   8.402912e-03
  3.796459e+00    4.884580e-01   8.428292e-03
  3.798669e+00    5.251633e-01   8.761064e-03
  3.800880e+00    5.108421e-01   8.662523e-03
  3.803090e+00    5.092411e-01   8.670946e-03
  3.805301e+00    5.000424e-01   8.614348e-03
  3.807511e+00    5.017371e-01   8.650961e-03
  3.809722e+00    5.109553e-01   8.752526e-03
  3.811932e+00    5.037190e-01   8.712688e-03
  3.814142e+00    5.063836e-01   8.758731e-03
  3.816353e+00    4.928001e-01   8.663191e-03
  3.818563e+00    4.873374e-01   8.637816e-03
  3.820774e+00    5.077849e-01   8.840567e-03
  3.822984e+00    4.978586e-01   8.777127e-03
  3.825195e+00    5.084913e-01   8.894268e-03
  3.827405e+00    5.260692e-01   9.071334e-03
  3.829616e+00    5.027760e-01   8.892370e-03
  3.831826e+00    5.218400e-01   9.084143e-03
  3.834037e+00    5.084192e-01   8.991432e-03
  3.836247e+00    4.842679e-01   8.799567e-03
  3.838457e+00    4.772068e-01   8.759760e-03
  3.840668e+00    4.783989e-01   8.795376e-03
  3.842878e+00    4.845622e-01   8.877103e-03
  3.845089e+00    5.017042e-01   9.058472e-03
  3.847299e+00    5.122024e-01   9.178990e-03
  3.849510e+00    5.111883e-01   9.196158e-03
  3.851720e+00    5.204203e-01   9.300794e-03
  3.853931e+00    5.278112e-01   9.386217e-03
  3.856141e+00    5.131368e-01   9.274206e-03
  3.858352e+00    4.899701e-01   9.081613e-03
  3.860562e+00    4.862962e-01   9.066628e-03
  3.862772e+00    4.962681e-01   9.178739e-03
  3.864983e+00    4.817342e-01   9.062760e-03
  3.867193e+00    4.746311e-01   9.015117e-03
  3.869404e+00    4.777695e-01   9.064314e-03
  3.871614e+00    4.935785e-01   9.233051e-03
  3.873825e+00    5.298035e-01   9.586981e-03
  3.876035e+00    5.021865e-01   9.354478e-03
  3.878246e+00    5.105098e-01   9.457980e-03
  3.880456e+00    5.225267e-01   9.598413e-03
  3.882667e+00    5.356401e-01   9.748844e-03
  3.884877e+00    4.951366e-01   9.402785e-03
  3.887087e+00    5.110206e-01   9.582936e-03
  3.889298e+00    5.220567e-01   9.717197e-03
  3.891508e+00    5.089611e-01   9.625637e-03
  3.893719e+00    4.550020e-01   9.130959e-03
  3.895929e+00    4.860303e-01   9.468341e-03
  3.898140e+00    5.017056e-01   9.651992e-03
  3.900350e+00    4.946153e-01   9.615717e-03
  3.902561e+00    4.899001e-01   9.602216e-03
  3.904771e+00    4.780434e-01   9.517669e-03
  3.906982e+00    4.923099e-01   9.691889e-03
  3.909192e+00    5.149474e-01   9.946584e-03
  3.911403e+00    5.019342e-01   9.854582e-03
  3.913613e+00    4.854431e-01   9.725455e-03
  3.915823e+00    5.049155e-01   9.954013e-03
  3.918034e+00    4.848535e-01   9.789397e-03
  3.920244e+00    4.878801e-01   9.855604e-03
  3.922455e+00    4.908714e-01   9.921925e-03
  3.924665e+00    4.924948e-01   9.974937e-03
  3.926876e+00    4.858468e-01   9.944435e-03
  3.929086e+00    4.968400e-01   1.009397e-02
  3.931297e+00    5.097777e-01   1.026016e-02
  3.933507e+00    5.002617e-01   1.019326e-02
  3.935718e+00    4.901699e-01   1.011880e-02
  3.937928e+00    4.669575e-01   9.905101e-03
  3.940138e+00    4.820792e-01   1.009331e-02
  3.942349e+00    4.928555e-01   1.023567e-02
  3.944559e+00    4.669504e-01   9.992301e-03
  3.946770e+00    4.922799e-01   1.029009e-02
  3.948980e+00    5.148176e-01   1.055463e-02
  3.951191e+00    4.886783e-01   1.031416e-02
  3.953401e+00    4.810461e-01   1.026442e-02
  3.955612e+00    4.602962e-01   1.007146e-02
  3.957822e+00    5.004163e-01   1.053319e-02
  3.960033e+00    5.011480e-01   1.057416e-02
  3.962243e+00    4.879931e-01   1.046737e-02
  3.964453e+00    5.080537e-01   1.071407e-02
  3.966664e+00    5.433356e-01   1.111533e-02
  3.968874e+00    5.035213e-01   1.072922e-02
  3.971085e+00    5.120761e-01   1.084252e-02
  3.973295e+00    4.619616e-01   1.031928e-02
  3.975506e+00    4.741118e-01   1.047533e-02
  3.977716e+00    4.553364e-01   1.028725e-02
  3.979927e+00    4.943698e-01   1.074127e-02
  3.982137e+00    4.915266e-01   1.073299e-02
  3.984348e+00    4.599016e-01   1.040382e-02
  3.986558e+00    4.788545e-01   1.063820e-02
  3.988768e+00    4.900965e-01   1.078547e-02
  3.990979e+00    4.779415e-01   1.067358e-02
  3.993189e+00    4.618018e-01   1.051417e-02
  3.995400e+00    4.582474e-01   1.049661e-02
  3.997610e+00    4.861875e-01   1.084164e-02
  3.999821e+00    4.866190e-01   1.088409e-02
  4.002031e+00    4.963272e-01   1.103099e-02
  4.004242e+00    4.697518e-01   1.076948e-02
  4.006452e+00    4.804109e-01   1.093019e-02
  4.008663e+00    4.777371e-01   1.093933e-02
  4.010873e+00    5.278398e-01   1.154047e-02
  4.013084e+00    4.886723e-01   1.114526e-02
  4.015294e+00    4.610347e-01   1.086532e-02
  4.017504e+00    5.041686e-01   1.140502e-02
  4.019715e+00    4.780401e-01   1.114782e-02
  4.021925e+00    4.960362e-01   1.139908e-02
  4.024136e+00    5.047388e-01   1.154347e-02
  4.026346e+00    5.023026e-01   1.156038e-02
  4.028557e+00    4.964049e-01   1.153722e-02
  4.030767e+00    4.649192e-01   1.121020e-02
  4.032978e+00    4.378887e-01   1.092332e-02
  4.035188e+00    4.709479e-01   1.137387e-02
  4.037399e+00    4.627552e-01   1.132095e-02
  4.039609e+00    4.685154e-01   1.143825e-02
  4.041819e+00    4.663566e-01   1.145975e-02
  4.044030e+00    4.774978e-01   1.164540e-02
  4.046240e+00    4.915698e-01   1.186603e-02
  4.048451e+00    4.862002e-01   1.185223e-02
  4.050661e+00    4.636522e-01   1.162453e-02
  4.052872e+00    4.576021e-01   1.159972e-02
  4.055082e+00    4.498472e-01   1.155272e-02
  4.057293e+00    4.760016e-01   1.193713e-02
  4.059503e+00    4.703301e-01   1.191977e-02
  4.061714e+00    4.889827e-01   1.221079e-02
  4.063924e+00    5.026564e-01   1.243819e-02
  4.066134e+00    4.788791e-01   1.219781e-02
  4.068345e+00    4.601847e-01   1.201480e-02
  4.070555e+00    4.868827e-01   1.241810e-02
  4.072766e+00    4.762612e-01   1.234230e-02
  4.074976e+00    5.059576e-01   1.278479e-02
  4.077187e+00    4.478108e-01   1.208763e-02
  4.079397e+00    4.577494e-01   1.228321e-02
  4.081608e+00    4.818853e-01   1.266860e-02
  4.083818e+00    4.582950e-01   1.241878e-02
  4.086029e+00    4.659560e-01   1.258812e-02
  4.088239e+00    4.499549e-01   1.243690e-02
  4.090449e+00    4.940949e-01   1.310313e-02
  4.092660e+00    4.788871e-01   1.297096e-02
  4.094870e+00    4.783220e-01   1.303542e-02
  4.097081e+00    4.672953e-01   1.295467e-02
  4.099291e+00    4.847379e-01   1.324918e-02
  4.101502e+00    5.211366e-01   1.378858e-02
  4.103712e+00    5.028452e-01   1.359513e-02
  4.105923e+00    4.798059e-01   1.333116e-02
  4.108133e+00    4.936599e-01   1.357468e-02
  4.110344e+00    4.682232e-01   1.327065e-02
  4.112554e+00    4.632785e-01   1.325274e-02
  4.114764e+00    4.514431e-01   1.313482e-02
  4.116975e+00    4.714049e-01   1.347501e-02
  4.119185e+00    5.131897e-01   1.411649e-02
  4.121396e+00    5.062585e-01   1.407893e-02
  4.123606e+00    4.755809e-01   1.370169e-02
  4.125817e+00    5.172296e-01   1.434884e-02
  4.128027e+00    4.792306e-01   1.386996e-02
  4.130238e+00    4.955728e-01   1.416480e-02
  4.132448e+00    5.133938e-01   1.447983e-02
  4.134659e+00    5.425121e-01   1.494902e-02
  4.136869e+00    4.986758e-01   1.439609e-02
  4.139080e+00    4.990665e-01   1.446672e-02
  4.141290e+00    4.960518e-01   1.448689e-02
  4.143500e+00    4.958371e-01   1.455041e-02
  4.145711e+00    5.173326e-01   1.493198e-02
  4.147921e+00    5.168367e-01   1.499331e-02
  4.150132e+00    5.066077e-01   1.491502e-02
  4.152342e+00    4.689028e-01   1.441890e-02
  4.154553e+00    4.387979e-01   1.401455e-02
  4.156763e+00    4.793696e-01   1.472045e-02
  4.158974e+00    5.114504e-01   1.528165e-02
  4.161184e+00    4.942762e-01   1.509750e-02
  4.163395e+00    4.651959e-01   1.472137e-02
  4.165605e+00    4.459031e-01   1.448778e-02
  4.167815e+00    4.925120e-01   1.530559e-02
  4.170026e+00    4.632220e-01   1.492177e-02
  4.172236e+00    5.020776e-01   1.561866e-02
  4.174447e+00    4.992560e-01   1.565982e-02
  4.176657e+00    5.247263e-01   1.614194e-02
  4.178868e+00    5.074537e-01   1.596396e-02
  4.181078e+00    4.765449e-01   1.555708e-02
  4.183289e+00    5.060684e-01   1.612372e-02
  4.185499e+00    4.514909e-01   1.531931e-02
  4.187710e+00    4.448519e-01   1.529539e-02
  4.189920e+00    4.203492e-01   1.495779e-02
  4.192130e+00    4.195451e-01   1.503460e-02
  4.194341e+00    4.927227e-01   1.639291e-02
  4.196551e+00    4.738864e-01   1.617845e-02
  4.198762e+00    4.983956e-01   1.669687e-02
  4.200972e+00    5.084187e-01   1.697315e-02
  4.203183e+00    4.760376e-01   1.653197e-02
  4.205393e+00    4.746335e-01   1.661755e-02
  4.207604e+00    4.706134e-01   1.665979e-02
  4.209814e+00    4.935125e-01   1.717720e-02
  4.212025e+00    4.817950e-01   1.709279e-02
  4.214235e+00    4.366174e-01   1.638662e-02
  4.216445e+00    4.965432e-01   1.760129e-02
  4.218656e+00    4.869929e-01   1.756215e-02
  4.220866e+00    4.654251e-01   1.729574e-02
  4.223077e+00    5.197711e-01   1.841850e-02
  4.225287e+00    4.117778e-01   1.652260e-02
  4.227498e+00    5.421543e-01   1.910734e-02
  4.229708e+00    4.622477e-01   1.778675e-02
  4.231919e+00    4.784122e-01   1.824477e-02
  4.234129e+00    4.446942e-01   1.773724e-02
  4.236340e+00    4.850480e-01   1.868362e-02
  4.238550e+00    4.845534e-01   1.883860e-02
  4.240761e+00    4.443666e-01   1.820009e-02
  4.242971e+00    4.520046e-01   1.852377e-02
  4.245181e+00    5.442055e-01   2.051627e-02
  4.247392e+00    4.802123e-01   1.945288e-02
  4.249602e+00    3.920503e-01   1.775113e-02
  4.251813e+00    4.948674e-01   2.013941e-02
  4.254023e+00    4.600789e-01   1.961519e-02
  4.256234e+00    4.640243e-01   1.990915e-02
  4.258444e+00    5.044351e-01   2.097499e-02
  4.260655e+00    5.544779e-01   2.223255e-02
  4.262865e+00    4.890084e-01   2.111648e-02
  4.265076e+00    4.693796e-01   2.092243e-02
  4.267286e+00    4.690859e-01   2.116476e-02
  4.269496e+00    4.741642e-01   2.153873e-02
  4.271707e+00    4.213523e-01   2.055411e-02
  4.273917e+00    5.068012e-01   2.283348e-02
  4.276128e+00    4.624663e-01   2.210229e-02
  4.278338e+00    4.098972e-01   2.108612e-02
  4.280549e+00    4.492334e-01   2.239038e-02
  4.282759e+00    4.986731e-01   2.393040e-02
  4.284970e+00    4.181817e-01   2.223802e-02
  4.287180e+00    4.671911e-01   2.378701e-02
  4.289391e+00    4.137169e-01   2.255213e-02
  4.291601e+00    3.956144e-01   2.222937e-02
  4.293811e+00    4.132793e-01   2.289777e-02
  4.296022e+00    4.313509e-01   2.358104e-02
  4.298232e+00    5.062931e-01   2.576191e-02
  4.300443e+00    3.790896e-01   2.247539e-02
  4.302653e+00    4.541219e-01   2.481286e-02
  4.304864e+00    4.400433e-01   2.463624e-02
  4.307074e+00    3.921061e-01   2.346501e-02
  4.309285e+00    4.506281e-01   2.538305e-02
  4.311495e+00    5.045760e-01   2.711132e-02
  4.313706e+00    4.552774e-01   2.599454e-02
  4.315916e+00    4.216394e-01   2.526194e-02
  4.318126e+00    3.928242e-01   2.462555e-02
  4.320337e+00    3.885612e-01   2.473825e-02
  4.322547e+00    5.680211e-01   3.022809e-02
  4.324758e+00    5.432723e-01   2.986961e-02
  4.326968e+00    4.755471e-01   2.826096e-02
  4.329179e+00    4.479720e-01   2.773068e-02
  4.331389e+00    4.541641e-01   2.824426e-02
  4.333600e+00    4.718420e-01   2.913225e-02
  4.335810e+00    4.180980e-01   2.774917e-02
  4.338021e+00    4.565506e-01   2.936892e-02
  4.340231e+00    4.284164e-01   2.880580e-02
  4.342442e+00    4.211549e-01   2.894429e-02
  4.344652e+00    4.659830e-01   3.085911e-02
  4.346862e+00    3.889283e-01   2.858745e-02
  4.349073e+00    3.888730e-01   2.900156e-02
  4.351283e+00    4.336973e-01   3.108393e-02
  4.353494e+00    4.293243e-01   3.140588e-02
  4.355704e+00    4.644812e-01   3.319151e-02
  4.357915e+00    5.243414e-01   3.585256e-02
  4.360125e+00    5.736649e-01   3.814128e-02
  4.362336e+00    3.815639e-01   3.167479e-02
  4.364546e+00    4.757092e-01   3.600822e-02
  4.366757e+00    4.564965e-01   3.597671e-02
  4.368967e+00    4.842034e-01   3.779184e-02
  4.371177e+00    4.554630e-01   3.743250e-02
  4.373388e+00    4.194054e-01   3.672350e-02
  4.375598e+00    3.460620e-01   3.411699e-02
  4.377809e+00    3.200924e-01   3.364453e-02
  4.380019e+00    3.941590e-01   3.827358e-02
  4.382230e+00    2.223617e-01   2.954826e-02
  4.384440e+00    4.250760e-01   4.202925e-02
  4.386651e+00    4.260759e-01   4.337812e-02
  4.388861e+00    3.960885e-01   4.322664e-02
  4.391072e+00    4.847139e-01   4.949737e-02
  4.393282e+00    5.088137e-01   5.267531e-02
  4.395492e+00    5.099147e-01   5.492258e-02
  4.397703e+00    3.533125e-01   4.780801e-02
  4.399913e+00    3.973825e-01   5.326982e-02
  4.402124e+00    2.801049e-01   4.725483e-02
  4.404334e+00    4.276051e-01   6.206410e-02
  4.406545e+00    4.075517e-01   6.510721e-02
  4.408755e+00    2.530379e-01   5.563108e-02
  4.410966e+00    2.773677e-01   6.446449e-02
  4.413176e+00    4.575310e-01   9.372501e-02
  4.415387e+00   -5.964911e-01            nan
  4.417597e+00   -1.842540e+00            nan
  4.419807e+00    1.372970e-01   1.330704e-01
