# == pyFAI calibration ==
# Distance Sample to Detector: 0.216 m
# PONI: 1.166e-01, 1.308e-01 m
# Rotations: 0.000000 0.000000 0.000000 rad
# 
# == Fit2d calibration ==
# Distance Sample-beamCenter: 216.000 mm
# Center: x=1744.293, y=1555.000 pix
# Tilt: 0.000 deg  TiltPlanRot: 0.000 deg
# 
# Detector Eiger 9M	 PixelSize= 7.500e-05, 7.500e-05 m
#    Detector has a mask: True 
#    Detector has a dark current: False 
#    detector has a flat field: False 
# 
# Wavelength: 9.8e-11 m
# Mask applied: from detector
# Dark current applied: False
# Flat field applied: False
# Polarization factor: None
# Normalization factor: 1.0
# 
# Headers of the input frame:
# {
# "_array_data.header_convention": "SLS_1.0",
# "_array_data.header_contents": "# Detector: Dectris Eiger 9M, S/N E-18-0102\r\n# Pixel_size 75e-6 m x 75e-6 m\r\n# Silicon sensor, thickness 0.000450 m\r\n# Exposure_time 0.024997 s\r\n# Exposure_period 0.025000 s\r\n# Count_cutoff 62318 counts\r\n# Wavelength 0.980106 A\r\n# Detector_distance 0.215992 m\r\n# Beam_xy (1555, 1744) pixels\r\n# Start_angle 0.000000 deg.\r\n# Angle_increment 0.000000 deg.",
# "Content-Type": "application/octet-stream;",
# "conversions": "x-CBF_BYTE_OFFSET",
# "Content-Transfer-Encoding": "BINARY",
# "X-Binary-Size": "10166596",
# "X-Binary-ID": "1",
# "X-Binary-Element-Type": "signed 32-bit integer",
# "X-Binary-Element-Byte-Order": "LITTLE_ENDIAN",
# "Content-MD5": "U6Te9Gnvi3PNQh2gzapm7A==",
# "X-Binary-Number-of-Elements": "10166590",
# "X-Binary-Size-Fastest-Dimension": "3110",
# "X-Binary-Size-Second-Dimension": "3269",
# "X-Binary-Size-Padding": "4095"
# }
# --> H:/Proxima2a_2019-04-05/RAW_DATA/C5_gel17_position5/C5_mesh_1_data.cbf/C5_mesh_1_data.cbf000083.dat
#        q_A^-1              I           sigma 
  1.105228e-03    2.512517e+00   8.577120e-01
  3.315685e-03    1.814224e+00   4.430889e-01
  5.526141e-03    1.605433e+00   3.223059e-01
  7.736597e-03    1.137607e+00   2.292009e-01
  9.947054e-03    1.430731e+00   2.265977e-01
  1.215751e-02    1.371400e+00   2.006091e-01
  1.436797e-02    1.450268e+00   1.897579e-01
  1.657842e-02    1.284052e+00   1.662018e-01
  1.878888e-02    1.371837e+00   1.613670e-01
  2.099934e-02    1.464737e+00   1.577545e-01
  2.320979e-02    1.161127e+00   1.335896e-01
  2.542025e-02    1.144162e+00   1.267223e-01
  2.763070e-02    1.189790e+00   1.239440e-01
  2.984116e-02    1.446100e+00   1.314848e-01
  3.205162e-02    1.427587e+00   1.260630e-01
  3.426207e-02    1.424367e+00   1.217828e-01
  3.647253e-02    1.472831e+00   1.200235e-01
  3.868299e-02    1.359665e+00   1.119855e-01
  4.089344e-02    1.318152e+00   1.072416e-01
  4.310390e-02    1.541046e+00   1.129358e-01
  4.531436e-02    1.554461e+00   1.106256e-01
  4.752481e-02    1.474261e+00   1.051977e-01
  4.973527e-02    1.328821e+00   9.763038e-02
  5.194572e-02    1.467292e+00   1.003832e-01
  5.415618e-02    1.467972e+00   9.833264e-02
  5.636664e-02    1.434891e+00   9.529598e-02
  5.857709e-02    1.411744e+00   9.272410e-02
  6.078755e-02    1.423123e+00   9.138574e-02
  6.299801e-02    1.439814e+00   9.029208e-02
  6.520846e-02    1.441565e+00   8.880302e-02
  6.741892e-02    1.425405e+00   8.683984e-02
  6.962938e-02    1.361949e+00   8.353083e-02
  7.183983e-02    1.365435e+00   8.233939e-02
  7.405029e-02    1.456860e+00   8.377030e-02
  7.626074e-02    1.437049e+00   8.198343e-02
  7.847120e-02    1.492841e+00   8.237225e-02
  8.068166e-02    1.433050e+00   7.959190e-02
  8.289211e-02    1.522038e+00   8.092438e-02
  8.510257e-02    1.486048e+00   7.891615e-02
  8.731303e-02    1.480296e+00   7.775691e-02
  8.952348e-02    1.384524e+00   7.426733e-02
  9.173394e-02    1.537429e+00   7.730922e-02
  9.394439e-02    1.533374e+00   7.629102e-02
  9.615485e-02    1.486881e+00   7.425538e-02
  9.836531e-02    1.509502e+00   7.397063e-02
  1.005758e-01    1.546170e+00   7.403686e-02
  1.027862e-01    1.554420e+00   7.342974e-02
  1.049967e-01    1.666176e+00   7.521775e-02
  1.072071e-01    1.666090e+00   7.443549e-02
  1.094176e-01    1.567690e+00   7.146980e-02
  1.116280e-01    1.509162e+00   6.942368e-02
  1.138385e-01    1.458354e+00   6.757791e-02
  1.160490e-01    1.612189e+00   7.037200e-02
  1.182594e-01    1.618358e+00   6.984296e-02
  1.204699e-01    1.604250e+00   6.889641e-02
  1.226803e-01    1.687444e+00   7.001790e-02
  1.248908e-01    1.674158e+00   6.912097e-02
  1.271012e-01    1.542892e+00   6.577505e-02
  1.293117e-01    1.504863e+00   6.440094e-02
  1.315222e-01    1.555183e+00   6.491484e-02
  1.337326e-01    1.555192e+00   6.437506e-02
  1.359431e-01    1.453366e+00   6.226836e-02
  1.381535e-01    1.468083e+00   6.342284e-02
  1.403640e-01    1.499095e+00   6.436597e-02
  1.425744e-01    1.528746e+00   6.510322e-02
  1.447849e-01    1.554125e+00   6.565652e-02
  1.469953e-01    1.672692e+00   6.807235e-02
  1.492058e-01    1.648710e+00   6.750409e-02
  1.514163e-01    1.648370e+00   6.738504e-02
  1.536267e-01    1.693027e+00   6.815836e-02
  1.558372e-01    1.655327e+00   6.724647e-02
  1.580476e-01    1.621133e+00   6.638679e-02
  1.602581e-01    1.585161e+00   6.547941e-02
  1.624685e-01    1.565874e+00   6.490165e-02
  1.646790e-01    1.658157e+00   6.659494e-02
  1.668895e-01    1.725265e+00   6.773301e-02
  1.690999e-01    1.712758e+00   6.728438e-02
  1.713104e-01    1.732106e+00   6.745336e-02
  1.735208e-01    1.807078e+00   6.868346e-02
  1.757313e-01    1.833753e+00   6.897172e-02
  1.779417e-01    1.769274e+00   6.752732e-02
  1.801522e-01    1.808334e+00   6.805119e-02
  1.823626e-01    1.929146e+00   7.005367e-02
  1.845731e-01    1.930614e+00   6.985329e-02
  1.867836e-01    1.983969e+00   7.057298e-02
  1.889940e-01    1.984180e+00   7.034613e-02
  1.912045e-01    1.913896e+00   6.885825e-02
  1.934149e-01    1.950638e+00   6.928340e-02
  1.956254e-01    1.896824e+00   6.809572e-02
  1.978358e-01    1.971635e+00   6.918763e-02
  2.000463e-01    2.033293e+00   7.002831e-02
  2.022568e-01    2.021873e+00   6.960221e-02
  2.044672e-01    1.917303e+00   6.754622e-02
  2.066777e-01    1.967194e+00   6.819229e-02
  2.088881e-01    2.022609e+00   6.891986e-02
  2.110986e-01    2.041731e+00   6.900745e-02
  2.133090e-01    2.005102e+00   6.816333e-02
  2.155195e-01    1.953548e+00   6.705817e-02
  2.177300e-01    1.944392e+00   6.637524e-02
  2.199404e-01    1.899087e+00   6.386895e-02
  2.221509e-01    1.849547e+00   6.199538e-02
  2.243613e-01    1.991003e+00   6.350701e-02
  2.265718e-01    2.000743e+00   6.296048e-02
  2.287822e-01    2.100748e+00   6.387623e-02
  2.309927e-01    2.184146e+00   6.453849e-02
  2.332031e-01    2.141092e+00   6.335232e-02
  2.354136e-01    2.181422e+00   6.342790e-02
  2.376241e-01    2.114042e+00   6.195601e-02
  2.398345e-01    2.155148e+00   6.209248e-02
  2.420450e-01    2.066490e+00   6.036737e-02
  2.442554e-01    2.171730e+00   6.145909e-02
  2.464659e-01    2.133407e+00   6.050545e-02
  2.486763e-01    2.172031e+00   6.064939e-02
  2.508868e-01    2.198438e+00   6.063205e-02
  2.530973e-01    2.132690e+00   5.934829e-02
  2.553077e-01    2.095579e+00   5.847280e-02
  2.575182e-01    2.100454e+00   5.819442e-02
  2.597286e-01    2.073187e+00   5.747938e-02
  2.619391e-01    2.033431e+00   5.659785e-02
  2.641495e-01    2.055343e+00   5.658704e-02
  2.663600e-01    2.090537e+00   5.675563e-02
  2.685704e-01    2.101921e+00   5.660146e-02
  2.707809e-01    2.051237e+00   5.561808e-02
  2.729914e-01    2.051229e+00   5.532814e-02
  2.752018e-01    2.045408e+00   5.496200e-02
  2.774123e-01    1.969570e+00   5.365796e-02
  2.796227e-01    1.955509e+00   5.320160e-02
  2.818332e-01    1.986181e+00   5.334975e-02
  2.840436e-01    1.921217e+00   5.221567e-02
  2.862541e-01    1.970041e+00   5.262081e-02
  2.884646e-01    1.959234e+00   5.222725e-02
  2.906750e-01    1.943816e+00   5.177468e-02
  2.928855e-01    1.919561e+00   5.121225e-02
  2.950959e-01    1.976362e+00   5.172572e-02
  2.973064e-01    1.909683e+00   5.061715e-02
  2.995168e-01    1.942945e+00   5.082481e-02
  3.017273e-01    1.999548e+00   5.133253e-02
  3.039377e-01    1.932765e+00   5.024702e-02
  3.061482e-01    1.923589e+00   4.991077e-02
  3.083587e-01    1.870159e+00   4.899968e-02
  3.105691e-01    1.960606e+00   4.995630e-02
  3.127796e-01    1.876780e+00   4.867122e-02
  3.149900e-01    1.855860e+00   4.819751e-02
  3.172005e-01    1.907705e+00   4.866628e-02
  3.194109e-01    1.953476e+00   4.904334e-02
  3.216214e-01    1.926945e+00   4.851043e-02
  3.238319e-01    1.888325e+00   4.783158e-02
  3.260423e-01    1.916272e+00   4.799230e-02
  3.282528e-01    1.870831e+00   4.723108e-02
  3.304632e-01    1.900706e+00   4.742228e-02
  3.326737e-01    1.844657e+00   4.653555e-02
  3.348841e-01    1.898880e+00   4.703145e-02
  3.370946e-01    1.864671e+00   4.643054e-02
  3.393050e-01    1.855363e+00   4.613908e-02
  3.415155e-01    1.876129e+00   4.622211e-02
  3.437260e-01    1.793419e+00   4.502427e-02
  3.459364e-01    1.891824e+00   4.607194e-02
  3.481469e-01    1.877084e+00   4.572460e-02
  3.503573e-01    1.804494e+00   4.466845e-02
  3.525678e-01    1.821357e+00   4.471673e-02
  3.547782e-01    1.784812e+00   4.410588e-02
  3.569887e-01    1.782162e+00   4.391694e-02
  3.591992e-01    1.803810e+00   4.402653e-02
  3.614096e-01    1.795758e+00   4.377586e-02
  3.636201e-01    1.840199e+00   4.415850e-02
  3.658305e-01    1.782270e+00   4.330965e-02
  3.680410e-01    1.806791e+00   4.345658e-02
  3.702514e-01    1.795142e+00   4.317060e-02
  3.724619e-01    1.804325e+00   4.313350e-02
  3.746724e-01    1.807437e+00   4.302663e-02
  3.768828e-01    1.807040e+00   4.287713e-02
  3.790933e-01    1.811880e+00   4.279463e-02
  3.813037e-01    1.762006e+00   4.206345e-02
  3.835142e-01    1.761953e+00   4.192467e-02
  3.857246e-01    1.850746e+00   4.282900e-02
  3.879351e-01    1.852763e+00   4.271365e-02
  3.901455e-01    1.825910e+00   4.226799e-02
  3.923560e-01    1.809592e+00   4.194494e-02
  3.945665e-01    1.800915e+00   4.171158e-02
  3.967769e-01    1.763605e+00   4.114796e-02
  3.989874e-01    1.807967e+00   4.153218e-02
  4.011978e-01    1.804880e+00   4.136911e-02
  4.034083e-01    1.754160e+00   4.065847e-02
  4.056187e-01    1.768624e+00   4.070001e-02
  4.078292e-01    1.771250e+00   4.060695e-02
  4.100397e-01    1.774152e+00   4.051612e-02
  4.122501e-01    1.817454e+00   4.088489e-02
  4.144606e-01    1.765449e+00   4.017621e-02
  4.166710e-01    1.823449e+00   4.070940e-02
  4.188815e-01    1.819923e+00   4.054991e-02
  4.210919e-01    1.738295e+00   3.951395e-02
  4.233024e-01    1.783671e+00   3.990861e-02
  4.255128e-01    1.801025e+00   3.998638e-02
  4.277233e-01    1.816972e+00   4.004761e-02
  4.299338e-01    1.838492e+00   4.016817e-02
  4.321442e-01    1.822042e+00   3.987363e-02
  4.343547e-01    1.744580e+00   3.890652e-02
  4.365651e-01    1.792607e+00   3.932634e-02
  4.387756e-01    1.792113e+00   3.921084e-02
  4.409860e-01    1.780615e+00   3.897658e-02
  4.431965e-01    1.754355e+00   3.858111e-02
  4.454070e-01    1.758449e+00   3.851865e-02
  4.476174e-01    1.731062e+00   3.811257e-02
  4.498279e-01    1.739801e+00   3.810469e-02
  4.520383e-01    1.769592e+00   3.832408e-02
  4.542488e-01    1.765591e+00   3.817751e-02
  4.564592e-01    1.766919e+00   3.808942e-02
  4.586697e-01    1.758729e+00   3.790018e-02
  4.608801e-01    1.732857e+00   3.751960e-02
  4.630906e-01    1.716529e+00   3.724355e-02
  4.653011e-01    1.702459e+00   3.699305e-02
  4.675115e-01    1.686294e+00   3.672004e-02
  4.697220e-01    1.717338e+00   3.695948e-02
  4.719324e-01    1.731689e+00   3.701759e-02
  4.741429e-01    1.738136e+00   3.699085e-02
  4.763533e-01    1.749905e+00   3.702075e-02
  4.785638e-01    1.732371e+00   3.673965e-02
  4.807743e-01    1.655607e+00   3.582511e-02
  4.829847e-01    1.660596e+00   3.578838e-02
  4.851952e-01    1.690701e+00   3.601994e-02
  4.874056e-01    1.733747e+00   3.638365e-02
  4.896161e-01    1.749234e+00   3.645516e-02
  4.918265e-01    1.702961e+00   3.588042e-02
  4.940370e-01    1.678490e+00   3.553376e-02
  4.962475e-01    1.662976e+00   3.528180e-02
  4.984579e-01    1.676695e+00   3.533973e-02
  5.006684e-01    1.740866e+00   3.592183e-02
  5.028788e-01    1.697781e+00   3.538859e-02
  5.050893e-01    1.693597e+00   3.525900e-02
  5.072997e-01    1.670975e+00   3.493812e-02
  5.095102e-01    1.694082e+00   3.509463e-02
  5.117206e-01    1.589324e+00   3.391140e-02
  5.139311e-01    1.658183e+00   3.455622e-02
  5.161416e-01    1.708732e+00   3.499610e-02
  5.183520e-01    1.706021e+00   3.488524e-02
  5.205625e-01    1.721778e+00   3.496385e-02
  5.227729e-01    1.691157e+00   3.457076e-02
  5.249834e-01    1.628663e+00   3.384723e-02
  5.271938e-01    1.655156e+00   3.404177e-02
  5.294043e-01    1.750967e+00   3.493239e-02
  5.316148e-01    1.762639e+00   3.496836e-02
  5.338252e-01    1.762558e+00   3.488765e-02
  5.360357e-01    1.751451e+00   3.469837e-02
  5.382461e-01    1.710438e+00   3.421220e-02
  5.404566e-01    1.763830e+00   3.466299e-02
  5.426670e-01    1.824071e+00   3.517054e-02
  5.448775e-01    1.761867e+00   3.448843e-02
  5.470879e-01    1.753431e+00   3.432902e-02
  5.492984e-01    1.811668e+00   3.481686e-02
  5.515089e-01    1.782413e+00   3.445803e-02
  5.537193e-01    1.763024e+00   3.419459e-02
  5.559298e-01    1.745265e+00   3.394732e-02
  5.581402e-01    1.763884e+00   3.405333e-02
  5.603507e-01    1.769510e+00   3.403338e-02
  5.625611e-01    1.754552e+00   3.381567e-02
  5.647716e-01    1.792440e+00   3.410463e-02
  5.669821e-01    1.807027e+00   3.416928e-02
  5.691925e-01    1.817115e+00   3.419101e-02
  5.714030e-01    1.739574e+00   3.338221e-02
  5.736134e-01    1.753099e+00   3.344045e-02
  5.758239e-01    1.797697e+00   3.379085e-02
  5.780343e-01    1.746385e+00   3.323468e-02
  5.802448e-01    1.712796e+00   3.284461e-02
  5.824552e-01    1.695713e+00   3.261183e-02
  5.846657e-01    1.682640e+00   3.241817e-02
  5.868762e-01    1.583094e+00   3.137916e-02
  5.890866e-01    1.608165e+00   3.156100e-02
  5.912971e-01    1.666483e+00   3.206166e-02
  5.935075e-01    1.687619e+00   3.219766e-02
  5.957180e-01    1.695224e+00   3.220392e-02
  5.979284e-01    1.627684e+00   3.149147e-02
  6.001389e-01    1.632885e+00   3.147749e-02
  6.023494e-01    1.641252e+00   3.149398e-02
  6.045598e-01    1.657274e+00   3.158288e-02
  6.067703e-01    1.644789e+00   3.140042e-02
  6.089807e-01    1.633328e+00   3.122792e-02
  6.111912e-01    1.655081e+00   3.137241e-02
  6.134016e-01    1.682921e+00   3.157206e-02
  6.156121e-01    1.694540e+00   3.161790e-02
  6.178226e-01    1.665682e+00   3.128546e-02
  6.200330e-01    1.681412e+00   3.137083e-02
  6.222435e-01    1.688462e+00   3.137424e-02
  6.244539e-01    1.738648e+00   3.177478e-02
  6.266644e-01    1.682768e+00   3.119900e-02
  6.288748e-01    1.677476e+00   3.108928e-02
  6.310853e-01    1.699647e+00   3.123328e-02
  6.332957e-01    1.765306e+00   3.176938e-02
  6.355062e-01    1.760411e+00   3.166370e-02
  6.377167e-01    1.694133e+00   3.100233e-02
  6.399271e-01    1.720506e+00   3.118283e-02
  6.421376e-01    1.742967e+00   3.132581e-02
  6.443480e-01    1.718169e+00   3.104300e-02
  6.465585e-01    1.713052e+00   3.093803e-02
  6.487689e-01    1.669251e+00   3.048228e-02
  6.509794e-01    1.644396e+00   3.019740e-02
  6.531899e-01    1.647141e+00   3.016578e-02
  6.554003e-01    1.578521e+00   2.947523e-02
  6.576108e-01    1.576824e+00   2.940451e-02
  6.598212e-01    1.595388e+00   2.952215e-02
  6.620317e-01    1.611179e+00   2.961289e-02
  6.642421e-01    1.597048e+00   2.942820e-02
  6.664526e-01    1.598886e+00   2.939089e-02
  6.686630e-01    1.577217e+00   2.913708e-02
  6.708735e-01    1.588995e+00   2.919201e-02
  6.730840e-01    1.577849e+00   2.903641e-02
  6.752944e-01    1.594119e+00   2.913265e-02
  6.775049e-01    1.628289e+00   2.938978e-02
  6.797153e-01    1.585866e+00   2.895187e-02
  6.819258e-01    1.620076e+00   2.920971e-02
  6.841362e-01    1.595275e+00   2.893313e-02
  6.863467e-01    1.641150e+00   2.929363e-02
  6.885572e-01    1.625182e+00   2.909854e-02
  6.907676e-01    1.625618e+00   2.905031e-02
  6.929781e-01    1.572626e+00   2.852210e-02
  6.951885e-01    1.587156e+00   2.860280e-02
  6.973990e-01    1.560023e+00   2.830715e-02
  6.996094e-01    1.585048e+00   2.848306e-02
  7.018199e-01    1.622662e+00   2.876847e-02
  7.040303e-01    1.633247e+00   2.881145e-02
  7.062408e-01    1.632917e+00   2.875808e-02
  7.084513e-01    1.559556e+00   2.805579e-02
  7.106617e-01    1.558635e+00   2.799873e-02
  7.128722e-01    1.548845e+00   2.786241e-02
  7.150826e-01    1.587513e+00   2.815941e-02
  7.172931e-01    1.624495e+00   2.843644e-02
  7.195035e-01    1.596097e+00   2.813832e-02
  7.217140e-01    1.597006e+00   2.819614e-02
  7.239245e-01    1.588591e+00   2.834948e-02
  7.261349e-01    1.588627e+00   2.845891e-02
  7.283454e-01    1.590845e+00   2.855153e-02
  7.305558e-01    1.606102e+00   2.874267e-02
  7.327663e-01    1.559076e+00   2.836104e-02
  7.349767e-01    1.551334e+00   2.830679e-02
  7.371872e-01    1.539197e+00   2.818476e-02
  7.393976e-01    1.567505e+00   2.842855e-02
  7.416081e-01    1.557068e+00   2.831767e-02
  7.438186e-01    1.566544e+00   2.825974e-02
  7.460290e-01    1.591262e+00   2.818604e-02
  7.482395e-01    1.573779e+00   2.785965e-02
  7.504499e-01    1.610725e+00   2.804695e-02
  7.526604e-01    1.602854e+00   2.786073e-02
  7.548708e-01    1.591087e+00   2.766841e-02
  7.570813e-01    1.590387e+00   2.761109e-02
  7.592918e-01    1.585967e+00   2.753740e-02
  7.615022e-01    1.583210e+00   2.747954e-02
  7.637127e-01    1.584790e+00   2.746039e-02
  7.659231e-01    1.583676e+00   2.741862e-02
  7.681336e-01    1.566223e+00   2.723562e-02
  7.703440e-01    1.564178e+00   2.718671e-02
  7.725545e-01    1.567449e+00   2.718429e-02
  7.747650e-01    1.624689e+00   2.763742e-02
  7.769754e-01    1.591594e+00   2.730151e-02
  7.791859e-01    1.578035e+00   2.713143e-02
  7.813963e-01    1.580624e+00   2.710106e-02
  7.836068e-01    1.570455e+00   2.696197e-02
  7.858172e-01    1.601840e+00   2.717915e-02
  7.880277e-01    1.597662e+00   2.709205e-02
  7.902381e-01    1.618819e+00   2.722128e-02
  7.924486e-01    1.656162e+00   2.748247e-02
  7.946591e-01    1.649621e+00   2.737911e-02
  7.968695e-01    1.643690e+00   2.728094e-02
  7.990800e-01    1.639978e+00   2.720144e-02
  8.012904e-01    1.601722e+00   2.683579e-02
  8.035009e-01    1.648307e+00   2.717480e-02
  8.057113e-01    1.607394e+00   2.678904e-02
  8.079218e-01    1.611007e+00   2.677281e-02
  8.101323e-01    1.655309e+00   2.709238e-02
  8.123427e-01    1.674816e+00   2.720507e-02
  8.145532e-01    1.661278e+00   2.704856e-02
  8.167636e-01    1.659023e+00   2.698473e-02
  8.189741e-01    1.668404e+00   2.701580e-02
  8.211845e-01    1.677330e+00   2.704258e-02
  8.233950e-01    1.652699e+00   2.679964e-02
  8.256054e-01    1.698810e+00   2.712588e-02
  8.278159e-01    1.739806e+00   2.740592e-02
  8.300264e-01    1.783388e+00   2.770211e-02
  8.322368e-01    1.705205e+00   2.704411e-02
  8.344473e-01    1.671978e+00   2.673549e-02
  8.366577e-01    1.713405e+00   2.702114e-02
  8.388682e-01    1.725653e+00   2.707421e-02
  8.410786e-01    1.713395e+00   2.693489e-02
  8.432891e-01    1.679031e+00   2.662106e-02
  8.454996e-01    1.660798e+00   2.643422e-02
  8.477100e-01    1.645045e+00   2.626680e-02
  8.499205e-01    1.656845e+00   2.631944e-02
  8.521309e-01    1.622003e+00   2.600064e-02
  8.543414e-01    1.650350e+00   2.618590e-02
  8.565518e-01    1.661363e+00   2.623225e-02
  8.587623e-01    1.648895e+00   2.609293e-02
  8.609727e-01    1.647311e+00   2.603997e-02
  8.631832e-01    1.628418e+00   2.585029e-02
  8.653937e-01    1.595521e+00   2.554853e-02
  8.676041e-01    1.562082e+00   2.524124e-02
  8.698146e-01    1.563716e+00   2.521583e-02
  8.720250e-01    1.602679e+00   2.548913e-02
  8.742355e-01    1.604282e+00   2.546308e-02
  8.764459e-01    1.587807e+00   2.529335e-02
  8.786564e-01    1.583696e+00   2.522292e-02
  8.808669e-01    1.605672e+00   2.535882e-02
  8.830773e-01    1.608862e+00   2.534578e-02
  8.852878e-01    1.568151e+00   2.498553e-02
  8.874982e-01    1.561854e+00   2.489912e-02
  8.897087e-01    1.602097e+00   2.518016e-02
  8.919191e-01    1.577703e+00   2.495025e-02
  8.941296e-01    1.592049e+00   2.502623e-02
  8.963401e-01    1.605627e+00   2.509625e-02
  8.985505e-01    1.582319e+00   2.487667e-02
  9.007610e-01    1.585399e+00   2.486429e-02
  9.029714e-01    1.572848e+00   2.473014e-02
  9.051819e-01    1.579942e+00   2.474886e-02
  9.073923e-01    1.571130e+00   2.464351e-02
  9.096028e-01    1.571696e+00   2.461333e-02
  9.118132e-01    1.582710e+00   2.466340e-02
  9.140237e-01    1.604054e+00   2.479248e-02
  9.162342e-01    1.610242e+00   2.480558e-02
  9.184446e-01    1.595820e+00   2.465855e-02
  9.206551e-01    1.578200e+00   2.448668e-02
  9.228655e-01    1.568907e+00   2.437958e-02
  9.250760e-01    1.603342e+00   2.461030e-02
  9.272864e-01    1.621838e+00   2.471739e-02
  9.294969e-01    1.632559e+00   2.476281e-02
  9.317074e-01    1.623553e+00   2.465951e-02
  9.339178e-01    1.625618e+00   2.464149e-02
  9.361283e-01    1.622466e+00   2.458132e-02
  9.383387e-01    1.604886e+00   2.441450e-02
  9.405492e-01    1.640541e+00   2.464975e-02
  9.427596e-01    1.647684e+00   2.466780e-02
  9.449701e-01    1.664333e+00   2.475842e-02
  9.471805e-01    1.671200e+00   2.477430e-02
  9.493910e-01    1.696807e+00   2.492913e-02
  9.516015e-01    1.687535e+00   2.482622e-02
  9.538119e-01    1.687865e+00   2.479462e-02
  9.560224e-01    1.706072e+00   2.489289e-02
  9.582328e-01    1.734016e+00   2.506227e-02
  9.604433e-01    1.751886e+00   2.515540e-02
  9.626537e-01    1.767271e+00   2.523165e-02
  9.648642e-01    1.807257e+00   2.548054e-02
  9.670747e-01    1.799503e+00   2.539077e-02
  9.692851e-01    1.821431e+00   2.551104e-02
  9.714956e-01    1.807452e+00   2.537713e-02
  9.737060e-01    1.840860e+00   2.557693e-02
  9.759165e-01    1.860160e+00   2.567442e-02
  9.781269e-01    1.852615e+00   2.558878e-02
  9.803374e-01    1.811735e+00   2.526989e-02
  9.825478e-01    1.810729e+00   2.522953e-02
  9.847583e-01    1.799429e+00   2.511655e-02
  9.869688e-01    1.756689e+00   2.478325e-02
  9.891792e-01    1.805337e+00   2.509066e-02
  9.913897e-01    1.824519e+00   2.518958e-02
  9.936001e-01    1.779094e+00   2.484147e-02
  9.958106e-01    1.711313e+00   2.433056e-02
  9.980210e-01    1.666284e+00   2.397715e-02
  1.000231e+00    1.654034e+00   2.401973e-02
  1.002442e+00    1.628412e+00   2.395959e-02
  1.004652e+00    1.603776e+00   2.384399e-02
  1.006863e+00    1.592026e+00   2.380576e-02
  1.009073e+00    1.616758e+00   2.402670e-02
  1.011284e+00    1.582619e+00   2.380344e-02
  1.013494e+00    1.588065e+00   2.386802e-02
  1.015705e+00    1.563326e+00   2.370375e-02
  1.017915e+00    1.562850e+00   2.371647e-02
  1.020126e+00    1.579195e+00   2.385629e-02
  1.022336e+00    1.541686e+00   2.358290e-02
  1.024547e+00    1.509779e+00   2.334864e-02
  1.026757e+00    1.538515e+00   2.357812e-02
  1.028967e+00    1.541181e+00   2.360624e-02
  1.031178e+00    1.529487e+00   2.352263e-02
  1.033388e+00    1.542000e+00   2.362376e-02
  1.035599e+00    1.527911e+00   2.351901e-02
  1.037809e+00    1.498768e+00   2.329686e-02
  1.040020e+00    1.506034e+00   2.335452e-02
  1.042230e+00    1.514903e+00   2.342513e-02
  1.044441e+00    1.509332e+00   2.338179e-02
  1.046651e+00    1.518981e+00   2.345658e-02
  1.048862e+00    1.498468e+00   2.329688e-02
  1.051072e+00    1.461053e+00   2.300187e-02
  1.053282e+00    1.452683e+00   2.293494e-02
  1.055493e+00    1.508954e+00   2.337058e-02
  1.057703e+00    1.496048e+00   2.326893e-02
  1.059914e+00    1.513770e+00   2.340205e-02
  1.062124e+00    1.528468e+00   2.351126e-02
  1.064335e+00    1.574196e+00   2.385682e-02
  1.066545e+00    1.594649e+00   2.400513e-02
  1.068756e+00    1.534591e+00   2.354494e-02
  1.070966e+00    1.496229e+00   2.324219e-02
  1.073177e+00    1.494785e+00   2.322487e-02
  1.075387e+00    1.521704e+00   2.342773e-02
  1.077597e+00    1.535641e+00   2.352737e-02
  1.079808e+00    1.487196e+00   2.301952e-02
  1.082018e+00    1.452341e+00   2.255977e-02
  1.084229e+00    1.438097e+00   2.233967e-02
  1.086439e+00    1.466543e+00   2.247174e-02
  1.088650e+00    1.470424e+00   2.242539e-02
  1.090860e+00    1.449671e+00   2.219905e-02
  1.093071e+00    1.448687e+00   2.212938e-02
  1.095281e+00    1.430633e+00   2.193411e-02
  1.097492e+00    1.445378e+00   2.199191e-02
  1.099702e+00    1.461929e+00   2.206570e-02
  1.101912e+00    1.460200e+00   2.200347e-02
  1.104123e+00    1.445899e+00   2.184705e-02
  1.106333e+00    1.405196e+00   2.149336e-02
  1.108544e+00    1.450552e+00   2.179290e-02
  1.110754e+00    1.455196e+00   2.178431e-02
  1.112965e+00    1.465496e+00   2.182014e-02
  1.115175e+00    1.417437e+00   2.141822e-02
  1.117386e+00    1.415614e+00   2.136517e-02
  1.119596e+00    1.391659e+00   2.114604e-02
  1.121807e+00    1.399464e+00   2.116656e-02
  1.124017e+00    1.389663e+00   2.105591e-02
  1.126228e+00    1.374681e+00   2.090672e-02
  1.128438e+00    1.413396e+00   2.116213e-02
  1.130648e+00    1.409260e+00   2.109673e-02
  1.132859e+00    1.388609e+00   2.090731e-02
  1.135069e+00    1.382186e+00   2.082431e-02
  1.137280e+00    1.384162e+00   2.080626e-02
  1.139490e+00    1.384304e+00   2.077429e-02
  1.141701e+00    1.402727e+00   2.087874e-02
  1.143911e+00    1.401014e+00   2.083393e-02
  1.146122e+00    1.352786e+00   2.044052e-02
  1.148332e+00    1.364584e+00   2.049775e-02
  1.150543e+00    1.365211e+00   2.047175e-02
  1.152753e+00    1.374917e+00   2.051358e-02
  1.154963e+00    1.359617e+00   2.036822e-02
  1.157174e+00    1.367391e+00   2.039628e-02
  1.159384e+00    1.358888e+00   2.030307e-02
  1.161595e+00    1.344890e+00   2.016865e-02
  1.163805e+00    1.346036e+00   2.014822e-02
  1.166016e+00    1.353318e+00   2.017338e-02
  1.168226e+00    1.344727e+00   2.008052e-02
  1.170437e+00    1.359245e+00   2.016005e-02
  1.172647e+00    1.389042e+00   2.035070e-02
  1.174858e+00    1.375514e+00   2.022315e-02
  1.177068e+00    1.360307e+00   2.008284e-02
  1.179278e+00    1.348884e+00   1.996987e-02
  1.181489e+00    1.355638e+00   1.999285e-02
  1.183699e+00    1.339857e+00   1.984876e-02
  1.185910e+00    1.352547e+00   1.991480e-02
  1.188120e+00    1.380727e+00   2.009428e-02
  1.190331e+00    1.364244e+00   1.994713e-02
  1.192541e+00    1.348971e+00   1.980785e-02
  1.194752e+00    1.358838e+00   1.985302e-02
  1.196962e+00    1.368886e+00   1.990041e-02
  1.199173e+00    1.381065e+00   1.996192e-02
  1.201383e+00    1.394428e+00   2.003067e-02
  1.203593e+00    1.363619e+00   1.978321e-02
  1.205804e+00    1.358441e+00   1.971961e-02
  1.208014e+00    1.336078e+00   1.952991e-02
  1.210225e+00    1.357444e+00   1.966005e-02
  1.212435e+00    1.335912e+00   1.947885e-02
  1.214646e+00    1.346131e+00   1.952712e-02
  1.216856e+00    1.362388e+00   1.961910e-02
  1.219067e+00    1.359656e+00   1.957485e-02
  1.221277e+00    1.348139e+00   1.946678e-02
  1.223488e+00    1.340331e+00   1.938466e-02
  1.225698e+00    1.351640e+00   1.943935e-02
  1.227909e+00    1.353794e+00   1.942464e-02
  1.230119e+00    1.340957e+00   1.930057e-02
  1.232329e+00    1.346041e+00   1.930645e-02
  1.234540e+00    1.343006e+00   1.925446e-02
  1.236750e+00    1.336331e+00   1.917643e-02
  1.238961e+00    1.369939e+00   1.938890e-02
  1.241171e+00    1.370098e+00   1.936568e-02
  1.243382e+00    1.364284e+00   1.930091e-02
  1.245592e+00    1.369409e+00   1.931285e-02
  1.247803e+00    1.361515e+00   1.923335e-02
  1.250013e+00    1.351943e+00   1.914207e-02
  1.252224e+00    1.355788e+00   1.914597e-02
  1.254434e+00    1.314154e+00   1.882628e-02
  1.256644e+00    1.309665e+00   1.877123e-02
  1.258855e+00    1.344635e+00   1.899696e-02
  1.261065e+00    1.368242e+00   1.913948e-02
  1.263276e+00    1.361041e+00   1.906601e-02
  1.265486e+00    1.338326e+00   1.888347e-02
  1.267697e+00    1.338803e+00   1.886390e-02
  1.269907e+00    1.370850e+00   1.906547e-02
  1.272118e+00    1.360710e+00   1.897219e-02
  1.274328e+00    1.353308e+00   1.889773e-02
  1.276539e+00    1.369673e+00   1.898870e-02
  1.278749e+00    1.366859e+00   1.894676e-02
  1.280959e+00    1.345610e+00   1.877642e-02
  1.283170e+00    1.326233e+00   1.861850e-02
  1.285380e+00    1.336169e+00   1.866576e-02
  1.287591e+00    1.347140e+00   1.872025e-02
  1.289801e+00    1.359418e+00   1.878405e-02
  1.292012e+00    1.361955e+00   1.878441e-02
  1.294222e+00    1.361115e+00   1.876231e-02
  1.296433e+00    1.358750e+00   1.873035e-02
  1.298643e+00    1.365788e+00   1.876222e-02
  1.300854e+00    1.387199e+00   1.889208e-02
  1.303064e+00    1.379695e+00   1.882150e-02
  1.305274e+00    1.362438e+00   1.868186e-02
  1.307485e+00    1.371011e+00   1.871884e-02
  1.309695e+00    1.374052e+00   1.871715e-02
  1.311906e+00    1.400608e+00   1.887504e-02
  1.314116e+00    1.414494e+00   1.894709e-02
  1.316327e+00    1.466660e+00   1.927070e-02
  1.318537e+00    1.520940e+00   1.960081e-02
  1.320748e+00    1.497856e+00   1.942885e-02
  1.322958e+00    1.452002e+00   1.910785e-02
  1.325169e+00    1.450450e+00   1.907583e-02
  1.327379e+00    1.427289e+00   1.890051e-02
  1.329589e+00    1.394722e+00   1.866222e-02
  1.331800e+00    1.400570e+00   1.868021e-02
  1.334010e+00    1.433736e+00   1.887880e-02
  1.336221e+00    1.450686e+00   1.896754e-02
  1.338431e+00    1.402260e+00   1.862701e-02
  1.340642e+00    1.378386e+00   1.853259e-02
  1.342852e+00    1.385024e+00   1.867910e-02
  1.345063e+00    1.389416e+00   1.875893e-02
  1.347273e+00    1.379504e+00   1.872752e-02
  1.349484e+00    1.382265e+00   1.877424e-02
  1.351694e+00    1.383394e+00   1.880491e-02
  1.353905e+00    1.383748e+00   1.882553e-02
  1.356115e+00    1.394068e+00   1.891089e-02
  1.358325e+00    1.371239e+00   1.876884e-02
  1.360536e+00    1.346897e+00   1.861310e-02
  1.362746e+00    1.359040e+00   1.870643e-02
  1.364957e+00    1.329552e+00   1.850997e-02
  1.367167e+00    1.380228e+00   1.886664e-02
  1.369378e+00    1.445969e+00   1.931697e-02
  1.371588e+00    1.461364e+00   1.942492e-02
  1.373799e+00    1.442446e+00   1.930257e-02
  1.376009e+00    1.443145e+00   1.931078e-02
  1.378220e+00    1.473711e+00   1.951683e-02
  1.380430e+00    1.528239e+00   1.987754e-02
  1.382640e+00    1.558240e+00   2.007267e-02
  1.384851e+00    1.594081e+00   2.030321e-02
  1.387061e+00    1.473035e+00   1.951748e-02
  1.389272e+00    1.363832e+00   1.878027e-02
  1.391482e+00    1.323035e+00   1.849656e-02
  1.393693e+00    1.299485e+00   1.833031e-02
  1.395903e+00    1.318719e+00   1.846395e-02
  1.398114e+00    1.295482e+00   1.829916e-02
  1.400324e+00    1.273434e+00   1.814067e-02
  1.402535e+00    1.284780e+00   1.821895e-02
  1.404745e+00    1.303438e+00   1.834840e-02
  1.406955e+00    1.268130e+00   1.809549e-02
  1.409166e+00    1.271108e+00   1.811341e-02
  1.411376e+00    1.279112e+00   1.816723e-02
  1.413587e+00    1.250982e+00   1.796258e-02
  1.415797e+00    1.284632e+00   1.819898e-02
  1.418008e+00    1.274811e+00   1.808736e-02
  1.420218e+00    1.250333e+00   1.776428e-02
  1.422429e+00    1.256213e+00   1.772116e-02
  1.424639e+00    1.275396e+00   1.779111e-02
  1.426850e+00    1.308462e+00   1.796474e-02
  1.429060e+00    1.339557e+00   1.812664e-02
  1.431270e+00    1.370124e+00   1.828627e-02
  1.433481e+00    1.356373e+00   1.815197e-02
  1.435691e+00    1.287495e+00   1.764640e-02
  1.437902e+00    1.273879e+00   1.751627e-02
  1.440112e+00    1.317107e+00   1.777502e-02
  1.442323e+00    1.304785e+00   1.765819e-02
  1.444533e+00    1.260923e+00   1.732643e-02
  1.446744e+00    1.250527e+00   1.722394e-02
  1.448954e+00    1.278832e+00   1.738748e-02
  1.451165e+00    1.274617e+00   1.732900e-02
  1.453375e+00    1.285315e+00   1.737336e-02
  1.455586e+00    1.268942e+00   1.723420e-02
  1.457796e+00    1.281462e+00   1.729136e-02
  1.460006e+00    1.304906e+00   1.742120e-02
  1.462217e+00    1.287843e+00   1.728053e-02
  1.464427e+00    1.267944e+00   1.712090e-02
  1.466638e+00    1.284233e+00   1.720505e-02
  1.468848e+00    1.277618e+00   1.713527e-02
  1.471059e+00    1.309633e+00   1.732313e-02
  1.473269e+00    1.299662e+00   1.723242e-02
  1.475480e+00    1.260023e+00   1.694391e-02
  1.477690e+00    1.259048e+00   1.691359e-02
  1.479901e+00    1.270862e+00   1.696889e-02
  1.482111e+00    1.258757e+00   1.686464e-02
  1.484321e+00    1.290758e+00   1.705432e-02
  1.486532e+00    1.304234e+00   1.712046e-02
  1.488742e+00    1.300334e+00   1.707189e-02
  1.490953e+00    1.308509e+00   1.710247e-02
  1.493163e+00    1.292075e+00   1.697221e-02
  1.495374e+00    1.289456e+00   1.693327e-02
  1.497584e+00    1.280482e+00   1.685244e-02
  1.499795e+00    1.296919e+00   1.693829e-02
  1.502005e+00    1.292734e+00   1.688900e-02
  1.504216e+00    1.278069e+00   1.677172e-02
  1.506426e+00    1.276543e+00   1.674073e-02
  1.508636e+00    1.325355e+00   1.703679e-02
  1.510847e+00    1.362586e+00   1.725172e-02
  1.513057e+00    1.337465e+00   1.706606e-02
  1.515268e+00    1.324344e+00   1.695575e-02
  1.517478e+00    1.253891e+00   1.647343e-02
  1.519689e+00    1.263651e+00   1.651232e-02
  1.521899e+00    1.283425e+00   1.661764e-02
  1.524110e+00    1.269245e+00   1.650513e-02
  1.526320e+00    1.275272e+00   1.652450e-02
  1.528531e+00    1.301761e+00   1.667507e-02
  1.530741e+00    1.290244e+00   1.658170e-02
  1.532951e+00    1.286205e+00   1.653585e-02
  1.535162e+00    1.298247e+00   1.670135e-02
  1.537372e+00    1.274975e+00   1.661859e-02
  1.539583e+00    1.256057e+00   1.652917e-02
  1.541793e+00    1.245772e+00   1.646829e-02
  1.544004e+00    1.239341e+00   1.642599e-02
  1.546214e+00    1.259465e+00   1.655729e-02
  1.548425e+00    1.274826e+00   1.665821e-02
  1.550635e+00    1.273690e+00   1.666060e-02
  1.552846e+00    1.246201e+00   1.648950e-02
  1.555056e+00    1.239017e+00   1.640050e-02
  1.557266e+00    1.255396e+00   1.639761e-02
  1.559477e+00    1.234459e+00   1.620143e-02
  1.561687e+00    1.244475e+00   1.623635e-02
  1.563898e+00    1.254479e+00   1.628425e-02
  1.566108e+00    1.265108e+00   1.633701e-02
  1.568319e+00    1.253084e+00   1.624351e-02
  1.570529e+00    1.254977e+00   1.623053e-02
  1.572740e+00    1.255480e+00   1.620604e-02
  1.574950e+00    1.259441e+00   1.620512e-02
  1.577161e+00    1.296172e+00   1.641372e-02
  1.579371e+00    1.272187e+00   1.623724e-02
  1.581582e+00    1.270693e+00   1.620771e-02
  1.583792e+00    1.277032e+00   1.622984e-02
  1.586002e+00    1.292345e+00   1.630891e-02
  1.588213e+00    1.256290e+00   1.606247e-02
  1.590423e+00    1.280276e+00   1.619471e-02
  1.592634e+00    1.271386e+00   1.611654e-02
  1.594844e+00    1.264406e+00   1.605066e-02
  1.597055e+00    1.263451e+00   1.602391e-02
  1.599265e+00    1.279955e+00   1.610720e-02
  1.601476e+00    1.276041e+00   1.606196e-02
  1.603686e+00    1.315749e+00   1.628957e-02
  1.605897e+00    1.379007e+00   1.665531e-02
  1.608107e+00    1.341046e+00   1.640414e-02
  1.610317e+00    1.263728e+00   1.590470e-02
  1.612528e+00    1.241006e+00   1.574184e-02
  1.614738e+00    1.240723e+00   1.572102e-02
  1.616949e+00    1.238151e+00   1.568565e-02
  1.619159e+00    1.239529e+00   1.567553e-02
  1.621370e+00    1.213735e+00   1.549316e-02
  1.623580e+00    1.209141e+00   1.544550e-02
  1.625791e+00    1.208503e+00   1.542318e-02
  1.628001e+00    1.202186e+00   1.536455e-02
  1.630212e+00    1.187527e+00   1.525290e-02
  1.632422e+00    1.187184e+00   1.523276e-02
  1.634632e+00    1.199677e+00   1.529529e-02
  1.636843e+00    1.195715e+00   1.525232e-02
  1.639053e+00    1.186206e+00   1.517418e-02
  1.641264e+00    1.167968e+00   1.503999e-02
  1.643474e+00    1.160306e+00   1.497319e-02
  1.645685e+00    1.167489e+00   1.500275e-02
  1.647895e+00    1.154667e+00   1.490354e-02
  1.650106e+00    1.147932e+00   1.484305e-02
  1.652316e+00    1.128840e+00   1.470274e-02
  1.654527e+00    1.131440e+00   1.470308e-02
  1.656737e+00    1.142735e+00   1.475967e-02
  1.658947e+00    1.138435e+00   1.471555e-02
  1.661158e+00    1.123490e+00   1.460241e-02
  1.663368e+00    1.118180e+00   1.455186e-02
  1.665579e+00    1.112363e+00   1.449786e-02
  1.667789e+00    1.124588e+00   1.456102e-02
  1.670000e+00    1.126720e+00   1.455922e-02
  1.672210e+00    1.122402e+00   1.451534e-02
  1.674421e+00    1.098218e+00   1.434283e-02
  1.676631e+00    1.080748e+00   1.421255e-02
  1.678842e+00    1.119735e+00   1.445070e-02
  1.681052e+00    1.134241e+00   1.452836e-02
  1.683263e+00    1.102311e+00   1.430719e-02
  1.685473e+00    1.095574e+00   1.424817e-02
  1.687683e+00    1.086804e+00   1.417558e-02
  1.689894e+00    1.070422e+00   1.405264e-02
  1.692104e+00    1.074061e+00   1.406161e-02
  1.694315e+00    1.081086e+00   1.409294e-02
  1.696525e+00    1.071288e+00   1.401379e-02
  1.698736e+00    1.069938e+00   1.399009e-02
  1.700946e+00    1.071760e+00   1.398679e-02
  1.703157e+00    1.056768e+00   1.387397e-02
  1.705367e+00    1.064832e+00   1.391223e-02
  1.707578e+00    1.043153e+00   1.375535e-02
  1.709788e+00    1.026637e+00   1.363204e-02
  1.711998e+00    1.026155e+00   1.361394e-02
  1.714209e+00    1.031436e+00   1.363455e-02
  1.716419e+00    1.043312e+00   1.369848e-02
  1.718630e+00    1.045271e+00   1.369699e-02
  1.720840e+00    1.003817e+00   1.340863e-02
  1.723051e+00    9.973568e-01   1.335172e-02
  1.725261e+00    9.849681e-01   1.325412e-02
  1.727472e+00    1.006295e+00   1.338274e-02
  1.729682e+00    9.897363e-01   1.325892e-02
  1.731893e+00    9.843392e-01   1.320896e-02
  1.734103e+00    9.823880e-01   1.318230e-02
  1.736313e+00    9.604854e-01   1.302080e-02
  1.738524e+00    9.701605e-01   1.307261e-02
  1.740734e+00    9.793364e-01   1.312073e-02
  1.742945e+00    9.702423e-01   1.304639e-02
  1.745155e+00    9.760405e-01   1.307197e-02
  1.747366e+00    9.707763e-01   1.302300e-02
  1.749576e+00    9.654866e-01   1.297393e-02
  1.751787e+00    9.773981e-01   1.304040e-02
  1.753997e+00    9.952576e-01   1.314554e-02
  1.756208e+00    9.851239e-01   1.306517e-02
  1.758418e+00    9.677591e-01   1.293642e-02
  1.760628e+00    9.573748e-01   1.285356e-02
  1.762839e+00    9.800733e-01   1.299170e-02
  1.765049e+00    9.502141e-01   1.277926e-02
  1.767260e+00    9.572875e-01   1.281391e-02
  1.769470e+00    9.733589e-01   1.290793e-02
  1.771681e+00    9.887588e-01   1.299625e-02
  1.773891e+00    1.003575e+00   1.307984e-02
  1.776102e+00    1.004975e+00   1.307573e-02
  1.778312e+00    9.575649e-01   1.275075e-02
  1.780523e+00    9.484934e-01   1.267743e-02
  1.782733e+00    9.277057e-01   1.252514e-02
  1.784944e+00    9.200607e-01   1.246063e-02
  1.787154e+00    9.221115e-01   1.246203e-02
  1.789364e+00    9.367137e-01   1.254781e-02
  1.791575e+00    9.362432e-01   1.253205e-02
  1.793785e+00    9.401342e-01   1.254556e-02
  1.795996e+00    9.197227e-01   1.239610e-02
  1.798206e+00    9.395770e-01   1.251653e-02
  1.800417e+00    9.237832e-01   1.239818e-02
  1.802627e+00    9.061680e-01   1.226749e-02
  1.804838e+00    9.149365e-01   1.231459e-02
  1.807048e+00    9.127541e-01   1.228701e-02
  1.809259e+00    9.104217e-01   1.225769e-02
  1.811469e+00    9.105110e-01   1.224328e-02
  1.813679e+00    8.869179e-01   1.206876e-02
  1.815890e+00    8.926598e-01   1.209306e-02
  1.818100e+00    8.675990e-01   1.190724e-02
  1.820311e+00    8.724250e-01   1.192572e-02
  1.822521e+00    8.639208e-01   1.185283e-02
  1.824732e+00    8.565857e-01   1.178786e-02
  1.826942e+00    8.774175e-01   1.191808e-02
  1.829153e+00    8.664089e-01   1.183151e-02
  1.831363e+00    8.781097e-01   1.189913e-02
  1.833574e+00    8.809175e-01   1.190648e-02
  1.835784e+00    8.716866e-01   1.183255e-02
  1.837994e+00    8.935519e-01   1.196821e-02
  1.840205e+00    8.840491e-01   1.189318e-02
  1.842415e+00    8.664370e-01   1.176238e-02
  1.844626e+00    8.702343e-01   1.177657e-02
  1.846836e+00    8.604693e-01   1.169894e-02
  1.849047e+00    8.600926e-01   1.168480e-02
  1.851257e+00    8.822119e-01   1.182441e-02
  1.853468e+00    8.681318e-01   1.172087e-02
  1.855678e+00    8.750234e-01   1.175831e-02
  1.857889e+00    8.840351e-01   1.181010e-02
  1.860099e+00    8.665690e-01   1.168418e-02
  1.862309e+00    8.494346e-01   1.155961e-02
  1.864520e+00    8.573513e-01   1.160476e-02
  1.866730e+00    8.700924e-01   1.168120e-02
  1.868941e+00    8.543106e-01   1.156385e-02
  1.871151e+00    8.525697e-01   1.154065e-02
  1.873362e+00    8.462861e-01   1.148673e-02
  1.875572e+00    8.285946e-01   1.135522e-02
  1.877783e+00    8.576373e-01   1.154101e-02
  1.879993e+00    8.753897e-01   1.164850e-02
  1.882204e+00    8.612070e-01   1.154277e-02
  1.884414e+00    8.462605e-01   1.143108e-02
  1.886624e+00    8.372598e-01   1.135909e-02
  1.888835e+00    8.383688e-01   1.135566e-02
  1.891045e+00    8.349451e-01   1.132159e-02
  1.893256e+00    8.544503e-01   1.144188e-02
  1.895466e+00    8.555467e-01   1.143793e-02
  1.897677e+00    8.540490e-01   1.141687e-02
  1.899887e+00    8.614640e-01   1.145516e-02
  1.902098e+00    8.552672e-01   1.140290e-02
  1.904308e+00    8.551025e-01   1.139106e-02
  1.906519e+00    8.595372e-01   1.140953e-02
  1.908729e+00    8.564923e-01   1.137853e-02
  1.910940e+00    8.502229e-01   1.132553e-02
  1.913150e+00    8.197038e-01   1.110985e-02
  1.915360e+00    8.311132e-01   1.117624e-02
  1.917571e+00    8.228828e-01   1.110989e-02
  1.919781e+00    8.412009e-01   1.122204e-02
  1.921992e+00    8.380266e-01   1.119013e-02
  1.924202e+00    8.271909e-01   1.110671e-02
  1.926413e+00    8.241901e-01   1.107623e-02
  1.928623e+00    7.909348e-01   1.084005e-02
  1.930834e+00    8.017242e-01   1.090338e-02
  1.933044e+00    8.218404e-01   1.102859e-02
  1.935255e+00    8.218047e-01   1.101795e-02
  1.937465e+00    7.936616e-01   1.081736e-02
  1.939675e+00    8.072047e-01   1.089838e-02
  1.941886e+00    8.137069e-01   1.093187e-02
  1.944096e+00    8.055803e-01   1.086695e-02
  1.946307e+00    8.051506e-01   1.085367e-02
  1.948517e+00    8.138026e-01   1.090133e-02
  1.950728e+00    7.850341e-01   1.069674e-02
  1.952938e+00    7.789524e-01   1.064525e-02
  1.955149e+00    7.930369e-01   1.073084e-02
  1.957359e+00    8.101076e-01   1.083560e-02
  1.959570e+00    7.881029e-01   1.067661e-02
  1.961780e+00    7.945228e-01   1.071006e-02
  1.963990e+00    8.001920e-01   1.073806e-02
  1.966201e+00    7.960212e-01   1.069992e-02
  1.968411e+00    7.920425e-01   1.066298e-02
  1.970622e+00    7.843768e-01   1.060121e-02
  1.972832e+00    7.914566e-01   1.063891e-02
  1.975043e+00    8.072170e-01   1.073414e-02
  1.977253e+00    8.149202e-01   1.077513e-02
  1.979464e+00    7.991251e-01   1.066003e-02
  1.981674e+00    7.921582e-01   1.060316e-02
  1.983885e+00    7.958848e-01   1.061794e-02
  1.986095e+00    8.101190e-01   1.070260e-02
  1.988305e+00    8.010112e-01   1.063223e-02
  1.990516e+00    7.874960e-01   1.053219e-02
  1.992726e+00    7.843251e-01   1.050123e-02
  1.994937e+00    7.975982e-01   1.057947e-02
  1.997147e+00    8.043077e-01   1.061396e-02
  1.999358e+00    8.022979e-01   1.059068e-02
  2.001568e+00    7.848001e-01   1.046365e-02
  2.003779e+00    7.955133e-01   1.052274e-02
  2.005989e+00    7.844632e-01   1.043728e-02
  2.008200e+00    7.713264e-01   1.033799e-02
  2.010410e+00    7.689778e-01   1.031049e-02
  2.012621e+00    7.813522e-01   1.038131e-02
  2.014831e+00    7.682911e-01   1.028270e-02
  2.017041e+00    7.846175e-01   1.038088e-02
  2.019252e+00    7.593842e-01   1.020268e-02
  2.021462e+00    7.486700e-01   1.012103e-02
  2.023673e+00    7.632206e-01   1.020952e-02
  2.025883e+00    7.683293e-01   1.023409e-02
  2.028094e+00    7.851965e-01   1.033603e-02
  2.030304e+00    7.682910e-01   1.021460e-02
  2.032515e+00    7.702497e-01   1.021823e-02
  2.034725e+00    7.838389e-01   1.029838e-02
  2.036936e+00    7.791041e-01   1.025777e-02
  2.039146e+00    7.943422e-01   1.034778e-02
  2.041356e+00    8.057499e-01   1.041189e-02
  2.043567e+00    7.920667e-01   1.031357e-02
  2.045777e+00    7.721717e-01   1.017388e-02
  2.047988e+00    7.581083e-01   1.007141e-02
  2.050198e+00    7.593081e-01   1.007090e-02
  2.052409e+00    7.635843e-01   1.009151e-02
  2.054619e+00    7.611794e-01   1.006820e-02
  2.056830e+00    7.749739e-01   1.015171e-02
  2.059040e+00    7.770537e-01   1.015771e-02
  2.061251e+00    7.691599e-01   1.009863e-02
  2.063461e+00    7.736827e-01   1.012055e-02
  2.065671e+00    7.804952e-01   1.015611e-02
  2.067882e+00    7.763174e-01   1.011974e-02
  2.070092e+00    7.688296e-01   1.006148e-02
  2.072303e+00    7.739142e-01   1.008538e-02
  2.074513e+00    7.771630e-01   1.009703e-02
  2.076724e+00    7.610443e-01   9.982197e-03
  2.078934e+00    7.566468e-01   9.944232e-03
  2.081145e+00    7.502292e-01   9.892841e-03
  2.083355e+00    7.708799e-01   1.001871e-02
  2.085566e+00    7.621034e-01   9.952497e-03
  2.087776e+00    7.589241e-01   9.922082e-03
  2.089986e+00    7.556444e-01   9.891726e-03
  2.092197e+00    7.506111e-01   9.849702e-03
  2.094407e+00    7.526246e-01   9.853561e-03
  2.096618e+00    7.478247e-01   9.813122e-03
  2.098828e+00    7.547248e-01   9.848861e-03
  2.101039e+00    7.356039e-01   9.714288e-03
  2.103249e+00    7.651068e-01   9.898322e-03
  2.105460e+00    7.314560e-01   9.669188e-03
  2.107670e+00    7.256556e-01   9.622042e-03
  2.109881e+00    7.378777e-01   9.693490e-03
  2.112091e+00    7.450677e-01   9.731517e-03
  2.114301e+00    7.465495e-01   9.732272e-03
  2.116512e+00    7.439622e-01   9.706470e-03
  2.118722e+00    7.377481e-01   9.656942e-03
  2.120933e+00    7.247776e-01   9.562778e-03
  2.123143e+00    7.412449e-01   9.661742e-03
  2.125354e+00    7.276475e-01   9.564159e-03
  2.127564e+00    7.286224e-01   9.561718e-03
  2.129775e+00    7.353430e-01   9.596902e-03
  2.131985e+00    7.222700e-01   9.502098e-03
  2.134196e+00    7.157997e-01   9.450828e-03
  2.136406e+00    7.052941e-01   9.372523e-03
  2.138617e+00    7.211885e-01   9.469011e-03
  2.140827e+00    7.244964e-01   9.506959e-03
  2.143037e+00    7.074643e-01   9.440019e-03
  2.145248e+00    7.049671e-01   9.445339e-03
  2.147458e+00    7.005116e-01   9.430548e-03
  2.149669e+00    6.997814e-01   9.437433e-03
  2.151879e+00    7.165351e-01   9.559067e-03
  2.154090e+00    7.015352e-01   9.465796e-03
  2.156300e+00    6.862630e-01   9.368757e-03
  2.158511e+00    7.010759e-01   9.474597e-03
  2.160721e+00    6.912956e-01   9.413097e-03
  2.162932e+00    7.050135e-01   9.509780e-03
  2.165142e+00    6.954800e-01   9.448289e-03
  2.167352e+00    7.041917e-01   9.510200e-03
  2.169563e+00    7.042809e-01   9.512786e-03
  2.171773e+00    6.790376e-01   9.343170e-03
  2.173984e+00    6.871604e-01   9.400269e-03
  2.176194e+00    7.027645e-01   9.507628e-03
  2.178405e+00    6.902027e-01   9.422958e-03
  2.180615e+00    6.956487e-01   9.460756e-03
  2.182826e+00    6.878763e-01   9.408426e-03
  2.185036e+00    6.936775e-01   9.448064e-03
  2.187247e+00    6.864588e-01   9.398733e-03
  2.189457e+00    6.723629e-01   9.301325e-03
  2.191667e+00    7.009352e-01   9.496719e-03
  2.193878e+00    6.967731e-01   9.467921e-03
  2.196088e+00    6.938104e-01   9.447076e-03
  2.198299e+00    6.974669e-01   9.470847e-03
  2.200509e+00    6.962526e-01   9.461520e-03
  2.202720e+00    6.799572e-01   9.349016e-03
  2.204930e+00    6.809307e-01   9.354436e-03
  2.207141e+00    6.968614e-01   9.462115e-03
  2.209351e+00    6.853026e-01   9.381428e-03
  2.211562e+00    6.816652e-01   9.354856e-03
  2.213772e+00    6.843849e-01   9.317735e-03
  2.215982e+00    6.768065e-01   9.221746e-03
  2.218193e+00    6.846799e-01   9.245407e-03
  2.220403e+00    6.794748e-01   9.185525e-03
  2.222614e+00    6.822963e-01   9.183495e-03
  2.224824e+00    6.994632e-01   9.278545e-03
  2.227035e+00    6.810632e-01   9.138166e-03
  2.229245e+00    6.792651e-01   9.109013e-03
  2.231456e+00    6.803168e-01   9.100338e-03
  2.233666e+00    6.781941e-01   9.070974e-03
  2.235877e+00    6.704978e-01   9.005073e-03
  2.238087e+00    6.649788e-01   8.954521e-03
  2.240298e+00    6.610674e-01   8.914448e-03
  2.242508e+00    6.874176e-01   9.075037e-03
  2.244718e+00    6.810210e-01   9.016786e-03
  2.246929e+00    6.663200e-01   8.904513e-03
  2.249139e+00    6.791798e-01   8.977546e-03
  2.251350e+00    6.657773e-01   8.876839e-03
  2.253560e+00    6.697080e-01   8.891397e-03
  2.255771e+00    6.669846e-01   8.861884e-03
  2.257981e+00    6.754232e-01   8.906504e-03
  2.260192e+00    6.688486e-01   8.851903e-03
  2.262402e+00    6.668300e-01   8.827670e-03
  2.264613e+00    6.651163e-01   8.805467e-03
  2.266823e+00    6.521696e-01   8.709040e-03
  2.269033e+00    6.543329e-01   8.713150e-03
  2.271244e+00    6.594154e-01   8.736553e-03
  2.273454e+00    6.603770e-01   8.732685e-03
  2.275665e+00    6.552159e-01   8.688238e-03
  2.277875e+00    6.533347e-01   8.665883e-03
  2.280086e+00    6.621996e-01   8.714422e-03
  2.282296e+00    6.548167e-01   8.656346e-03
  2.284507e+00    6.529151e-01   8.633664e-03
  2.286717e+00    6.669690e-01   8.716550e-03
  2.288928e+00    6.759374e-01   8.764969e-03
  2.291138e+00    6.697757e-01   8.715410e-03
  2.293348e+00    6.624547e-01   8.658053e-03
  2.295559e+00    6.681882e-01   8.686043e-03
  2.297769e+00    6.636737e-01   8.647322e-03
  2.299980e+00    6.755455e-01   8.714853e-03
  2.302190e+00    6.517291e-01   8.550731e-03
  2.304401e+00    6.690316e-01   8.654039e-03
  2.306611e+00    6.532314e-01   8.542057e-03
  2.308822e+00    6.570599e-01   8.558609e-03
  2.311032e+00    6.538695e-01   8.531344e-03
  2.313243e+00    6.505860e-01   8.503621e-03
  2.315453e+00    6.520097e-01   8.505337e-03
  2.317663e+00    6.539074e-01   8.508515e-03
  2.319874e+00    6.632125e-01   8.560014e-03
  2.322084e+00    6.602187e-01   8.531610e-03
  2.324295e+00    6.461851e-01   8.432214e-03
  2.326505e+00    6.436492e-01   8.406609e-03
  2.328716e+00    6.462117e-01   8.414735e-03
  2.330926e+00    6.549532e-01   8.462609e-03
  2.333137e+00    6.287991e-01   8.283634e-03
  2.335347e+00    6.476770e-01   8.398119e-03
  2.337558e+00    6.366928e-01   8.318427e-03
  2.339768e+00    6.341581e-01   8.293296e-03
  2.341979e+00    6.365513e-01   8.300588e-03
  2.344189e+00    6.434543e-01   8.337033e-03
  2.346399e+00    6.317126e-01   8.252168e-03
  2.348610e+00    6.356703e-01   8.269493e-03
  2.350820e+00    6.438432e-01   8.314267e-03
  2.353031e+00    6.392058e-01   8.275949e-03
  2.355241e+00    6.453214e-01   8.307307e-03
  2.357452e+00    6.321443e-01   8.213648e-03
  2.359662e+00    6.383626e-01   8.245670e-03
  2.361873e+00    6.374111e-01   8.231253e-03
  2.364083e+00    6.081649e-01   8.032348e-03
  2.366294e+00    6.214889e-01   8.111780e-03
  2.368504e+00    6.120488e-01   8.041958e-03
  2.370714e+00    6.103020e-01   8.022516e-03
  2.372925e+00    6.188823e-01   8.070707e-03
  2.375135e+00    6.140383e-01   8.031061e-03
  2.377346e+00    6.290343e-01   8.120555e-03
  2.379556e+00    6.427507e-01   8.200601e-03
  2.381767e+00    6.320790e-01   8.124306e-03
  2.383977e+00    6.309700e-01   8.109192e-03
  2.386188e+00    6.285773e-01   8.085805e-03
  2.388398e+00    6.151928e-01   7.991339e-03
  2.390609e+00    6.175359e-01   7.998799e-03
  2.392819e+00    6.201643e-01   8.008018e-03
  2.395029e+00    6.092021e-01   7.929301e-03
  2.397240e+00    6.049823e-01   7.893990e-03
  2.399450e+00    6.039580e-01   7.879552e-03
  2.401661e+00    6.079199e-01   7.897685e-03
  2.403871e+00    6.133627e-01   7.925211e-03
  2.406082e+00    6.030893e-01   7.851163e-03
  2.408292e+00    5.994535e-01   7.819730e-03
  2.410503e+00    6.023624e-01   7.831224e-03
  2.412713e+00    6.170439e-01   7.918221e-03
  2.414924e+00    6.189211e-01   7.922700e-03
  2.417134e+00    6.165069e-01   7.899532e-03
  2.419344e+00    6.020038e-01   7.798654e-03
  2.421555e+00    6.056973e-01   7.815007e-03
  2.423765e+00    6.015640e-01   7.780902e-03
  2.425976e+00    5.909528e-01   7.704199e-03
  2.428186e+00    6.001614e-01   7.756774e-03
  2.430397e+00    6.064592e-01   7.789830e-03
  2.432607e+00    5.875258e-01   7.660041e-03
  2.434818e+00    6.012942e-01   7.741700e-03
  2.437028e+00    5.871238e-01   7.642818e-03
  2.439239e+00    5.960540e-01   7.693060e-03
  2.441449e+00    5.806046e-01   7.585576e-03
  2.443659e+00    5.812678e-01   7.582620e-03
  2.445870e+00    5.799091e-01   7.585903e-03
  2.448080e+00    5.611330e-01   7.496229e-03
  2.450291e+00    5.702325e-01   7.573250e-03
  2.452501e+00    5.868195e-01   7.693893e-03
  2.454712e+00    5.710081e-01   7.597956e-03
  2.456922e+00    5.516345e-01   7.474446e-03
  2.459133e+00    5.600146e-01   7.536394e-03
  2.461343e+00    5.545042e-01   7.503536e-03
  2.463554e+00    5.613951e-01   7.553463e-03
  2.465764e+00    5.839252e-01   7.706752e-03
  2.467975e+00    5.630102e-01   7.569759e-03
  2.470185e+00    5.612146e-01   7.559937e-03
  2.472395e+00    5.531583e-01   7.506708e-03
  2.474606e+00    5.538567e-01   7.512988e-03
  2.476816e+00    5.548897e-01   7.520749e-03
  2.479027e+00    5.461197e-01   7.461919e-03
  2.481237e+00    5.523353e-01   7.504532e-03
  2.483448e+00    5.515236e-01   7.499329e-03
  2.485658e+00    5.467077e-01   7.466367e-03
  2.487869e+00    5.515385e-01   7.499326e-03
  2.490079e+00    5.390801e-01   7.413619e-03
  2.492290e+00    5.483697e-01   7.476785e-03
  2.494500e+00    5.270504e-01   7.329298e-03
  2.496710e+00    5.348287e-01   7.382471e-03
  2.498921e+00    5.283424e-01   7.336588e-03
  2.501131e+00    5.248030e-01   7.311022e-03
  2.503342e+00    5.285469e-01   7.335802e-03
  2.505552e+00    5.316646e-01   7.356280e-03
  2.507763e+00    5.338574e-01   7.370001e-03
  2.509973e+00    5.206139e-01   7.276650e-03
  2.512184e+00    5.151455e-01   7.236709e-03
  2.514394e+00    5.337960e-01   7.357132e-03
  2.516605e+00    5.226291e-01   7.232901e-03
  2.518815e+00    5.140714e-01   7.145413e-03
  2.521025e+00    5.233209e-01   7.188496e-03
  2.523236e+00    5.419073e-01   7.296771e-03
  2.525446e+00    5.329795e-01   7.220715e-03
  2.527657e+00    5.165950e-01   7.094372e-03
  2.529867e+00    5.305050e-01   7.174997e-03
  2.532078e+00    5.326763e-01   7.174508e-03
  2.534288e+00    5.406941e-01   7.214223e-03
  2.536499e+00    5.177009e-01   7.047319e-03
  2.538709e+00    5.097955e-01   6.982429e-03
  2.540920e+00    5.137005e-01   6.998599e-03
  2.543130e+00    5.187686e-01   7.022719e-03
  2.545340e+00    5.210109e-01   7.027844e-03
  2.547551e+00    5.213784e-01   7.020392e-03
  2.549761e+00    5.142513e-01   6.962745e-03
  2.551972e+00    5.127020e-01   6.942977e-03
  2.554182e+00    5.141808e-01   6.943861e-03
  2.556393e+00    5.271910e-01   7.022014e-03
  2.558603e+00    5.248381e-01   6.997213e-03
  2.560814e+00    5.159216e-01   6.928861e-03
  2.563024e+00    5.180146e-01   6.934325e-03
  2.565235e+00    5.237329e-01   6.962938e-03
  2.567445e+00    5.301801e-01   6.996016e-03
  2.569656e+00    5.174344e-01   6.901684e-03
  2.571866e+00    5.123548e-01   6.858400e-03
  2.574076e+00    5.171403e-01   6.881075e-03
  2.576287e+00    5.298378e-01   6.956614e-03
  2.578497e+00    5.271504e-01   6.931033e-03
  2.580708e+00    5.102605e-01   6.811049e-03
  2.582918e+00    5.013651e-01   6.743744e-03
  2.585129e+00    5.102584e-01   6.795583e-03
  2.587339e+00    5.014827e-01   6.729301e-03
  2.589550e+00    5.089936e-01   6.771980e-03
  2.591760e+00    5.246297e-01   6.867384e-03
  2.593971e+00    5.190905e-01   6.823460e-03
  2.596181e+00    5.064124e-01   6.733423e-03
  2.598391e+00    5.111172e-01   6.759428e-03
  2.600602e+00    5.112667e-01   6.754507e-03
  2.602812e+00    5.117136e-01   6.749899e-03
  2.605023e+00    5.135088e-01   6.754527e-03
  2.607233e+00    5.117614e-01   6.735859e-03
  2.609444e+00    5.082988e-01   6.705802e-03
  2.611654e+00    5.177485e-01   6.760442e-03
  2.613865e+00    5.084093e-01   6.692134e-03
  2.616075e+00    5.053306e-01   6.664721e-03
  2.618286e+00    5.166657e-01   6.731974e-03
  2.620496e+00    4.988906e-01   6.608522e-03
  2.622706e+00    5.039175e-01   6.635962e-03
  2.624917e+00    4.995228e-01   6.601173e-03
  2.627127e+00    4.950409e-01   6.565788e-03
  2.629338e+00    5.032614e-01   6.614108e-03
  2.631548e+00    5.118974e-01   6.664388e-03
  2.633759e+00    5.033148e-01   6.601143e-03
  2.635969e+00    5.015609e-01   6.582933e-03
  2.638180e+00    4.874029e-01   6.482489e-03
  2.640390e+00    4.922307e-01   6.507938e-03
  2.642601e+00    5.016668e-01   6.563366e-03
  2.644811e+00    5.026785e-01   6.562903e-03
  2.647021e+00    4.960344e-01   6.512832e-03
  2.649232e+00    5.017373e-01   6.543435e-03
  2.651442e+00    5.036187e-01   6.549159e-03
  2.653653e+00    5.074641e-01   6.567270e-03
  2.655863e+00    5.097354e-01   6.575187e-03
  2.658074e+00    5.035261e-01   6.528379e-03
  2.660284e+00    4.798990e-01   6.367132e-03
  2.662495e+00    4.913792e-01   6.436098e-03
  2.664705e+00    4.969323e-01   6.465815e-03
  2.666916e+00    5.021956e-01   6.493472e-03
  2.669126e+00    4.745736e-01   6.306039e-03
  2.671337e+00    4.961714e-01   6.441361e-03
  2.673547e+00    4.752094e-01   6.297564e-03
  2.675757e+00    4.999559e-01   6.452977e-03
  2.677968e+00    4.917727e-01   6.393452e-03
  2.680178e+00    4.906944e-01   6.380034e-03
  2.682389e+00    4.962286e-01   6.409519e-03
  2.684599e+00    4.978934e-01   6.414036e-03
  2.686810e+00    4.915417e-01   6.366394e-03
  2.689020e+00    4.925113e-01   6.366364e-03
  2.691231e+00    4.920380e-01   6.357020e-03
  2.693441e+00    4.858249e-01   6.310634e-03
  2.695652e+00    4.929989e-01   6.350524e-03
  2.697862e+00    4.904243e-01   6.327569e-03
  2.700072e+00    4.867262e-01   6.297617e-03
  2.702283e+00    4.880227e-01   6.299783e-03
  2.704493e+00    4.952038e-01   6.339635e-03
  2.706704e+00    4.842874e-01   6.263003e-03
  2.708914e+00    4.794697e-01   6.225843e-03
  2.711125e+00    4.925744e-01   6.304073e-03
  2.713335e+00    4.864357e-01   6.258601e-03
  2.715546e+00    4.914256e-01   6.284116e-03
  2.717756e+00    4.857545e-01   6.241871e-03
  2.719967e+00    4.914553e-01   6.272151e-03
  2.722177e+00    4.855815e-01   6.228419e-03
  2.724387e+00    5.019188e-01   6.326121e-03
  2.726598e+00    4.999076e-01   6.307301e-03
  2.728808e+00    4.859883e-01   6.212723e-03
  2.731019e+00    4.736963e-01   6.127583e-03
  2.733229e+00    4.739913e-01   6.123750e-03
  2.735440e+00    4.836595e-01   6.179610e-03
  2.737650e+00    4.887810e-01   6.206207e-03
  2.739861e+00    4.875082e-01   6.192026e-03
  2.742071e+00    4.903719e-01   6.204393e-03
  2.744282e+00    4.859461e-01   6.170082e-03
  2.746492e+00    4.763369e-01   6.102752e-03
  2.748702e+00    4.841928e-01   6.146965e-03
  2.750913e+00    4.839357e-01   6.139521e-03
  2.753123e+00    4.739031e-01   6.069498e-03
  2.755334e+00    4.872061e-01   6.147940e-03
  2.757544e+00    4.921052e-01   6.173010e-03
  2.759755e+00    4.739098e-01   6.051946e-03
  2.761965e+00    4.853866e-01   6.118771e-03
  2.764176e+00    4.843945e-01   6.106518e-03
  2.766386e+00    4.845812e-01   6.101863e-03
  2.768597e+00    4.680731e-01   5.991242e-03
  2.770807e+00    4.760242e-01   6.036049e-03
  2.773017e+00    4.671042e-01   5.973344e-03
  2.775228e+00    4.711782e-01   5.993575e-03
  2.777438e+00    4.859678e-01   6.081076e-03
  2.779649e+00    4.870906e-01   6.082156e-03
  2.781859e+00    4.897158e-01   6.092675e-03
  2.784070e+00    4.853778e-01   6.059739e-03
  2.786280e+00    4.642936e-01   5.920971e-03
  2.788491e+00    4.699990e-01   5.951437e-03
  2.790701e+00    4.703377e-01   5.947971e-03
  2.792912e+00    4.687867e-01   5.932244e-03
  2.795122e+00    4.654809e-01   5.905621e-03
  2.797333e+00    4.691191e-01   5.923121e-03
  2.799543e+00    4.699744e-01   5.922708e-03
  2.801753e+00    4.631719e-01   5.873903e-03
  2.803964e+00    4.631215e-01   5.867986e-03
  2.806174e+00    4.656771e-01   5.878079e-03
  2.808385e+00    4.733844e-01   5.919726e-03
  2.810595e+00    4.721767e-01   5.905333e-03
  2.812806e+00    4.696168e-01   5.882720e-03
  2.815016e+00    4.633574e-01   5.838702e-03
  2.817227e+00    4.725907e-01   5.922469e-03
  2.819437e+00    4.692254e-01   5.912374e-03
  2.821648e+00    4.737116e-01   5.942865e-03
  2.823858e+00    4.805371e-01   5.990905e-03
  2.826068e+00    4.816259e-01   6.002708e-03
  2.828279e+00    4.709005e-01   5.939529e-03
  2.830489e+00    4.653220e-01   5.907564e-03
  2.832700e+00    4.686034e-01   5.930885e-03
  2.834910e+00    4.738379e-01   5.966001e-03
  2.837121e+00    4.756159e-01   5.978901e-03
  2.839331e+00    4.771244e-01   5.989613e-03
  2.841542e+00    4.790628e-01   6.002789e-03
  2.843752e+00    4.719328e-01   5.958743e-03
  2.845963e+00    4.732732e-01   5.967600e-03
  2.848173e+00    4.691271e-01   5.941471e-03
  2.850383e+00    4.720818e-01   5.960470e-03
  2.852594e+00    4.681097e-01   5.935245e-03
  2.854804e+00    4.687147e-01   5.938579e-03
  2.857015e+00    4.787295e-01   6.001252e-03
  2.859225e+00    4.694575e-01   5.942600e-03
  2.861436e+00    4.718750e-01   5.957228e-03
  2.863646e+00    4.613807e-01   5.890649e-03
  2.865857e+00    4.546233e-01   5.847682e-03
  2.868067e+00    4.646905e-01   5.912294e-03
  2.870278e+00    4.660537e-01   5.920610e-03
  2.872488e+00    4.665863e-01   5.922819e-03
  2.874698e+00    4.667536e-01   5.922856e-03
  2.876909e+00    4.716019e-01   5.952173e-03
  2.879119e+00    4.713497e-01   5.948964e-03
  2.881330e+00    4.609075e-01   5.881219e-03
  2.883540e+00    4.652278e-01   5.907329e-03
  2.885751e+00    4.549190e-01   5.839891e-03
  2.887961e+00    4.576746e-01   5.855659e-03
  2.890172e+00    4.640209e-01   5.894510e-03
  2.892382e+00    4.680258e-01   5.918079e-03
  2.894593e+00    4.645726e-01   5.894386e-03
  2.896803e+00    4.693561e-01   5.922657e-03
  2.899014e+00    4.562295e-01   5.837346e-03
  2.901224e+00    4.605515e-01   5.862927e-03
  2.903434e+00    4.625141e-01   5.873468e-03
  2.905645e+00    4.667857e-01   5.898285e-03
  2.907855e+00    4.532696e-01   5.810183e-03
  2.910066e+00    4.569456e-01   5.831603e-03
  2.912276e+00    4.581627e-01   5.837263e-03
  2.914487e+00    4.589770e-01   5.839984e-03
  2.916697e+00    4.642296e-01   5.871064e-03
  2.918908e+00    4.538695e-01   5.803201e-03
  2.921118e+00    4.629124e-01   5.857994e-03
  2.923329e+00    4.623001e-01   5.851821e-03
  2.925539e+00    4.557493e-01   5.807924e-03
  2.927749e+00    4.525271e-01   5.785062e-03
  2.929960e+00    4.533909e-01   5.787809e-03
  2.932170e+00    4.478834e-01   5.750248e-03
  2.934381e+00    4.486355e-01   5.752639e-03
  2.936591e+00    4.662039e-01   5.861588e-03
  2.938802e+00    4.653237e-01   5.853344e-03
  2.941012e+00    4.597156e-01   5.815602e-03
  2.943223e+00    4.549594e-01   5.782743e-03
  2.945433e+00    4.559979e-01   5.785611e-03
  2.947644e+00    4.486942e-01   5.734982e-03
  2.949854e+00    4.624094e-01   5.817659e-03
  2.952064e+00    4.725871e-01   5.877039e-03
  2.954275e+00    4.583497e-01   5.783423e-03
  2.956485e+00    4.503907e-01   5.728816e-03
  2.958696e+00    4.530244e-01   5.741160e-03
  2.960906e+00    4.538916e-01   5.742502e-03
  2.963117e+00    4.376833e-01   5.634617e-03
  2.965327e+00    4.491576e-01   5.704114e-03
  2.967538e+00    4.703470e-01   5.834176e-03
  2.969748e+00    4.431240e-01   5.660026e-03
  2.971959e+00    4.640597e-01   5.789007e-03
  2.974169e+00    4.653873e-01   5.794683e-03
  2.976379e+00    4.734862e-01   5.841906e-03
  2.978590e+00    4.612049e-01   5.762481e-03
  2.980800e+00    4.607886e-01   5.757071e-03
  2.983011e+00    4.490453e-01   5.680450e-03
  2.985221e+00    4.544024e-01   5.711069e-03
  2.987432e+00    4.605761e-01   5.746611e-03
  2.989642e+00    4.621913e-01   5.754020e-03
  2.991853e+00    4.695493e-01   5.796317e-03
  2.994063e+00    4.551477e-01   5.703830e-03
  2.996274e+00    4.500866e-01   5.668840e-03
  2.998484e+00    4.537964e-01   5.689476e-03
  3.000694e+00    4.469971e-01   5.643239e-03
  3.002905e+00    4.609999e-01   5.727997e-03
  3.005115e+00    4.701986e-01   5.781828e-03
  3.007326e+00    4.672817e-01   5.760669e-03
  3.009536e+00    4.580308e-01   5.700095e-03
  3.011747e+00    4.541705e-01   5.673095e-03
  3.013957e+00    4.595207e-01   5.703209e-03
  3.016168e+00    4.489715e-01   5.634134e-03
  3.018378e+00    4.467683e-01   5.617259e-03
  3.020589e+00    4.493398e-01   5.630207e-03
  3.022799e+00    4.485748e-01   5.622256e-03
  3.025010e+00    4.601363e-01   5.690983e-03
  3.027220e+00    4.728308e-01   5.765765e-03
  3.029430e+00    4.654155e-01   5.717103e-03
  3.031641e+00    4.578758e-01   5.667449e-03
  3.033851e+00    4.363304e-01   5.529043e-03
  3.036062e+00    4.544992e-01   5.640168e-03
  3.038272e+00    4.646730e-01   5.699349e-03
  3.040483e+00    4.450232e-01   5.574329e-03
  3.042693e+00    4.433126e-01   5.560366e-03
  3.044904e+00    4.500835e-01   5.598658e-03
  3.047114e+00    4.502168e-01   5.594686e-03
  3.049325e+00    4.400079e-01   5.526536e-03
  3.051535e+00    4.579729e-01   5.633807e-03
  3.053745e+00    4.514919e-01   5.589059e-03
  3.055956e+00    4.538238e-01   5.598865e-03
  3.058166e+00    4.514892e-01   5.580199e-03
  3.060377e+00    4.385888e-01   5.495177e-03
  3.062587e+00    4.550679e-01   5.592809e-03
  3.064798e+00    4.538479e-01   5.581044e-03
  3.067008e+00    4.489935e-01   5.546377e-03
  3.069219e+00    4.644569e-01   5.636486e-03
  3.071429e+00    4.669142e-01   5.647822e-03
  3.073640e+00    4.585329e-01   5.593520e-03
  3.075850e+00    4.509067e-01   5.543232e-03
  3.078060e+00    4.455415e-01   5.507056e-03
  3.080271e+00    4.364142e-01   5.446937e-03
  3.082481e+00    4.403236e-01   5.467842e-03
  3.084692e+00    4.513961e-01   5.532785e-03
  3.086902e+00    4.491685e-01   5.515875e-03
  3.089113e+00    4.514376e-01   5.526201e-03
  3.091323e+00    4.531127e-01   5.533057e-03
  3.093534e+00    4.539838e-01   5.534970e-03
  3.095744e+00    4.497114e-01   5.505486e-03
  3.097955e+00    4.446197e-01   5.470687e-03
  3.100165e+00    4.553018e-01   5.532648e-03
  3.102375e+00    4.570450e-01   5.539781e-03
  3.104586e+00    4.553652e-01   5.526060e-03
  3.106796e+00    4.509690e-01   5.495803e-03
  3.109007e+00    4.431485e-01   5.444714e-03
  3.111217e+00    4.555905e-01   5.516876e-03
  3.113428e+00    4.532953e-01   5.499549e-03
  3.115638e+00    4.345700e-01   5.381560e-03
  3.117849e+00    4.400811e-01   5.411863e-03
  3.120059e+00    4.424446e-01   5.422923e-03
  3.122270e+00    4.453359e-01   5.437351e-03
  3.124480e+00    4.523758e-01   5.476446e-03
  3.126691e+00    4.540439e-01   5.482932e-03
  3.128901e+00    4.624323e-01   5.530175e-03
  3.131111e+00    4.507233e-01   5.455849e-03
  3.133322e+00    4.320072e-01   5.337977e-03
  3.135532e+00    4.292988e-01   5.317841e-03
  3.137743e+00    4.465313e-01   5.420051e-03
  3.139953e+00    4.498409e-01   5.436399e-03
  3.142164e+00    4.439174e-01   5.412509e-03
  3.144374e+00    4.449081e-01   5.447031e-03
  3.146585e+00    4.423143e-01   5.445698e-03
  3.148795e+00    4.396694e-01   5.440135e-03
  3.151006e+00    4.496004e-01   5.509843e-03
  3.153216e+00    4.545585e-01   5.547378e-03
  3.155426e+00    4.403160e-01   5.466095e-03
  3.157637e+00    4.601139e-01   5.593258e-03
  3.159847e+00    4.548699e-01   5.566266e-03
  3.162058e+00    4.467729e-01   5.520948e-03
  3.164268e+00    4.478317e-01   5.531604e-03
  3.166479e+00    4.406897e-01   5.490957e-03
  3.168689e+00    4.438700e-01   5.514135e-03
  3.170900e+00    4.375138e-01   5.477662e-03
  3.173110e+00    4.405685e-01   5.499635e-03
  3.175321e+00    4.328127e-01   5.453493e-03
  3.177531e+00    4.399371e-01   5.500928e-03
  3.179741e+00    4.359882e-01   5.478263e-03
  3.181952e+00    4.458678e-01   5.542106e-03
  3.184162e+00    4.426814e-01   5.524475e-03
  3.186373e+00    4.494924e-01   5.568430e-03
  3.188583e+00    4.490035e-01   5.567225e-03
  3.190794e+00    4.315400e-01   5.459631e-03
  3.193004e+00    4.400654e-01   5.514525e-03
  3.195215e+00    4.466225e-01   5.556997e-03
  3.197425e+00    4.383956e-01   5.506799e-03
  3.199636e+00    4.386563e-01   5.507633e-03
  3.201846e+00    4.394432e-01   5.511997e-03
  3.204056e+00    4.432313e-01   5.536583e-03
  3.206267e+00    4.350639e-01   5.486186e-03
  3.208477e+00    4.347856e-01   5.485356e-03
  3.210688e+00    4.478002e-01   5.567699e-03
  3.212898e+00    4.605580e-01   5.647058e-03
  3.215109e+00    4.448059e-01   5.550421e-03
  3.217319e+00    4.358949e-01   5.495173e-03
  3.219530e+00    4.343925e-01   5.486085e-03
  3.221740e+00    4.355013e-01   5.493644e-03
  3.223951e+00    4.263412e-01   5.436041e-03
  3.226161e+00    4.324504e-01   5.475019e-03
  3.228372e+00    4.396522e-01   5.520976e-03
  3.230582e+00    4.225492e-01   5.412655e-03
  3.232792e+00    4.332091e-01   5.480729e-03
  3.235003e+00    4.283248e-01   5.449987e-03
  3.237213e+00    4.211953e-01   5.404542e-03
  3.239424e+00    4.317203e-01   5.471637e-03
  3.241634e+00    4.402768e-01   5.525743e-03
  3.243845e+00    4.212821e-01   5.405298e-03
  3.246055e+00    4.328569e-01   5.478760e-03
  3.248266e+00    4.280867e-01   5.448711e-03
  3.250476e+00    4.218945e-01   5.408829e-03
  3.252687e+00    4.303261e-01   5.462564e-03
  3.254897e+00    4.221458e-01   5.410256e-03
  3.257107e+00    4.256745e-01   5.432517e-03
  3.259318e+00    4.230421e-01   5.415451e-03
  3.261528e+00    4.247284e-01   5.426100e-03
  3.263739e+00    4.224164e-01   5.410751e-03
  3.265949e+00    4.134148e-01   5.352679e-03
  3.268160e+00    4.397894e-01   5.520334e-03
  3.270370e+00    4.375492e-01   5.505776e-03
  3.272581e+00    4.267764e-01   5.437268e-03
  3.274791e+00    4.229034e-01   5.412021e-03
  3.277002e+00    4.309387e-01   5.462633e-03
  3.279212e+00    4.309728e-01   5.462470e-03
  3.281422e+00    4.249034e-01   5.423274e-03
  3.283633e+00    4.341543e-01   5.481326e-03
  3.285843e+00    4.259393e-01   5.428870e-03
  3.288054e+00    4.292992e-01   5.449303e-03
  3.290264e+00    4.284352e-01   5.443495e-03
  3.292475e+00    4.239109e-01   5.413850e-03
  3.294685e+00    4.353255e-01   5.485607e-03
  3.296896e+00    4.258249e-01   5.424662e-03
  3.299106e+00    4.301031e-01   5.451266e-03
  3.301317e+00    4.153996e-01   5.356297e-03
  3.303527e+00    4.256441e-01   5.421440e-03
  3.305737e+00    4.319678e-01   5.460522e-03
  3.307948e+00    4.302026e-01   5.448686e-03
  3.310158e+00    4.204638e-01   5.385806e-03
  3.312369e+00    4.343436e-01   5.473085e-03
  3.314579e+00    4.184365e-01   5.371030e-03
  3.316790e+00    4.102237e-01   5.317345e-03
  3.319000e+00    4.331921e-01   5.462983e-03
  3.321211e+00    4.122218e-01   5.328530e-03
  3.323421e+00    4.048405e-01   5.279409e-03
  3.325632e+00    4.227798e-01   5.394223e-03
  3.327842e+00    4.298865e-01   5.438461e-03
  3.330052e+00    4.196742e-01   5.372399e-03
  3.332263e+00    4.267209e-01   5.416302e-03
  3.334473e+00    4.100071e-01   5.308267e-03
  3.336684e+00    4.116856e-01   5.317870e-03
  3.338894e+00    4.256922e-01   5.406728e-03
  3.341105e+00    4.302558e-01   5.434415e-03
  3.343315e+00    4.273583e-01   5.414937e-03
  3.345526e+00    4.278189e-01   5.416933e-03
  3.347736e+00    4.211872e-01   5.373407e-03
  3.349947e+00    4.147680e-01   5.331354e-03
  3.352157e+00    4.282995e-01   5.416425e-03
  3.354368e+00    4.221171e-01   5.375915e-03
  3.356578e+00    4.224389e-01   5.376935e-03
  3.358788e+00    4.156355e-01   5.332131e-03
  3.360999e+00    4.202113e-01   5.360156e-03
  3.363209e+00    4.259363e-01   5.395500e-03
  3.365420e+00    4.281227e-01   5.407817e-03
  3.367630e+00    4.319777e-01   5.431087e-03
  3.369841e+00    4.048243e-01   5.256212e-03
  3.372051e+00    4.231525e-01   5.371849e-03
  3.374262e+00    4.233641e-01   5.370781e-03
  3.376472e+00    4.270836e-01   5.391825e-03
  3.378683e+00    4.153775e-01   5.314925e-03
  3.380893e+00    4.036569e-01   5.237099e-03
  3.383103e+00    4.026812e-01   5.228108e-03
  3.385314e+00    3.989771e-01   5.201807e-03
  3.387524e+00    4.057042e-01   5.242771e-03
  3.389735e+00    4.161462e-01   5.307188e-03
  3.391945e+00    4.101858e-01   5.265381e-03
  3.394156e+00    4.232447e-01   5.344257e-03
  3.396366e+00    4.133048e-01   5.277731e-03
  3.398577e+00    4.257049e-01   5.353216e-03
  3.400787e+00    4.094089e-01   5.261655e-03
  3.402998e+00    3.985233e-01   5.228752e-03
  3.405208e+00    4.045070e-01   5.288485e-03
  3.407418e+00    4.001431e-01   5.275656e-03
  3.409629e+00    3.988678e-01   5.281176e-03
  3.411839e+00    3.872074e-01   5.214999e-03
  3.414050e+00    3.886212e-01   5.235380e-03
  3.416260e+00    3.949266e-01   5.287325e-03
  3.418471e+00    4.096159e-01   5.394367e-03
  3.420681e+00    3.867547e-01   5.250126e-03
  3.422892e+00    3.869717e-01   5.259532e-03
  3.425102e+00    4.033077e-01   5.377360e-03
  3.427313e+00    3.866457e-01   5.272297e-03
  3.429523e+00    3.860521e-01   5.275287e-03
  3.431733e+00    3.819985e-01   5.254167e-03
  3.433944e+00    3.904789e-01   5.318675e-03
  3.436154e+00    3.881984e-01   5.309415e-03
  3.438365e+00    3.839085e-01   5.285944e-03
  3.440575e+00    3.878673e-01   5.319109e-03
  3.442786e+00    3.673006e-01   5.181703e-03
  3.444996e+00    3.820958e-01   5.290552e-03
  3.447207e+00    3.603722e-01   5.143160e-03
  3.449417e+00    3.531576e-01   5.131188e-03
  3.451628e+00    3.712835e-01   5.290755e-03
  3.453838e+00    3.731397e-01   5.325319e-03
  3.456049e+00    3.583320e-01   5.242181e-03
  3.458259e+00    3.675590e-01   5.331194e-03
  3.460469e+00    3.789274e-01   5.433132e-03
  3.462680e+00    3.895074e-01   5.528153e-03
  3.464890e+00    3.718857e-01   5.419571e-03
  3.467101e+00    3.688266e-01   5.414726e-03
  3.469311e+00    3.753642e-01   5.479168e-03
  3.471522e+00    3.975359e-01   5.655539e-03
  3.473732e+00    4.032934e-01   5.712816e-03
  3.475943e+00    4.146148e-01   5.808781e-03
  3.478153e+00    4.090891e-01   5.785833e-03
  3.480364e+00    4.060291e-01   5.779515e-03
  3.482574e+00    4.085068e-01   5.812556e-03
  3.484784e+00    4.211324e-01   5.916755e-03
  3.486995e+00    4.219232e-01   5.937536e-03
  3.489205e+00    4.110467e-01   5.874918e-03
  3.491416e+00    4.427316e-01   6.112366e-03
  3.493626e+00    4.477396e-01   6.161623e-03
  3.495837e+00    4.535988e-01   6.216797e-03
  3.498047e+00    4.569660e-01   6.254524e-03
  3.500258e+00    4.420129e-01   6.165765e-03
  3.502468e+00    4.455146e-01   6.204423e-03
  3.504679e+00    4.687969e-01   6.379022e-03
  3.506889e+00    4.962416e-01   6.578074e-03
  3.509099e+00    4.895999e-01   6.548514e-03
  3.511310e+00    4.926684e-01   6.583728e-03
  3.513520e+00    4.903461e-01   6.582716e-03
  3.515731e+00    4.888833e-01   6.587331e-03
  3.517941e+00    4.887521e-01   6.600766e-03
  3.520152e+00    5.135849e-01   6.780972e-03
  3.522362e+00    5.149744e-01   6.804825e-03
  3.524573e+00    5.270490e-01   6.898720e-03
  3.526783e+00    5.291560e-01   6.926087e-03
  3.528994e+00    5.175323e-01   6.861862e-03
  3.531204e+00    5.125890e-01   6.841326e-03
  3.533414e+00    5.260979e-01   6.942975e-03
  3.535625e+00    5.319539e-01   6.993958e-03
  3.537835e+00    5.259187e-01   6.966182e-03
  3.540046e+00    5.438895e-01   7.093205e-03
  3.542256e+00    5.562484e-01   7.181034e-03
  3.544467e+00    5.563852e-01   7.189659e-03
  3.546677e+00    5.680329e-01   7.272357e-03
  3.548888e+00    5.473097e-01   7.146038e-03
  3.551098e+00    5.422562e-01   7.120305e-03
  3.553309e+00    5.488464e-01   7.171687e-03
  3.555519e+00    5.345688e-01   7.089066e-03
  3.557729e+00    5.425888e-01   7.153839e-03
  3.559940e+00    5.518434e-01   7.226317e-03
  3.562150e+00    5.547566e-01   7.257288e-03
  3.564361e+00    5.533198e-01   7.261415e-03
  3.566571e+00    5.424298e-01   7.203528e-03
  3.568782e+00    5.364434e-01   7.177769e-03
  3.570992e+00    5.329909e-01   7.168384e-03
  3.573203e+00    5.347857e-01   7.194506e-03
  3.575413e+00    5.503940e-01   7.312752e-03
  3.577624e+00    5.455793e-01   7.294911e-03
  3.579834e+00    5.393264e-01   7.266942e-03
  3.582045e+00    5.387664e-01   7.277232e-03
  3.584255e+00    5.423068e-01   7.315225e-03
  3.586465e+00    5.327502e-01   7.264415e-03
  3.588676e+00    5.109119e-01   7.127783e-03
  3.590886e+00    5.295534e-01   7.270298e-03
  3.593097e+00    5.441619e-01   7.384473e-03
  3.595307e+00    5.589470e-01   7.498371e-03
  3.597518e+00    5.412527e-01   7.393047e-03
  3.599728e+00    5.377952e-01   7.383483e-03
  3.601939e+00    5.576323e-01   7.532818e-03
  3.604149e+00    5.274276e-01   7.340212e-03
  3.606360e+00    5.415695e-01   7.452222e-03
  3.608570e+00    5.493877e-01   7.520180e-03
  3.610780e+00    5.371622e-01   7.447091e-03
  3.612991e+00    5.415946e-01   7.487857e-03
  3.615201e+00    5.296797e-01   7.414769e-03
  3.617412e+00    5.336872e-01   7.450027e-03
  3.619622e+00    5.390080e-01   7.493049e-03
  3.621833e+00    5.289170e-01   7.429245e-03
  3.624043e+00    5.485978e-01   7.575861e-03
  3.626254e+00    5.351664e-01   7.492257e-03
  3.628464e+00    5.252705e-01   7.433519e-03
  3.630675e+00    5.509790e-01   7.627617e-03
  3.632885e+00    5.351945e-01   7.532029e-03
  3.635095e+00    5.167943e-01   7.415607e-03
  3.637306e+00    5.134758e-01   7.405830e-03
  3.639516e+00    5.324485e-01   7.555916e-03
  3.641727e+00    5.207129e-01   7.486618e-03
  3.643937e+00    5.326444e-01   7.586408e-03
  3.646148e+00    5.388430e-01   7.645137e-03
  3.648358e+00    5.351934e-01   7.634072e-03
  3.650569e+00    5.303767e-01   7.614353e-03
  3.652779e+00    5.394347e-01   7.693960e-03
  3.654990e+00    5.427254e-01   7.732421e-03
  3.657200e+00    5.458227e-01   7.769523e-03
  3.659410e+00    5.480303e-01   7.800448e-03
  3.661621e+00    5.246703e-01   7.647362e-03
  3.663831e+00    5.241334e-01   7.658473e-03
  3.666042e+00    5.418619e-01   7.802177e-03
  3.668252e+00    5.605584e-01   7.951339e-03
  3.670463e+00    5.517023e-01   7.903813e-03
  3.672673e+00    5.253120e-01   7.727795e-03
  3.674884e+00    5.202957e-01   7.706054e-03
  3.677094e+00    5.288749e-01   7.784796e-03
  3.679305e+00    5.289539e-01   7.800946e-03
  3.681515e+00    5.289313e-01   7.816334e-03
  3.683726e+00    5.471368e-01   7.965778e-03
  3.685936e+00    5.319681e-01   7.870383e-03
  3.688146e+00    5.481127e-01   8.004935e-03
  3.690357e+00    5.534152e-01   8.059916e-03
  3.692567e+00    5.460890e-01   8.022796e-03
  3.694778e+00    5.333666e-01   7.944971e-03
  3.696988e+00    5.226308e-01   7.880530e-03
  3.699199e+00    5.151393e-01   7.839874e-03
  3.701409e+00    5.467365e-01   8.093469e-03
  3.703620e+00    5.439922e-01   8.089769e-03
  3.705830e+00    5.213681e-01   7.936104e-03
  3.708041e+00    5.176517e-01   7.924233e-03
  3.710251e+00    5.316913e-01   8.047823e-03
  3.712461e+00    5.221884e-01   7.992353e-03
  3.714672e+00    5.265391e-01   8.042322e-03
  3.716882e+00    5.246072e-01   8.044379e-03
  3.719093e+00    5.145556e-01   7.983942e-03
  3.721303e+00    5.306552e-01   8.125025e-03
  3.723514e+00    5.379270e-01   8.198099e-03
  3.725724e+00    5.379527e-01   8.215746e-03
  3.727935e+00    5.406329e-01   8.254074e-03
  3.730145e+00    5.244243e-01   8.146808e-03
  3.732356e+00    5.138740e-01   8.081960e-03
  3.734566e+00    5.036444e-01   8.018443e-03
  3.736776e+00    5.195867e-01   8.162232e-03
  3.738987e+00    5.012963e-01   8.034736e-03
  3.741197e+00    5.243924e-01   8.236003e-03
  3.743408e+00    4.897111e-01   7.976587e-03
  3.745618e+00    5.329954e-01   8.340305e-03
  3.747829e+00    5.229044e-01   8.279325e-03
  3.750039e+00    5.164049e-01   8.246111e-03
  3.752250e+00    5.074702e-01   8.192883e-03
  3.754460e+00    5.082379e-01   8.217616e-03
  3.756671e+00    5.076706e-01   8.231788e-03
  3.758881e+00    5.262402e-01   8.399908e-03
  3.761091e+00    5.122612e-01   8.306841e-03
  3.763302e+00    5.120695e-01   8.324438e-03
  3.765512e+00    4.941580e-01   8.196539e-03
  3.767723e+00    5.307575e-01   8.514407e-03
  3.769933e+00    5.187584e-01   8.437240e-03
  3.772144e+00    5.358123e-01   8.594942e-03
  3.774354e+00    5.154593e-01   8.450128e-03
  3.776565e+00    5.293865e-01   8.583860e-03
  3.778775e+00    5.091715e-01   8.438433e-03
  3.780986e+00    4.984923e-01   8.369648e-03
  3.783196e+00    5.113328e-01   8.497172e-03
  3.785407e+00    5.229394e-01   8.613884e-03
  3.787617e+00    5.087823e-01   8.517391e-03
  3.789827e+00    5.208752e-01   8.638874e-03
  3.792038e+00    5.100753e-01   8.569904e-03
  3.794248e+00    5.159689e-01   8.640707e-03
  3.796459e+00    5.035424e-01   8.557452e-03
  3.798669e+00    4.956746e-01   8.511559e-03
  3.800880e+00    5.305865e-01   8.828301e-03
  3.803090e+00    5.182272e-01   8.747119e-03
  3.805301e+00    5.053536e-01   8.659964e-03
  3.807511e+00    5.096764e-01   8.719154e-03
  3.809722e+00    5.070512e-01   8.719046e-03
  3.811932e+00    5.051427e-01   8.724985e-03
  3.814142e+00    4.858542e-01   8.579359e-03
  3.816353e+00    5.190685e-01   8.891055e-03
  3.818563e+00    5.005909e-01   8.754501e-03
  3.820774e+00    5.035281e-01   8.803403e-03
  3.822984e+00    5.337221e-01   9.087741e-03
  3.825195e+00    5.108018e-01   8.914513e-03
  3.827405e+00    5.284128e-01   9.091489e-03
  3.829616e+00    5.120416e-01   8.973925e-03
  3.831826e+00    5.265093e-01   9.124699e-03
  3.834037e+00    5.202392e-01   9.095315e-03
  3.836247e+00    4.949746e-01   8.896359e-03
  3.838457e+00    4.921228e-01   8.895543e-03
  3.840668e+00    5.159339e-01   9.133930e-03
  3.842878e+00    5.258980e-01   9.247971e-03
  3.845089e+00    5.257152e-01   9.272754e-03
  3.847299e+00    4.927179e-01   9.002703e-03
  3.849510e+00    5.011107e-01   9.105072e-03
  3.851720e+00    5.046935e-01   9.159205e-03
  3.853931e+00    5.020940e-01   9.154683e-03
  3.856141e+00    4.970842e-01   9.127996e-03
  3.858352e+00    4.949325e-01   9.127438e-03
  3.860562e+00    5.137593e-01   9.319108e-03
  3.862772e+00    5.051800e-01   9.260763e-03
  3.864983e+00    5.166171e-01   9.385188e-03
  3.867193e+00    5.113464e-01   9.357289e-03
  3.869404e+00    4.980787e-01   9.255017e-03
  3.871614e+00    5.057909e-01   9.346575e-03
  3.873825e+00    4.693729e-01   9.023716e-03
  3.876035e+00    4.704440e-01   9.054041e-03
  3.878246e+00    4.822965e-01   9.192859e-03
  3.880456e+00    5.041344e-01   9.427986e-03
  3.882667e+00    4.991540e-01   9.410931e-03
  3.884877e+00    4.764830e-01   9.224011e-03
  3.887087e+00    4.753458e-01   9.242354e-03
  3.889298e+00    5.076308e-01   9.581997e-03
  3.891508e+00    4.915378e-01   9.459439e-03
  3.893719e+00    4.898941e-01   9.474573e-03
  3.895929e+00    4.999613e-01   9.603105e-03
  3.898140e+00    4.944772e-01   9.582215e-03
  3.900350e+00    4.922439e-01   9.592636e-03
  3.902561e+00    4.825185e-01   9.529610e-03
  3.904771e+00    4.889628e-01   9.625722e-03
  3.906982e+00    5.003428e-01   9.770664e-03
  3.909192e+00    4.973458e-01   9.775148e-03
  3.911403e+00    4.856810e-01   9.693644e-03
  3.913613e+00    5.214754e-01   1.007998e-02
  3.915823e+00    5.030267e-01   9.935393e-03
  3.918034e+00    4.948534e-01   9.889785e-03
  3.920244e+00    5.053166e-01   1.003017e-02
  3.922455e+00    4.971392e-01   9.985107e-03
  3.924665e+00    4.811533e-01   9.859473e-03
  3.926876e+00    4.806436e-01   9.890949e-03
  3.929086e+00    5.117800e-01   1.024465e-02
  3.931297e+00    5.091614e-01   1.025392e-02
  3.933507e+00    5.226369e-01   1.041874e-02
  3.935718e+00    5.227290e-01   1.044948e-02
  3.937928e+00    4.991880e-01   1.024124e-02
  3.940138e+00    4.813266e-01   1.008542e-02
  3.942349e+00    4.899946e-01   1.020589e-02
  3.944559e+00    4.958518e-01   1.029688e-02
  3.946770e+00    4.966314e-01   1.033560e-02
  3.948980e+00    4.802886e-01   1.019448e-02
  3.951191e+00    4.898611e-01   1.032662e-02
  3.953401e+00    4.751425e-01   1.020122e-02
  3.955612e+00    4.909419e-01   1.040130e-02
  3.957822e+00    4.823529e-01   1.034147e-02
  3.960033e+00    5.014958e-01   1.057777e-02
  3.962243e+00    4.764313e-01   1.034259e-02
  3.964453e+00    4.969666e-01   1.059664e-02
  3.966664e+00    4.855622e-01   1.050775e-02
  3.968874e+00    4.917727e-01   1.060327e-02
  3.971085e+00    5.149340e-01   1.087272e-02
  3.973295e+00    4.616694e-01   1.031598e-02
  3.975506e+00    4.917618e-01   1.066856e-02
  3.977716e+00    4.991594e-01   1.077089e-02
  3.979927e+00    4.821052e-01   1.060735e-02
  3.982137e+00    4.792651e-01   1.059814e-02
  3.984348e+00    4.850163e-01   1.068413e-02
  3.986558e+00    4.780722e-01   1.062955e-02
  3.988768e+00    4.474892e-01   1.030602e-02
  3.990979e+00    4.853546e-01   1.075586e-02
  3.993189e+00    5.096574e-01   1.104561e-02
  3.995400e+00    4.773939e-01   1.071372e-02
  3.997610e+00    4.679369e-01   1.063619e-02
  3.999821e+00    4.827984e-01   1.084126e-02
  4.002031e+00    4.955042e-01   1.102182e-02
  4.004242e+00    4.540780e-01   1.058838e-02
  4.006452e+00    4.642342e-01   1.074448e-02
  4.008663e+00    5.057169e-01   1.125514e-02
  4.010873e+00    5.060415e-01   1.129976e-02
  4.013084e+00    4.876283e-01   1.113318e-02
  4.015294e+00    5.143462e-01   1.147647e-02
  4.017504e+00    4.807003e-01   1.113640e-02
  4.019715e+00    4.658996e-01   1.100539e-02
  4.021925e+00    4.710998e-01   1.110884e-02
  4.024136e+00    4.684244e-01   1.112043e-02
  4.026346e+00    4.628885e-01   1.109757e-02
  4.028557e+00    4.694360e-01   1.121941e-02
  4.030767e+00    5.260090e-01   1.192392e-02
  4.032978e+00    4.785327e-01   1.141904e-02
  4.035188e+00    4.841469e-01   1.153219e-02
  4.037399e+00    4.865014e-01   1.160775e-02
  4.039609e+00    4.856528e-01   1.164564e-02
  4.041819e+00    4.883357e-01   1.172662e-02
  4.044030e+00    5.121312e-01   1.206034e-02
  4.046240e+00    4.660679e-01   1.155424e-02
  4.048451e+00    4.624454e-01   1.155896e-02
  4.050661e+00    4.745836e-01   1.176082e-02
  4.052872e+00    4.772327e-01   1.184583e-02
  4.055082e+00    5.065005e-01   1.225872e-02
  4.057293e+00    4.521128e-01   1.163377e-02
  4.059503e+00    4.667534e-01   1.187442e-02
  4.061714e+00    4.672185e-01   1.193598e-02
  4.063924e+00    4.795659e-01   1.214923e-02
  4.066134e+00    4.982732e-01   1.244212e-02
  4.068345e+00    4.682913e-01   1.212030e-02
  4.070555e+00    4.745852e-01   1.226026e-02
  4.072766e+00    4.899545e-01   1.251847e-02
  4.074976e+00    4.624884e-01   1.222330e-02
  4.077187e+00    4.873755e-01   1.261012e-02
  4.079397e+00    4.708031e-01   1.245724e-02
  4.081608e+00    5.014746e-01   1.292345e-02
  4.083818e+00    4.991944e-01   1.296104e-02
  4.086029e+00    4.858286e-01   1.285401e-02
  4.088239e+00    4.582462e-01   1.255084e-02
  4.090449e+00    4.404594e-01   1.237151e-02
  4.092660e+00    4.747119e-01   1.291433e-02
  4.094870e+00    4.773938e-01   1.302266e-02
  4.097081e+00    4.472933e-01   1.267451e-02
  4.099291e+00    5.091527e-01   1.357862e-02
  4.101502e+00    4.900368e-01   1.337102e-02
  4.103712e+00    4.933226e-01   1.346556e-02
  4.105923e+00    4.815848e-01   1.335607e-02
  4.108133e+00    4.832989e-01   1.343129e-02
  4.110344e+00    4.440899e-01   1.292435e-02
  4.112554e+00    4.709027e-01   1.336117e-02
  4.114764e+00    5.206613e-01   1.410581e-02
  4.116975e+00    5.376036e-01   1.439004e-02
  4.119185e+00    4.676358e-01   1.347581e-02
  4.121396e+00    4.441780e-01   1.318723e-02
  4.123606e+00    4.935631e-01   1.395818e-02
  4.125817e+00    4.978566e-01   1.407754e-02
  4.128027e+00    5.274553e-01   1.455105e-02
  4.130238e+00    5.322722e-01   1.468005e-02
  4.132448e+00    4.883197e-01   1.412188e-02
  4.134659e+00    5.046942e-01   1.441846e-02
  4.136869e+00    5.287985e-01   1.482465e-02
  4.139080e+00    4.741629e-01   1.410100e-02
  4.141290e+00    4.986520e-01   1.452495e-02
  4.143500e+00    4.864159e-01   1.441144e-02
  4.145711e+00    5.020170e-01   1.470941e-02
  4.147921e+00    4.548651e-01   1.406566e-02
  4.150132e+00    4.854943e-01   1.460081e-02
  4.152342e+00    4.638169e-01   1.434043e-02
  4.154553e+00    5.149985e-01   1.518263e-02
  4.156763e+00    4.803081e-01   1.473509e-02
  4.158974e+00    5.101376e-01   1.526209e-02
  4.161184e+00    4.424584e-01   1.428430e-02
  4.163395e+00    4.673702e-01   1.475545e-02
  4.165605e+00    5.206257e-01   1.565467e-02
  4.167815e+00    5.423369e-01   1.606116e-02
  4.170026e+00    4.728117e-01   1.507544e-02
  4.172236e+00    4.108752e-01   1.412934e-02
  4.174447e+00    4.089884e-01   1.417354e-02
  4.176657e+00    4.909781e-01   1.561389e-02
  4.178868e+00    5.218333e-01   1.618871e-02
  4.181078e+00    4.412289e-01   1.496956e-02
  4.183289e+00    4.571311e-01   1.532425e-02
  4.185499e+00    5.166447e-01   1.638735e-02
  4.187710e+00    5.242554e-01   1.660440e-02
  4.189920e+00    4.961707e-01   1.625079e-02
  4.192130e+00    4.915386e-01   1.627351e-02
  4.194341e+00    5.437934e-01   1.722172e-02
  4.196551e+00    4.445208e-01   1.566919e-02
  4.198762e+00    4.784579e-01   1.635963e-02
  4.200972e+00    4.623055e-01   1.618502e-02
  4.203183e+00    4.635507e-01   1.631364e-02
  4.205393e+00    5.144826e-01   1.730103e-02
  4.207604e+00    4.855037e-01   1.692137e-02
  4.209814e+00    5.510787e-01   1.815141e-02
  4.212025e+00    4.622896e-01   1.674306e-02
  4.214235e+00    4.639711e-01   1.689229e-02
  4.216445e+00    4.934897e-01   1.754705e-02
  4.218656e+00    4.542806e-01   1.696190e-02
  4.220866e+00    5.617713e-01   1.900181e-02
  4.223077e+00    4.841083e-01   1.777560e-02
  4.225287e+00    4.625801e-01   1.751194e-02
  4.227498e+00    5.170855e-01   1.866051e-02
  4.229708e+00    5.094147e-01   1.867217e-02
  4.231919e+00    4.422879e-01   1.754236e-02
  4.234129e+00    5.000722e-01   1.880943e-02
  4.236340e+00    4.800615e-01   1.858725e-02
  4.238550e+00    4.537172e-01   1.822942e-02
  4.240761e+00    5.147625e-01   1.958868e-02
  4.242971e+00    4.078668e-01   1.759607e-02
  4.245181e+00    4.845101e-01   1.935863e-02
  4.247392e+00    4.597657e-01   1.903364e-02
  4.249602e+00    5.480191e-01   2.098721e-02
  4.251813e+00    5.243905e-01   2.073197e-02
  4.254023e+00    4.175419e-01   1.868632e-02
  4.256234e+00    4.549986e-01   1.971434e-02
  4.258444e+00    4.822788e-01   2.050949e-02
  4.260655e+00    4.562023e-01   2.016654e-02
  4.262865e+00    4.226821e-01   1.963180e-02
  4.265076e+00    4.395704e-01   2.024764e-02
  4.267286e+00    4.833920e-01   2.148498e-02
  4.269496e+00    4.039946e-01   1.988118e-02
  4.271707e+00    4.083403e-01   2.023431e-02
  4.273917e+00    4.456279e-01   2.141163e-02
  4.276128e+00    4.441481e-01   2.165937e-02
  4.278338e+00    4.532246e-01   2.217254e-02
  4.280549e+00    4.290829e-01   2.188268e-02
  4.282759e+00    5.670101e-01   2.551681e-02
  4.284970e+00    5.681869e-01   2.592165e-02
  4.287180e+00    5.237169e-01   2.518462e-02
  4.289391e+00    4.682324e-01   2.399253e-02
  4.291601e+00    4.846452e-01   2.460326e-02
  4.293811e+00    5.499635e-01   2.641463e-02
  4.296022e+00    4.908788e-01   2.515567e-02
  4.298232e+00    5.533535e-01   2.693218e-02
  4.300443e+00    4.575896e-01   2.469360e-02
  4.302653e+00    4.275541e-01   2.407541e-02
  4.304864e+00    5.757271e-01   2.817969e-02
  4.307074e+00    4.993594e-01   2.648067e-02
  4.309285e+00    5.001914e-01   2.674273e-02
  4.311495e+00    5.120788e-01   2.731200e-02
  4.313706e+00    4.960973e-01   2.713504e-02
  4.315916e+00    5.206981e-01   2.807320e-02
  4.318126e+00    4.704516e-01   2.694893e-02
  4.320337e+00    4.455582e-01   2.649127e-02
  4.322547e+00    5.044982e-01   2.848775e-02
  4.324758e+00    4.512019e-01   2.722070e-02
  4.326968e+00    5.998560e-01   3.173998e-02
  4.329179e+00    5.584694e-01   3.096328e-02
  4.331389e+00    4.034468e-01   2.662067e-02
  4.333600e+00    3.742197e-01   2.594471e-02
  4.335810e+00    4.880068e-01   2.997872e-02
  4.338021e+00    4.722354e-01   2.986893e-02
  4.340231e+00    4.600596e-01   2.985100e-02
  4.342442e+00    4.760176e-01   3.077157e-02
  4.344652e+00    3.970680e-01   2.848578e-02
  4.346862e+00    4.240443e-01   2.984983e-02
  4.349073e+00    5.563235e-01   3.468771e-02
  4.351283e+00    3.669304e-01   2.859270e-02
  4.353494e+00    4.500343e-01   3.215292e-02
  4.355704e+00    4.000714e-01   3.080577e-02
  4.357915e+00    3.668414e-01   2.998833e-02
  4.360125e+00    3.775046e-01   3.094061e-02
  4.362336e+00    5.029006e-01   3.636212e-02
  4.364546e+00    3.932076e-01   3.273921e-02
  4.366757e+00    5.545835e-01   3.965250e-02
  4.368967e+00    4.600910e-01   3.683995e-02
  4.371177e+00    4.938522e-01   3.897692e-02
  4.373388e+00    5.030895e-01   4.022036e-02
  4.375598e+00    4.197683e-01   3.757685e-02
  4.377809e+00    4.820858e-01   4.128714e-02
  4.380019e+00    4.409426e-01   4.048083e-02
  4.382230e+00    4.196486e-01   4.059430e-02
  4.384440e+00    2.755171e-01   3.383889e-02
  4.386651e+00    3.082834e-01   3.689671e-02
  4.388861e+00    4.017709e-01   4.353509e-02
  4.391072e+00    4.926496e-01   4.990035e-02
  4.393282e+00    4.213912e-01   4.793688e-02
  4.395492e+00    3.947030e-01   4.832156e-02
  4.397703e+00    2.335866e-01   3.887168e-02
  4.399913e+00    4.470665e-01   5.650048e-02
  4.402124e+00    3.559603e-01   5.326990e-02
  4.404334e+00    5.447003e-01   7.005329e-02
  4.406545e+00    1.634582e-01   4.123945e-02
  4.408755e+00    1.794977e-01   4.684991e-02
  4.410966e+00    4.163707e-01   7.898562e-02
  4.413176e+00    8.414248e-02   4.020305e-02
  4.415387e+00   -6.437674e-01            nan
  4.417597e+00   -1.979468e+00            nan
  4.419807e+00    1.372970e-01   1.330704e-01
