# == pyFAI calibration ==
# Distance Sample to Detector: 0.216 m
# PONI: 1.166e-01, 1.308e-01 m
# Rotations: 0.000000 0.000000 0.000000 rad
# 
# == Fit2d calibration ==
# Distance Sample-beamCenter: 216.000 mm
# Center: x=1744.293, y=1555.000 pix
# Tilt: 0.000 deg  TiltPlanRot: 0.000 deg
# 
# Detector Eiger 9M	 PixelSize= 7.500e-05, 7.500e-05 m
#    Detector has a mask: True 
#    Detector has a dark current: False 
#    detector has a flat field: False 
# 
# Wavelength: 9.8e-11 m
# Mask applied: from detector
# Dark current applied: False
# Flat field applied: False
# Polarization factor: None
# Normalization factor: 1.0
# 
# Headers of the input frame:
# {
# "_array_data.header_convention": "SLS_1.0",
# "_array_data.header_contents": "# Detector: Dectris Eiger 9M, S/N E-18-0102\r\n# Pixel_size 75e-6 m x 75e-6 m\r\n# Silicon sensor, thickness 0.000450 m\r\n# Exposure_time 0.024997 s\r\n# Exposure_period 0.025000 s\r\n# Count_cutoff 62318 counts\r\n# Wavelength 0.980106 A\r\n# Detector_distance 0.215992 m\r\n# Beam_xy (1555, 1744) pixels\r\n# Start_angle 0.000000 deg.\r\n# Angle_increment 0.000000 deg.",
# "Content-Type": "application/octet-stream;",
# "conversions": "x-CBF_BYTE_OFFSET",
# "Content-Transfer-Encoding": "BINARY",
# "X-Binary-Size": "10166608",
# "X-Binary-ID": "1",
# "X-Binary-Element-Type": "signed 32-bit integer",
# "X-Binary-Element-Byte-Order": "LITTLE_ENDIAN",
# "Content-MD5": "D++/cwW/4ky/DlwfwRJomQ==",
# "X-Binary-Number-of-Elements": "10166590",
# "X-Binary-Size-Fastest-Dimension": "3110",
# "X-Binary-Size-Second-Dimension": "3269",
# "X-Binary-Size-Padding": "4095"
# }
# --> H:/Proxima2a_2019-04-05/RAW_DATA/C5_gel17_position5/C5_mesh_1_data.cbf/C5_mesh_1_data.cbf000042.dat
#        q_A^-1              I           sigma 
  1.105228e-03    2.481070e+00   8.523274e-01
  3.315685e-03    1.766437e+00   4.372145e-01
  5.526141e-03    1.430915e+00   3.042839e-01
  7.736597e-03    1.503622e+00   2.635054e-01
  9.947054e-03    1.321353e+00   2.177639e-01
  1.215751e-02    1.515421e+00   2.108799e-01
  1.436797e-02    1.324448e+00   1.813398e-01
  1.657842e-02    1.553582e+00   1.828148e-01
  1.878888e-02    1.381025e+00   1.619065e-01
  2.099934e-02    1.398134e+00   1.541262e-01
  2.320979e-02    1.455034e+00   1.495441e-01
  2.542025e-02    1.376632e+00   1.390011e-01
  2.763070e-02    1.410398e+00   1.349464e-01
  2.984116e-02    1.474566e+00   1.327726e-01
  3.205162e-02    1.426567e+00   1.260179e-01
  3.426207e-02    1.379539e+00   1.198511e-01
  3.647253e-02    1.548512e+00   1.230685e-01
  3.868299e-02    1.442152e+00   1.153323e-01
  4.089344e-02    1.410174e+00   1.109218e-01
  4.310390e-02    1.453946e+00   1.096978e-01
  4.531436e-02    1.531558e+00   1.098077e-01
  4.752481e-02    1.410756e+00   1.029070e-01
  4.973527e-02    1.418277e+00   1.008631e-01
  5.194572e-02    1.399352e+00   9.803168e-02
  5.415618e-02    1.442384e+00   9.747183e-02
  5.636664e-02    1.447697e+00   9.572033e-02
  5.857709e-02    1.311750e+00   8.937997e-02
  6.078755e-02    1.428766e+00   9.156676e-02
  6.299801e-02    1.489495e+00   9.183665e-02
  6.520846e-02    1.488595e+00   9.023997e-02
  6.741892e-02    1.537199e+00   9.018097e-02
  6.962938e-02    1.571081e+00   8.971513e-02
  7.183983e-02    1.519989e+00   8.687451e-02
  7.405029e-02    1.496745e+00   8.490928e-02
  7.626074e-02    1.526976e+00   8.450967e-02
  7.847120e-02    1.501621e+00   8.261409e-02
  8.068166e-02    1.490020e+00   8.115855e-02
  8.289211e-02    1.507027e+00   8.052436e-02
  8.510257e-02    1.439876e+00   7.768048e-02
  8.731303e-02    1.556715e+00   7.973873e-02
  8.952348e-02    1.524822e+00   7.793942e-02
  9.173394e-02    1.377802e+00   7.318589e-02
  9.394439e-02    1.426384e+00   7.358130e-02
  9.615485e-02    1.560421e+00   7.606950e-02
  9.836531e-02    1.599249e+00   7.613782e-02
  1.005758e-01    1.599482e+00   7.530247e-02
  1.027862e-01    1.623034e+00   7.503288e-02
  1.049967e-01    1.637891e+00   7.457659e-02
  1.072071e-01    1.479077e+00   7.013362e-02
  1.094176e-01    1.506925e+00   7.007099e-02
  1.116280e-01    1.466857e+00   6.844372e-02
  1.138385e-01    1.513265e+00   6.883840e-02
  1.160490e-01    1.563356e+00   6.929804e-02
  1.182594e-01    1.516469e+00   6.760863e-02
  1.204699e-01    1.541555e+00   6.753676e-02
  1.226803e-01    1.516799e+00   6.638323e-02
  1.248908e-01    1.541423e+00   6.632426e-02
  1.271012e-01    1.520559e+00   6.529726e-02
  1.293117e-01    1.569364e+00   6.576664e-02
  1.315222e-01    1.588242e+00   6.560116e-02
  1.337326e-01    1.616441e+00   6.563046e-02
  1.359431e-01    1.677068e+00   6.688907e-02
  1.381535e-01    1.631089e+00   6.685124e-02
  1.403640e-01    1.531589e+00   6.505983e-02
  1.425744e-01    1.479792e+00   6.405237e-02
  1.447849e-01    1.533467e+00   6.521870e-02
  1.469953e-01    1.590942e+00   6.638806e-02
  1.492058e-01    1.578532e+00   6.605180e-02
  1.514163e-01    1.586932e+00   6.611731e-02
  1.536267e-01    1.596964e+00   6.619649e-02
  1.558372e-01    1.636917e+00   6.687145e-02
  1.580476e-01    1.663478e+00   6.724823e-02
  1.602581e-01    1.719782e+00   6.820320e-02
  1.624685e-01    1.637752e+00   6.637453e-02
  1.646790e-01    1.621192e+00   6.584846e-02
  1.668895e-01    1.739545e+00   6.801272e-02
  1.690999e-01    1.758118e+00   6.816953e-02
  1.713104e-01    1.766524e+00   6.812025e-02
  1.735208e-01    1.828903e+00   6.909699e-02
  1.757313e-01    1.878834e+00   6.981438e-02
  1.779417e-01    1.914091e+00   7.023654e-02
  1.801522e-01    1.925334e+00   7.021817e-02
  1.823626e-01    1.926883e+00   7.001255e-02
  1.845731e-01    1.912159e+00   6.951863e-02
  1.867836e-01    1.985790e+00   7.060536e-02
  1.889940e-01    1.892287e+00   6.869785e-02
  1.912045e-01    1.949096e+00   6.948857e-02
  1.934149e-01    1.964136e+00   6.952273e-02
  1.956254e-01    1.893976e+00   6.804456e-02
  1.978358e-01    1.960095e+00   6.898485e-02
  2.000463e-01    1.957830e+00   6.871656e-02
  2.022568e-01    1.917518e+00   6.778219e-02
  2.044672e-01    1.966911e+00   6.841446e-02
  2.066777e-01    1.983017e+00   6.846599e-02
  2.088881e-01    1.986560e+00   6.830294e-02
  2.110986e-01    1.912383e+00   6.678580e-02
  2.133090e-01    1.941982e+00   6.708185e-02
  2.155195e-01    2.006128e+00   6.795461e-02
  2.177300e-01    2.076685e+00   6.859611e-02
  2.199404e-01    2.016846e+00   6.581938e-02
  2.221509e-01    1.968857e+00   6.396372e-02
  2.243613e-01    2.012406e+00   6.384746e-02
  2.265718e-01    1.990229e+00   6.279482e-02
  2.287822e-01    1.986256e+00   6.211122e-02
  2.309927e-01    2.021377e+00   6.208711e-02
  2.332031e-01    2.176433e+00   6.387301e-02
  2.354136e-01    2.181134e+00   6.342375e-02
  2.376241e-01    2.140103e+00   6.233671e-02
  2.398345e-01    2.175552e+00   6.238572e-02
  2.420450e-01    2.157197e+00   6.167804e-02
  2.442554e-01    2.067550e+00   5.996686e-02
  2.464659e-01    2.111672e+00   6.019643e-02
  2.486763e-01    2.156168e+00   6.042752e-02
  2.508868e-01    2.152837e+00   5.999993e-02
  2.530973e-01    2.103183e+00   5.893628e-02
  2.553077e-01    2.133936e+00   5.900550e-02
  2.575182e-01    2.148587e+00   5.885741e-02
  2.597286e-01    2.150524e+00   5.854166e-02
  2.619391e-01    2.131002e+00   5.793983e-02
  2.641495e-01    2.097310e+00   5.716184e-02
  2.663600e-01    2.050162e+00   5.620492e-02
  2.685704e-01    2.009841e+00   5.534777e-02
  2.707809e-01    2.087825e+00   5.611192e-02
  2.729914e-01    2.005601e+00   5.470930e-02
  2.752018e-01    2.087775e+00   5.552830e-02
  2.774123e-01    2.069746e+00   5.500563e-02
  2.796227e-01    2.025552e+00   5.414601e-02
  2.818332e-01    2.071905e+00   5.448889e-02
  2.840436e-01    2.028681e+00   5.365616e-02
  2.862541e-01    1.989245e+00   5.287666e-02
  2.884646e-01    1.994049e+00   5.268922e-02
  2.906750e-01    2.075297e+00   5.349706e-02
  2.928855e-01    2.014951e+00   5.246929e-02
  2.950959e-01    1.960777e+00   5.152137e-02
  2.973064e-01    2.009629e+00   5.192481e-02
  2.995168e-01    1.968972e+00   5.116409e-02
  3.017273e-01    1.950446e+00   5.069834e-02
  3.039377e-01    1.949219e+00   5.046044e-02
  3.061482e-01    1.903241e+00   4.964607e-02
  3.083587e-01    1.886129e+00   4.920846e-02
  3.105691e-01    1.940467e+00   4.969906e-02
  3.127796e-01    1.902481e+00   4.900331e-02
  3.149900e-01    1.971355e+00   4.967462e-02
  3.172005e-01    1.902812e+00   4.860385e-02
  3.194109e-01    1.893893e+00   4.828962e-02
  3.216214e-01    1.911514e+00   4.831578e-02
  3.238319e-01    1.961564e+00   4.875034e-02
  3.260423e-01    1.901244e+00   4.780374e-02
  3.282528e-01    1.875830e+00   4.729416e-02
  3.304632e-01    1.827854e+00   4.650457e-02
  3.326737e-01    1.940989e+00   4.773518e-02
  3.348841e-01    1.906673e+00   4.712787e-02
  3.370946e-01    1.910391e+00   4.699632e-02
  3.393050e-01    1.856381e+00   4.615173e-02
  3.415155e-01    1.855337e+00   4.596526e-02
  3.437260e-01    1.863381e+00   4.589408e-02
  3.459364e-01    1.789282e+00   4.480595e-02
  3.481469e-01    1.802311e+00   4.480463e-02
  3.503573e-01    1.785591e+00   4.443387e-02
  3.525678e-01    1.862455e+00   4.521843e-02
  3.547782e-01    1.836373e+00   4.473841e-02
  3.569887e-01    1.831065e+00   4.451542e-02
  3.591992e-01    1.850468e+00   4.459230e-02
  3.614096e-01    1.813506e+00   4.399166e-02
  3.636201e-01    1.808877e+00   4.378108e-02
  3.658305e-01    1.802040e+00   4.354919e-02
  3.680410e-01    1.833891e+00   4.378128e-02
  3.702514e-01    1.796398e+00   4.318570e-02
  3.724619e-01    1.767635e+00   4.269269e-02
  3.746724e-01    1.747804e+00   4.231087e-02
  3.768828e-01    1.790091e+00   4.267558e-02
  3.790933e-01    1.743985e+00   4.198516e-02
  3.813037e-01    1.801707e+00   4.253469e-02
  3.835142e-01    1.776890e+00   4.210201e-02
  3.857246e-01    1.761554e+00   4.178425e-02
  3.879351e-01    1.777686e+00   4.183928e-02
  3.901455e-01    1.833738e+00   4.235849e-02
  3.923560e-01    1.799567e+00   4.182861e-02
  3.945665e-01    1.752374e+00   4.114560e-02
  3.967769e-01    1.758566e+00   4.108912e-02
  3.989874e-01    1.863686e+00   4.216729e-02
  4.011978e-01    1.819597e+00   4.153745e-02
  4.034083e-01    1.787377e+00   4.104163e-02
  4.056187e-01    1.817744e+00   4.126131e-02
  4.078292e-01    1.818071e+00   4.114016e-02
  4.100397e-01    1.787138e+00   4.066412e-02
  4.122501e-01    1.773473e+00   4.038716e-02
  4.144606e-01    1.805899e+00   4.063385e-02
  4.166710e-01    1.851384e+00   4.102005e-02
  4.188815e-01    1.864519e+00   4.104373e-02
  4.210919e-01    1.866099e+00   4.094077e-02
  4.233024e-01    1.808589e+00   4.018642e-02
  4.255128e-01    1.839059e+00   4.040638e-02
  4.277233e-01    1.862107e+00   4.054197e-02
  4.299338e-01    1.858256e+00   4.038350e-02
  4.321442e-01    1.823442e+00   3.988895e-02
  4.343547e-01    1.812375e+00   3.965526e-02
  4.365651e-01    1.835740e+00   3.979668e-02
  4.387756e-01    1.764583e+00   3.890851e-02
  4.409860e-01    1.770669e+00   3.886756e-02
  4.431965e-01    1.743144e+00   3.845764e-02
  4.454070e-01    1.748852e+00   3.841337e-02
  4.476174e-01    1.774433e+00   3.858707e-02
  4.498279e-01    1.753712e+00   3.825673e-02
  4.520383e-01    1.713861e+00   3.771579e-02
  4.542488e-01    1.717701e+00   3.765618e-02
  4.564592e-01    1.761491e+00   3.803086e-02
  4.586697e-01    1.740102e+00   3.769894e-02
  4.608801e-01    1.690254e+00   3.705552e-02
  4.630906e-01    1.702988e+00   3.709634e-02
  4.653011e-01    1.769495e+00   3.771433e-02
  4.675115e-01    1.790756e+00   3.784031e-02
  4.697220e-01    1.763594e+00   3.745393e-02
  4.719324e-01    1.731395e+00   3.701445e-02
  4.741429e-01    1.701589e+00   3.659992e-02
  4.763533e-01    1.700190e+00   3.649106e-02
  4.785638e-01    1.757266e+00   3.700269e-02
  4.807743e-01    1.675743e+00   3.604230e-02
  4.829847e-01    1.669558e+00   3.588482e-02
  4.851952e-01    1.684671e+00   3.595567e-02
  4.874056e-01    1.652077e+00   3.551636e-02
  4.896161e-01    1.646918e+00   3.537292e-02
  4.918265e-01    1.688990e+00   3.573293e-02
  4.940370e-01    1.739819e+00   3.617708e-02
  4.962475e-01    1.747570e+00   3.616806e-02
  4.984579e-01    1.706977e+00   3.565744e-02
  5.006684e-01    1.678624e+00   3.527383e-02
  5.028788e-01    1.709851e+00   3.551416e-02
  5.050893e-01    1.683059e+00   3.514913e-02
  5.072997e-01    1.690793e+00   3.514470e-02
  5.095102e-01    1.684681e+00   3.499710e-02
  5.117206e-01    1.691330e+00   3.498271e-02
  5.139311e-01    1.675924e+00   3.474061e-02
  5.161416e-01    1.653729e+00   3.442825e-02
  5.183520e-01    1.652897e+00   3.433780e-02
  5.205625e-01    1.631208e+00   3.403184e-02
  5.227729e-01    1.684481e+00   3.450243e-02
  5.249834e-01    1.722782e+00   3.481149e-02
  5.271938e-01    1.684760e+00   3.434487e-02
  5.294043e-01    1.763513e+00   3.505731e-02
  5.316148e-01    1.784845e+00   3.518794e-02
  5.338252e-01    1.772107e+00   3.498203e-02
  5.360357e-01    1.710293e+00   3.428826e-02
  5.382461e-01    1.739360e+00   3.450022e-02
  5.404566e-01    1.766509e+00   3.468931e-02
  5.426670e-01    1.787003e+00   3.481134e-02
  5.448775e-01    1.751014e+00   3.438206e-02
  5.470879e-01    1.745381e+00   3.425014e-02
  5.492984e-01    1.762848e+00   3.434455e-02
  5.515089e-01    1.778410e+00   3.441930e-02
  5.537193e-01    1.805724e+00   3.460620e-02
  5.559298e-01    1.791434e+00   3.439341e-02
  5.581402e-01    1.783720e+00   3.424427e-02
  5.603507e-01    1.794654e+00   3.427432e-02
  5.625611e-01    1.823743e+00   3.447599e-02
  5.647716e-01    1.795038e+00   3.412933e-02
  5.669821e-01    1.819414e+00   3.428622e-02
  5.691925e-01    1.773808e+00   3.378111e-02
  5.714030e-01    1.766503e+00   3.363960e-02
  5.736134e-01    1.701342e+00   3.294312e-02
  5.758239e-01    1.721266e+00   3.306472e-02
  5.780343e-01    1.740869e+00   3.318212e-02
  5.802448e-01    1.749339e+00   3.319314e-02
  5.824552e-01    1.682779e+00   3.248721e-02
  5.846657e-01    1.664072e+00   3.223881e-02
  5.868762e-01    1.658804e+00   3.212070e-02
  5.890866e-01    1.648511e+00   3.195449e-02
  5.912971e-01    1.623841e+00   3.164880e-02
  5.935075e-01    1.672736e+00   3.205537e-02
  5.957180e-01    1.640383e+00   3.167874e-02
  5.979284e-01    1.658115e+00   3.178447e-02
  6.001389e-01    1.629380e+00   3.144370e-02
  6.023494e-01    1.689107e+00   3.194979e-02
  6.045598e-01    1.704557e+00   3.203027e-02
  6.067703e-01    1.656863e+00   3.151548e-02
  6.089807e-01    1.660539e+00   3.148696e-02
  6.111912e-01    1.697644e+00   3.177325e-02
  6.134016e-01    1.688689e+00   3.162613e-02
  6.156121e-01    1.664011e+00   3.133179e-02
  6.178226e-01    1.678108e+00   3.140193e-02
  6.200330e-01    1.677348e+00   3.133290e-02
  6.222435e-01    1.710388e+00   3.157729e-02
  6.244539e-01    1.726233e+00   3.166112e-02
  6.266644e-01    1.731358e+00   3.164623e-02
  6.288748e-01    1.703891e+00   3.133310e-02
  6.310853e-01    1.734061e+00   3.154791e-02
  6.332957e-01    1.730169e+00   3.145164e-02
  6.355062e-01    1.731287e+00   3.140069e-02
  6.377167e-01    1.711365e+00   3.115960e-02
  6.399271e-01    1.698683e+00   3.098444e-02
  6.421376e-01    1.713203e+00   3.105719e-02
  6.443480e-01    1.705126e+00   3.092496e-02
  6.465585e-01    1.661297e+00   3.046710e-02
  6.487689e-01    1.681888e+00   3.059743e-02
  6.509794e-01    1.672046e+00   3.045024e-02
  6.531899e-01    1.697115e+00   3.061998e-02
  6.554003e-01    1.621544e+00   2.987421e-02
  6.576108e-01    1.630251e+00   2.989851e-02
  6.598212e-01    1.630448e+00   2.984478e-02
  6.620317e-01    1.606224e+00   2.956732e-02
  6.642421e-01    1.646845e+00   2.988348e-02
  6.664526e-01    1.608036e+00   2.947487e-02
  6.686630e-01    1.611827e+00   2.945502e-02
  6.708735e-01    1.635365e+00   2.961489e-02
  6.730840e-01    1.619867e+00   2.942050e-02
  6.752944e-01    1.605844e+00   2.923960e-02
  6.775049e-01    1.603086e+00   2.916145e-02
  6.797153e-01    1.642960e+00   2.946840e-02
  6.819258e-01    1.662000e+00   2.958524e-02
  6.841362e-01    1.631779e+00   2.926231e-02
  6.863467e-01    1.620162e+00   2.910572e-02
  6.885572e-01    1.608859e+00   2.895205e-02
  6.907676e-01    1.629165e+00   2.908198e-02
  6.929781e-01    1.638556e+00   2.911383e-02
  6.951885e-01    1.600122e+00   2.871943e-02
  6.973990e-01    1.571018e+00   2.840670e-02
  6.996094e-01    1.631152e+00   2.889434e-02
  7.018199e-01    1.608130e+00   2.863936e-02
  7.040303e-01    1.587803e+00   2.840781e-02
  7.062408e-01    1.596322e+00   2.843400e-02
  7.084513e-01    1.570120e+00   2.815064e-02
  7.106617e-01    1.599586e+00   2.836417e-02
  7.128722e-01    1.617862e+00   2.847639e-02
  7.150826e-01    1.619655e+00   2.844308e-02
  7.172931e-01    1.577718e+00   2.802404e-02
  7.195035e-01    1.569008e+00   2.789852e-02
  7.217140e-01    1.561595e+00   2.788177e-02
  7.239245e-01    1.582923e+00   2.829886e-02
  7.261349e-01    1.600858e+00   2.856825e-02
  7.283454e-01    1.590280e+00   2.854647e-02
  7.305558e-01    1.568176e+00   2.840127e-02
  7.327663e-01    1.560879e+00   2.837742e-02
  7.349767e-01    1.544130e+00   2.824099e-02
  7.371872e-01    1.568052e+00   2.844772e-02
  7.393976e-01    1.596358e+00   2.868900e-02
  7.416081e-01    1.571630e+00   2.844977e-02
  7.438186e-01    1.572526e+00   2.831365e-02
  7.460290e-01    1.540037e+00   2.772866e-02
  7.482395e-01    1.580502e+00   2.791909e-02
  7.504499e-01    1.605612e+00   2.800239e-02
  7.526604e-01    1.586402e+00   2.771740e-02
  7.548708e-01    1.548500e+00   2.729561e-02
  7.570813e-01    1.565134e+00   2.739100e-02
  7.592918e-01    1.571431e+00   2.741090e-02
  7.615022e-01    1.576125e+00   2.741801e-02
  7.637127e-01    1.571039e+00   2.734098e-02
  7.659231e-01    1.560263e+00   2.721521e-02
  7.681336e-01    1.547018e+00   2.706812e-02
  7.703440e-01    1.552373e+00   2.708392e-02
  7.725545e-01    1.577707e+00   2.727310e-02
  7.747650e-01    1.678376e+00   2.809033e-02
  7.769754e-01    1.580415e+00   2.720550e-02
  7.791859e-01    1.566493e+00   2.703201e-02
  7.813963e-01    1.610182e+00   2.735328e-02
  7.836068e-01    1.620286e+00   2.738640e-02
  7.858172e-01    1.614825e+00   2.728909e-02
  7.880277e-01    1.615165e+00   2.724005e-02
  7.902381e-01    1.603152e+00   2.708924e-02
  7.924486e-01    1.614403e+00   2.713377e-02
  7.946591e-01    1.655190e+00   2.742528e-02
  7.968695e-01    1.622208e+00   2.710211e-02
  7.990800e-01    1.626302e+00   2.708775e-02
  8.012904e-01    1.726256e+00   2.785948e-02
  8.035009e-01    1.806829e+00   2.845155e-02
  8.057113e-01    1.743271e+00   2.789836e-02
  8.079218e-01    1.648469e+00   2.708233e-02
  8.101323e-01    1.644331e+00   2.700239e-02
  8.123427e-01    1.632229e+00   2.685698e-02
  8.145532e-01    1.635951e+00   2.684156e-02
  8.167636e-01    1.659257e+00   2.698663e-02
  8.189741e-01    1.661579e+00   2.696050e-02
  8.211845e-01    1.626141e+00   2.662673e-02
  8.233950e-01    1.624643e+00   2.657119e-02
  8.256054e-01    1.644984e+00   2.669269e-02
  8.278159e-01    1.630282e+00   2.652929e-02
  8.300264e-01    1.664110e+00   2.675968e-02
  8.322368e-01    1.712041e+00   2.709823e-02
  8.344473e-01    1.694496e+00   2.691496e-02
  8.366577e-01    1.648731e+00   2.650626e-02
  8.388682e-01    1.708330e+00   2.693797e-02
  8.410786e-01    1.686811e+00   2.672512e-02
  8.432891e-01    1.655117e+00   2.643080e-02
  8.454996e-01    1.649150e+00   2.634136e-02
  8.477100e-01    1.633846e+00   2.617724e-02
  8.499205e-01    1.651116e+00   2.627389e-02
  8.521309e-01    1.650183e+00   2.622552e-02
  8.543414e-01    1.643767e+00   2.613364e-02
  8.565518e-01    1.676522e+00   2.635166e-02
  8.587623e-01    1.665085e+00   2.622072e-02
  8.609727e-01    1.642444e+00   2.600147e-02
  8.631832e-01    1.642916e+00   2.596511e-02
  8.653937e-01    1.607590e+00   2.564496e-02
  8.676041e-01    1.637050e+00   2.583982e-02
  8.698146e-01    1.642025e+00   2.583951e-02
  8.720250e-01    1.625285e+00   2.566828e-02
  8.742355e-01    1.628586e+00   2.565523e-02
  8.764459e-01    1.605880e+00   2.543687e-02
  8.786564e-01    1.652359e+00   2.576391e-02
  8.808669e-01    1.624134e+00   2.550419e-02
  8.830773e-01    1.618720e+00   2.542330e-02
  8.852878e-01    1.631040e+00   2.548162e-02
  8.874982e-01    1.604985e+00   2.524058e-02
  8.897087e-01    1.586015e+00   2.505348e-02
  8.919191e-01    1.563325e+00   2.483630e-02
  8.941296e-01    1.581070e+00   2.493977e-02
  8.963401e-01    1.619422e+00   2.520383e-02
  8.985505e-01    1.570744e+00   2.478551e-02
  9.007610e-01    1.594577e+00   2.493615e-02
  9.029714e-01    1.615454e+00   2.506285e-02
  9.051819e-01    1.584684e+00   2.478598e-02
  9.073923e-01    1.592862e+00   2.481335e-02
  9.096028e-01    1.584105e+00   2.471031e-02
  9.118132e-01    1.567400e+00   2.454383e-02
  9.140237e-01    1.599324e+00   2.475590e-02
  9.162342e-01    1.591182e+00   2.465834e-02
  9.184446e-01    1.597056e+00   2.466809e-02
  9.206551e-01    1.609875e+00   2.473120e-02
  9.228655e-01    1.597485e+00   2.460061e-02
  9.250760e-01    1.637048e+00   2.486765e-02
  9.272864e-01    1.616985e+00   2.468039e-02
  9.294969e-01    1.587045e+00   2.441519e-02
  9.317074e-01    1.607085e+00   2.453412e-02
  9.339178e-01    1.670100e+00   2.497635e-02
  9.361283e-01    1.675640e+00   2.498086e-02
  9.383387e-01    1.653197e+00   2.477927e-02
  9.405492e-01    1.647135e+00   2.469924e-02
  9.427596e-01    1.648434e+00   2.467342e-02
  9.449701e-01    1.642195e+00   2.459322e-02
  9.471805e-01    1.648024e+00   2.460192e-02
  9.493910e-01    1.666272e+00   2.470380e-02
  9.516015e-01    1.699543e+00   2.491437e-02
  9.538119e-01    1.739756e+00   2.517288e-02
  9.560224e-01    1.707802e+00   2.490552e-02
  9.582328e-01    1.741331e+00   2.511508e-02
  9.604433e-01    1.759089e+00   2.520706e-02
  9.626537e-01    1.767219e+00   2.523127e-02
  9.648642e-01    1.803873e+00   2.545669e-02
  9.670747e-01    1.797683e+00   2.537793e-02
  9.692851e-01    1.771430e+00   2.515846e-02
  9.714956e-01    1.809323e+00   2.539024e-02
  9.737060e-01    1.850539e+00   2.564410e-02
  9.759165e-01    1.846511e+00   2.558006e-02
  9.781269e-01    1.820615e+00   2.536682e-02
  9.803374e-01    1.813635e+00   2.528312e-02
  9.825478e-01    1.832049e+00   2.537762e-02
  9.847583e-01    1.858003e+00   2.552205e-02
  9.869688e-01    1.820586e+00   2.522996e-02
  9.891792e-01    1.773621e+00   2.486930e-02
  9.913897e-01    1.760271e+00   2.474209e-02
  9.936001e-01    1.842956e+00   2.528334e-02
  9.958106e-01    1.912330e+00   2.571986e-02
  9.980210e-01    1.811822e+00   2.500238e-02
  1.000231e+00    1.739290e+00   2.463100e-02
  1.002442e+00    1.659285e+00   2.418566e-02
  1.004652e+00    1.625498e+00   2.400492e-02
  1.006863e+00    1.603837e+00   2.389393e-02
  1.009073e+00    1.576871e+00   2.372845e-02
  1.011284e+00    1.586202e+00   2.383038e-02
  1.013494e+00    1.566857e+00   2.370811e-02
  1.015705e+00    1.567465e+00   2.373510e-02
  1.017915e+00    1.562795e+00   2.371607e-02
  1.020126e+00    1.576545e+00   2.383626e-02
  1.022336e+00    1.574031e+00   2.382899e-02
  1.024547e+00    1.558889e+00   2.372534e-02
  1.026757e+00    1.533210e+00   2.353745e-02
  1.028967e+00    1.539563e+00   2.359383e-02
  1.031178e+00    1.548156e+00   2.366578e-02
  1.033388e+00    1.537387e+00   2.358839e-02
  1.035599e+00    1.529196e+00   2.352889e-02
  1.037809e+00    1.538912e+00   2.360678e-02
  1.040020e+00    1.581782e+00   2.393463e-02
  1.042230e+00    1.620125e+00   2.422499e-02
  1.044441e+00    1.638177e+00   2.435936e-02
  1.046651e+00    1.621365e+00   2.423423e-02
  1.048862e+00    1.585823e+00   2.396633e-02
  1.051072e+00    1.519439e+00   2.345696e-02
  1.053282e+00    1.547951e+00   2.367503e-02
  1.055493e+00    1.561636e+00   2.377506e-02
  1.057703e+00    1.627797e+00   2.427188e-02
  1.059914e+00    1.762032e+00   2.524816e-02
  1.062124e+00    1.942023e+00   2.650175e-02
  1.064335e+00    1.999361e+00   2.688620e-02
  1.066545e+00    1.915647e+00   2.631048e-02
  1.068756e+00    1.987943e+00   2.679799e-02
  1.070966e+00    2.112617e+00   2.761775e-02
  1.073177e+00    2.029200e+00   2.705996e-02
  1.075387e+00    1.810412e+00   2.555377e-02
  1.077597e+00    1.680585e+00   2.461269e-02
  1.079808e+00    1.603079e+00   2.389956e-02
  1.082018e+00    1.532638e+00   2.317502e-02
  1.084229e+00    1.482998e+00   2.268576e-02
  1.086439e+00    1.435657e+00   2.223387e-02
  1.088650e+00    1.437564e+00   2.217339e-02
  1.090860e+00    1.452090e+00   2.221756e-02
  1.093071e+00    1.424966e+00   2.194746e-02
  1.095281e+00    1.437336e+00   2.198542e-02
  1.097492e+00    1.437240e+00   2.192993e-02
  1.099702e+00    1.437778e+00   2.188269e-02
  1.101912e+00    1.470946e+00   2.208426e-02
  1.104123e+00    1.492827e+00   2.219875e-02
  1.106333e+00    1.498286e+00   2.219389e-02
  1.108544e+00    1.440655e+00   2.171845e-02
  1.110754e+00    1.427226e+00   2.157394e-02
  1.112965e+00    1.412692e+00   2.142342e-02
  1.115175e+00    1.394269e+00   2.124246e-02
  1.117386e+00    1.420794e+00   2.140421e-02
  1.119596e+00    1.430386e+00   2.143825e-02
  1.121807e+00    1.416714e+00   2.129661e-02
  1.124017e+00    1.451586e+00   2.151991e-02
  1.126228e+00    1.413509e+00   2.119995e-02
  1.128438e+00    1.372808e+00   2.085608e-02
  1.130648e+00    1.387272e+00   2.093148e-02
  1.132859e+00    1.427043e+00   2.119466e-02
  1.135069e+00    1.423109e+00   2.113034e-02
  1.137280e+00    1.423328e+00   2.109857e-02
  1.139490e+00    1.383777e+00   2.077035e-02
  1.141701e+00    1.384231e+00   2.074063e-02
  1.143911e+00    1.403090e+00   2.084935e-02
  1.146122e+00    1.385437e+00   2.068573e-02
  1.148332e+00    1.389638e+00   2.068505e-02
  1.150543e+00    1.378943e+00   2.057447e-02
  1.152753e+00    1.390953e+00   2.063284e-02
  1.154963e+00    1.391154e+00   2.060309e-02
  1.157174e+00    1.427704e+00   2.084124e-02
  1.159384e+00    1.476579e+00   2.116399e-02
  1.161595e+00    1.529170e+00   2.150608e-02
  1.163805e+00    1.533355e+00   2.150453e-02
  1.166016e+00    1.498075e+00   2.122491e-02
  1.168226e+00    1.481213e+00   2.107495e-02
  1.170437e+00    1.459573e+00   2.089087e-02
  1.172647e+00    1.439484e+00   2.071692e-02
  1.174858e+00    1.443306e+00   2.071552e-02
  1.177068e+00    1.438931e+00   2.065505e-02
  1.179278e+00    1.465753e+00   2.081701e-02
  1.181489e+00    1.498764e+00   2.102177e-02
  1.183699e+00    1.438251e+00   2.056469e-02
  1.185910e+00    1.401880e+00   2.027475e-02
  1.188120e+00    1.374971e+00   2.005237e-02
  1.190331e+00    1.343190e+00   1.979262e-02
  1.192541e+00    1.366000e+00   1.993246e-02
  1.194752e+00    1.384245e+00   2.003779e-02
  1.196962e+00    1.357077e+00   1.981437e-02
  1.199173e+00    1.368127e+00   1.986822e-02
  1.201383e+00    1.350572e+00   1.971315e-02
  1.203593e+00    1.343894e+00   1.963960e-02
  1.205804e+00    1.351697e+00   1.967060e-02
  1.208014e+00    1.364235e+00   1.973462e-02
  1.210225e+00    1.369732e+00   1.974884e-02
  1.212435e+00    1.326470e+00   1.940989e-02
  1.214646e+00    1.352399e+00   1.957254e-02
  1.216856e+00    1.336087e+00   1.942880e-02
  1.219067e+00    1.345903e+00   1.947560e-02
  1.221277e+00    1.337025e+00   1.938638e-02
  1.223488e+00    1.345522e+00   1.942216e-02
  1.225698e+00    1.347798e+00   1.941171e-02
  1.227909e+00    1.373238e+00   1.956361e-02
  1.230119e+00    1.402408e+00   1.973785e-02
  1.232329e+00    1.400849e+00   1.969557e-02
  1.234540e+00    1.394974e+00   1.962347e-02
  1.236750e+00    1.373524e+00   1.944147e-02
  1.238961e+00    1.349337e+00   1.924259e-02
  1.241171e+00    1.346575e+00   1.919869e-02
  1.243382e+00    1.343471e+00   1.915313e-02
  1.245592e+00    1.353405e+00   1.919966e-02
  1.247803e+00    1.365698e+00   1.926289e-02
  1.250013e+00    1.338885e+00   1.904939e-02
  1.252224e+00    1.340035e+00   1.903441e-02
  1.254434e+00    1.364725e+00   1.918509e-02
  1.256644e+00    1.360423e+00   1.913153e-02
  1.258855e+00    1.358409e+00   1.909404e-02
  1.261065e+00    1.339979e+00   1.894077e-02
  1.263276e+00    1.353965e+00   1.901639e-02
  1.265486e+00    1.351547e+00   1.897650e-02
  1.267697e+00    1.362842e+00   1.903252e-02
  1.269907e+00    1.357429e+00   1.897193e-02
  1.272118e+00    1.328823e+00   1.874856e-02
  1.274328e+00    1.361535e+00   1.895508e-02
  1.276539e+00    1.359509e+00   1.891811e-02
  1.278749e+00    1.370065e+00   1.896896e-02
  1.280959e+00    1.344603e+00   1.876939e-02
  1.283170e+00    1.342261e+00   1.873067e-02
  1.285380e+00    1.344886e+00   1.872656e-02
  1.287591e+00    1.373709e+00   1.890393e-02
  1.289801e+00    1.349623e+00   1.871629e-02
  1.292012e+00    1.336722e+00   1.860957e-02
  1.294222e+00    1.356480e+00   1.873034e-02
  1.296433e+00    1.367649e+00   1.879158e-02
  1.298643e+00    1.343058e+00   1.860546e-02
  1.300854e+00    1.381209e+00   1.885125e-02
  1.303064e+00    1.369015e+00   1.874850e-02
  1.305274e+00    1.377856e+00   1.878729e-02
  1.307485e+00    1.371955e+00   1.872528e-02
  1.309695e+00    1.357299e+00   1.860271e-02
  1.311906e+00    1.359083e+00   1.859313e-02
  1.314116e+00    1.362932e+00   1.859856e-02
  1.316327e+00    1.379438e+00   1.868891e-02
  1.318537e+00    1.369510e+00   1.859949e-02
  1.320748e+00    1.380554e+00   1.865255e-02
  1.322958e+00    1.358969e+00   1.848557e-02
  1.325169e+00    1.379206e+00   1.860144e-02
  1.327379e+00    1.371043e+00   1.852434e-02
  1.329589e+00    1.386652e+00   1.860814e-02
  1.331800e+00    1.360812e+00   1.841317e-02
  1.334010e+00    1.362010e+00   1.840052e-02
  1.336221e+00    1.345829e+00   1.826919e-02
  1.338431e+00    1.348904e+00   1.826917e-02
  1.340642e+00    1.365667e+00   1.844688e-02
  1.342852e+00    1.340742e+00   1.837810e-02
  1.345063e+00    1.344996e+00   1.845662e-02
  1.347273e+00    1.347771e+00   1.851086e-02
  1.349484e+00    1.344714e+00   1.851748e-02
  1.351694e+00    1.354625e+00   1.860834e-02
  1.353905e+00    1.344061e+00   1.855360e-02
  1.356115e+00    1.357796e+00   1.866325e-02
  1.358325e+00    1.371769e+00   1.877246e-02
  1.360536e+00    1.350213e+00   1.863602e-02
  1.362746e+00    1.327262e+00   1.848642e-02
  1.364957e+00    1.372667e+00   1.880770e-02
  1.367167e+00    1.334915e+00   1.855439e-02
  1.369378e+00    1.341839e+00   1.860844e-02
  1.371588e+00    1.329225e+00   1.852590e-02
  1.373799e+00    1.304713e+00   1.835791e-02
  1.376009e+00    1.302752e+00   1.834743e-02
  1.378220e+00    1.344593e+00   1.864229e-02
  1.380430e+00    1.316808e+00   1.845137e-02
  1.382640e+00    1.282662e+00   1.821146e-02
  1.384851e+00    1.308028e+00   1.839151e-02
  1.387061e+00    1.286673e+00   1.824107e-02
  1.389272e+00    1.273737e+00   1.814934e-02
  1.391482e+00    1.322641e+00   1.849376e-02
  1.393693e+00    1.332088e+00   1.855885e-02
  1.395903e+00    1.303250e+00   1.835533e-02
  1.398114e+00    1.294331e+00   1.829105e-02
  1.400324e+00    1.288229e+00   1.824572e-02
  1.402535e+00    1.297607e+00   1.830970e-02
  1.404745e+00    1.269293e+00   1.810648e-02
  1.406955e+00    1.254524e+00   1.799814e-02
  1.409166e+00    1.285677e+00   1.821691e-02
  1.411376e+00    1.298086e+00   1.830148e-02
  1.413587e+00    1.268401e+00   1.808719e-02
  1.415797e+00    1.288282e+00   1.822482e-02
  1.418008e+00    1.285219e+00   1.816103e-02
  1.420218e+00    1.283010e+00   1.799492e-02
  1.422429e+00    1.266238e+00   1.779174e-02
  1.424639e+00    1.247013e+00   1.759205e-02
  1.426850e+00    1.274150e+00   1.772763e-02
  1.429060e+00    1.277074e+00   1.769885e-02
  1.431270e+00    1.277177e+00   1.765512e-02
  1.433481e+00    1.273181e+00   1.758648e-02
  1.435691e+00    1.294314e+00   1.769305e-02
  1.437902e+00    1.258742e+00   1.741191e-02
  1.440112e+00    1.287968e+00   1.757729e-02
  1.442323e+00    1.265056e+00   1.738728e-02
  1.444533e+00    1.256392e+00   1.729525e-02
  1.446744e+00    1.267414e+00   1.733985e-02
  1.448954e+00    1.294539e+00   1.749394e-02
  1.451165e+00    1.272566e+00   1.731506e-02
  1.453375e+00    1.270810e+00   1.727506e-02
  1.455586e+00    1.248331e+00   1.709365e-02
  1.457796e+00    1.275491e+00   1.725104e-02
  1.460006e+00    1.283019e+00   1.727447e-02
  1.462217e+00    1.293063e+00   1.731551e-02
  1.464427e+00    1.295107e+00   1.730333e-02
  1.466638e+00    1.262362e+00   1.705792e-02
  1.468848e+00    1.256929e+00   1.699597e-02
  1.471059e+00    1.265695e+00   1.703007e-02
  1.473269e+00    1.262803e+00   1.698630e-02
  1.475480e+00    1.242647e+00   1.682666e-02
  1.477690e+00    1.250477e+00   1.685591e-02
  1.479901e+00    1.265827e+00   1.693524e-02
  1.482111e+00    1.246210e+00   1.678038e-02
  1.484321e+00    1.243267e+00   1.673766e-02
  1.486532e+00    1.244134e+00   1.672134e-02
  1.488742e+00    1.253479e+00   1.676148e-02
  1.490953e+00    1.259421e+00   1.677861e-02
  1.493163e+00    1.264354e+00   1.678914e-02
  1.495374e+00    1.270398e+00   1.680767e-02
  1.497584e+00    1.294827e+00   1.694657e-02
  1.499795e+00    1.287666e+00   1.687777e-02
  1.502005e+00    1.290807e+00   1.687639e-02
  1.504216e+00    1.272507e+00   1.673519e-02
  1.506426e+00    1.298586e+00   1.688464e-02
  1.508636e+00    1.270307e+00   1.667928e-02
  1.510847e+00    1.257523e+00   1.657326e-02
  1.513057e+00    1.270606e+00   1.663404e-02
  1.515268e+00    1.265356e+00   1.657382e-02
  1.517478e+00    1.242216e+00   1.639653e-02
  1.519689e+00    1.266477e+00   1.653078e-02
  1.521899e+00    1.259341e+00   1.646100e-02
  1.524110e+00    1.278738e+00   1.656674e-02
  1.526320e+00    1.254710e+00   1.639075e-02
  1.528531e+00    1.266646e+00   1.644862e-02
  1.530741e+00    1.288765e+00   1.657219e-02
  1.532951e+00    1.276470e+00   1.647316e-02
  1.535162e+00    1.273539e+00   1.654166e-02
  1.537372e+00    1.248806e+00   1.644716e-02
  1.539583e+00    1.242643e+00   1.644065e-02
  1.541793e+00    1.258932e+00   1.655505e-02
  1.544004e+00    1.248274e+00   1.648508e-02
  1.546214e+00    1.264832e+00   1.659253e-02
  1.548425e+00    1.240662e+00   1.643351e-02
  1.550635e+00    1.254377e+00   1.653379e-02
  1.552846e+00    1.246989e+00   1.649470e-02
  1.555056e+00    1.246677e+00   1.645113e-02
  1.557266e+00    1.243823e+00   1.632186e-02
  1.559477e+00    1.272384e+00   1.644840e-02
  1.561687e+00    1.299235e+00   1.658972e-02
  1.563898e+00    1.284271e+00   1.647649e-02
  1.566108e+00    1.279493e+00   1.642962e-02
  1.568319e+00    1.299715e+00   1.654296e-02
  1.570529e+00    1.351675e+00   1.684422e-02
  1.572740e+00    1.324644e+00   1.664647e-02
  1.574950e+00    1.307575e+00   1.651189e-02
  1.577161e+00    1.286509e+00   1.635244e-02
  1.579371e+00    1.271110e+00   1.623035e-02
  1.581582e+00    1.256964e+00   1.611993e-02
  1.583792e+00    1.260605e+00   1.612511e-02
  1.586002e+00    1.252766e+00   1.605722e-02
  1.588213e+00    1.250393e+00   1.602472e-02
  1.590423e+00    1.242911e+00   1.595664e-02
  1.592634e+00    1.257164e+00   1.602614e-02
  1.594844e+00    1.261092e+00   1.602959e-02
  1.597055e+00    1.266827e+00   1.604533e-02
  1.599265e+00    1.244547e+00   1.588285e-02
  1.601476e+00    1.238575e+00   1.582441e-02
  1.603686e+00    1.246464e+00   1.585490e-02
  1.605897e+00    1.245597e+00   1.582919e-02
  1.608107e+00    1.228781e+00   1.570248e-02
  1.610317e+00    1.217874e+00   1.561349e-02
  1.612528e+00    1.217241e+00   1.559038e-02
  1.614738e+00    1.210608e+00   1.552906e-02
  1.616949e+00    1.204035e+00   1.546804e-02
  1.619159e+00    1.217320e+00   1.553446e-02
  1.621370e+00    1.203222e+00   1.542591e-02
  1.623580e+00    1.196435e+00   1.536415e-02
  1.625791e+00    1.194551e+00   1.533388e-02
  1.628001e+00    1.172658e+00   1.517472e-02
  1.630212e+00    1.161420e+00   1.508428e-02
  1.632422e+00    1.168454e+00   1.511214e-02
  1.634632e+00    1.160663e+00   1.504452e-02
  1.636843e+00    1.165816e+00   1.506042e-02
  1.639053e+00    1.161391e+00   1.501461e-02
  1.641264e+00    1.168763e+00   1.504511e-02
  1.643474e+00    1.161625e+00   1.498171e-02
  1.645685e+00    1.148377e+00   1.487944e-02
  1.647895e+00    1.143738e+00   1.483284e-02
  1.650106e+00    1.146135e+00   1.483142e-02
  1.652316e+00    1.141919e+00   1.478768e-02
  1.654527e+00    1.126475e+00   1.467078e-02
  1.656737e+00    1.108967e+00   1.453998e-02
  1.658947e+00    1.114025e+00   1.455692e-02
  1.661158e+00    1.129876e+00   1.464384e-02
  1.663368e+00    1.123582e+00   1.458699e-02
  1.665579e+00    1.088343e+00   1.434049e-02
  1.667789e+00    1.088863e+00   1.432786e-02
  1.670000e+00    1.096175e+00   1.436053e-02
  1.672210e+00    1.081292e+00   1.424703e-02
  1.674421e+00    1.072118e+00   1.417135e-02
  1.676631e+00    1.087478e+00   1.425675e-02
  1.678842e+00    1.071559e+00   1.413645e-02
  1.681052e+00    1.076944e+00   1.415664e-02
  1.683263e+00    1.082414e+00   1.417747e-02
  1.685473e+00    1.085956e+00   1.418549e-02
  1.687683e+00    1.089064e+00   1.419031e-02
  1.689894e+00    1.066930e+00   1.402971e-02
  1.692104e+00    1.049228e+00   1.389811e-02
  1.694315e+00    1.051336e+00   1.389768e-02
  1.696525e+00    1.066429e+00   1.398197e-02
  1.698736e+00    1.080599e+00   1.405960e-02
  1.700946e+00    1.084534e+00   1.406990e-02
  1.703157e+00    1.072883e+00   1.397936e-02
  1.705367e+00    1.049236e+00   1.380997e-02
  1.707578e+00    1.033620e+00   1.369237e-02
  1.709788e+00    1.032868e+00   1.367333e-02
  1.711998e+00    1.046882e+00   1.375075e-02
  1.714209e+00    1.007876e+00   1.347794e-02
  1.716419e+00    1.000448e+00   1.341413e-02
  1.718630e+00    1.008979e+00   1.345709e-02
  1.720840e+00    1.022725e+00   1.353432e-02
  1.723051e+00    9.988099e-01   1.336143e-02
  1.725261e+00    1.035483e+00   1.358975e-02
  1.727472e+00    1.014383e+00   1.343642e-02
  1.729682e+00    1.021853e+00   1.347232e-02
  1.731893e+00    9.941722e-01   1.327478e-02
  1.734103e+00    1.002824e+00   1.331869e-02
  1.736313e+00    9.969802e-01   1.326585e-02
  1.738524e+00    1.036833e+00   1.351435e-02
  1.740734e+00    1.014467e+00   1.335399e-02
  1.742945e+00    1.034551e+00   1.347183e-02
  1.745155e+00    1.030043e+00   1.342874e-02
  1.747366e+00    9.929990e-01   1.317121e-02
  1.749576e+00    9.935294e-01   1.316100e-02
  1.751787e+00    9.898885e-01   1.312347e-02
  1.753997e+00    9.695625e-01   1.297474e-02
  1.756208e+00    9.723595e-01   1.298024e-02
  1.758418e+00    9.781315e-01   1.300557e-02
  1.760628e+00    9.515068e-01   1.281411e-02
  1.762839e+00    9.485782e-01   1.278127e-02
  1.765049e+00    9.403597e-01   1.271281e-02
  1.767260e+00    9.286720e-01   1.262096e-02
  1.769470e+00    9.164643e-01   1.252501e-02
  1.771681e+00    9.271060e-01   1.258455e-02
  1.773891e+00    9.356035e-01   1.262913e-02
  1.776102e+00    9.435651e-01   1.266991e-02
  1.778312e+00    9.549611e-01   1.273338e-02
  1.780523e+00    9.605599e-01   1.275783e-02
  1.782733e+00    9.206776e-01   1.247759e-02
  1.784944e+00    9.325536e-01   1.254494e-02
  1.787154e+00    9.279703e-01   1.250159e-02
  1.789364e+00    9.240035e-01   1.246238e-02
  1.791575e+00    9.346933e-01   1.252169e-02
  1.793785e+00    9.352151e-01   1.251268e-02
  1.795996e+00    9.511752e-01   1.260626e-02
  1.798206e+00    1.032786e+00   1.312269e-02
  1.800417e+00    1.014632e+00   1.299353e-02
  1.802627e+00    9.734174e-01   1.271455e-02
  1.804838e+00    1.043188e+00   1.314935e-02
  1.807048e+00    1.111037e+00   1.355606e-02
  1.809259e+00    1.120581e+00   1.359909e-02
  1.811469e+00    1.015485e+00   1.292982e-02
  1.813679e+00    9.437788e-01   1.244962e-02
  1.815890e+00    9.571899e-01   1.252252e-02
  1.818100e+00    1.041467e+00   1.304590e-02
  1.820311e+00    1.010291e+00   1.283349e-02
  1.822521e+00    8.857863e-01   1.200190e-02
  1.824732e+00    8.613226e-01   1.182041e-02
  1.826942e+00    8.773946e-01   1.191792e-02
  1.829153e+00    8.839256e-01   1.195052e-02
  1.831363e+00    8.893000e-01   1.197471e-02
  1.833574e+00    8.818257e-01   1.191262e-02
  1.835784e+00    8.866850e-01   1.193390e-02
  1.837994e+00    8.687266e-01   1.180081e-02
  1.840205e+00    8.407734e-01   1.159842e-02
  1.842415e+00    8.566557e-01   1.169580e-02
  1.844626e+00    8.629935e-01   1.172747e-02
  1.846836e+00    8.719358e-01   1.177663e-02
  1.849047e+00    8.446662e-01   1.157955e-02
  1.851257e+00    8.581856e-01   1.166229e-02
  1.853468e+00    8.829089e-01   1.182018e-02
  1.855678e+00    8.766473e-01   1.176924e-02
  1.857889e+00    8.705501e-01   1.171969e-02
  1.860099e+00    8.715980e-01   1.171802e-02
  1.862309e+00    8.762529e-01   1.174068e-02
  1.864520e+00    8.465214e-01   1.153125e-02
  1.866730e+00    8.566073e-01   1.159033e-02
  1.868941e+00    8.853284e-01   1.177187e-02
  1.871151e+00    8.768004e-01   1.170351e-02
  1.873362e+00    8.534483e-01   1.153523e-02
  1.875572e+00    8.488011e-01   1.149285e-02
  1.877783e+00    8.723037e-01   1.163926e-02
  1.879993e+00    9.072248e-01   1.185842e-02
  1.882204e+00    9.112289e-01   1.187324e-02
  1.884414e+00    9.387109e-01   1.203929e-02
  1.886624e+00    9.064187e-01   1.181894e-02
  1.888835e+00    8.804764e-01   1.163734e-02
  1.891045e+00    8.819482e-01   1.163591e-02
  1.893256e+00    8.660270e-01   1.151914e-02
  1.895466e+00    8.392676e-01   1.132859e-02
  1.897677e+00    8.384953e-01   1.131244e-02
  1.899887e+00    8.326213e-01   1.126176e-02
  1.902098e+00    8.225760e-01   1.118286e-02
  1.904308e+00    8.251388e-01   1.118969e-02
  1.906519e+00    8.258586e-01   1.118378e-02
  1.908729e+00    8.134264e-01   1.108876e-02
  1.910940e+00    8.283331e-01   1.117877e-02
  1.913150e+00    8.390424e-01   1.124014e-02
  1.915360e+00    8.456435e-01   1.127350e-02
  1.917571e+00    8.560467e-01   1.133156e-02
  1.919781e+00    8.615475e-01   1.135695e-02
  1.921992e+00    8.358988e-01   1.117592e-02
  1.924202e+00    8.233435e-01   1.108087e-02
  1.926413e+00    8.104013e-01   1.098316e-02
  1.928623e+00    8.131639e-01   1.099132e-02
  1.930834e+00    8.278318e-01   1.107949e-02
  1.933044e+00    8.189803e-01   1.100940e-02
  1.935255e+00    7.982423e-01   1.085885e-02
  1.937465e+00    8.099309e-01   1.092765e-02
  1.939675e+00    8.154338e-01   1.095381e-02
  1.941886e+00    7.983592e-01   1.082829e-02
  1.944096e+00    8.006620e-01   1.083372e-02
  1.946307e+00    8.110776e-01   1.089356e-02
  1.948517e+00    8.088496e-01   1.086809e-02
  1.950728e+00    7.856956e-01   1.070125e-02
  1.952938e+00    7.868053e-01   1.069876e-02
  1.955149e+00    8.172622e-01   1.089352e-02
  1.957359e+00    8.014064e-01   1.077724e-02
  1.959570e+00    7.914759e-01   1.069943e-02
  1.961780e+00    7.753806e-01   1.058026e-02
  1.963990e+00    8.047127e-01   1.076832e-02
  1.966201e+00    8.152806e-01   1.082859e-02
  1.968411e+00    7.967605e-01   1.069471e-02
  1.970622e+00    7.756510e-01   1.054206e-02
  1.972832e+00    7.848203e-01   1.059422e-02
  1.975043e+00    7.848705e-01   1.058454e-02
  1.977253e+00    7.701138e-01   1.047471e-02
  1.979464e+00    7.822505e-01   1.054689e-02
  1.981674e+00    7.901660e-01   1.058980e-02
  1.983885e+00    7.893295e-01   1.057414e-02
  1.986095e+00    7.926838e-01   1.058680e-02
  1.988305e+00    7.965455e-01   1.060256e-02
  1.990516e+00    7.957876e-01   1.058748e-02
  1.992726e+00    7.767059e-01   1.045012e-02
  1.994937e+00    7.775022e-01   1.044534e-02
  1.997147e+00    7.850827e-01   1.048634e-02
  1.999358e+00    7.916368e-01   1.052007e-02
  2.001568e+00    7.820641e-01   1.044541e-02
  2.003779e+00    7.667365e-01   1.033065e-02
  2.005989e+00    7.825304e-01   1.042440e-02
  2.008200e+00    7.825862e-01   1.041317e-02
  2.010410e+00    7.826641e-01   1.040184e-02
  2.012621e+00    7.673768e-01   1.028806e-02
  2.014831e+00    7.621986e-01   1.024185e-02
  2.017041e+00    7.733065e-01   1.030577e-02
  2.019252e+00    7.697440e-01   1.027203e-02
  2.021462e+00    7.828305e-01   1.034936e-02
  2.023673e+00    7.827933e-01   1.033962e-02
  2.025883e+00    7.715848e-01   1.025577e-02
  2.028094e+00    7.603254e-01   1.017101e-02
  2.030304e+00    7.602254e-01   1.016083e-02
  2.032515e+00    7.723745e-01   1.023231e-02
  2.034725e+00    7.745540e-01   1.023722e-02
  2.036936e+00    7.644023e-01   1.016053e-02
  2.039146e+00    7.605821e-01   1.012551e-02
  2.041356e+00    7.703679e-01   1.018071e-02
  2.043567e+00    7.573395e-01   1.008495e-02
  2.045777e+00    7.559657e-01   1.006653e-02
  2.047988e+00    7.571159e-01   1.006482e-02
  2.050198e+00    7.520517e-01   1.002266e-02
  2.052409e+00    7.590886e-01   1.006177e-02
  2.054619e+00    7.590190e-01   1.005389e-02
  2.056830e+00    7.437387e-01   9.945050e-03
  2.059040e+00    7.334752e-01   9.868748e-03
  2.061251e+00    7.496275e-01   9.969578e-03
  2.063461e+00    7.443809e-01   9.927061e-03
  2.065671e+00    7.383559e-01   9.878137e-03
  2.067882e+00    7.545957e-01   9.977149e-03
  2.070092e+00    7.436448e-01   9.895324e-03
  2.072303e+00    7.342800e-01   9.823736e-03
  2.074513e+00    7.450521e-01   9.886228e-03
  2.076724e+00    7.453982e-01   9.879049e-03
  2.078934e+00    7.340608e-01   9.794695e-03
  2.081145e+00    7.369509e-01   9.804899e-03
  2.083355e+00    7.560199e-01   9.921677e-03
  2.085566e+00    7.522928e-01   9.888225e-03
  2.087776e+00    7.489405e-01   9.856608e-03
  2.089986e+00    7.451872e-01   9.823049e-03
  2.092197e+00    7.406666e-01   9.784233e-03
  2.094407e+00    7.064772e-01   9.546721e-03
  2.096618e+00    7.086917e-01   9.552895e-03
  2.098828e+00    7.326643e-01   9.703846e-03
  2.101039e+00    7.397653e-01   9.741735e-03
  2.103249e+00    7.272744e-01   9.650491e-03
  2.105460e+00    7.323223e-01   9.674910e-03
  2.107670e+00    7.141925e-01   9.545737e-03
  2.109881e+00    7.198091e-01   9.574085e-03
  2.112091e+00    7.177712e-01   9.551592e-03
  2.114301e+00    7.038814e-01   9.450065e-03
  2.116512e+00    7.144666e-01   9.512104e-03
  2.118722e+00    7.192752e-01   9.535256e-03
  2.120933e+00    7.215130e-01   9.541220e-03
  2.123143e+00    7.240002e-01   9.548699e-03
  2.125354e+00    7.263852e-01   9.555846e-03
  2.127564e+00    7.230034e-01   9.524799e-03
  2.129775e+00    7.092867e-01   9.425334e-03
  2.131985e+00    6.995045e-01   9.351136e-03
  2.134196e+00    7.114084e-01   9.421797e-03
  2.136406e+00    7.210560e-01   9.476669e-03
  2.138617e+00    7.085485e-01   9.385678e-03
  2.140827e+00    7.023395e-01   9.360445e-03
  2.143037e+00    7.049441e-01   9.423202e-03
  2.145248e+00    6.977711e-01   9.396997e-03
  2.147458e+00    7.105216e-01   9.497671e-03
  2.149669e+00    7.032629e-01   9.460897e-03
  2.151879e+00    7.007721e-01   9.453342e-03
  2.154090e+00    7.079359e-01   9.508876e-03
  2.156300e+00    7.025964e-01   9.479583e-03
  2.158511e+00    6.768235e-01   9.309300e-03
  2.160721e+00    6.830706e-01   9.356915e-03
  2.162932e+00    7.049036e-01   9.509041e-03
  2.165142e+00    7.043116e-01   9.508087e-03
  2.167352e+00    6.979231e-01   9.467791e-03
  2.169563e+00    6.817049e-01   9.359065e-03
  2.171773e+00    6.805533e-01   9.353582e-03
  2.173984e+00    6.950070e-01   9.453787e-03
  2.176194e+00    7.004545e-01   9.491995e-03
  2.178405e+00    6.878535e-01   9.406919e-03
  2.180615e+00    6.856362e-01   9.392411e-03
  2.182826e+00    6.800355e-01   9.354650e-03
  2.185036e+00    6.818705e-01   9.367330e-03
  2.187247e+00    6.692205e-01   9.279955e-03
  2.189457e+00    6.974641e-01   9.473345e-03
  2.191667e+00    6.975598e-01   9.473838e-03
  2.193878e+00    6.855333e-01   9.391249e-03
  2.196088e+00    6.888636e-01   9.413331e-03
  2.198299e+00    6.960495e-01   9.461215e-03
  2.200509e+00    6.906413e-01   9.423329e-03
  2.202720e+00    6.815479e-01   9.359923e-03
  2.204930e+00    6.832710e-01   9.370509e-03
  2.207141e+00    6.891678e-01   9.409731e-03
  2.209351e+00    6.937184e-01   9.438855e-03
  2.211562e+00    6.988106e-01   9.471782e-03
  2.213772e+00    6.727620e-01   9.238286e-03
  2.215982e+00    6.669582e-01   9.154391e-03
  2.218193e+00    6.845477e-01   9.244516e-03
  2.220403e+00    6.780566e-01   9.175928e-03
  2.222614e+00    6.884148e-01   9.224590e-03
  2.224824e+00    6.706426e-01   9.085381e-03
  2.227035e+00    6.716149e-01   9.074546e-03
  2.229245e+00    6.716417e-01   9.057757e-03
  2.231456e+00    6.783670e-01   9.087292e-03
  2.233666e+00    6.803369e-01   9.085275e-03
  2.235877e+00    6.755142e-01   9.038718e-03
  2.238087e+00    6.648527e-01   8.953649e-03
  2.240298e+00    6.731382e-01   8.995492e-03
  2.242508e+00    6.607648e-01   8.897373e-03
  2.244718e+00    6.602015e-01   8.877873e-03
  2.246929e+00    6.646737e-01   8.893517e-03
  2.249139e+00    6.628566e-01   8.868999e-03
  2.251350e+00    6.675126e-01   8.888396e-03
  2.253560e+00    6.695256e-01   8.890188e-03
  2.255771e+00    6.803223e-01   8.950056e-03
  2.257981e+00    6.678891e-01   8.856685e-03
  2.260192e+00    6.892483e-01   8.985878e-03
  2.262402e+00    7.006763e-01   9.048910e-03
  2.264613e+00    7.246334e-01   9.191002e-03
  2.266823e+00    6.976954e-01   9.007891e-03
  2.269033e+00    6.994684e-01   9.008650e-03
  2.271244e+00    7.069928e-01   9.046243e-03
  2.273454e+00    7.393460e-01   9.240043e-03
  2.275665e+00    7.630233e-01   9.375811e-03
  2.277875e+00    7.362867e-01   9.199612e-03
  2.280086e+00    7.003608e-01   8.962017e-03
  2.282296e+00    6.748962e-01   8.788063e-03
  2.284507e+00    6.737638e-01   8.770429e-03
  2.286717e+00    6.809913e-01   8.807717e-03
  2.288928e+00    6.689201e-01   8.719353e-03
  2.291138e+00    6.555446e-01   8.622331e-03
  2.293348e+00    6.526361e-01   8.593648e-03
  2.295559e+00    6.664073e-01   8.674458e-03
  2.297769e+00    6.573564e-01   8.606080e-03
  2.299980e+00    6.609875e-01   8.620433e-03
  2.302190e+00    6.570273e-01   8.585412e-03
  2.304401e+00    6.614878e-01   8.605118e-03
  2.306611e+00    6.595575e-01   8.583313e-03
  2.308822e+00    6.403214e-01   8.448902e-03
  2.311032e+00    6.556477e-01   8.542920e-03
  2.313243e+00    6.571019e-01   8.546111e-03
  2.315453e+00    6.319696e-01   8.373607e-03
  2.317663e+00    6.372239e-01   8.399283e-03
  2.319874e+00    6.412622e-01   8.417159e-03
  2.322084e+00    6.389735e-01   8.393213e-03
  2.324295e+00    6.418281e-01   8.403735e-03
  2.326505e+00    6.479491e-01   8.434637e-03
  2.328716e+00    6.400677e-01   8.374661e-03
  2.330926e+00    6.322422e-01   8.314575e-03
  2.333137e+00    6.394712e-01   8.353625e-03
  2.335347e+00    6.410202e-01   8.354865e-03
  2.337558e+00    6.403630e-01   8.342346e-03
  2.339768e+00    6.450483e-01   8.364226e-03
  2.341979e+00    6.249529e-01   8.224611e-03
  2.344189e+00    6.490011e-01   8.372877e-03
  2.346399e+00    6.655645e-01   8.470389e-03
  2.348610e+00    6.372258e-01   8.279617e-03
  2.350820e+00    6.471702e-01   8.335724e-03
  2.353031e+00    6.259105e-01   8.189420e-03
  2.355241e+00    6.438417e-01   8.297789e-03
  2.357452e+00    6.305321e-01   8.203155e-03
  2.359662e+00    6.280651e-01   8.178904e-03
  2.361873e+00    6.209621e-01   8.124342e-03
  2.364083e+00    6.217006e-01   8.121236e-03
  2.366294e+00    6.345281e-01   8.196424e-03
  2.368504e+00    6.469498e-01   8.268074e-03
  2.370714e+00    6.426636e-01   8.232474e-03
  2.372925e+00    6.285378e-01   8.133419e-03
  2.375135e+00    6.193594e-01   8.065796e-03
  2.377346e+00    6.276523e-01   8.111635e-03
  2.379556e+00    6.229938e-01   8.073583e-03
  2.381767e+00    6.239297e-01   8.071771e-03
  2.383977e+00    6.125545e-01   7.989964e-03
  2.386188e+00    6.201408e-01   8.031365e-03
  2.388398e+00    6.231914e-01   8.043117e-03
  2.390609e+00    5.954168e-01   7.854256e-03
  2.392819e+00    6.194872e-01   8.003629e-03
  2.395029e+00    6.133926e-01   7.956529e-03
  2.397240e+00    6.126710e-01   7.943980e-03
  2.399450e+00    6.276360e-01   8.032530e-03
  2.401661e+00    6.201081e-01   7.976471e-03
  2.403871e+00    6.186236e-01   7.959117e-03
  2.406082e+00    6.239704e-01   7.985928e-03
  2.408292e+00    6.076166e-01   7.872795e-03
  2.410503e+00    6.097370e-01   7.879016e-03
  2.412713e+00    6.069856e-01   7.853434e-03
  2.414924e+00    5.983387e-01   7.789856e-03
  2.417134e+00    5.989494e-01   7.786210e-03
  2.419344e+00    6.193104e-01   7.909963e-03
  2.421555e+00    6.163360e-01   7.883342e-03
  2.423765e+00    6.127918e-01   7.853161e-03
  2.425976e+00    6.139856e-01   7.852921e-03
  2.428186e+00    6.008415e-01   7.761161e-03
  2.430397e+00    6.023356e-01   7.763309e-03
  2.432607e+00    5.894947e-01   7.672863e-03
  2.434818e+00    5.945065e-01   7.697885e-03
  2.437028e+00    5.842128e-01   7.623849e-03
  2.439239e+00    6.047326e-01   7.748838e-03
  2.441449e+00    6.057963e-01   7.748415e-03
  2.443659e+00    5.860842e-01   7.613963e-03
  2.445870e+00    5.890355e-01   7.645360e-03
  2.448080e+00    5.738884e-01   7.580953e-03
  2.450291e+00    5.847903e-01   7.669322e-03
  2.452501e+00    5.759727e-01   7.622459e-03
  2.454712e+00    5.740399e-01   7.618072e-03
  2.456922e+00    5.741162e-01   7.625241e-03
  2.459133e+00    5.716963e-01   7.614594e-03
  2.461343e+00    5.727764e-01   7.626167e-03
  2.463554e+00    5.694823e-01   7.607677e-03
  2.465764e+00    5.648139e-01   7.579588e-03
  2.467975e+00    5.516255e-01   7.492843e-03
  2.470185e+00    5.620171e-01   7.565337e-03
  2.472395e+00    5.449519e-01   7.450818e-03
  2.474606e+00    5.583430e-01   7.543346e-03
  2.476816e+00    5.615952e-01   7.566061e-03
  2.479027e+00    5.467975e-01   7.466545e-03
  2.481237e+00    5.515056e-01   7.498891e-03
  2.483448e+00    5.660417e-01   7.597388e-03
  2.485658e+00    5.553946e-01   7.525464e-03
  2.487869e+00    5.517859e-01   7.501001e-03
  2.490079e+00    5.525985e-01   7.506001e-03
  2.492290e+00    5.464979e-01   7.464008e-03
  2.494500e+00    5.475538e-01   7.470498e-03
  2.496710e+00    5.412294e-01   7.426503e-03
  2.498921e+00    5.657544e-01   7.591895e-03
  2.501131e+00    5.507526e-01   7.489609e-03
  2.503342e+00    5.411651e-01   7.422851e-03
  2.505552e+00    5.340552e-01   7.372801e-03
  2.507763e+00    5.403067e-01   7.414382e-03
  2.509973e+00    5.295417e-01   7.338784e-03
  2.512184e+00    5.110555e-01   7.207932e-03
  2.514394e+00    5.202186e-01   7.262958e-03
  2.516605e+00    5.406177e-01   7.356306e-03
  2.518815e+00    5.355054e-01   7.292856e-03
  2.521025e+00    5.668419e-01   7.481427e-03
  2.523236e+00    5.604014e-01   7.420259e-03
  2.525446e+00    5.571883e-01   7.382866e-03
  2.527657e+00    5.440729e-01   7.280625e-03
  2.529867e+00    5.357888e-01   7.210630e-03
  2.532078e+00    5.480344e-01   7.277214e-03
  2.534288e+00    5.272669e-01   7.124077e-03
  2.536499e+00    5.392315e-01   7.192358e-03
  2.538709e+00    5.269262e-01   7.098785e-03
  2.540920e+00    5.297494e-01   7.107088e-03
  2.543130e+00    5.232364e-01   7.052893e-03
  2.545340e+00    5.145905e-01   6.984419e-03
  2.547551e+00    5.183074e-01   6.999684e-03
  2.549761e+00    5.304720e-01   7.071691e-03
  2.551972e+00    5.251914e-01   7.027032e-03
  2.554182e+00    5.272583e-01   7.031605e-03
  2.556393e+00    5.278732e-01   7.026574e-03
  2.558603e+00    5.138998e-01   6.923917e-03
  2.560814e+00    5.110912e-01   6.896338e-03
  2.563024e+00    5.132580e-01   6.902419e-03
  2.565235e+00    5.137648e-01   6.896360e-03
  2.567445e+00    5.369707e-01   7.040668e-03
  2.569656e+00    5.217168e-01   6.930177e-03
  2.571866e+00    5.227578e-01   6.927685e-03
  2.574076e+00    5.190343e-01   6.893666e-03
  2.576287e+00    5.271291e-01   6.938805e-03
  2.578497e+00    5.178401e-01   6.869549e-03
  2.580708e+00    5.262488e-01   6.916923e-03
  2.582918e+00    5.093252e-01   6.797079e-03
  2.585129e+00    5.222796e-01   6.875158e-03
  2.587339e+00    5.130959e-01   6.806780e-03
  2.589550e+00    5.054175e-01   6.748154e-03
  2.591760e+00    5.165040e-01   6.813992e-03
  2.593971e+00    5.157893e-01   6.801733e-03
  2.596181e+00    5.018226e-01   6.702840e-03
  2.598391e+00    4.992606e-01   6.680573e-03
  2.600602e+00    5.058708e-01   6.718765e-03
  2.602812e+00    5.098845e-01   6.737818e-03
  2.605023e+00    5.150796e-01   6.764852e-03
  2.607233e+00    5.125691e-01   6.741171e-03
  2.609444e+00    4.981086e-01   6.638253e-03
  2.611654e+00    5.045488e-01   6.673698e-03
  2.613865e+00    5.096563e-01   6.700352e-03
  2.616075e+00    5.041424e-01   6.656868e-03
  2.618286e+00    5.089678e-01   6.681635e-03
  2.620496e+00    5.064104e-01   6.658134e-03
  2.622706e+00    5.022430e-01   6.624952e-03
  2.624917e+00    4.919075e-01   6.550637e-03
  2.627127e+00    4.989264e-01   6.591517e-03
  2.629338e+00    5.060877e-01   6.632642e-03
  2.631548e+00    5.120797e-01   6.665580e-03
  2.633759e+00    5.164025e-01   6.686405e-03
  2.635969e+00    5.020674e-01   6.586269e-03
  2.638180e+00    5.043901e-01   6.594464e-03
  2.640390e+00    5.140568e-01   6.650677e-03
  2.642601e+00    5.138730e-01   6.642748e-03
  2.644811e+00    4.952189e-01   6.514017e-03
  2.647021e+00    5.039762e-01   6.564759e-03
  2.649232e+00    4.940132e-01   6.492884e-03
  2.651442e+00    5.010455e-01   6.532402e-03
  2.653653e+00    4.905151e-01   6.456677e-03
  2.655863e+00    4.866020e-01   6.424245e-03
  2.658074e+00    4.938158e-01   6.465113e-03
  2.660284e+00    5.014938e-01   6.508796e-03
  2.662495e+00    5.015054e-01   6.502108e-03
  2.664705e+00    4.934136e-01   6.442872e-03
  2.666916e+00    5.005922e-01   6.483090e-03
  2.669126e+00    5.072063e-01   6.519241e-03
  2.671337e+00    5.021324e-01   6.479939e-03
  2.673547e+00    4.846775e-01   6.360001e-03
  2.675757e+00    4.941798e-01   6.415586e-03
  2.677968e+00    5.033303e-01   6.468138e-03
  2.680178e+00    4.962664e-01   6.416170e-03
  2.682389e+00    4.858113e-01   6.341884e-03
  2.684599e+00    4.919019e-01   6.375323e-03
  2.686810e+00    5.035475e-01   6.443668e-03
  2.689020e+00    4.974909e-01   6.398480e-03
  2.691231e+00    5.002475e-01   6.409827e-03
  2.693441e+00    4.896919e-01   6.335706e-03
  2.695652e+00    4.873280e-01   6.313892e-03
  2.697862e+00    4.821836e-01   6.274195e-03
  2.700072e+00    4.828484e-01   6.272468e-03
  2.702283e+00    4.960836e-01   6.351588e-03
  2.704493e+00    4.858533e-01   6.279510e-03
  2.706704e+00    4.899038e-01   6.299206e-03
  2.708914e+00    4.818467e-01   6.241259e-03
  2.711125e+00    4.999713e-01   6.351228e-03
  2.713335e+00    4.849232e-01   6.248866e-03
  2.715546e+00    4.930520e-01   6.294498e-03
  2.717756e+00    4.970139e-01   6.313805e-03
  2.719967e+00    4.868110e-01   6.242443e-03
  2.722177e+00    4.968575e-01   6.300323e-03
  2.724387e+00    4.917289e-01   6.261582e-03
  2.726598e+00    5.002395e-01   6.309388e-03
  2.728808e+00    5.009685e-01   6.307732e-03
  2.731019e+00    4.962176e-01   6.271554e-03
  2.733229e+00    4.883640e-01   6.215921e-03
  2.735440e+00    4.730250e-01   6.111298e-03
  2.737650e+00    4.786631e-01   6.141634e-03
  2.739861e+00    4.851565e-01   6.177071e-03
  2.742071e+00    4.815198e-01   6.148145e-03
  2.744282e+00    4.800919e-01   6.132784e-03
  2.746492e+00    4.938336e-01   6.213828e-03
  2.748702e+00    4.842868e-01   6.147575e-03
  2.750913e+00    4.812986e-01   6.122755e-03
  2.753123e+00    4.874699e-01   6.155759e-03
  2.755334e+00    4.760410e-01   6.077108e-03
  2.757544e+00    4.705063e-01   6.036009e-03
  2.759755e+00    4.804367e-01   6.093466e-03
  2.761965e+00    4.853387e-01   6.118490e-03
  2.764176e+00    4.800075e-01   6.078787e-03
  2.766386e+00    4.904100e-01   6.138458e-03
  2.768597e+00    4.842629e-01   6.093979e-03
  2.770807e+00    4.664175e-01   5.974826e-03
  2.773017e+00    4.832892e-01   6.075940e-03
  2.775228e+00    4.925566e-01   6.128049e-03
  2.777438e+00    4.859101e-01   6.080731e-03
  2.779649e+00    4.736620e-01   5.997718e-03
  2.781859e+00    4.909708e-01   6.100485e-03
  2.784070e+00    4.893248e-01   6.084316e-03
  2.786280e+00    4.926017e-01   6.098797e-03
  2.788491e+00    4.846128e-01   6.043262e-03
  2.790701e+00    4.743150e-01   5.973062e-03
  2.792912e+00    4.870542e-01   6.046713e-03
  2.795122e+00    4.928144e-01   6.076539e-03
  2.797333e+00    4.876880e-01   6.039222e-03
  2.799543e+00    4.854491e-01   6.019418e-03
  2.801753e+00    4.789871e-01   5.973344e-03
  2.803964e+00    4.760216e-01   5.949158e-03
  2.806174e+00    4.833210e-01   5.988397e-03
  2.808385e+00    4.678547e-01   5.885065e-03
  2.810595e+00    4.746839e-01   5.920970e-03
  2.812806e+00    4.808542e-01   5.952710e-03
  2.815016e+00    4.585214e-01   5.808150e-03
  2.817227e+00    4.759108e-01   5.943219e-03
  2.819437e+00    4.869207e-01   6.022837e-03
  2.821648e+00    4.837729e-01   6.005639e-03
  2.823858e+00    4.768988e-01   5.968186e-03
  2.826068e+00    4.836587e-01   6.015361e-03
  2.828279e+00    4.763197e-01   5.973608e-03
  2.830489e+00    4.704187e-01   5.939822e-03
  2.832700e+00    4.803751e-01   6.004926e-03
  2.834910e+00    4.772197e-01   5.987251e-03
  2.837121e+00    4.693360e-01   5.939303e-03
  2.839331e+00    4.662236e-01   5.920798e-03
  2.841542e+00    4.654677e-01   5.916990e-03
  2.843752e+00    4.809237e-01   6.015230e-03
  2.845963e+00    4.825036e-01   6.025509e-03
  2.848173e+00    4.757845e-01   5.983490e-03
  2.850383e+00    4.778626e-01   5.996844e-03
  2.852594e+00    4.770783e-01   5.991840e-03
  2.854804e+00    4.666415e-01   5.925446e-03
  2.857015e+00    4.604807e-01   5.885751e-03
  2.859225e+00    4.633712e-01   5.903949e-03
  2.861436e+00    4.661463e-01   5.920955e-03
  2.863646e+00    4.706494e-01   5.949520e-03
  2.865857e+00    4.630336e-01   5.901524e-03
  2.868067e+00    4.540740e-01   5.844373e-03
  2.870278e+00    4.597070e-01   5.880158e-03
  2.872488e+00    4.608832e-01   5.886518e-03
  2.874698e+00    4.539804e-01   5.841236e-03
  2.876909e+00    4.646499e-01   5.908148e-03
  2.879119e+00    4.682711e-01   5.929485e-03
  2.881330e+00    4.706926e-01   5.943337e-03
  2.883540e+00    4.522102e-01   5.824096e-03
  2.885751e+00    4.588369e-01   5.864966e-03
  2.887961e+00    4.691220e-01   5.928446e-03
  2.890172e+00    4.665923e-01   5.910818e-03
  2.892382e+00    4.759660e-01   5.968072e-03
  2.894593e+00    4.716111e-01   5.938879e-03
  2.896803e+00    4.633358e-01   5.884545e-03
  2.899014e+00    4.669198e-01   5.905331e-03
  2.901224e+00    4.627703e-01   5.877038e-03
  2.903434e+00    4.671622e-01   5.902912e-03
  2.905645e+00    4.621851e-01   5.869152e-03
  2.907855e+00    4.568787e-01   5.833254e-03
  2.910066e+00    4.615971e-01   5.861225e-03
  2.912276e+00    4.639309e-01   5.873883e-03
  2.914487e+00    4.625070e-01   5.862401e-03
  2.916697e+00    4.525152e-01   5.796524e-03
  2.918908e+00    4.504184e-01   5.781089e-03
  2.921118e+00    4.646935e-01   5.869262e-03
  2.923329e+00    4.583685e-01   5.826881e-03
  2.925539e+00    4.512623e-01   5.779261e-03
  2.927749e+00    4.570370e-01   5.813811e-03
  2.929960e+00    4.606010e-01   5.833648e-03
  2.932170e+00    4.617140e-01   5.838354e-03
  2.934381e+00    4.582019e-01   5.813660e-03
  2.936591e+00    4.586109e-01   5.813663e-03
  2.938802e+00    4.542510e-01   5.783276e-03
  2.941012e+00    4.626737e-01   5.834267e-03
  2.943223e+00    4.750942e-01   5.909322e-03
  2.945433e+00    4.593015e-01   5.806535e-03
  2.947644e+00    4.653702e-01   5.840575e-03
  2.949854e+00    4.557058e-01   5.775352e-03
  2.952064e+00    4.474099e-01   5.718341e-03
  2.954275e+00    4.631527e-01   5.813642e-03
  2.956485e+00    4.558569e-01   5.763460e-03
  2.958696e+00    4.651948e-01   5.817780e-03
  2.960906e+00    4.629171e-01   5.799307e-03
  2.963117e+00    4.430435e-01   5.669025e-03
  2.965327e+00    4.537275e-01   5.733056e-03
  2.967538e+00    4.627140e-01   5.786632e-03
  2.969748e+00    4.528382e-01   5.721732e-03
  2.971959e+00    4.620379e-01   5.776386e-03
  2.974169e+00    4.622270e-01   5.774984e-03
  2.976379e+00    4.609204e-01   5.763848e-03
  2.978590e+00    4.736122e-01   5.839488e-03
  2.980800e+00    4.534588e-01   5.711101e-03
  2.983011e+00    4.470764e-01   5.667975e-03
  2.985221e+00    4.557100e-01   5.719283e-03
  2.987432e+00    4.597044e-01   5.741172e-03
  2.989642e+00    4.452776e-01   5.647766e-03
  2.991853e+00    4.467223e-01   5.653660e-03
  2.994063e+00    4.566477e-01   5.713204e-03
  2.996274e+00    4.684857e-01   5.783544e-03
  2.998484e+00    4.740454e-01   5.815027e-03
  3.000694e+00    4.620213e-01   5.737306e-03
  3.002905e+00    4.593725e-01   5.717884e-03
  3.005115e+00    4.636121e-01   5.741192e-03
  3.007326e+00    4.642344e-01   5.741847e-03
  3.009536e+00    4.604882e-01   5.715360e-03
  3.011747e+00    4.551149e-01   5.678988e-03
  3.013957e+00    4.525046e-01   5.659524e-03
  3.016168e+00    4.493591e-01   5.636547e-03
  3.018378e+00    4.548515e-01   5.667847e-03
  3.020589e+00    4.504689e-01   5.637267e-03
  3.022799e+00    4.537371e-01   5.654539e-03
  3.025010e+00    4.432068e-01   5.585302e-03
  3.027220e+00    4.444259e-01   5.589915e-03
  3.029430e+00    4.540272e-01   5.646709e-03
  3.031641e+00    4.461325e-01   5.594293e-03
  3.033851e+00    4.496212e-01   5.612611e-03
  3.036062e+00    4.506756e-01   5.616411e-03
  3.038272e+00    4.609103e-01   5.676209e-03
  3.040483e+00    4.599365e-01   5.666972e-03
  3.042693e+00    4.412602e-01   5.547482e-03
  3.044904e+00    4.453685e-01   5.569259e-03
  3.047114e+00    4.556755e-01   5.628481e-03
  3.049325e+00    4.549201e-01   5.619424e-03
  3.051535e+00    4.511551e-01   5.591717e-03
  3.053745e+00    4.492726e-01   5.575295e-03
  3.055956e+00    4.418367e-01   5.524437e-03
  3.058166e+00    4.543209e-01   5.597660e-03
  3.060377e+00    4.489545e-01   5.559738e-03
  3.062587e+00    4.509715e-01   5.567575e-03
  3.064798e+00    4.514187e-01   5.566094e-03
  3.067008e+00    4.401481e-01   5.491465e-03
  3.069219e+00    4.505089e-01   5.551216e-03
  3.071429e+00    4.589733e-01   5.599568e-03
  3.073640e+00    4.593109e-01   5.598277e-03
  3.075850e+00    4.434890e-01   5.497447e-03
  3.078060e+00    4.415714e-01   5.482458e-03
  3.080271e+00    4.498049e-01   5.529867e-03
  3.082481e+00    4.407081e-01   5.470239e-03
  3.084692e+00    4.436786e-01   5.485278e-03
  3.086902e+00    4.511820e-01   5.528235e-03
  3.089113e+00    4.444686e-01   5.483382e-03
  3.091323e+00    4.496654e-01   5.511956e-03
  3.093534e+00    4.545710e-01   5.538552e-03
  3.095744e+00    4.450659e-01   5.476986e-03
  3.097955e+00    4.340757e-01   5.405440e-03
  3.100165e+00    4.329479e-01   5.395125e-03
  3.102375e+00    4.456041e-01   5.469998e-03
  3.104586e+00    4.460157e-01   5.469036e-03
  3.106796e+00    4.389944e-01   5.422340e-03
  3.109007e+00    4.553685e-01   5.519260e-03
  3.111217e+00    4.687846e-01   5.596205e-03
  3.113428e+00    4.482600e-01   5.468906e-03
  3.115638e+00    4.496041e-01   5.473868e-03
  3.117849e+00    4.457392e-01   5.446528e-03
  3.120059e+00    4.569679e-01   5.511208e-03
  3.122270e+00    4.549138e-01   5.495525e-03
  3.124480e+00    4.421424e-01   5.414152e-03
  3.126691e+00    4.498014e-01   5.457259e-03
  3.128901e+00    4.405991e-01   5.398042e-03
  3.131111e+00    4.531846e-01   5.470706e-03
  3.133322e+00    4.531020e-01   5.466743e-03
  3.135532e+00    4.480898e-01   5.432986e-03
  3.137743e+00    4.625126e-01   5.516194e-03
  3.139953e+00    4.586455e-01   5.489341e-03
  3.142164e+00    4.437117e-01   5.411263e-03
  3.144374e+00    4.384987e-01   5.407655e-03
  3.146585e+00    4.426650e-01   5.447856e-03
  3.148795e+00    4.457845e-01   5.477823e-03
  3.151006e+00    4.474016e-01   5.496357e-03
  3.153216e+00    4.481740e-01   5.508287e-03
  3.155426e+00    4.385437e-01   5.455090e-03
  3.157637e+00    4.580935e-01   5.580960e-03
  3.159847e+00    4.464115e-01   5.514266e-03
  3.162058e+00    4.432128e-01   5.498919e-03
  3.164268e+00    4.429101e-01   5.501111e-03
  3.166479e+00    4.422715e-01   5.500809e-03
  3.168689e+00    4.419651e-01   5.502288e-03
  3.170900e+00    4.483672e-01   5.545190e-03
  3.173110e+00    4.291292e-01   5.427773e-03
  3.175321e+00    4.326443e-01   5.452430e-03
  3.177531e+00    4.439940e-01   5.526233e-03
  3.179741e+00    4.495273e-01   5.562662e-03
  3.181952e+00    4.412798e-01   5.513528e-03
  3.184162e+00    4.424604e-01   5.523107e-03
  3.186373e+00    4.328503e-01   5.464376e-03
  3.188583e+00    4.406702e-01   5.515317e-03
  3.190794e+00    4.351393e-01   5.482341e-03
  3.193004e+00    4.308796e-01   5.456679e-03
  3.195215e+00    4.417141e-01   5.526372e-03
  3.197425e+00    4.386500e-01   5.508387e-03
  3.199636e+00    4.204746e-01   5.392300e-03
  3.201846e+00    4.358930e-01   5.489673e-03
  3.204056e+00    4.374695e-01   5.500481e-03
  3.206267e+00    4.404225e-01   5.519861e-03
  3.208477e+00    4.373227e-01   5.501349e-03
  3.210688e+00    4.323541e-01   5.470831e-03
  3.212898e+00    4.504989e-01   5.585056e-03
  3.215109e+00    4.239369e-01   5.418647e-03
  3.217319e+00    4.358130e-01   5.494650e-03
  3.219530e+00    4.237505e-01   5.418474e-03
  3.221740e+00    4.381871e-01   5.510552e-03
  3.223951e+00    4.326794e-01   5.476296e-03
  3.226161e+00    4.382404e-01   5.511545e-03
  3.228372e+00    4.581696e-01   5.636035e-03
  3.230582e+00    4.382029e-01   5.512009e-03
  3.232792e+00    4.413758e-01   5.532147e-03
  3.235003e+00    4.376574e-01   5.509048e-03
  3.237213e+00    4.307236e-01   5.465337e-03
  3.239424e+00    4.157010e-01   5.369175e-03
  3.241634e+00    4.267700e-01   5.440310e-03
  3.243845e+00    4.381790e-01   5.512619e-03
  3.246055e+00    4.238291e-01   5.421350e-03
  3.248266e+00    4.281417e-01   5.449045e-03
  3.250476e+00    4.335386e-01   5.482974e-03
  3.252687e+00    4.252394e-01   5.430175e-03
  3.254897e+00    4.266426e-01   5.439002e-03
  3.257107e+00    4.229131e-01   5.414865e-03
  3.259318e+00    4.272405e-01   5.442258e-03
  3.261528e+00    4.299128e-01   5.459107e-03
  3.263739e+00    4.459049e-01   5.559143e-03
  3.265949e+00    4.411690e-01   5.529434e-03
  3.268160e+00    4.393035e-01   5.517298e-03
  3.270370e+00    4.480267e-01   5.571278e-03
  3.272581e+00    4.445454e-01   5.549329e-03
  3.274791e+00    4.202661e-01   5.395127e-03
  3.277002e+00    4.202244e-01   5.394298e-03
  3.279212e+00    4.222022e-01   5.406590e-03
  3.281422e+00    4.279605e-01   5.442753e-03
  3.283633e+00    4.212342e-01   5.399151e-03
  3.285843e+00    4.259200e-01   5.428741e-03
  3.288054e+00    4.237019e-01   5.413673e-03
  3.290264e+00    4.180580e-01   5.377164e-03
  3.292475e+00    4.329149e-01   5.471032e-03
  3.294685e+00    4.316371e-01   5.462319e-03
  3.296896e+00    4.235180e-01   5.409950e-03
  3.299106e+00    4.247383e-01   5.417184e-03
  3.301317e+00    4.180382e-01   5.373267e-03
  3.303527e+00    4.216816e-01   5.396150e-03
  3.305737e+00    4.362534e-01   5.487529e-03
  3.307948e+00    4.309217e-01   5.453242e-03
  3.310158e+00    4.309110e-01   5.452300e-03
  3.312369e+00    4.227166e-01   5.399334e-03
  3.314579e+00    4.370287e-01   5.489035e-03
  3.316790e+00    4.355331e-01   5.478927e-03
  3.319000e+00    4.216767e-01   5.389904e-03
  3.321211e+00    4.267670e-01   5.421706e-03
  3.323421e+00    4.189093e-01   5.370370e-03
  3.325632e+00    4.285299e-01   5.430783e-03
  3.327842e+00    4.232156e-01   5.396098e-03
  3.330052e+00    4.285537e-01   5.428942e-03
  3.332263e+00    4.168060e-01   5.353007e-03
  3.334473e+00    4.321354e-01   5.449621e-03
  3.336684e+00    4.230502e-01   5.390784e-03
  3.338894e+00    4.171933e-01   5.352485e-03
  3.341105e+00    4.191873e-01   5.364046e-03
  3.343315e+00    4.129748e-01   5.323044e-03
  3.345526e+00    4.318275e-01   5.442234e-03
  3.347736e+00    4.428277e-01   5.509713e-03
  3.349947e+00    4.270787e-01   5.409912e-03
  3.352157e+00    4.127857e-01   5.317429e-03
  3.354368e+00    4.227132e-01   5.379699e-03
  3.356578e+00    4.240306e-01   5.387049e-03
  3.358788e+00    4.214362e-01   5.369218e-03
  3.360999e+00    4.242219e-01   5.385661e-03
  3.363209e+00    4.215483e-01   5.367665e-03
  3.365420e+00    4.262360e-01   5.395880e-03
  3.367630e+00    4.276694e-01   5.403914e-03
  3.369841e+00    4.322389e-01   5.431253e-03
  3.372051e+00    4.320173e-01   5.427873e-03
  3.374262e+00    4.172733e-01   5.332008e-03
  3.376472e+00    4.114851e-01   5.292444e-03
  3.378683e+00    4.187660e-01   5.336559e-03
  3.380893e+00    4.186714e-01   5.333608e-03
  3.383103e+00    4.102557e-01   5.277034e-03
  3.385314e+00    4.186311e-01   5.328395e-03
  3.387524e+00    4.032132e-01   5.226673e-03
  3.389735e+00    4.134713e-01   5.290091e-03
  3.391945e+00    4.182101e-01   5.316650e-03
  3.394156e+00    4.159517e-01   5.297999e-03
  3.396366e+00    4.269884e-01   5.364389e-03
  3.398577e+00    4.132493e-01   5.274317e-03
  3.400787e+00    3.996747e-01   5.198733e-03
  3.402998e+00    4.071610e-01   5.285099e-03
  3.405208e+00    4.000225e-01   5.259105e-03
  3.407418e+00    3.845650e-01   5.171940e-03
  3.409629e+00    3.944463e-01   5.251805e-03
  3.411839e+00    4.038120e-01   5.325649e-03
  3.414050e+00    4.015029e-01   5.321434e-03
  3.416260e+00    3.985926e-01   5.311811e-03
  3.418471e+00    4.086562e-01   5.388049e-03
  3.420681e+00    3.958026e-01   5.311186e-03
  3.422892e+00    3.788808e-01   5.204272e-03
  3.425102e+00    3.731735e-01   5.172571e-03
  3.427313e+00    3.757390e-01   5.197385e-03
  3.429523e+00    3.858250e-01   5.273732e-03
  3.431733e+00    3.890802e-01   5.302623e-03
  3.433944e+00    3.807090e-01   5.251735e-03
  3.436154e+00    3.862090e-01   5.295787e-03
  3.438365e+00    3.731416e-01   5.211299e-03
  3.440575e+00    3.924661e-01   5.350542e-03
  3.442786e+00    3.787609e-01   5.261919e-03
  3.444996e+00    3.727659e-01   5.225567e-03
  3.447207e+00    3.779724e-01   5.267235e-03
  3.449417e+00    3.789256e-01   5.315098e-03
  3.451628e+00    3.719914e-01   5.295816e-03
  3.453838e+00    3.728904e-01   5.323528e-03
  3.456049e+00    3.766733e-01   5.374642e-03
  3.458259e+00    3.923259e-01   5.507908e-03
  3.460469e+00    3.665443e-01   5.343650e-03
  3.462680e+00    3.648462e-01   5.350268e-03
  3.464890e+00    3.703034e-01   5.408023e-03
  3.467101e+00    3.781835e-01   5.482965e-03
  3.469311e+00    3.914882e-01   5.595620e-03
  3.471522e+00    3.845231e-01   5.562225e-03
  3.473732e+00    4.075063e-01   5.742549e-03
  3.475943e+00    4.142769e-01   5.806436e-03
  3.478153e+00    4.230566e-01   5.883741e-03
  3.480364e+00    4.312986e-01   5.956667e-03
  3.482574e+00    4.200535e-01   5.894131e-03
  3.484784e+00    4.335508e-01   6.003364e-03
  3.486995e+00    4.440398e-01   6.091128e-03
  3.489205e+00    4.429390e-01   6.098625e-03
  3.491416e+00    4.219586e-01   5.967259e-03
  3.493626e+00    4.217928e-01   5.980424e-03
  3.495837e+00    4.312353e-01   6.061597e-03
  3.498047e+00    4.561962e-01   6.249256e-03
  3.500258e+00    4.542377e-01   6.250427e-03
  3.502468e+00    4.434842e-01   6.190246e-03
  3.504679e+00    4.709681e-01   6.393841e-03
  3.506889e+00    4.746660e-01   6.433456e-03
  3.509099e+00    4.635456e-01   6.371907e-03
  3.511310e+00    4.745634e-01   6.461594e-03
  3.513520e+00    4.768479e-01   6.491502e-03
  3.515731e+00    5.011268e-01   6.669281e-03
  3.517941e+00    5.054052e-01   6.712294e-03
  3.520152e+00    5.086080e-01   6.748032e-03
  3.522362e+00    5.064963e-01   6.748592e-03
  3.524573e+00    5.191039e-01   6.846486e-03
  3.526783e+00    5.325894e-01   6.948534e-03
  3.528994e+00    5.411820e-01   7.016861e-03
  3.531204e+00    5.489500e-01   7.079848e-03
  3.533414e+00    5.357615e-01   7.006472e-03
  3.535625e+00    5.404775e-01   7.049758e-03
  3.537835e+00    5.379712e-01   7.045543e-03
  3.540046e+00    5.435529e-01   7.091028e-03
  3.542256e+00    5.352859e-01   7.044441e-03
  3.544467e+00    5.229854e-01   6.970539e-03
  3.546677e+00    5.330442e-01   7.044785e-03
  3.548888e+00    5.423193e-01   7.113374e-03
  3.551098e+00    5.389608e-01   7.098630e-03
  3.553309e+00    5.398692e-01   7.112802e-03
  3.555519e+00    5.346552e-01   7.089640e-03
  3.557729e+00    5.452831e-01   7.171595e-03
  3.559940e+00    5.427688e-01   7.166650e-03
  3.562150e+00    5.394375e-01   7.156400e-03
  3.564361e+00    5.180928e-01   7.026460e-03
  3.566571e+00    5.594676e-01   7.315736e-03
  3.568782e+00    5.541980e-01   7.295613e-03
  3.570992e+00    5.452555e-01   7.250347e-03
  3.573203e+00    5.532789e-01   7.317890e-03
  3.575413e+00    5.470120e-01   7.290242e-03
  3.577624e+00    5.222847e-01   7.137509e-03
  3.579834e+00    5.396677e-01   7.269216e-03
  3.582045e+00    5.566683e-01   7.397124e-03
  3.584255e+00    5.537274e-01   7.391879e-03
  3.586465e+00    5.429701e-01   7.333739e-03
  3.588676e+00    5.463431e-01   7.370791e-03
  3.590886e+00    5.518206e-01   7.421569e-03
  3.593097e+00    5.393429e-01   7.351751e-03
  3.595307e+00    5.358059e-01   7.341491e-03
  3.597518e+00    5.601483e-01   7.520973e-03
  3.599728e+00    5.397664e-01   7.397036e-03
  3.601939e+00    5.368616e-01   7.391169e-03
  3.604149e+00    5.511727e-01   7.503633e-03
  3.606360e+00    5.604072e-01   7.580733e-03
  3.608570e+00    5.398345e-01   7.454489e-03
  3.610780e+00    5.419043e-01   7.479922e-03
  3.612991e+00    5.389603e-01   7.469601e-03
  3.615201e+00    5.261898e-01   7.390322e-03
  3.617412e+00    5.216996e-01   7.365876e-03
  3.619622e+00    5.319186e-01   7.443600e-03
  3.621833e+00    5.420361e-01   7.520820e-03
  3.624043e+00    5.546380e-01   7.617450e-03
  3.626254e+00    5.392330e-01   7.520676e-03
  3.628464e+00    5.353639e-01   7.504591e-03
  3.630675e+00    5.481309e-01   7.607891e-03
  3.632885e+00    5.473351e-01   7.616962e-03
  3.635095e+00    5.384082e-01   7.569093e-03
  3.637306e+00    5.390500e-01   7.588000e-03
  3.639516e+00    5.566493e-01   7.725744e-03
  3.641727e+00    5.354860e-01   7.592069e-03
  3.643937e+00    5.263700e-01   7.541609e-03
  3.646148e+00    5.544627e-01   7.755115e-03
  3.648358e+00    5.415064e-01   7.679033e-03
  3.650569e+00    5.249025e-01   7.574915e-03
  3.652779e+00    5.310409e-01   7.633881e-03
  3.654990e+00    5.231754e-01   7.591881e-03
  3.657200e+00    5.288343e-01   7.647649e-03
  3.659410e+00    5.447705e-01   7.777192e-03
  3.661621e+00    5.542568e-01   7.860019e-03
  3.663831e+00    5.237599e-01   7.655774e-03
  3.666042e+00    5.400234e-01   7.788928e-03
  3.668252e+00    5.464877e-01   7.850923e-03
  3.670463e+00    5.354890e-01   7.786787e-03
  3.672673e+00    5.416639e-01   7.847156e-03
  3.674884e+00    5.242895e-01   7.735567e-03
  3.677094e+00    5.072554e-01   7.624012e-03
  3.679305e+00    5.424668e-01   7.899931e-03
  3.681515e+00    5.449485e-01   7.933823e-03
  3.683726e+00    5.285130e-01   7.829090e-03
  3.685936e+00    5.391408e-01   7.923214e-03
  3.688146e+00    5.341809e-01   7.902583e-03
  3.690357e+00    5.241029e-01   7.843578e-03
  3.692567e+00    5.175512e-01   7.810335e-03
  3.694778e+00    5.444870e-01   8.027326e-03
  3.696988e+00    5.337592e-01   7.964014e-03
  3.699199e+00    5.215178e-01   7.888264e-03
  3.701409e+00    5.235014e-01   7.919639e-03
  3.703620e+00    5.200541e-01   7.909765e-03
  3.705830e+00    5.433488e-01   8.101617e-03
  3.708041e+00    5.408230e-01   8.099680e-03
  3.710251e+00    5.328729e-01   8.056779e-03
  3.712461e+00    5.185512e-01   7.964421e-03
  3.714672e+00    5.272771e-01   8.047995e-03
  3.716882e+00    5.218272e-01   8.023005e-03
  3.719093e+00    5.253131e-01   8.066990e-03
  3.721303e+00    5.290138e-01   8.112453e-03
  3.723514e+00    5.192448e-01   8.054472e-03
  3.725724e+00    5.212516e-01   8.087230e-03
  3.727935e+00    5.340037e-01   8.203260e-03
  3.730145e+00    5.344366e-01   8.224257e-03
  3.732356e+00    5.118073e-01   8.065681e-03
  3.734566e+00    5.359957e-01   8.271960e-03
  3.736776e+00    5.101894e-01   8.088062e-03
  3.738987e+00    5.248187e-01   8.221102e-03
  3.741197e+00    5.522467e-01   8.451881e-03
  3.743408e+00    5.089014e-01   8.131431e-03
  3.745618e+00    5.152373e-01   8.200177e-03
  3.747829e+00    5.126376e-01   8.197599e-03
  3.750039e+00    5.218168e-01   8.289226e-03
  3.752250e+00    5.271174e-01   8.349997e-03
  3.754460e+00    5.157400e-01   8.278015e-03
  3.756671e+00    5.181332e-01   8.316197e-03
  3.758881e+00    4.995858e-01   8.184446e-03
  3.761091e+00    5.238484e-01   8.400216e-03
  3.763302e+00    5.302754e-01   8.471125e-03
  3.765512e+00    4.989392e-01   8.236131e-03
  3.767723e+00    4.900795e-01   8.181656e-03
  3.769933e+00    5.149896e-01   8.406485e-03
  3.772144e+00    5.179113e-01   8.450125e-03
  3.774354e+00    5.286736e-01   8.557802e-03
  3.776565e+00    4.937150e-01   8.289615e-03
  3.778775e+00    5.012825e-01   8.372789e-03
  3.780986e+00    5.152832e-01   8.509430e-03
  3.783196e+00    5.070427e-01   8.461444e-03
  3.785407e+00    5.139983e-01   8.539952e-03
  3.787617e+00    5.363697e-01   8.745201e-03
  3.789827e+00    5.092413e-01   8.541900e-03
  3.792038e+00    5.089199e-01   8.560192e-03
  3.794248e+00    5.197378e-01   8.672193e-03
  3.796459e+00    4.913753e-01   8.453446e-03
  3.798669e+00    4.980354e-01   8.531814e-03
  3.800880e+00    4.863802e-01   8.452579e-03
  3.803090e+00    4.711995e-01   8.340773e-03
  3.805301e+00    5.059239e-01   8.664801e-03
  3.807511e+00    5.272319e-01   8.868057e-03
  3.809722e+00    5.020307e-01   8.675796e-03
  3.811932e+00    4.763484e-01   8.472618e-03
  3.814142e+00    5.245420e-01   8.914427e-03
  3.816353e+00    4.957178e-01   8.688765e-03
  3.818563e+00    4.879004e-01   8.642809e-03
  3.820774e+00    5.225176e-01   8.967883e-03
  3.822984e+00    4.921191e-01   8.726433e-03
  3.825195e+00    4.881556e-01   8.714601e-03
  3.827405e+00    4.922489e-01   8.774896e-03
  3.829616e+00    4.957813e-01   8.830254e-03
  3.831826e+00    5.126953e-01   9.004251e-03
  3.834037e+00    4.992532e-01   8.909944e-03
  3.836247e+00    4.987418e-01   8.930128e-03
  3.838457e+00    4.980464e-01   8.948951e-03
  3.840668e+00    4.955997e-01   8.952142e-03
  3.842878e+00    5.093164e-01   9.100986e-03
  3.845089e+00    4.870371e-01   8.925135e-03
  3.847299e+00    5.056216e-01   9.119798e-03
  3.849510e+00    5.037200e-01   9.128779e-03
  3.851720e+00    5.067356e-01   9.177677e-03
  3.853931e+00    5.363417e-01   9.461738e-03
  3.856141e+00    5.036108e-01   9.187751e-03
  3.858352e+00    5.068528e-01   9.236693e-03
  3.860562e+00    5.002623e-01   9.195915e-03
  3.862772e+00    5.318891e-01   9.502403e-03
  3.864983e+00    5.021034e-01   9.252470e-03
  3.867193e+00    4.823442e-01   9.088024e-03
  3.869404e+00    5.015829e-01   9.287494e-03
  3.871614e+00    4.780686e-01   9.086877e-03
  3.873825e+00    4.712924e-01   9.042073e-03
  3.876035e+00    5.200456e-01   9.519351e-03
  3.878246e+00    5.000769e-01   9.360816e-03
  3.880456e+00    4.814959e-01   9.213951e-03
  3.882667e+00    5.225099e-01   9.628515e-03
  3.884877e+00    4.991917e-01   9.441263e-03
  3.887087e+00    5.083598e-01   9.557995e-03
  3.889298e+00    4.473281e-01   8.994876e-03
  3.891508e+00    4.821781e-01   9.368883e-03
  3.893719e+00    4.991276e-01   9.563432e-03
  3.895929e+00    5.051833e-01   9.653193e-03
  3.898140e+00    4.727468e-01   9.369218e-03
  3.900350e+00    4.822182e-01   9.494518e-03
  3.902561e+00    4.976956e-01   9.678270e-03
  3.904771e+00    4.935400e-01   9.670718e-03
  3.906982e+00    4.909524e-01   9.678500e-03
  3.909192e+00    5.112338e-01   9.910648e-03
  3.911403e+00    5.064357e-01   9.898705e-03
  3.913613e+00    4.832849e-01   9.703862e-03
  3.915823e+00    4.660203e-01   9.562889e-03
  3.918034e+00    5.040422e-01   9.981211e-03
  3.920244e+00    4.798741e-01   9.774398e-03
  3.922455e+00    4.822932e-01   9.834867e-03
  3.924665e+00    4.747071e-01   9.793187e-03
  3.926876e+00    4.603821e-01   9.680288e-03
  3.929086e+00    4.860779e-01   9.984047e-03
  3.931297e+00    4.739825e-01   9.893436e-03
  3.933507e+00    5.084549e-01   1.027628e-02
  3.935718e+00    5.292701e-01   1.051462e-02
  3.937928e+00    4.995745e-01   1.024523e-02
  3.940138e+00    5.097071e-01   1.037857e-02
  3.942349e+00    4.924420e-01   1.023129e-02
  3.944559e+00    5.018206e-01   1.035872e-02
  3.946770e+00    4.866153e-01   1.023076e-02
  3.948980e+00    4.970891e-01   1.037134e-02
  3.951191e+00    4.830465e-01   1.025449e-02
  3.953401e+00    4.934500e-01   1.039590e-02
  3.955612e+00    4.875164e-01   1.036498e-02
  3.957822e+00    4.964460e-01   1.049134e-02
  3.960033e+00    5.011987e-01   1.057471e-02
  3.962243e+00    4.848934e-01   1.043410e-02
  3.964453e+00    4.793115e-01   1.040666e-02
  3.966664e+00    4.858952e-01   1.051135e-02
  3.968874e+00    5.033991e-01   1.072789e-02
  3.971085e+00    5.055615e-01   1.077332e-02
  3.973295e+00    5.125477e-01   1.086960e-02
  3.975506e+00    4.915870e-01   1.066661e-02
  3.977716e+00    5.063300e-01   1.084800e-02
  3.979927e+00    4.971909e-01   1.077198e-02
  3.982137e+00    4.798441e-01   1.060464e-02
  3.984348e+00    4.901059e-01   1.073999e-02
  3.986558e+00    5.074311e-01   1.095101e-02
  3.988768e+00    5.171779e-01   1.107949e-02
  3.990979e+00    4.886233e-01   1.079211e-02
  3.993189e+00    4.691957e-01   1.059809e-02
  3.995400e+00    4.606226e-01   1.052373e-02
  3.997610e+00    5.034729e-01   1.103268e-02
  3.999821e+00    4.993382e-01   1.102545e-02
  4.002031e+00    5.149711e-01   1.123621e-02
  4.004242e+00    4.992951e-01   1.110300e-02
  4.006452e+00    5.110676e-01   1.127349e-02
  4.008663e+00    4.914046e-01   1.109479e-02
  4.010873e+00    4.887910e-01   1.110537e-02
  4.013084e+00    5.091789e-01   1.137662e-02
  4.015294e+00    4.964747e-01   1.127529e-02
  4.017504e+00    4.820114e-01   1.115164e-02
  4.019715e+00    4.868683e-01   1.125019e-02
  4.021925e+00    5.107733e-01   1.156732e-02
  4.024136e+00    4.953938e-01   1.143595e-02
  4.026346e+00    5.037851e-01   1.157748e-02
  4.028557e+00    4.967592e-01   1.154136e-02
  4.030767e+00    4.761257e-01   1.134442e-02
  4.032978e+00    4.979858e-01   1.164890e-02
  4.035188e+00    4.829861e-01   1.151827e-02
  4.037399e+00    5.015081e-01   1.178540e-02
  4.039609e+00    5.253882e-01   1.211268e-02
  4.041819e+00    5.053571e-01   1.192930e-02
  4.044030e+00    5.093068e-01   1.202698e-02
  4.046240e+00    5.018023e-01   1.198898e-02
  4.048451e+00    5.256760e-01   1.232394e-02
  4.050661e+00    4.900198e-01   1.195050e-02
  4.052872e+00    4.732843e-01   1.179686e-02
  4.055082e+00    4.773398e-01   1.190057e-02
  4.057293e+00    4.576521e-01   1.170486e-02
  4.059503e+00    4.557216e-01   1.173314e-02
  4.061714e+00    4.653599e-01   1.191221e-02
  4.063924e+00    4.801404e-01   1.215644e-02
  4.066134e+00    4.570654e-01   1.191670e-02
  4.068345e+00    4.436828e-01   1.179745e-02
  4.070555e+00    5.040490e-01   1.263505e-02
  4.072766e+00    4.971016e-01   1.260956e-02
  4.074976e+00    4.701947e-01   1.232465e-02
  4.077187e+00    5.036830e-01   1.281938e-02
  4.079397e+00    4.915148e-01   1.272832e-02
  4.081608e+00    4.700039e-01   1.251139e-02
  4.083818e+00    4.779795e-01   1.268277e-02
  4.086029e+00    4.751315e-01   1.271140e-02
  4.088239e+00    5.041031e-01   1.316394e-02
  4.090449e+00    4.658821e-01   1.272366e-02
  4.092660e+00    4.619450e-01   1.273943e-02
  4.094870e+00    4.975162e-01   1.329428e-02
  4.097081e+00    4.723628e-01   1.302500e-02
  4.099291e+00    4.840524e-01   1.323953e-02
  4.101502e+00    5.168466e-01   1.373175e-02
  4.103712e+00    5.019556e-01   1.358312e-02
  4.105923e+00    4.474897e-01   1.287450e-02
  4.108133e+00    4.812551e-01   1.340290e-02
  4.110344e+00    4.686864e-01   1.327732e-02
  4.112554e+00    5.024530e-01   1.380147e-02
  4.114764e+00    5.025135e-01   1.385791e-02
  4.116975e+00    5.330394e-01   1.432899e-02
  4.119185e+00    4.807967e-01   1.366376e-02
  4.121396e+00    4.803174e-01   1.371352e-02
  4.123606e+00    4.898821e-01   1.390606e-02
  4.125817e+00    4.688680e-01   1.366154e-02
  4.128027e+00    4.831859e-01   1.392701e-02
  4.130238e+00    5.073349e-01   1.433208e-02
  4.132448e+00    4.659824e-01   1.379504e-02
  4.134659e+00    4.965748e-01   1.430191e-02
  4.136869e+00    5.226651e-01   1.473846e-02
  4.139080e+00    4.947218e-01   1.440351e-02
  4.141290e+00    4.854059e-01   1.433068e-02
  4.143500e+00    4.563970e-01   1.395977e-02
  4.145711e+00    4.866649e-01   1.448262e-02
  4.147921e+00    4.845156e-01   1.451686e-02
  4.150132e+00    5.150847e-01   1.503927e-02
  4.152342e+00    4.994435e-01   1.488100e-02
  4.154553e+00    4.847869e-01   1.473062e-02
  4.156763e+00    4.902934e-01   1.488744e-02
  4.158974e+00    4.776452e-01   1.476789e-02
  4.161184e+00    4.726343e-01   1.476334e-02
  4.163395e+00    4.432711e-01   1.437019e-02
  4.165605e+00    5.166423e-01   1.559464e-02
  4.167815e+00    4.930466e-01   1.531381e-02
  4.170026e+00    5.316566e-01   1.598606e-02
  4.172236e+00    4.748971e-01   1.519039e-02
  4.174447e+00    4.466546e-01   1.481172e-02
  4.176657e+00    4.607463e-01   1.512580e-02
  4.178868e+00    5.318717e-01   1.634333e-02
  4.181078e+00    5.208634e-01   1.626473e-02
  4.183289e+00    4.842664e-01   1.577244e-02
  4.185499e+00    4.877995e-01   1.592330e-02
  4.187710e+00    5.670786e-01   1.726913e-02
  4.189920e+00    4.847701e-01   1.606316e-02
  4.192130e+00    4.959786e-01   1.634683e-02
  4.194341e+00    4.914953e-01   1.637271e-02
  4.196551e+00    4.685217e-01   1.608669e-02
  4.198762e+00    4.378624e-01   1.565026e-02
  4.200972e+00    4.528874e-01   1.601919e-02
  4.203183e+00    5.215934e-01   1.730486e-02
  4.205393e+00    5.085727e-01   1.720144e-02
  4.207604e+00    4.902326e-01   1.700351e-02
  4.209814e+00    5.368786e-01   1.791611e-02
  4.212025e+00    4.805469e-01   1.707023e-02
  4.214235e+00    4.498085e-01   1.663229e-02
  4.216445e+00    5.125158e-01   1.788239e-02
  4.218656e+00    4.793389e-01   1.742348e-02
  4.220866e+00    4.928586e-01   1.779838e-02
  4.223077e+00    5.318968e-01   1.863189e-02
  4.225287e+00    4.965221e-01   1.814321e-02
  4.227498e+00    5.260187e-01   1.882098e-02
  4.229708e+00    4.768890e-01   1.806637e-02
  4.231919e+00    5.226181e-01   1.906879e-02
  4.234129e+00    4.940547e-01   1.869624e-02
  4.236340e+00    4.563135e-01   1.812129e-02
  4.238550e+00    4.960465e-01   1.906098e-02
  4.240761e+00    4.963392e-01   1.923471e-02
  4.242971e+00    4.590805e-01   1.866837e-02
  4.245181e+00    4.291846e-01   1.821984e-02
  4.247392e+00    5.029196e-01   1.990692e-02
  4.249602e+00    5.275910e-01   2.059218e-02
  4.251813e+00    4.828257e-01   1.989375e-02
  4.254023e+00    4.098671e-01   1.851340e-02
  4.256234e+00    4.852802e-01   2.035978e-02
  4.258444e+00    4.631668e-01   2.009934e-02
  4.260655e+00    4.769268e-01   2.061947e-02
  4.262865e+00    4.306931e-01   1.981685e-02
  4.265076e+00    4.708855e-01   2.095625e-02
  4.267286e+00    4.193158e-01   2.001063e-02
  4.269496e+00    4.516437e-01   2.102049e-02
  4.271707e+00    5.155713e-01   2.273644e-02
  4.273917e+00    5.132940e-01   2.297996e-02
  4.276128e+00    4.471797e-01   2.173339e-02
  4.278338e+00    5.042779e-01   2.338767e-02
  4.280549e+00    4.603696e-01   2.266703e-02
  4.282759e+00    4.891174e-01   2.369945e-02
  4.284970e+00    3.802560e-01   2.120575e-02
  4.287180e+00    4.339553e-01   2.292511e-02
  4.289391e+00    4.335339e-01   2.308578e-02
  4.291601e+00    4.761244e-01   2.438649e-02
  4.293811e+00    5.347934e-01   2.604773e-02
  4.296022e+00    3.672123e-01   2.175759e-02
  4.298232e+00    4.367114e-01   2.392587e-02
  4.300443e+00    4.068040e-01   2.328278e-02
  4.302653e+00    4.698981e-01   2.523962e-02
  4.304864e+00    4.306076e-01   2.437132e-02
  4.307074e+00    5.001232e-01   2.649961e-02
  4.309285e+00    5.622423e-01   2.835398e-02
  4.311495e+00    4.831029e-01   2.652806e-02
  4.313706e+00    4.221703e-01   2.503139e-02
  4.315916e+00    5.085823e-01   2.774473e-02
  4.318126e+00    4.891744e-01   2.748015e-02
  4.320337e+00    4.775614e-01   2.742624e-02
  4.322547e+00    4.122839e-01   2.575238e-02
  4.324758e+00    5.131353e-01   2.902969e-02
  4.326968e+00    4.810410e-01   2.842346e-02
  4.329179e+00    4.441330e-01   2.761214e-02
  4.331389e+00    4.749674e-01   2.888369e-02
  4.333600e+00    4.082326e-01   2.709827e-02
  4.335810e+00    4.844362e-01   2.986924e-02
  4.338021e+00    4.760307e-01   2.998898e-02
  4.340231e+00    5.000288e-01   3.112053e-02
  4.342442e+00    4.383598e-01   2.952996e-02
  4.344652e+00    3.703614e-01   2.751076e-02
  4.346862e+00    5.259197e-01   3.324244e-02
  4.349073e+00    4.766299e-01   3.210716e-02
  4.351283e+00    4.287419e-01   3.090730e-02
  4.353494e+00    3.711571e-01   2.920008e-02
  4.355704e+00    5.054718e-01   3.462490e-02
  4.357915e+00    4.846069e-01   3.446823e-02
  4.360125e+00    4.521680e-01   3.386239e-02
  4.362336e+00    4.412744e-01   3.406090e-02
  4.364546e+00    5.018794e-01   3.698727e-02
  4.366757e+00    5.188335e-01   3.835383e-02
  4.368967e+00    4.421923e-01   3.611488e-02
  4.371177e+00    4.807189e-01   3.845658e-02
  4.373388e+00    5.351394e-01   4.148076e-02
  4.375598e+00    5.800605e-01   4.417189e-02
  4.377809e+00    5.994219e-01   4.603877e-02
  4.380019e+00    4.346896e-01   4.019462e-02
  4.382230e+00    1.785512e-01   2.647718e-02
  4.384440e+00    3.941464e-01   4.047249e-02
  4.386651e+00    5.072802e-01   4.733241e-02
  4.388861e+00    3.219027e-01   3.896512e-02
  4.391072e+00    4.629704e-01   4.837637e-02
  4.393282e+00    4.431902e-01   4.916301e-02
  4.395492e+00    3.396025e-01   4.482173e-02
  4.397703e+00    2.592368e-01   4.094945e-02
  4.399913e+00    3.769747e-01   5.188294e-02
  4.402124e+00    4.052875e-01   5.684293e-02
  4.404334e+00    3.818794e-01   5.865593e-02
  4.406545e+00    4.546726e-01   6.875931e-02
  4.408755e+00    3.364863e-01   6.415962e-02
  4.410966e+00    2.653602e-01   6.305575e-02
  4.413176e+00    4.000081e-01   8.762982e-02
  4.415387e+00   -6.089776e-01            nan
  4.417597e+00   -1.896148e+00            nan
  4.419807e+00   -3.766224e-01            nan
