# == pyFAI calibration ==
# Distance Sample to Detector: 0.216 m
# PONI: 1.166e-01, 1.308e-01 m
# Rotations: 0.000000 0.000000 0.000000 rad
# 
# == Fit2d calibration ==
# Distance Sample-beamCenter: 216.000 mm
# Center: x=1744.293, y=1555.000 pix
# Tilt: 0.000 deg  TiltPlanRot: 0.000 deg
# 
# Detector Eiger 9M	 PixelSize= 7.500e-05, 7.500e-05 m
#    Detector has a mask: True 
#    Detector has a dark current: False 
#    detector has a flat field: False 
# 
# Wavelength: 9.8e-11 m
# Mask applied: from detector
# Dark current applied: False
# Flat field applied: False
# Polarization factor: None
# Normalization factor: 1.0
# 
# Headers of the input frame:
# {
# "_array_data.header_convention": "SLS_1.0",
# "_array_data.header_contents": "# Detector: Dectris Eiger 9M, S/N E-18-0102\r\n# Pixel_size 75e-6 m x 75e-6 m\r\n# Silicon sensor, thickness 0.000450 m\r\n# Exposure_time 0.024997 s\r\n# Exposure_period 0.025000 s\r\n# Count_cutoff 62318 counts\r\n# Wavelength 0.980106 A\r\n# Detector_distance 0.215992 m\r\n# Beam_xy (1555, 1744) pixels\r\n# Start_angle 0.000000 deg.\r\n# Angle_increment 0.000000 deg.",
# "Content-Type": "application/octet-stream;",
# "conversions": "x-CBF_BYTE_OFFSET",
# "Content-Transfer-Encoding": "BINARY",
# "X-Binary-Size": "10166590",
# "X-Binary-ID": "1",
# "X-Binary-Element-Type": "signed 32-bit integer",
# "X-Binary-Element-Byte-Order": "LITTLE_ENDIAN",
# "Content-MD5": "MMFPFpBxkHYX4DxL3sD5gA==",
# "X-Binary-Number-of-Elements": "10166590",
# "X-Binary-Size-Fastest-Dimension": "3110",
# "X-Binary-Size-Second-Dimension": "3269",
# "X-Binary-Size-Padding": "4095"
# }
# --> H:/Proxima2a_2019-04-05/RAW_DATA/C5_gel17_position5/C5_mesh_1_data.cbf/C5_mesh_1_data.cbf000084.dat
#        q_A^-1              I           sigma 
  1.105228e-03    1.921839e+00   7.501455e-01
  3.315685e-03    1.411426e+00   3.908179e-01
  5.526141e-03    1.388954e+00   2.997892e-01
  7.736597e-03    1.708748e+00   2.809048e-01
  9.947054e-03    1.732420e+00   2.493464e-01
  1.215751e-02    1.482403e+00   2.085699e-01
  1.436797e-02    1.477204e+00   1.915121e-01
  1.657842e-02    1.381888e+00   1.724173e-01
  1.878888e-02    1.396252e+00   1.627966e-01
  2.099934e-02    1.385928e+00   1.534520e-01
  2.320979e-02    1.292290e+00   1.409330e-01
  2.542025e-02    1.488114e+00   1.445199e-01
  2.763070e-02    1.532747e+00   1.406778e-01
  2.984116e-02    1.408233e+00   1.297519e-01
  3.205162e-02    1.527102e+00   1.303828e-01
  3.426207e-02    1.587630e+00   1.285729e-01
  3.647253e-02    1.420458e+00   1.178702e-01
  3.868299e-02    1.293932e+00   1.092449e-01
  4.089344e-02    1.332570e+00   1.078265e-01
  4.310390e-02    1.344320e+00   1.054812e-01
  4.531436e-02    1.456285e+00   1.070752e-01
  4.752481e-02    1.507198e+00   1.063663e-01
  4.973527e-02    1.572071e+00   1.061911e-01
  5.194572e-02    1.354567e+00   9.645022e-02
  5.415618e-02    1.364670e+00   9.480964e-02
  5.636664e-02    1.478911e+00   9.674671e-02
  5.857709e-02    1.351648e+00   9.072905e-02
  6.078755e-02    1.349437e+00   8.898845e-02
  6.299801e-02    1.421943e+00   8.972998e-02
  6.520846e-02    1.410016e+00   8.782592e-02
  6.741892e-02    1.487452e+00   8.870976e-02
  6.962938e-02    1.508124e+00   8.789919e-02
  7.183983e-02    1.551471e+00   8.776955e-02
  7.405029e-02    1.514075e+00   8.539942e-02
  7.626074e-02    1.537157e+00   8.479095e-02
  7.847120e-02    1.488113e+00   8.224168e-02
  8.068166e-02    1.510873e+00   8.172448e-02
  8.289211e-02    1.470898e+00   7.955329e-02
  8.510257e-02    1.334640e+00   7.478791e-02
  8.731303e-02    1.459042e+00   7.719666e-02
  8.952348e-02    1.583432e+00   7.942317e-02
  9.173394e-02    1.438676e+00   7.478515e-02
  9.394439e-02    1.442459e+00   7.399479e-02
  9.615485e-02    1.433241e+00   7.290366e-02
  9.836531e-02    1.484591e+00   7.335772e-02
  1.005758e-01    1.476740e+00   7.235549e-02
  1.027862e-01    1.410308e+00   6.994310e-02
  1.049967e-01    1.456793e+00   7.033297e-02
  1.072071e-01    1.513928e+00   7.095507e-02
  1.094176e-01    1.543156e+00   7.090833e-02
  1.116280e-01    1.465589e+00   6.841412e-02
  1.138385e-01    1.543971e+00   6.953330e-02
  1.160490e-01    1.569340e+00   6.943056e-02
  1.182594e-01    1.497176e+00   6.717718e-02
  1.204699e-01    1.537495e+00   6.744776e-02
  1.226803e-01    1.548706e+00   6.707782e-02
  1.248908e-01    1.503538e+00   6.550413e-02
  1.271012e-01    1.555585e+00   6.604502e-02
  1.293117e-01    1.622628e+00   6.687338e-02
  1.315222e-01    1.612939e+00   6.610925e-02
  1.337326e-01    1.576387e+00   6.481224e-02
  1.359431e-01    1.598732e+00   6.530819e-02
  1.381535e-01    1.535373e+00   6.486008e-02
  1.403640e-01    1.540491e+00   6.524862e-02
  1.425744e-01    1.548443e+00   6.552128e-02
  1.447849e-01    1.616411e+00   6.695928e-02
  1.469953e-01    1.574914e+00   6.605281e-02
  1.492058e-01    1.540438e+00   6.524993e-02
  1.514163e-01    1.498535e+00   6.424946e-02
  1.536267e-01    1.521139e+00   6.460584e-02
  1.558372e-01    1.463760e+00   6.323572e-02
  1.580476e-01    1.575664e+00   6.544916e-02
  1.602581e-01    1.672971e+00   6.726857e-02
  1.624685e-01    1.646944e+00   6.656052e-02
  1.646790e-01    1.593947e+00   6.529281e-02
  1.668895e-01    1.661003e+00   6.645957e-02
  1.690999e-01    1.683883e+00   6.671480e-02
  1.713104e-01    1.744708e+00   6.769830e-02
  1.735208e-01    1.832546e+00   6.916577e-02
  1.757313e-01    1.803728e+00   6.840473e-02
  1.779417e-01    1.798608e+00   6.808478e-02
  1.801522e-01    1.839898e+00   6.864254e-02
  1.823626e-01    1.911853e+00   6.973895e-02
  1.845731e-01    1.920417e+00   6.966859e-02
  1.867836e-01    1.898163e+00   6.903000e-02
  1.889940e-01    1.835650e+00   6.766195e-02
  1.912045e-01    1.922381e+00   6.901072e-02
  1.934149e-01    1.957080e+00   6.939773e-02
  1.956254e-01    1.840173e+00   6.707113e-02
  1.978358e-01    1.856527e+00   6.713761e-02
  2.000463e-01    1.884813e+00   6.742296e-02
  2.022568e-01    1.929165e+00   6.798774e-02
  2.044672e-01    1.933156e+00   6.782489e-02
  2.066777e-01    1.939481e+00   6.771025e-02
  2.088881e-01    2.020894e+00   6.889065e-02
  2.110986e-01    1.982857e+00   6.800523e-02
  2.133090e-01    1.953370e+00   6.727827e-02
  2.155195e-01    1.864594e+00   6.551363e-02
  2.177300e-01    1.934023e+00   6.619802e-02
  2.199404e-01    1.945914e+00   6.465156e-02
  2.221509e-01    1.926906e+00   6.327862e-02
  2.243613e-01    1.939423e+00   6.267899e-02
  2.265718e-01    1.978329e+00   6.260682e-02
  2.287822e-01    2.028644e+00   6.277045e-02
  2.309927e-01    2.054031e+00   6.258661e-02
  2.332031e-01    2.093786e+00   6.264853e-02
  2.354136e-01    2.113099e+00   6.242673e-02
  2.376241e-01    2.043366e+00   6.091155e-02
  2.398345e-01    2.054144e+00   6.061999e-02
  2.420450e-01    2.080722e+00   6.057489e-02
  2.442554e-01    2.101999e+00   6.046435e-02
  2.464659e-01    2.152608e+00   6.077712e-02
  2.486763e-01    2.116367e+00   5.986720e-02
  2.508868e-01    2.058007e+00   5.866360e-02
  2.530973e-01    2.042591e+00   5.808110e-02
  2.553077e-01    2.104721e+00   5.860020e-02
  2.575182e-01    2.111078e+00   5.834140e-02
  2.597286e-01    2.084114e+00   5.763065e-02
  2.619391e-01    2.033017e+00   5.659210e-02
  2.641495e-01    1.956466e+00   5.520916e-02
  2.663600e-01    1.983629e+00   5.528536e-02
  2.685704e-01    1.993060e+00   5.511625e-02
  2.707809e-01    1.942991e+00   5.413070e-02
  2.729914e-01    1.942499e+00   5.384174e-02
  2.752018e-01    2.067908e+00   5.526347e-02
  2.774123e-01    2.009767e+00   5.420275e-02
  2.796227e-01    2.007049e+00   5.389816e-02
  2.818332e-01    1.937003e+00   5.268514e-02
  2.840436e-01    1.994562e+00   5.320303e-02
  2.862541e-01    2.007791e+00   5.312259e-02
  2.884646e-01    2.027713e+00   5.313212e-02
  2.906750e-01    1.965272e+00   5.205966e-02
  2.928855e-01    1.977308e+00   5.197684e-02
  2.950959e-01    2.001891e+00   5.205873e-02
  2.973064e-01    1.923417e+00   5.079885e-02
  2.995168e-01    1.884397e+00   5.005318e-02
  3.017273e-01    1.957398e+00   5.078859e-02
  3.039377e-01    1.943871e+00   5.039120e-02
  3.061482e-01    1.923311e+00   4.990713e-02
  3.083587e-01    1.931520e+00   4.979706e-02
  3.105691e-01    1.903938e+00   4.922904e-02
  3.127796e-01    1.926945e+00   4.931739e-02
  3.149900e-01    1.871104e+00   4.839506e-02
  3.172005e-01    1.859228e+00   4.804398e-02
  3.194109e-01    1.897267e+00   4.833260e-02
  3.216214e-01    1.871109e+00   4.780243e-02
  3.238319e-01    1.817971e+00   4.693207e-02
  3.260423e-01    1.847891e+00   4.712823e-02
  3.282528e-01    1.923158e+00   4.788705e-02
  3.304632e-01    1.879560e+00   4.715774e-02
  3.326737e-01    1.833841e+00   4.639895e-02
  3.348841e-01    1.769012e+00   4.539469e-02
  3.370946e-01    1.799229e+00   4.560849e-02
  3.393050e-01    1.882268e+00   4.647239e-02
  3.415155e-01    1.889268e+00   4.638367e-02
  3.437260e-01    1.865947e+00   4.592567e-02
  3.459364e-01    1.760935e+00   4.444961e-02
  3.481469e-01    1.741565e+00   4.404311e-02
  3.503573e-01    1.797686e+00   4.458409e-02
  3.525678e-01    1.773239e+00   4.412211e-02
  3.547782e-01    1.800693e+00   4.430163e-02
  3.569887e-01    1.839877e+00   4.462240e-02
  3.591992e-01    1.868052e+00   4.480367e-02
  3.614096e-01    1.772162e+00   4.348732e-02
  3.636201e-01    1.794392e+00   4.360541e-02
  3.658305e-01    1.814043e+00   4.369399e-02
  3.680410e-01    1.830203e+00   4.373723e-02
  3.702514e-01    1.852627e+00   4.385637e-02
  3.724619e-01    1.835795e+00   4.350803e-02
  3.746724e-01    1.797042e+00   4.290273e-02
  3.768828e-01    1.816968e+00   4.299476e-02
  3.790933e-01    1.787583e+00   4.250672e-02
  3.813037e-01    1.794455e+00   4.244899e-02
  3.835142e-01    1.836632e+00   4.280393e-02
  3.857246e-01    1.795090e+00   4.218012e-02
  3.879351e-01    1.755858e+00   4.158162e-02
  3.901455e-01    1.786573e+00   4.181019e-02
  3.923560e-01    1.791210e+00   4.173138e-02
  3.945665e-01    1.779567e+00   4.146361e-02
  3.967769e-01    1.745251e+00   4.093329e-02
  3.989874e-01    1.808979e+00   4.154379e-02
  4.011978e-01    1.815918e+00   4.149542e-02
  4.034083e-01    1.717162e+00   4.022744e-02
  4.056187e-01    1.733229e+00   4.029069e-02
  4.078292e-01    1.779330e+00   4.069947e-02
  4.100397e-01    1.743990e+00   4.017023e-02
  4.122501e-01    1.760854e+00   4.024321e-02
  4.144606e-01    1.805801e+00   4.063275e-02
  4.166710e-01    1.780290e+00   4.022476e-02
  4.188815e-01    1.733796e+00   3.957878e-02
  4.210919e-01    1.729836e+00   3.941768e-02
  4.233024e-01    1.775001e+00   3.981149e-02
  4.255128e-01    1.813498e+00   4.012461e-02
  4.277233e-01    1.807365e+00   3.994160e-02
  4.299338e-01    1.846858e+00   4.025945e-02
  4.321442e-01    1.855896e+00   4.024237e-02
  4.343547e-01    1.823341e+00   3.977506e-02
  4.365651e-01    1.776825e+00   3.915286e-02
  4.387756e-01    1.729954e+00   3.852483e-02
  4.409860e-01    1.729357e+00   3.841146e-02
  4.431965e-01    1.719509e+00   3.819602e-02
  4.454070e-01    1.758165e+00   3.851553e-02
  4.476174e-01    1.719964e+00   3.799021e-02
  4.498279e-01    1.753384e+00   3.825315e-02
  4.520383e-01    1.742852e+00   3.803344e-02
  4.542488e-01    1.772300e+00   3.824997e-02
  4.564592e-01    1.748756e+00   3.789315e-02
  4.586697e-01    1.687485e+00   3.712460e-02
  4.608801e-01    1.664398e+00   3.677100e-02
  4.630906e-01    1.715753e+00   3.723511e-02
  4.653011e-01    1.766232e+00   3.767955e-02
  4.675115e-01    1.747151e+00   3.737677e-02
  4.697220e-01    1.731242e+00   3.710881e-02
  4.719324e-01    1.699644e+00   3.667348e-02
  4.741429e-01    1.707691e+00   3.666548e-02
  4.763533e-01    1.709609e+00   3.659200e-02
  4.785638e-01    1.709449e+00   3.649578e-02
  4.807743e-01    1.722674e+00   3.654350e-02
  4.829847e-01    1.724427e+00   3.646974e-02
  4.851952e-01    1.707084e+00   3.619406e-02
  4.874056e-01    1.657260e+00   3.557203e-02
  4.896161e-01    1.660190e+00   3.551518e-02
  4.918265e-01    1.660736e+00   3.543280e-02
  4.940370e-01    1.731571e+00   3.609122e-02
  4.962475e-01    1.715603e+00   3.583574e-02
  4.984579e-01    1.670618e+00   3.527562e-02
  5.006684e-01    1.706020e+00   3.556051e-02
  5.028788e-01    1.685975e+00   3.526533e-02
  5.050893e-01    1.683054e+00   3.514907e-02
  5.072997e-01    1.651843e+00   3.473753e-02
  5.095102e-01    1.641072e+00   3.454116e-02
  5.117206e-01    1.710126e+00   3.517656e-02
  5.139311e-01    1.668171e+00   3.466016e-02
  5.161416e-01    1.666072e+00   3.455650e-02
  5.183520e-01    1.664859e+00   3.446181e-02
  5.205625e-01    1.673557e+00   3.447079e-02
  5.227729e-01    1.658428e+00   3.423459e-02
  5.249834e-01    1.664523e+00   3.421781e-02
  5.271938e-01    1.668738e+00   3.418117e-02
  5.294043e-01    1.695745e+00   3.437712e-02
  5.316148e-01    1.758245e+00   3.492475e-02
  5.338252e-01    1.747931e+00   3.474259e-02
  5.360357e-01    1.743814e+00   3.462263e-02
  5.382461e-01    1.732913e+00   3.443625e-02
  5.404566e-01    1.702355e+00   3.405359e-02
  5.426670e-01    1.724381e+00   3.419596e-02
  5.448775e-01    1.696558e+00   3.384317e-02
  5.470879e-01    1.772404e+00   3.451426e-02
  5.492984e-01    1.782299e+00   3.453350e-02
  5.515089e-01    1.768771e+00   3.432591e-02
  5.537193e-01    1.790470e+00   3.445973e-02
  5.559298e-01    1.743756e+00   3.393264e-02
  5.581402e-01    1.795953e+00   3.436149e-02
  5.603507e-01    1.765462e+00   3.399443e-02
  5.625611e-01    1.775207e+00   3.401414e-02
  5.647716e-01    1.739216e+00   3.359448e-02
  5.669821e-01    1.808386e+00   3.418213e-02
  5.691925e-01    1.793539e+00   3.396848e-02
  5.714030e-01    1.775056e+00   3.372093e-02
  5.736134e-01    1.740626e+00   3.332129e-02
  5.758239e-01    1.711275e+00   3.296862e-02
  5.780343e-01    1.770628e+00   3.346454e-02
  5.802448e-01    1.715485e+00   3.287039e-02
  5.824552e-01    1.651072e+00   3.217972e-02
  5.846657e-01    1.579768e+00   3.141155e-02
  5.868762e-01    1.627698e+00   3.181812e-02
  5.890866e-01    1.615371e+00   3.163164e-02
  5.912971e-01    1.665558e+00   3.205276e-02
  5.935075e-01    1.653267e+00   3.186829e-02
  5.957180e-01    1.641822e+00   3.169261e-02
  5.979284e-01    1.653225e+00   3.173758e-02
  6.001389e-01    1.638823e+00   3.153469e-02
  6.023494e-01    1.647572e+00   3.155454e-02
  6.045598e-01    1.651864e+00   3.153128e-02
  6.067703e-01    1.684135e+00   3.177378e-02
  6.089807e-01    1.679342e+00   3.166474e-02
  6.111912e-01    1.680454e+00   3.161197e-02
  6.134016e-01    1.681800e+00   3.156156e-02
  6.156121e-01    1.653822e+00   3.123572e-02
  6.178226e-01    1.677584e+00   3.139703e-02
  6.200330e-01    1.714676e+00   3.167962e-02
  6.222435e-01    1.692184e+00   3.140882e-02
  6.244539e-01    1.690603e+00   3.133265e-02
  6.266644e-01    1.698376e+00   3.134335e-02
  6.288748e-01    1.735443e+00   3.162188e-02
  6.310853e-01    1.713173e+00   3.135731e-02
  6.332957e-01    1.739652e+00   3.153772e-02
  6.355062e-01    1.699539e+00   3.111145e-02
  6.377167e-01    1.685896e+00   3.092686e-02
  6.399271e-01    1.712835e+00   3.111324e-02
  6.421376e-01    1.710260e+00   3.103052e-02
  6.443480e-01    1.677557e+00   3.067393e-02
  6.465585e-01    1.688800e+00   3.071823e-02
  6.487689e-01    1.682432e+00   3.060239e-02
  6.509794e-01    1.640128e+00   3.015820e-02
  6.531899e-01    1.630315e+00   3.001131e-02
  6.554003e-01    1.619925e+00   2.985928e-02
  6.576108e-01    1.615734e+00   2.976510e-02
  6.598212e-01    1.598382e+00   2.954984e-02
  6.620317e-01    1.600819e+00   2.951754e-02
  6.642421e-01    1.624684e+00   2.968172e-02
  6.664526e-01    1.630280e+00   2.967803e-02
  6.686630e-01    1.641952e+00   2.972901e-02
  6.708735e-01    1.616456e+00   2.944319e-02
  6.730840e-01    1.623189e+00   2.945065e-02
  6.752944e-01    1.607822e+00   2.925761e-02
  6.775049e-01    1.601905e+00   2.915070e-02
  6.797153e-01    1.597909e+00   2.906160e-02
  6.819258e-01    1.568480e+00   2.874081e-02
  6.841362e-01    1.578663e+00   2.878209e-02
  6.863467e-01    1.577868e+00   2.872331e-02
  6.885572e-01    1.593524e+00   2.881374e-02
  6.907676e-01    1.578134e+00   2.862289e-02
  6.929781e-01    1.586832e+00   2.865063e-02
  6.951885e-01    1.583380e+00   2.856877e-02
  6.973990e-01    1.564037e+00   2.834352e-02
  6.996094e-01    1.595616e+00   2.857787e-02
  7.018199e-01    1.613682e+00   2.868875e-02
  7.040303e-01    1.598029e+00   2.849915e-02
  7.062408e-01    1.596562e+00   2.843613e-02
  7.084513e-01    1.612005e+00   2.852365e-02
  7.106617e-01    1.569651e+00   2.809752e-02
  7.128722e-01    1.568993e+00   2.804302e-02
  7.150826e-01    1.586768e+00   2.815282e-02
  7.172931e-01    1.581203e+00   2.805496e-02
  7.195035e-01    1.548626e+00   2.771673e-02
  7.217140e-01    1.552439e+00   2.779991e-02
  7.239245e-01    1.576719e+00   2.824336e-02
  7.261349e-01    1.546671e+00   2.808059e-02
  7.283454e-01    1.594923e+00   2.858809e-02
  7.305558e-01    1.605230e+00   2.873486e-02
  7.327663e-01    1.579987e+00   2.855059e-02
  7.349767e-01    1.592046e+00   2.867580e-02
  7.371872e-01    1.567652e+00   2.844411e-02
  7.393976e-01    1.591232e+00   2.864289e-02
  7.416081e-01    1.592073e+00   2.863421e-02
  7.438186e-01    1.549619e+00   2.810668e-02
  7.460290e-01    1.565484e+00   2.795679e-02
  7.482395e-01    1.554430e+00   2.768786e-02
  7.504499e-01    1.583369e+00   2.780775e-02
  7.526604e-01    1.579019e+00   2.765282e-02
  7.548708e-01    1.564181e+00   2.743346e-02
  7.570813e-01    1.600562e+00   2.769927e-02
  7.592918e-01    1.588727e+00   2.756135e-02
  7.615022e-01    1.590555e+00   2.754322e-02
  7.637127e-01    1.640553e+00   2.793931e-02
  7.659231e-01    1.600158e+00   2.756096e-02
  7.681336e-01    1.578749e+00   2.734431e-02
  7.703440e-01    1.579122e+00   2.731627e-02
  7.725545e-01    1.585737e+00   2.734242e-02
  7.747650e-01    1.612237e+00   2.753131e-02
  7.769754e-01    1.564639e+00   2.706933e-02
  7.791859e-01    1.596483e+00   2.728956e-02
  7.813963e-01    1.605511e+00   2.731358e-02
  7.836068e-01    1.587509e+00   2.710799e-02
  7.858172e-01    1.564283e+00   2.685863e-02
  7.880277e-01    1.610139e+00   2.719761e-02
  7.902381e-01    1.617314e+00   2.720864e-02
  7.924486e-01    1.566288e+00   2.672639e-02
  7.946591e-01    1.583674e+00   2.682625e-02
  7.968695e-01    1.577124e+00   2.672283e-02
  7.990800e-01    1.640121e+00   2.720259e-02
  8.012904e-01    1.666762e+00   2.737522e-02
  8.035009e-01    1.649831e+00   2.718737e-02
  8.057113e-01    1.636055e+00   2.702679e-02
  8.079218e-01    1.651596e+00   2.710799e-02
  8.101323e-01    1.628289e+00   2.687036e-02
  8.123427e-01    1.671018e+00   2.717421e-02
  8.145532e-01    1.610862e+00   2.663497e-02
  8.167636e-01    1.646981e+00   2.688659e-02
  8.189741e-01    1.658588e+00   2.693622e-02
  8.211845e-01    1.639924e+00   2.673933e-02
  8.233950e-01    1.647620e+00   2.675843e-02
  8.256054e-01    1.669674e+00   2.689226e-02
  8.278159e-01    1.669090e+00   2.684320e-02
  8.300264e-01    1.666611e+00   2.677977e-02
  8.322368e-01    1.654358e+00   2.663784e-02
  8.344473e-01    1.648439e+00   2.654662e-02
  8.366577e-01    1.653449e+00   2.654418e-02
  8.388682e-01    1.669222e+00   2.662784e-02
  8.410786e-01    1.666634e+00   2.656480e-02
  8.432891e-01    1.625943e+00   2.619683e-02
  8.454996e-01    1.623913e+00   2.613902e-02
  8.477100e-01    1.648270e+00   2.629252e-02
  8.499205e-01    1.638731e+00   2.617517e-02
  8.521309e-01    1.648590e+00   2.621283e-02
  8.543414e-01    1.663975e+00   2.629381e-02
  8.565518e-01    1.642259e+00   2.608098e-02
  8.587623e-01    1.663667e+00   2.620956e-02
  8.609727e-01    1.647490e+00   2.604138e-02
  8.631832e-01    1.607232e+00   2.568158e-02
  8.653937e-01    1.606466e+00   2.563600e-02
  8.676041e-01    1.598099e+00   2.553058e-02
  8.698146e-01    1.609579e+00   2.558294e-02
  8.720250e-01    1.602295e+00   2.548610e-02
  8.742355e-01    1.573636e+00   2.521868e-02
  8.764459e-01    1.607888e+00   2.545278e-02
  8.786564e-01    1.571356e+00   2.512447e-02
  8.808669e-01    1.573460e+00   2.510316e-02
  8.830773e-01    1.572033e+00   2.505400e-02
  8.852878e-01    1.576973e+00   2.505571e-02
  8.874982e-01    1.569067e+00   2.495654e-02
  8.897087e-01    1.598304e+00   2.515034e-02
  8.919191e-01    1.610865e+00   2.521111e-02
  8.941296e-01    1.610739e+00   2.517270e-02
  8.963401e-01    1.587646e+00   2.495534e-02
  8.985505e-01    1.592708e+00   2.495819e-02
  9.007610e-01    1.584796e+00   2.485957e-02
  9.029714e-01    1.598911e+00   2.493418e-02
  9.051819e-01    1.588453e+00   2.481543e-02
  9.073923e-01    1.570535e+00   2.463884e-02
  9.096028e-01    1.558957e+00   2.451338e-02
  9.118132e-01    1.585191e+00   2.468272e-02
  9.140237e-01    1.586364e+00   2.465539e-02
  9.162342e-01    1.595288e+00   2.469013e-02
  9.184446e-01    1.593762e+00   2.464263e-02
  9.206551e-01    1.590604e+00   2.458273e-02
  9.228655e-01    1.578329e+00   2.445267e-02
  9.250760e-01    1.623168e+00   2.476200e-02
  9.272864e-01    1.620502e+00   2.470721e-02
  9.294969e-01    1.640025e+00   2.481937e-02
  9.317074e-01    1.633305e+00   2.473346e-02
  9.339178e-01    1.647018e+00   2.480315e-02
  9.361283e-01    1.666604e+00   2.491343e-02
  9.383387e-01    1.638398e+00   2.466809e-02
  9.405492e-01    1.620192e+00   2.449642e-02
  9.427596e-01    1.633584e+00   2.456200e-02
  9.449701e-01    1.673824e+00   2.482893e-02
  9.471805e-01    1.659118e+00   2.468459e-02
  9.493910e-01    1.669510e+00   2.472780e-02
  9.516015e-01    1.675434e+00   2.473705e-02
  9.538119e-01    1.701067e+00   2.489139e-02
  9.560224e-01    1.720852e+00   2.500049e-02
  9.582328e-01    1.749197e+00   2.517174e-02
  9.604433e-01    1.744349e+00   2.510124e-02
  9.626537e-01    1.772360e+00   2.526794e-02
  9.648642e-01    1.803131e+00   2.545144e-02
  9.670747e-01    1.825235e+00   2.557166e-02
  9.692851e-01    1.813654e+00   2.545653e-02
  9.714956e-01    1.799694e+00   2.532260e-02
  9.737060e-01    1.831103e+00   2.550907e-02
  9.759165e-01    1.829848e+00   2.546436e-02
  9.781269e-01    1.834089e+00   2.546052e-02
  9.803374e-01    1.806261e+00   2.523169e-02
  9.825478e-01    1.805074e+00   2.519009e-02
  9.847583e-01    1.842919e+00   2.541824e-02
  9.869688e-01    1.807165e+00   2.513679e-02
  9.891792e-01    1.765394e+00   2.481155e-02
  9.913897e-01    1.809417e+00   2.508509e-02
  9.936001e-01    1.790421e+00   2.492043e-02
  9.958106e-01    1.732099e+00   2.447788e-02
  9.980210e-01    1.660670e+00   2.393673e-02
  1.000231e+00    1.665917e+00   2.410585e-02
  1.002442e+00    1.669797e+00   2.426214e-02
  1.004652e+00    1.649995e+00   2.418513e-02
  1.006863e+00    1.605611e+00   2.390714e-02
  1.009073e+00    1.574930e+00   2.371385e-02
  1.011284e+00    1.597949e+00   2.391845e-02
  1.013494e+00    1.585429e+00   2.384821e-02
  1.015705e+00    1.541678e+00   2.353907e-02
  1.017915e+00    1.555629e+00   2.366162e-02
  1.020126e+00    1.546925e+00   2.361130e-02
  1.022336e+00    1.509737e+00   2.333725e-02
  1.024547e+00    1.510394e+00   2.335339e-02
  1.026757e+00    1.514125e+00   2.339050e-02
  1.028967e+00    1.505182e+00   2.332889e-02
  1.031178e+00    1.540260e+00   2.360534e-02
  1.033388e+00    1.547965e+00   2.366941e-02
  1.035599e+00    1.534464e+00   2.356937e-02
  1.037809e+00    1.542789e+00   2.363653e-02
  1.040020e+00    1.480448e+00   2.315529e-02
  1.042230e+00    1.496957e+00   2.328595e-02
  1.044441e+00    1.493939e+00   2.326227e-02
  1.046651e+00    1.485546e+00   2.319699e-02
  1.048862e+00    1.472274e+00   2.309237e-02
  1.051072e+00    1.459658e+00   2.299087e-02
  1.053282e+00    1.494890e+00   2.326574e-02
  1.055493e+00    1.502259e+00   2.331869e-02
  1.057703e+00    1.515686e+00   2.342115e-02
  1.059914e+00    1.542218e+00   2.362090e-02
  1.062124e+00    1.556550e+00   2.372628e-02
  1.064335e+00    1.561144e+00   2.375772e-02
  1.066545e+00    1.572169e+00   2.383531e-02
  1.068756e+00    1.537325e+00   2.356591e-02
  1.070966e+00    1.503657e+00   2.329982e-02
  1.073177e+00    1.488725e+00   2.317774e-02
  1.075387e+00    1.565482e+00   2.376232e-02
  1.077597e+00    1.636523e+00   2.428787e-02
  1.079808e+00    1.564251e+00   2.360836e-02
  1.082018e+00    1.480436e+00   2.277694e-02
  1.084229e+00    1.462857e+00   2.253116e-02
  1.086439e+00    1.516355e+00   2.285017e-02
  1.088650e+00    1.495799e+00   2.261808e-02
  1.090860e+00    1.486445e+00   2.247884e-02
  1.093071e+00    1.486419e+00   2.241571e-02
  1.095281e+00    1.463180e+00   2.218220e-02
  1.097492e+00    1.445973e+00   2.199645e-02
  1.099702e+00    1.451116e+00   2.198396e-02
  1.101912e+00    1.466560e+00   2.205131e-02
  1.104123e+00    1.491614e+00   2.218974e-02
  1.106333e+00    1.473383e+00   2.200867e-02
  1.108544e+00    1.450325e+00   2.179120e-02
  1.110754e+00    1.429081e+00   2.158796e-02
  1.112965e+00    1.395988e+00   2.129639e-02
  1.115175e+00    1.408702e+00   2.135213e-02
  1.117386e+00    1.390926e+00   2.117805e-02
  1.119596e+00    1.382074e+00   2.107308e-02
  1.121807e+00    1.392034e+00   2.111031e-02
  1.124017e+00    1.394827e+00   2.109499e-02
  1.126228e+00    1.407586e+00   2.115545e-02
  1.128438e+00    1.392983e+00   2.100879e-02
  1.130648e+00    1.347241e+00   2.062728e-02
  1.132859e+00    1.366413e+00   2.073953e-02
  1.135069e+00    1.364823e+00   2.069310e-02
  1.137280e+00    1.398572e+00   2.091426e-02
  1.139490e+00    1.390071e+00   2.081754e-02
  1.141701e+00    1.388757e+00   2.077450e-02
  1.143911e+00    1.365270e+00   2.056645e-02
  1.146122e+00    1.366654e+00   2.054501e-02
  1.148332e+00    1.375001e+00   2.057584e-02
  1.150543e+00    1.366970e+00   2.048495e-02
  1.152753e+00    1.348551e+00   2.031594e-02
  1.154963e+00    1.335882e+00   2.018966e-02
  1.157174e+00    1.348999e+00   2.025864e-02
  1.159384e+00    1.370863e+00   2.039232e-02
  1.161595e+00    1.363928e+00   2.031091e-02
  1.163805e+00    1.308067e+00   1.986203e-02
  1.166016e+00    1.337499e+00   2.005511e-02
  1.168226e+00    1.373932e+00   2.029742e-02
  1.170437e+00    1.370298e+00   2.024186e-02
  1.172647e+00    1.358785e+00   2.012785e-02
  1.174858e+00    1.367299e+00   2.016268e-02
  1.177068e+00    1.356721e+00   2.005634e-02
  1.179278e+00    1.353024e+00   2.000050e-02
  1.181489e+00    1.360751e+00   2.003051e-02
  1.183699e+00    1.373720e+00   2.009801e-02
  1.185910e+00    1.391921e+00   2.020261e-02
  1.188120e+00    1.370352e+00   2.001865e-02
  1.190331e+00    1.361324e+00   1.992577e-02
  1.192541e+00    1.394361e+00   2.013832e-02
  1.194752e+00    1.397700e+00   2.013493e-02
  1.196962e+00    1.378713e+00   1.997170e-02
  1.199173e+00    1.360881e+00   1.981553e-02
  1.201383e+00    1.362463e+00   1.979975e-02
  1.203593e+00    1.343921e+00   1.963981e-02
  1.205804e+00    1.340868e+00   1.959164e-02
  1.208014e+00    1.327224e+00   1.946510e-02
  1.210225e+00    1.361621e+00   1.969026e-02
  1.212435e+00    1.390015e+00   1.986936e-02
  1.214646e+00    1.342059e+00   1.949759e-02
  1.216856e+00    1.344786e+00   1.949194e-02
  1.219067e+00    1.328682e+00   1.935062e-02
  1.221277e+00    1.326017e+00   1.930638e-02
  1.223488e+00    1.338122e+00   1.936868e-02
  1.225698e+00    1.357138e+00   1.947884e-02
  1.227909e+00    1.353669e+00   1.942373e-02
  1.230119e+00    1.357863e+00   1.942184e-02
  1.232329e+00    1.362486e+00   1.942403e-02
  1.234540e+00    1.356574e+00   1.935148e-02
  1.236750e+00    1.356611e+00   1.932139e-02
  1.238961e+00    1.373257e+00   1.941238e-02
  1.241171e+00    1.351752e+00   1.923558e-02
  1.243382e+00    1.339384e+00   1.912396e-02
  1.245592e+00    1.342949e+00   1.912535e-02
  1.247803e+00    1.350729e+00   1.915702e-02
  1.250013e+00    1.350202e+00   1.912973e-02
  1.252224e+00    1.323604e+00   1.891736e-02
  1.254434e+00    1.296607e+00   1.870017e-02
  1.256644e+00    1.306696e+00   1.874995e-02
  1.258855e+00    1.325737e+00   1.886299e-02
  1.261065e+00    1.351339e+00   1.902089e-02
  1.263276e+00    1.342579e+00   1.893626e-02
  1.265486e+00    1.342467e+00   1.891266e-02
  1.267697e+00    1.326660e+00   1.877818e-02
  1.269907e+00    1.330948e+00   1.878594e-02
  1.272118e+00    1.364996e+00   1.900203e-02
  1.274328e+00    1.344337e+00   1.883499e-02
  1.276539e+00    1.365932e+00   1.896274e-02
  1.278749e+00    1.369140e+00   1.896255e-02
  1.280959e+00    1.355687e+00   1.884661e-02
  1.283170e+00    1.338914e+00   1.870730e-02
  1.285380e+00    1.349275e+00   1.875708e-02
  1.287591e+00    1.373718e+00   1.890401e-02
  1.289801e+00    1.354042e+00   1.874688e-02
  1.292012e+00    1.353149e+00   1.872357e-02
  1.294222e+00    1.378188e+00   1.887962e-02
  1.296433e+00    1.367825e+00   1.879280e-02
  1.298643e+00    1.362976e+00   1.874290e-02
  1.300854e+00    1.371818e+00   1.878705e-02
  1.303064e+00    1.365334e+00   1.872328e-02
  1.305274e+00    1.367045e+00   1.871342e-02
  1.307485e+00    1.360743e+00   1.864862e-02
  1.309695e+00    1.360471e+00   1.862442e-02
  1.311906e+00    1.376372e+00   1.871101e-02
  1.314116e+00    1.375522e+00   1.868427e-02
  1.316327e+00    1.362930e+00   1.857675e-02
  1.318537e+00    1.384838e+00   1.870328e-02
  1.320748e+00    1.413259e+00   1.887219e-02
  1.322958e+00    1.387937e+00   1.868157e-02
  1.325169e+00    1.348413e+00   1.839261e-02
  1.327379e+00    1.379274e+00   1.857986e-02
  1.329589e+00    1.404258e+00   1.872590e-02
  1.331800e+00    1.400975e+00   1.868291e-02
  1.334010e+00    1.414090e+00   1.874901e-02
  1.336221e+00    1.399210e+00   1.862798e-02
  1.338431e+00    1.394147e+00   1.857303e-02
  1.340642e+00    1.390552e+00   1.861419e-02
  1.342852e+00    1.392990e+00   1.873277e-02
  1.345063e+00    1.380277e+00   1.869713e-02
  1.347273e+00    1.389424e+00   1.879472e-02
  1.349484e+00    1.386926e+00   1.880587e-02
  1.351694e+00    1.382869e+00   1.880135e-02
  1.353905e+00    1.372896e+00   1.875156e-02
  1.356115e+00    1.396056e+00   1.892437e-02
  1.358325e+00    1.349618e+00   1.862029e-02
  1.360536e+00    1.322009e+00   1.844034e-02
  1.362746e+00    1.330312e+00   1.850765e-02
  1.364957e+00    1.359081e+00   1.871438e-02
  1.367167e+00    1.355328e+00   1.869572e-02
  1.369378e+00    1.372736e+00   1.882145e-02
  1.371588e+00    1.390850e+00   1.895046e-02
  1.373799e+00    1.419608e+00   1.914916e-02
  1.376009e+00    1.398958e+00   1.901285e-02
  1.378220e+00    1.360577e+00   1.875278e-02
  1.380430e+00    1.344561e+00   1.864478e-02
  1.382640e+00    1.343738e+00   1.863999e-02
  1.384851e+00    1.345539e+00   1.865337e-02
  1.387061e+00    1.345232e+00   1.865153e-02
  1.389272e+00    1.315923e+00   1.844746e-02
  1.391482e+00    1.319873e+00   1.847442e-02
  1.393693e+00    1.296520e+00   1.830940e-02
  1.395903e+00    1.282382e+00   1.820779e-02
  1.398114e+00    1.287868e+00   1.824529e-02
  1.400324e+00    1.314823e+00   1.843311e-02
  1.402535e+00    1.279043e+00   1.817826e-02
  1.404745e+00    1.272901e+00   1.813218e-02
  1.406955e+00    1.295998e+00   1.829323e-02
  1.409166e+00    1.283975e+00   1.820486e-02
  1.411376e+00    1.281168e+00   1.818182e-02
  1.413587e+00    1.269474e+00   1.809484e-02
  1.415797e+00    1.268156e+00   1.808191e-02
  1.418008e+00    1.273623e+00   1.807891e-02
  1.420218e+00    1.278034e+00   1.796000e-02
  1.422429e+00    1.244711e+00   1.763985e-02
  1.424639e+00    1.274954e+00   1.778803e-02
  1.426850e+00    1.253042e+00   1.758021e-02
  1.429060e+00    1.249537e+00   1.750698e-02
  1.431270e+00    1.285819e+00   1.771474e-02
  1.433481e+00    1.304445e+00   1.780110e-02
  1.435691e+00    1.290858e+00   1.766941e-02
  1.437902e+00    1.282322e+00   1.757425e-02
  1.440112e+00    1.283352e+00   1.754577e-02
  1.442323e+00    1.255880e+00   1.732411e-02
  1.444533e+00    1.271209e+00   1.739692e-02
  1.446744e+00    1.270652e+00   1.736200e-02
  1.448954e+00    1.282434e+00   1.741195e-02
  1.451165e+00    1.295651e+00   1.747140e-02
  1.453375e+00    1.292711e+00   1.742328e-02
  1.455586e+00    1.264632e+00   1.720491e-02
  1.457796e+00    1.281395e+00   1.729092e-02
  1.460006e+00    1.270351e+00   1.718898e-02
  1.462217e+00    1.292452e+00   1.731142e-02
  1.464427e+00    1.293628e+00   1.729343e-02
  1.466638e+00    1.295302e+00   1.727906e-02
  1.468848e+00    1.303987e+00   1.731118e-02
  1.471059e+00    1.302120e+00   1.727340e-02
  1.473269e+00    1.294075e+00   1.719533e-02
  1.475480e+00    1.297906e+00   1.719672e-02
  1.477690e+00    1.290295e+00   1.712219e-02
  1.479901e+00    1.282158e+00   1.704414e-02
  1.482111e+00    1.262843e+00   1.689200e-02
  1.484321e+00    1.257568e+00   1.683363e-02
  1.486532e+00    1.272244e+00   1.690920e-02
  1.488742e+00    1.245496e+00   1.670803e-02
  1.490953e+00    1.267415e+00   1.683177e-02
  1.493163e+00    1.262460e+00   1.677657e-02
  1.495374e+00    1.243931e+00   1.663167e-02
  1.497584e+00    1.241063e+00   1.659101e-02
  1.499795e+00    1.253787e+00   1.665425e-02
  1.502005e+00    1.253864e+00   1.663313e-02
  1.504216e+00    1.263038e+00   1.667281e-02
  1.506426e+00    1.258506e+00   1.662204e-02
  1.508636e+00    1.287876e+00   1.679417e-02
  1.510847e+00    1.322100e+00   1.699349e-02
  1.513057e+00    1.317869e+00   1.694057e-02
  1.515268e+00    1.338444e+00   1.704575e-02
  1.517478e+00    1.321000e+00   1.690850e-02
  1.519689e+00    1.302493e+00   1.676420e-02
  1.521899e+00    1.279691e+00   1.659346e-02
  1.524110e+00    1.264953e+00   1.647720e-02
  1.526320e+00    1.287035e+00   1.660054e-02
  1.528531e+00    1.246003e+00   1.631407e-02
  1.530741e+00    1.219127e+00   1.611823e-02
  1.532951e+00    1.235170e+00   1.620447e-02
  1.535162e+00    1.242811e+00   1.634088e-02
  1.537372e+00    1.246746e+00   1.643358e-02
  1.539583e+00    1.201220e+00   1.616434e-02
  1.541793e+00    1.226826e+00   1.634257e-02
  1.544004e+00    1.250872e+00   1.650222e-02
  1.546214e+00    1.242213e+00   1.644353e-02
  1.548425e+00    1.228569e+00   1.635321e-02
  1.550635e+00    1.222129e+00   1.631989e-02
  1.552846e+00    1.237365e+00   1.643092e-02
  1.555056e+00    1.224171e+00   1.630195e-02
  1.557266e+00    1.263628e+00   1.645129e-02
  1.559477e+00    1.234366e+00   1.620082e-02
  1.561687e+00    1.250729e+00   1.627708e-02
  1.563898e+00    1.284027e+00   1.647492e-02
  1.566108e+00    1.254437e+00   1.626796e-02
  1.568319e+00    1.255066e+00   1.625634e-02
  1.570529e+00    1.280036e+00   1.639178e-02
  1.572740e+00    1.258482e+00   1.622541e-02
  1.574950e+00    1.253263e+00   1.616532e-02
  1.577161e+00    1.269828e+00   1.624607e-02
  1.579371e+00    1.266856e+00   1.620317e-02
  1.581582e+00    1.265745e+00   1.617613e-02
  1.583792e+00    1.261064e+00   1.612805e-02
  1.586002e+00    1.258021e+00   1.609087e-02
  1.588213e+00    1.251526e+00   1.603198e-02
  1.590423e+00    1.256682e+00   1.604479e-02
  1.592634e+00    1.229724e+00   1.585028e-02
  1.594844e+00    1.223159e+00   1.578668e-02
  1.597055e+00    1.246037e+00   1.591309e-02
  1.599265e+00    1.264910e+00   1.601227e-02
  1.601476e+00    1.250088e+00   1.589778e-02
  1.603686e+00    1.287326e+00   1.611268e-02
  1.605897e+00    1.330180e+00   1.635781e-02
  1.608107e+00    1.311432e+00   1.622197e-02
  1.610317e+00    1.294469e+00   1.609698e-02
  1.612528e+00    1.246737e+00   1.577817e-02
  1.614738e+00    1.228387e+00   1.564268e-02
  1.616949e+00    1.201814e+00   1.545377e-02
  1.619159e+00    1.245900e+00   1.571574e-02
  1.621370e+00    1.241332e+00   1.566831e-02
  1.623580e+00    1.223540e+00   1.553721e-02
  1.625791e+00    1.188164e+00   1.529284e-02
  1.628001e+00    1.206552e+00   1.539243e-02
  1.630212e+00    1.176338e+00   1.518086e-02
  1.632422e+00    1.166177e+00   1.509740e-02
  1.634632e+00    1.202482e+00   1.531314e-02
  1.636843e+00    1.186811e+00   1.519545e-02
  1.639053e+00    1.159159e+00   1.500019e-02
  1.641264e+00    1.142928e+00   1.487790e-02
  1.643474e+00    1.131028e+00   1.478309e-02
  1.645685e+00    1.123832e+00   1.471957e-02
  1.647895e+00    1.138342e+00   1.479780e-02
  1.650106e+00    1.139078e+00   1.478569e-02
  1.652316e+00    1.157502e+00   1.488822e-02
  1.654527e+00    1.108742e+00   1.455487e-02
  1.656737e+00    1.138278e+00   1.473084e-02
  1.658947e+00    1.136254e+00   1.470146e-02
  1.661158e+00    1.127153e+00   1.462620e-02
  1.663368e+00    1.096429e+00   1.440964e-02
  1.665579e+00    1.090385e+00   1.435392e-02
  1.667789e+00    1.098493e+00   1.439109e-02
  1.670000e+00    1.089639e+00   1.431765e-02
  1.672210e+00    1.088253e+00   1.429281e-02
  1.674421e+00    1.116087e+00   1.445903e-02
  1.676631e+00    1.118293e+00   1.445732e-02
  1.678842e+00    1.115210e+00   1.442151e-02
  1.681052e+00    1.092157e+00   1.425628e-02
  1.683263e+00    1.087064e+00   1.420789e-02
  1.685473e+00    1.085062e+00   1.417965e-02
  1.687683e+00    1.069497e+00   1.406227e-02
  1.689894e+00    1.076883e+00   1.409497e-02
  1.692104e+00    1.095576e+00   1.420174e-02
  1.694315e+00    1.110399e+00   1.428274e-02
  1.696525e+00    1.107864e+00   1.425101e-02
  1.698736e+00    1.048315e+00   1.384800e-02
  1.700946e+00    1.079284e+00   1.403579e-02
  1.703157e+00    1.060379e+00   1.389767e-02
  1.705367e+00    1.023486e+00   1.363947e-02
  1.707578e+00    1.037746e+00   1.371964e-02
  1.709788e+00    1.029114e+00   1.364848e-02
  1.711998e+00    1.026702e+00   1.361757e-02
  1.714209e+00    1.017079e+00   1.353933e-02
  1.716419e+00    1.011302e+00   1.348670e-02
  1.718630e+00    1.012242e+00   1.347883e-02
  1.720840e+00    1.008709e+00   1.344126e-02
  1.723051e+00    1.006665e+00   1.341387e-02
  1.725261e+00    1.021673e+00   1.349882e-02
  1.727472e+00    1.012954e+00   1.342697e-02
  1.729682e+00    9.926307e-01   1.327828e-02
  1.731893e+00    1.008194e+00   1.336807e-02
  1.734103e+00    9.939415e-01   1.325957e-02
  1.736313e+00    9.832920e-01   1.317449e-02
  1.738524e+00    1.001949e+00   1.328506e-02
  1.740734e+00    9.904152e-01   1.319473e-02
  1.742945e+00    9.936477e-01   1.320282e-02
  1.745155e+00    9.977447e-01   1.321651e-02
  1.747366e+00    1.003187e+00   1.323861e-02
  1.749576e+00    9.832686e-01   1.309288e-02
  1.751787e+00    9.684342e-01   1.298048e-02
  1.753997e+00    9.900407e-01   1.311102e-02
  1.756208e+00    9.932857e-01   1.311918e-02
  1.758418e+00    9.655630e-01   1.292175e-02
  1.760628e+00    9.624721e-01   1.288772e-02
  1.762839e+00    9.800637e-01   1.299166e-02
  1.765049e+00    9.661839e-01   1.288620e-02
  1.767260e+00    9.741906e-01   1.292655e-02
  1.769470e+00    1.013560e+00   1.317179e-02
  1.771681e+00    1.074192e+00   1.354607e-02
  1.773891e+00    1.052711e+00   1.339624e-02
  1.776102e+00    1.004660e+00   1.307368e-02
  1.778312e+00    1.002476e+00   1.304634e-02
  1.780523e+00    9.715099e-01   1.283034e-02
  1.782733e+00    9.512478e-01   1.268304e-02
  1.784944e+00    9.409237e-01   1.260112e-02
  1.787154e+00    9.429216e-01   1.260187e-02
  1.789364e+00    9.516547e-01   1.264750e-02
  1.791575e+00    9.233427e-01   1.244541e-02
  1.793785e+00    9.497119e-01   1.260929e-02
  1.795996e+00    9.466434e-01   1.257623e-02
  1.798206e+00    9.415909e-01   1.252993e-02
  1.800417e+00    9.257444e-01   1.241132e-02
  1.802627e+00    9.224803e-01   1.237741e-02
  1.804838e+00    9.266291e-01   1.239303e-02
  1.807048e+00    8.915523e-01   1.214348e-02
  1.809259e+00    8.954656e-01   1.215659e-02
  1.811469e+00    8.907712e-01   1.210983e-02
  1.813679e+00    8.953395e-01   1.212593e-02
  1.815890e+00    8.906475e-01   1.207942e-02
  1.818100e+00    8.591523e-01   1.184914e-02
  1.820311e+00    8.678366e-01   1.189431e-02
  1.822521e+00    8.822119e-01   1.197764e-02
  1.824732e+00    8.841625e-01   1.197611e-02
  1.826942e+00    8.602776e-01   1.180111e-02
  1.829153e+00    8.533496e-01   1.174200e-02
  1.831363e+00    8.553667e-01   1.174402e-02
  1.833574e+00    8.825372e-01   1.191741e-02
  1.835784e+00    8.897889e-01   1.195478e-02
  1.837994e+00    8.856055e-01   1.191489e-02
  1.840205e+00    8.672372e-01   1.177954e-02
  1.842415e+00    8.754363e-01   1.182331e-02
  1.844626e+00    8.841802e-01   1.187055e-02
  1.846836e+00    8.842440e-01   1.185945e-02
  1.849047e+00    8.913476e-01   1.189522e-02
  1.851257e+00    8.868015e-01   1.185515e-02
  1.853468e+00    8.560292e-01   1.163888e-02
  1.855678e+00    8.865719e-01   1.183565e-02
  1.857889e+00    8.921465e-01   1.186417e-02
  1.860099e+00    8.536354e-01   1.159667e-02
  1.862309e+00    8.567885e-01   1.160953e-02
  1.864520e+00    8.650115e-01   1.165649e-02
  1.866730e+00    8.607441e-01   1.161830e-02
  1.868941e+00    8.450481e-01   1.150098e-02
  1.871151e+00    8.265564e-01   1.136323e-02
  1.873362e+00    8.301649e-01   1.137677e-02
  1.875572e+00    8.612086e-01   1.157654e-02
  1.877783e+00    8.481649e-01   1.147712e-02
  1.879993e+00    8.417942e-01   1.142280e-02
  1.882204e+00    8.520328e-01   1.148111e-02
  1.884414e+00    8.479782e-01   1.144267e-02
  1.886624e+00    8.418721e-01   1.139034e-02
  1.888835e+00    8.173440e-01   1.121236e-02
  1.891045e+00    8.455632e-01   1.139335e-02
  1.893256e+00    8.415780e-01   1.135537e-02
  1.895466e+00    8.351577e-01   1.130081e-02
  1.897677e+00    8.423568e-01   1.133845e-02
  1.899887e+00    8.285304e-01   1.123406e-02
  1.902098e+00    8.483189e-01   1.135648e-02
  1.904308e+00    8.376569e-01   1.127425e-02
  1.906519e+00    8.674973e-01   1.146224e-02
  1.908729e+00    8.600852e-01   1.140237e-02
  1.910940e+00    8.383371e-01   1.124609e-02
  1.913150e+00    8.363494e-01   1.122209e-02
  1.915360e+00    8.253477e-01   1.113741e-02
  1.917571e+00    8.189461e-01   1.108328e-02
  1.919781e+00    8.239504e-01   1.110639e-02
  1.921992e+00    8.086523e-01   1.099226e-02
  1.924202e+00    8.242588e-01   1.108701e-02
  1.926413e+00    8.131626e-01   1.100186e-02
  1.928623e+00    8.083438e-01   1.095871e-02
  1.930834e+00    8.064606e-01   1.093554e-02
  1.933044e+00    8.135913e-01   1.097310e-02
  1.935255e+00    8.165054e-01   1.098237e-02
  1.937465e+00    8.173633e-01   1.097768e-02
  1.939675e+00    8.049163e-01   1.088294e-02
  1.941886e+00    8.065560e-01   1.088373e-02
  1.944096e+00    8.219574e-01   1.097684e-02
  1.946307e+00    8.263650e-01   1.099575e-02
  1.948517e+00    8.011380e-01   1.081617e-02
  1.950728e+00    7.998319e-01   1.079708e-02
  1.952938e+00    7.888857e-01   1.071292e-02
  1.955149e+00    7.916605e-01   1.072151e-02
  1.957359e+00    8.131397e-01   1.085587e-02
  1.959570e+00    8.004945e-01   1.076019e-02
  1.961780e+00    8.122578e-01   1.082895e-02
  1.963990e+00    8.120580e-01   1.081736e-02
  1.966201e+00    8.056401e-01   1.076440e-02
  1.968411e+00    7.826304e-01   1.059942e-02
  1.970622e+00    8.107157e-01   1.077771e-02
  1.972832e+00    7.807673e-01   1.056684e-02
  1.975043e+00    7.838392e-01   1.057757e-02
  1.977253e+00    7.934407e-01   1.063216e-02
  1.979464e+00    7.957986e-01   1.063783e-02
  1.981674e+00    7.904145e-01   1.059147e-02
  1.983885e+00    8.040325e-01   1.067216e-02
  1.986095e+00    8.075354e-01   1.068553e-02
  1.988305e+00    7.884986e-01   1.054887e-02
  1.990516e+00    7.861568e-01   1.052322e-02
  1.992726e+00    7.680253e-01   1.039155e-02
  1.994937e+00    8.062436e-01   1.063663e-02
  1.997147e+00    7.947611e-01   1.055080e-02
  1.999358e+00    7.807292e-01   1.044734e-02
  2.001568e+00    7.723171e-01   1.038011e-02
  2.003779e+00    7.639702e-01   1.031201e-02
  2.005989e+00    7.678235e-01   1.032599e-02
  2.008200e+00    7.609686e-01   1.026833e-02
  2.010410e+00    7.852679e-01   1.041912e-02
  2.012621e+00    7.781799e-01   1.036022e-02
  2.014831e+00    7.798008e-01   1.035943e-02
  2.017041e+00    7.701460e-01   1.028471e-02
  2.019252e+00    7.563656e-01   1.018237e-02
  2.021462e+00    7.608991e-01   1.020336e-02
  2.023673e+00    7.632875e-01   1.020997e-02
  2.025883e+00    7.573083e-01   1.016044e-02
  2.028094e+00    7.546224e-01   1.013280e-02
  2.030304e+00    7.618005e-01   1.017134e-02
  2.032515e+00    7.639799e-01   1.017657e-02
  2.034725e+00    7.596785e-01   1.013842e-02
  2.036936e+00    7.803189e-01   1.026576e-02
  2.039146e+00    7.809893e-01   1.026045e-02
  2.041356e+00    7.934446e-01   1.033207e-02
  2.043567e+00    7.848940e-01   1.026677e-02
  2.045777e+00    7.712238e-01   1.016762e-02
  2.047988e+00    7.751008e-01   1.018366e-02
  2.050198e+00    7.535738e-01   1.003281e-02
  2.052409e+00    7.779484e-01   1.018598e-02
  2.054619e+00    7.771744e-01   1.017344e-02
  2.056830e+00    7.748700e-01   1.015103e-02
  2.059040e+00    7.710385e-01   1.011831e-02
  2.061251e+00    7.696854e-01   1.010208e-02
  2.063461e+00    7.477326e-01   9.949389e-03
  2.065671e+00    7.628154e-01   1.004041e-02
  2.067882e+00    7.556745e-01   9.984293e-03
  2.070092e+00    7.526481e-01   9.955022e-03
  2.072303e+00    7.601706e-01   9.995444e-03
  2.074513e+00    7.586966e-01   9.976342e-03
  2.076724e+00    7.636311e-01   9.999141e-03
  2.078934e+00    7.711248e-01   1.003891e-02
  2.081145e+00    7.667982e-01   1.000149e-02
  2.083355e+00    7.474633e-01   9.865385e-03
  2.085566e+00    7.601383e-01   9.939644e-03
  2.087776e+00    7.485052e-01   9.853741e-03
  2.089986e+00    7.499740e-01   9.854546e-03
  2.092197e+00    7.569621e-01   9.891267e-03
  2.094407e+00    7.485121e-01   9.826622e-03
  2.096618e+00    7.280422e-01   9.682458e-03
  2.098828e+00    7.289370e-01   9.679127e-03
  2.101039e+00    7.479202e-01   9.795274e-03
  2.103249e+00    7.514430e-01   9.809536e-03
  2.105460e+00    7.481495e-01   9.778890e-03
  2.107670e+00    7.389435e-01   9.709749e-03
  2.109881e+00    7.302595e-01   9.643327e-03
  2.112091e+00    7.294496e-01   9.628993e-03
  2.114301e+00    7.321651e-01   9.638038e-03
  2.116512e+00    7.428896e-01   9.699479e-03
  2.118722e+00    7.243496e-01   9.568836e-03
  2.120933e+00    7.482376e-01   9.716306e-03
  2.123143e+00    7.157612e-01   9.494230e-03
  2.125354e+00    7.244357e-01   9.543001e-03
  2.127564e+00    7.341226e-01   9.597754e-03
  2.129775e+00    7.481498e-01   9.680099e-03
  2.131985e+00    7.397454e-01   9.616367e-03
  2.134196e+00    7.156348e-01   9.449743e-03
  2.136406e+00    7.170335e-01   9.450208e-03
  2.138617e+00    6.937926e-01   9.287432e-03
  2.140827e+00    7.033121e-01   9.366927e-03
  2.143037e+00    6.901465e-01   9.323766e-03
  2.145248e+00    6.950201e-01   9.378463e-03
  2.147458e+00    6.954335e-01   9.396293e-03
  2.149669e+00    6.956901e-01   9.409820e-03
  2.151879e+00    6.890502e-01   9.373942e-03
  2.154090e+00    6.955676e-01   9.425444e-03
  2.156300e+00    7.166420e-01   9.573843e-03
  2.158511e+00    7.140686e-01   9.562030e-03
  2.160721e+00    6.988304e-01   9.464235e-03
  2.162932e+00    6.940891e-01   9.435838e-03
  2.165142e+00    6.897986e-01   9.409606e-03
  2.167352e+00    7.009509e-01   9.488302e-03
  2.169563e+00    6.920953e-01   9.430120e-03
  2.171773e+00    6.946669e-01   9.450072e-03
  2.173984e+00    6.967523e-01   9.465667e-03
  2.176194e+00    6.794235e-01   9.348402e-03
  2.178405e+00    6.995023e-01   9.486223e-03
  2.180615e+00    6.886453e-01   9.413013e-03
  2.182826e+00    6.966532e-01   9.468243e-03
  2.185036e+00    7.051223e-01   9.525702e-03
  2.187247e+00    6.877303e-01   9.407423e-03
  2.189457e+00    6.934852e-01   9.446306e-03
  2.191667e+00    6.817825e-01   9.366080e-03
  2.193878e+00    6.875544e-01   9.405070e-03
  2.196088e+00    6.916771e-01   9.432551e-03
  2.198299e+00    6.749324e-01   9.316591e-03
  2.200509e+00    6.671474e-01   9.261657e-03
  2.202720e+00    6.752512e-01   9.316580e-03
  2.204930e+00    6.765097e-01   9.324037e-03
  2.207141e+00    6.696725e-01   9.275695e-03
  2.209351e+00    6.738752e-01   9.302861e-03
  2.211562e+00    6.845946e-01   9.374945e-03
  2.213772e+00    6.802261e-01   9.289372e-03
  2.215982e+00    6.823356e-01   9.259343e-03
  2.218193e+00    6.753741e-01   9.182362e-03
  2.220403e+00    6.638871e-01   9.079558e-03
  2.222614e+00    6.841312e-01   9.195833e-03
  2.224824e+00    6.698759e-01   9.080186e-03
  2.227035e+00    6.824661e-01   9.147553e-03
  2.229245e+00    6.776575e-01   9.098250e-03
  2.231456e+00    6.556954e-01   8.934135e-03
  2.233666e+00    6.843641e-01   9.112134e-03
  2.235877e+00    6.752503e-01   9.036937e-03
  2.238087e+00    6.552073e-01   8.888482e-03
  2.240298e+00    6.746486e-01   9.005548e-03
  2.242508e+00    6.822856e-01   9.041107e-03
  2.244718e+00    6.902918e-01   9.077934e-03
  2.246929e+00    6.607798e-01   8.867444e-03
  2.249139e+00    6.500419e-01   8.782857e-03
  2.251350e+00    6.681725e-01   8.892772e-03
  2.253560e+00    6.832247e-01   8.980682e-03
  2.255771e+00    6.664317e-01   8.858223e-03
  2.257981e+00    6.643836e-01   8.833416e-03
  2.260192e+00    6.655415e-01   8.829990e-03
  2.262402e+00    6.726801e-01   8.866302e-03
  2.264613e+00    6.706268e-01   8.841872e-03
  2.266823e+00    6.561143e-01   8.735332e-03
  2.269033e+00    6.745191e-01   8.846525e-03
  2.271244e+00    6.650798e-01   8.774015e-03
  2.273454e+00    6.590391e-01   8.723819e-03
  2.275665e+00    6.671959e-01   8.767310e-03
  2.277875e+00    6.687227e-01   8.767344e-03
  2.280086e+00    6.637336e-01   8.724512e-03
  2.282296e+00    6.718644e-01   8.768292e-03
  2.284507e+00    6.640270e-01   8.706831e-03
  2.286717e+00    6.525731e-01   8.621988e-03
  2.288928e+00    6.522868e-01   8.610254e-03
  2.291138e+00    6.620330e-01   8.664885e-03
  2.293348e+00    6.674016e-01   8.690320e-03
  2.295559e+00    6.684421e-01   8.687684e-03
  2.297769e+00    6.741431e-01   8.715285e-03
  2.299980e+00    6.554802e-01   8.584445e-03
  2.302190e+00    6.438660e-01   8.498991e-03
  2.304401e+00    6.625258e-01   8.611863e-03
  2.306611e+00    6.581993e-01   8.574470e-03
  2.308822e+00    6.609123e-01   8.583659e-03
  2.311032e+00    6.591566e-01   8.565771e-03
  2.313243e+00    6.549566e-01   8.532134e-03
  2.315453e+00    6.470407e-01   8.472866e-03
  2.317663e+00    6.290783e-01   8.345432e-03
  2.319874e+00    6.347081e-01   8.374035e-03
  2.322084e+00    6.447618e-01   8.431136e-03
  2.324295e+00    6.502697e-01   8.458822e-03
  2.326505e+00    6.574343e-01   8.496153e-03
  2.328716e+00    6.491274e-01   8.433709e-03
  2.330926e+00    6.521329e-01   8.444360e-03
  2.333137e+00    6.341609e-01   8.318878e-03
  2.335347e+00    6.521925e-01   8.427344e-03
  2.337558e+00    6.452516e-01   8.374156e-03
  2.339768e+00    6.393370e-01   8.327082e-03
  2.341979e+00    6.504860e-01   8.390941e-03
  2.344189e+00    6.530458e-01   8.398964e-03
  2.346399e+00    6.269199e-01   8.220789e-03
  2.348610e+00    6.358294e-01   8.270546e-03
  2.350820e+00    6.243497e-01   8.187426e-03
  2.353031e+00    6.407777e-01   8.286104e-03
  2.355241e+00    6.396925e-01   8.271012e-03
  2.357452e+00    6.349165e-01   8.231629e-03
  2.359662e+00    6.435676e-01   8.279218e-03
  2.361873e+00    6.383327e-01   8.237205e-03
  2.364083e+00    6.314269e-01   8.184515e-03
  2.366294e+00    6.238962e-01   8.127471e-03
  2.368504e+00    6.401270e-01   8.224359e-03
  2.370714e+00    6.176610e-01   8.070743e-03
  2.372925e+00    6.267182e-01   8.121638e-03
  2.375135e+00    6.179637e-01   8.056706e-03
  2.377346e+00    6.074330e-01   7.979911e-03
  2.379556e+00    6.246433e-01   8.084257e-03
  2.381767e+00    6.283950e-01   8.100593e-03
  2.383977e+00    6.320094e-01   8.115856e-03
  2.386188e+00    6.260863e-01   8.069781e-03
  2.388398e+00    6.259594e-01   8.060956e-03
  2.390609e+00    6.059273e-01   7.923272e-03
  2.392819e+00    6.103767e-01   7.944566e-03
  2.395029e+00    6.293865e-01   8.059582e-03
  2.397240e+00    6.219084e-01   8.003649e-03
  2.399450e+00    6.099963e-01   7.918849e-03
  2.401661e+00    6.161053e-01   7.950684e-03
  2.403871e+00    6.210205e-01   7.974518e-03
  2.406082e+00    6.227504e-01   7.978112e-03
  2.408292e+00    6.022648e-01   7.838060e-03
  2.410503e+00    5.956673e-01   7.787580e-03
  2.412713e+00    5.983979e-01   7.797670e-03
  2.414924e+00    6.023198e-01   7.815721e-03
  2.417134e+00    6.011832e-01   7.800747e-03
  2.419344e+00    5.954403e-01   7.756013e-03
  2.421555e+00    5.992470e-01   7.773290e-03
  2.423765e+00    5.980023e-01   7.757813e-03
  2.425976e+00    6.000352e-01   7.763183e-03
  2.428186e+00    6.080081e-01   7.807315e-03
  2.430397e+00    6.079578e-01   7.799459e-03
  2.432607e+00    5.890714e-01   7.670109e-03
  2.434818e+00    6.028774e-01   7.751876e-03
  2.437028e+00    5.847974e-01   7.627680e-03
  2.439239e+00    5.878479e-01   7.639906e-03
  2.441449e+00    5.803942e-01   7.584221e-03
  2.443659e+00    5.646497e-01   7.473427e-03
  2.445870e+00    5.766990e-01   7.564874e-03
  2.448080e+00    5.694482e-01   7.551565e-03
  2.450291e+00    5.653083e-01   7.540504e-03
  2.452501e+00    5.602007e-01   7.517366e-03
  2.454712e+00    5.500751e-01   7.457378e-03
  2.456922e+00    5.424933e-01   7.412253e-03
  2.459133e+00    5.546762e-01   7.500384e-03
  2.461343e+00    5.619733e-01   7.553895e-03
  2.463554e+00    5.685312e-01   7.601327e-03
  2.465764e+00    5.704752e-01   7.617474e-03
  2.467975e+00    5.682522e-01   7.604917e-03
  2.470185e+00    5.530249e-01   7.504581e-03
  2.472395e+00    5.622672e-01   7.568248e-03
  2.474606e+00    5.407532e-01   7.423606e-03
  2.476816e+00    5.477147e-01   7.471943e-03
  2.479027e+00    5.523910e-01   7.504644e-03
  2.481237e+00    5.477033e-01   7.473005e-03
  2.483448e+00    5.480698e-01   7.475812e-03
  2.485658e+00    5.434228e-01   7.443900e-03
  2.487869e+00    5.435269e-01   7.444654e-03
  2.490079e+00    5.541778e-01   7.516718e-03
  2.492290e+00    5.370882e-01   7.399488e-03
  2.494500e+00    5.260615e-01   7.322414e-03
  2.496710e+00    5.335750e-01   7.373805e-03
  2.498921e+00    5.161747e-01   7.251634e-03
  2.501131e+00    5.248809e-01   7.311547e-03
  2.503342e+00    5.223631e-01   7.292776e-03
  2.505552e+00    5.317692e-01   7.356988e-03
  2.507763e+00    5.362974e-01   7.386831e-03
  2.509973e+00    5.274403e-01   7.324191e-03
  2.512184e+00    5.112216e-01   7.209119e-03
  2.514394e+00    5.114859e-01   7.201737e-03
  2.516605e+00    5.262079e-01   7.257607e-03
  2.518815e+00    5.207790e-01   7.191892e-03
  2.521025e+00    5.265460e-01   7.210610e-03
  2.523236e+00    5.386655e-01   7.274918e-03
  2.525446e+00    5.222581e-01   7.147728e-03
  2.527657e+00    5.213015e-01   7.126605e-03
  2.529867e+00    5.317644e-01   7.183507e-03
  2.532078e+00    5.319552e-01   7.169665e-03
  2.534288e+00    5.287514e-01   7.134104e-03
  2.536499e+00    5.179034e-01   7.048671e-03
  2.538709e+00    5.423095e-01   7.201654e-03
  2.540920e+00    5.355696e-01   7.146028e-03
  2.543130e+00    5.217832e-01   7.043093e-03
  2.545340e+00    5.280539e-01   7.075191e-03
  2.547551e+00    5.264075e-01   7.054180e-03
  2.549761e+00    5.136231e-01   6.958480e-03
  2.551972e+00    5.219176e-01   7.005094e-03
  2.554182e+00    5.149162e-01   6.948832e-03
  2.556393e+00    5.176805e-01   6.958386e-03
  2.558603e+00    5.186666e-01   6.955953e-03
  2.560814e+00    5.062133e-01   6.863368e-03
  2.563024e+00    5.118429e-01   6.892880e-03
  2.565235e+00    5.236718e-01   6.962530e-03
  2.567445e+00    5.325193e-01   7.011432e-03
  2.569656e+00    5.269858e-01   6.965088e-03
  2.571866e+00    5.075107e-01   6.825913e-03
  2.574076e+00    5.085316e-01   6.823563e-03
  2.576287e+00    5.171061e-01   6.872532e-03
  2.578497e+00    5.183801e-01   6.873115e-03
  2.580708e+00    5.216231e-01   6.886460e-03
  2.582918e+00    5.171474e-01   6.849069e-03
  2.585129e+00    5.133353e-01   6.816043e-03
  2.587339e+00    5.097310e-01   6.784422e-03
  2.589550e+00    5.042855e-01   6.740591e-03
  2.591760e+00    5.067547e-01   6.749374e-03
  2.593971e+00    5.203921e-01   6.832000e-03
  2.596181e+00    5.237557e-01   6.847749e-03
  2.598391e+00    5.188649e-01   6.810495e-03
  2.600602e+00    4.985251e-01   6.669790e-03
  2.602812e+00    5.118235e-01   6.750631e-03
  2.605023e+00    5.205445e-01   6.800629e-03
  2.607233e+00    5.167631e-01   6.768704e-03
  2.609444e+00    5.105069e-01   6.720347e-03
  2.611654e+00    5.078749e-01   6.695671e-03
  2.613865e+00    5.078360e-01   6.688375e-03
  2.616075e+00    5.085122e-01   6.685657e-03
  2.618286e+00    5.043599e-01   6.651330e-03
  2.620496e+00    5.060382e-01   6.655678e-03
  2.622706e+00    5.046198e-01   6.640602e-03
  2.624917e+00    4.929657e-01   6.557696e-03
  2.627127e+00    5.066984e-01   6.642636e-03
  2.629338e+00    5.067711e-01   6.637143e-03
  2.631548e+00    5.007699e-01   6.591555e-03
  2.633759e+00    5.100637e-01   6.645242e-03
  2.635969e+00    5.108650e-01   6.643716e-03
  2.638180e+00    5.174097e-01   6.679033e-03
  2.640390e+00    5.099770e-01   6.624243e-03
  2.642601e+00    5.071094e-01   6.598874e-03
  2.644811e+00    5.029392e-01   6.564598e-03
  2.647021e+00    5.041292e-01   6.565766e-03
  2.649232e+00    4.981793e-01   6.520194e-03
  2.651442e+00    4.975314e-01   6.509457e-03
  2.653653e+00    4.998341e-01   6.517710e-03
  2.655863e+00    4.982741e-01   6.500846e-03
  2.658074e+00    5.010924e-01   6.512577e-03
  2.660284e+00    5.033614e-01   6.520909e-03
  2.662495e+00    4.999967e-01   6.492300e-03
  2.664705e+00    5.096554e-01   6.548069e-03
  2.666916e+00    4.971699e-01   6.460885e-03
  2.669126e+00    5.106701e-01   6.541476e-03
  2.671337e+00    4.910988e-01   6.408340e-03
  2.673547e+00    4.929018e-01   6.413737e-03
  2.675757e+00    4.856340e-01   6.359882e-03
  2.677968e+00    4.925825e-01   6.398696e-03
  2.680178e+00    4.954942e-01   6.411182e-03
  2.682389e+00    4.912866e-01   6.377513e-03
  2.684599e+00    4.965945e-01   6.405667e-03
  2.686810e+00    4.915780e-01   6.366626e-03
  2.689020e+00    4.935621e-01   6.373167e-03
  2.691231e+00    4.874316e-01   6.327186e-03
  2.693441e+00    4.897165e-01   6.335857e-03
  2.695652e+00    4.815283e-01   6.276218e-03
  2.697862e+00    4.848414e-01   6.291453e-03
  2.700072e+00    4.868816e-01   6.298607e-03
  2.702283e+00    4.785006e-01   6.238032e-03
  2.704493e+00    4.827066e-01   6.259123e-03
  2.706704e+00    4.786278e-01   6.226301e-03
  2.708914e+00    4.832730e-01   6.250483e-03
  2.711125e+00    4.889835e-01   6.281054e-03
  2.713335e+00    4.895566e-01   6.278644e-03
  2.715546e+00    4.997506e-01   6.337111e-03
  2.717756e+00    5.005331e-01   6.336123e-03
  2.719967e+00    4.845168e-01   6.227710e-03
  2.722177e+00    4.895899e-01   6.254086e-03
  2.724387e+00    4.682574e-01   6.110330e-03
  2.726598e+00    4.758894e-01   6.153887e-03
  2.728808e+00    4.840294e-01   6.200190e-03
  2.731019e+00    4.798801e-01   6.167453e-03
  2.733229e+00    4.766786e-01   6.141080e-03
  2.735440e+00    4.853303e-01   6.190287e-03
  2.737650e+00    4.783473e-01   6.139616e-03
  2.739861e+00    4.722368e-01   6.094270e-03
  2.742071e+00    4.870103e-01   6.183089e-03
  2.744282e+00    4.754677e-01   6.103186e-03
  2.746492e+00    4.823742e-01   6.141318e-03
  2.748702e+00    4.675250e-01   6.040229e-03
  2.750913e+00    4.840405e-01   6.140178e-03
  2.753123e+00    4.865143e-01   6.149716e-03
  2.755334e+00    4.897617e-01   6.164066e-03
  2.757544e+00    4.862449e-01   6.136128e-03
  2.759755e+00    4.876220e-01   6.138885e-03
  2.761965e+00    4.720233e-01   6.033966e-03
  2.764176e+00    4.796981e-01   6.076824e-03
  2.766386e+00    4.752372e-01   6.042766e-03
  2.768597e+00    4.680748e-01   5.991242e-03
  2.770807e+00    4.658813e-01   5.971398e-03
  2.773017e+00    4.733639e-01   6.013229e-03
  2.775228e+00    4.815792e-01   6.059370e-03
  2.777438e+00    4.787178e-01   6.035557e-03
  2.779649e+00    4.789377e-01   6.031027e-03
  2.781859e+00    4.837852e-01   6.055684e-03
  2.784070e+00    4.726260e-01   5.979595e-03
  2.786280e+00    4.825313e-01   6.036133e-03
  2.788491e+00    4.798029e-01   6.013194e-03
  2.790701e+00    4.789069e-01   6.001913e-03
  2.792912e+00    4.865417e-01   6.043526e-03
  2.795122e+00    4.784584e-01   5.987391e-03
  2.797333e+00    4.760990e-01   5.967021e-03
  2.799543e+00    4.674297e-01   5.906653e-03
  2.801753e+00    4.774393e-01   5.963674e-03
  2.803964e+00    4.873227e-01   6.019362e-03
  2.806174e+00    4.692494e-01   5.900586e-03
  2.808385e+00    4.712652e-01   5.906465e-03
  2.810595e+00    4.733216e-01   5.912488e-03
  2.812806e+00    4.728787e-01   5.903115e-03
  2.815016e+00    4.705382e-01   5.883761e-03
  2.817227e+00    4.781281e-01   5.957067e-03
  2.819437e+00    4.758043e-01   5.953688e-03
  2.821648e+00    4.719323e-01   5.931683e-03
  2.823858e+00    4.701124e-01   5.925573e-03
  2.826068e+00    4.767555e-01   5.972272e-03
  2.828279e+00    4.655499e-01   5.905699e-03
  2.830489e+00    4.630975e-01   5.893419e-03
  2.832700e+00    4.759771e-01   5.977361e-03
  2.834910e+00    4.732029e-01   5.962019e-03
  2.837121e+00    4.557813e-01   5.852897e-03
  2.839331e+00    4.686705e-01   5.936316e-03
  2.841542e+00    4.621550e-01   5.895911e-03
  2.843752e+00    4.718554e-01   5.958236e-03
  2.845963e+00    4.613684e-01   5.892080e-03
  2.848173e+00    4.633511e-01   5.904775e-03
  2.850383e+00    4.738160e-01   5.971405e-03
  2.852594e+00    4.705076e-01   5.950434e-03
  2.854804e+00    4.768091e-01   5.989629e-03
  2.857015e+00    4.708779e-01   5.951848e-03
  2.859225e+00    4.676048e-01   5.930861e-03
  2.861436e+00    4.558329e-01   5.855095e-03
  2.863646e+00    4.511193e-01   5.824758e-03
  2.865857e+00    4.775150e-01   5.993100e-03
  2.868067e+00    4.566494e-01   5.860924e-03
  2.870278e+00    4.617077e-01   5.892935e-03
  2.872488e+00    4.709179e-01   5.950247e-03
  2.874698e+00    4.722993e-01   5.957943e-03
  2.876909e+00    4.651475e-01   5.911292e-03
  2.879119e+00    4.675184e-01   5.924743e-03
  2.881330e+00    4.657890e-01   5.912272e-03
  2.883540e+00    4.608593e-01   5.879540e-03
  2.885751e+00    4.601612e-01   5.873422e-03
  2.887961e+00    4.707023e-01   5.938422e-03
  2.890172e+00    4.616326e-01   5.879330e-03
  2.892382e+00    4.664379e-01   5.908028e-03
  2.894593e+00    4.700151e-01   5.928817e-03
  2.896803e+00    4.691291e-01   5.921211e-03
  2.899014e+00    4.734018e-01   5.946188e-03
  2.901224e+00    4.697178e-01   5.920991e-03
  2.903434e+00    4.643793e-01   5.885306e-03
  2.905645e+00    4.638916e-01   5.879962e-03
  2.907855e+00    4.724692e-01   5.931951e-03
  2.910066e+00    4.696886e-01   5.912378e-03
  2.912276e+00    4.630093e-01   5.868048e-03
  2.914487e+00    4.530067e-01   5.801882e-03
  2.916697e+00    4.468621e-01   5.760201e-03
  2.918908e+00    4.576525e-01   5.827315e-03
  2.921118e+00    4.629943e-01   5.858534e-03
  2.923329e+00    4.590993e-01   5.831515e-03
  2.925539e+00    4.674735e-01   5.882146e-03
  2.927749e+00    4.801445e-01   5.958974e-03
  2.929960e+00    4.590161e-01   5.823605e-03
  2.932170e+00    4.599268e-01   5.827047e-03
  2.934381e+00    4.605174e-01   5.828328e-03
  2.936591e+00    4.574015e-01   5.805999e-03
  2.938802e+00    4.575911e-01   5.804486e-03
  2.941012e+00    4.509793e-01   5.760079e-03
  2.943223e+00    4.596648e-01   5.812578e-03
  2.945433e+00    4.558811e-01   5.784861e-03
  2.947644e+00    4.562551e-01   5.783103e-03
  2.949854e+00    4.571070e-01   5.784213e-03
  2.952064e+00    4.579152e-01   5.785093e-03
  2.954275e+00    4.425263e-01   5.682711e-03
  2.956485e+00    4.467073e-01   5.705337e-03
  2.958696e+00    4.543363e-01   5.749464e-03
  2.960906e+00    4.594727e-01   5.777693e-03
  2.963117e+00    4.619352e-01   5.788629e-03
  2.965327e+00    4.609122e-01   5.778279e-03
  2.967538e+00    4.615627e-01   5.779424e-03
  2.969748e+00    4.555053e-01   5.738555e-03
  2.971959e+00    4.526860e-01   5.717642e-03
  2.974169e+00    4.505838e-01   5.701776e-03
  2.976379e+00    4.457739e-01   5.668374e-03
  2.978590e+00    4.453338e-01   5.662456e-03
  2.980800e+00    4.568245e-01   5.732247e-03
  2.983011e+00    4.441108e-01   5.649153e-03
  2.985221e+00    4.486606e-01   5.674877e-03
  2.987432e+00    4.594982e-01   5.739866e-03
  2.989642e+00    4.534104e-01   5.699118e-03
  2.991853e+00    4.501619e-01   5.675381e-03
  2.994063e+00    4.511253e-01   5.678571e-03
  2.996274e+00    4.492154e-01   5.663358e-03
  2.998484e+00    4.525385e-01   5.681566e-03
  3.000694e+00    4.504676e-01   5.665116e-03
  3.002905e+00    4.458714e-01   5.633222e-03
  3.005115e+00    4.600349e-01   5.719000e-03
  3.007326e+00    4.516348e-01   5.663411e-03
  3.009536e+00    4.559118e-01   5.686863e-03
  3.011747e+00    4.620366e-01   5.722023e-03
  3.013957e+00    4.546457e-01   5.672883e-03
  3.016168e+00    4.584730e-01   5.693433e-03
  3.018378e+00    4.465089e-01   5.615627e-03
  3.020589e+00    4.566781e-01   5.675991e-03
  3.022799e+00    4.583336e-01   5.683084e-03
  3.025010e+00    4.546385e-01   5.656895e-03
  3.027220e+00    4.654130e-01   5.720367e-03
  3.029430e+00    4.527330e-01   5.638663e-03
  3.031641e+00    4.626830e-01   5.697107e-03
  3.033851e+00    4.607559e-01   5.681681e-03
  3.036062e+00    4.594709e-01   5.670960e-03
  3.038272e+00    4.580787e-01   5.658747e-03
  3.040483e+00    4.608578e-01   5.672628e-03
  3.042693e+00    4.611063e-01   5.670875e-03
  3.044904e+00    4.639997e-01   5.684540e-03
  3.047114e+00    4.607756e-01   5.659915e-03
  3.049325e+00    4.500484e-01   5.589235e-03
  3.051535e+00    4.524623e-01   5.599826e-03
  3.053745e+00    4.474764e-01   5.564126e-03
  3.055956e+00    4.575638e-01   5.621912e-03
  3.058166e+00    4.404919e-01   5.511806e-03
  3.060377e+00    4.553585e-01   5.599246e-03
  3.062587e+00    4.470702e-01   5.543453e-03
  3.064798e+00    4.475683e-01   5.542282e-03
  3.067008e+00    4.454082e-01   5.524197e-03
  3.069219e+00    4.495949e-01   5.545575e-03
  3.071429e+00    4.637864e-01   5.628869e-03
  3.073640e+00    4.585946e-01   5.593892e-03
  3.075850e+00    4.531185e-01   5.556809e-03
  3.078060e+00    4.499155e-01   5.534019e-03
  3.080271e+00    4.562291e-01   5.569214e-03
  3.082481e+00    4.472055e-01   5.510423e-03
  3.084692e+00    4.474910e-01   5.508801e-03
  3.086902e+00    4.468825e-01   5.501818e-03
  3.089113e+00    4.532278e-01   5.537149e-03
  3.091323e+00    4.623019e-01   5.588864e-03
  3.093534e+00    4.605139e-01   5.574644e-03
  3.095744e+00    4.508689e-01   5.512572e-03
  3.097955e+00    4.474418e-01   5.488029e-03
  3.100165e+00    4.506765e-01   5.504476e-03
  3.102375e+00    4.421270e-01   5.448625e-03
  3.104586e+00    4.501613e-01   5.494385e-03
  3.106796e+00    4.543704e-01   5.516488e-03
  3.109007e+00    4.477267e-01   5.472769e-03
  3.111217e+00    4.368685e-01   5.402348e-03
  3.113428e+00    4.483232e-01   5.469285e-03
  3.115638e+00    4.452473e-01   5.447262e-03
  3.117849e+00    4.411381e-01   5.418367e-03
  3.120059e+00    4.511664e-01   5.476096e-03
  3.122270e+00    4.617514e-01   5.536674e-03
  3.124480e+00    4.463708e-01   5.439980e-03
  3.126691e+00    4.477938e-01   5.445074e-03
  3.128901e+00    4.415652e-01   5.403949e-03
  3.131111e+00    4.493501e-01   5.447524e-03
  3.133322e+00    4.425414e-01   5.402656e-03
  3.135532e+00    4.476657e-01   5.430419e-03
  3.137743e+00    4.590507e-01   5.495512e-03
  3.139953e+00    4.434741e-01   5.397785e-03
  3.142164e+00    4.523489e-01   5.463665e-03
  3.144374e+00    4.550364e-01   5.508688e-03
  3.146585e+00    4.360404e-01   5.406945e-03
  3.148795e+00    4.403003e-01   5.444027e-03
  3.151006e+00    4.382648e-01   5.439940e-03
  3.153216e+00    4.343197e-01   5.422489e-03
  3.155426e+00    4.344712e-01   5.429686e-03
  3.157637e+00    4.314338e-01   5.416154e-03
  3.159847e+00    4.269742e-01   5.392868e-03
  3.162058e+00    4.465145e-01   5.519354e-03
  3.164268e+00    4.357965e-01   5.456769e-03
  3.166479e+00    4.422328e-01   5.500560e-03
  3.168689e+00    4.429657e-01   5.508505e-03
  3.170900e+00    4.520954e-01   5.568197e-03
  3.173110e+00    4.477227e-01   5.544113e-03
  3.175321e+00    4.342056e-01   5.462256e-03
  3.177531e+00    4.458805e-01   5.537956e-03
  3.179741e+00    4.560945e-01   5.603161e-03
  3.181952e+00    4.468289e-01   5.548078e-03
  3.184162e+00    4.393745e-01   5.503815e-03
  3.186373e+00    4.392173e-01   5.504427e-03
  3.188583e+00    4.317360e-01   5.459107e-03
  3.190794e+00    4.424067e-01   5.527943e-03
  3.193004e+00    4.303551e-01   5.453364e-03
  3.195215e+00    4.313068e-01   5.460874e-03
  3.197425e+00    4.299454e-01   5.453465e-03
  3.199636e+00    4.260854e-01   5.428153e-03
  3.201846e+00    4.319871e-01   5.465031e-03
  3.204056e+00    4.282605e-01   5.442280e-03
  3.206267e+00    4.241315e-01   5.416815e-03
  3.208477e+00    4.297372e-01   5.453414e-03
  3.210688e+00    4.340956e-01   5.481851e-03
  3.212898e+00    4.363166e-01   5.496431e-03
  3.215109e+00    4.368641e-01   5.500631e-03
  3.217319e+00    4.378043e-01   5.507188e-03
  3.219530e+00    4.314309e-01   5.467367e-03
  3.221740e+00    4.235065e-01   5.417463e-03
  3.223951e+00    4.334838e-01   5.481368e-03
  3.226161e+00    4.322950e-01   5.474047e-03
  3.228372e+00    4.309053e-01   5.465784e-03
  3.230582e+00    4.157979e-01   5.369237e-03
  3.232792e+00    4.313043e-01   5.468661e-03
  3.235003e+00    4.213648e-01   5.405524e-03
  3.237213e+00    4.234301e-01   5.418871e-03
  3.239424e+00    4.152641e-01   5.366347e-03
  3.241634e+00    4.106523e-01   5.336606e-03
  3.243845e+00    4.251704e-01   5.430156e-03
  3.246055e+00    4.335035e-01   5.482867e-03
  3.248266e+00    4.356494e-01   5.496625e-03
  3.250476e+00    4.318091e-01   5.472022e-03
  3.252687e+00    4.309848e-01   5.466735e-03
  3.254897e+00    4.155931e-01   5.368107e-03
  3.257107e+00    4.262668e-01   5.436290e-03
  3.259318e+00    4.286822e-01   5.451434e-03
  3.261528e+00    4.164071e-01   5.372686e-03
  3.263739e+00    4.291643e-01   5.453796e-03
  3.265949e+00    4.255840e-01   5.430881e-03
  3.268160e+00    4.310713e-01   5.465352e-03
  3.270370e+00    4.277161e-01   5.443553e-03
  3.272581e+00    4.335649e-01   5.480336e-03
  3.274791e+00    4.351376e-01   5.489761e-03
  3.277002e+00    4.327370e-01   5.474004e-03
  3.279212e+00    4.338656e-01   5.480773e-03
  3.281422e+00    4.231682e-01   5.412215e-03
  3.283633e+00    4.243819e-01   5.419255e-03
  3.285843e+00    4.135649e-01   5.349451e-03
  3.288054e+00    4.188916e-01   5.382824e-03
  3.290264e+00    4.309281e-01   5.459321e-03
  3.292475e+00    4.357466e-01   5.488895e-03
  3.294685e+00    4.218029e-01   5.399746e-03
  3.296896e+00    4.298731e-01   5.450373e-03
  3.299106e+00    4.237554e-01   5.410915e-03
  3.301317e+00    4.196501e-01   5.383613e-03
  3.303527e+00    4.225744e-01   5.401858e-03
  3.305737e+00    4.336115e-01   5.470904e-03
  3.307948e+00    4.120806e-01   5.332699e-03
  3.310158e+00    4.261209e-01   5.421900e-03
  3.312369e+00    4.280429e-01   5.433247e-03
  3.314579e+00    4.194827e-01   5.377720e-03
  3.316790e+00    4.353221e-01   5.477615e-03
  3.319000e+00    4.246667e-01   5.408956e-03
  3.321211e+00    4.354299e-01   5.476462e-03
  3.323421e+00    4.258122e-01   5.414434e-03
  3.325632e+00    4.184566e-01   5.366583e-03
  3.327842e+00    4.270423e-01   5.420449e-03
  3.330052e+00    4.298759e-01   5.437293e-03
  3.332263e+00    4.171219e-01   5.355044e-03
  3.334473e+00    4.089321e-01   5.301298e-03
  3.336684e+00    4.188141e-01   5.363711e-03
  3.338894e+00    4.217248e-01   5.381485e-03
  3.341105e+00    4.222752e-01   5.383766e-03
  3.343315e+00    4.215023e-01   5.377726e-03
  3.345526e+00    4.219474e-01   5.379630e-03
  3.347736e+00    4.109844e-01   5.307922e-03
  3.349947e+00    4.189665e-01   5.358258e-03
  3.352157e+00    4.288304e-01   5.419783e-03
  3.354368e+00    4.286458e-01   5.417331e-03
  3.356578e+00    4.102065e-01   5.298525e-03
  3.358788e+00    4.052027e-01   5.264773e-03
  3.360999e+00    4.089702e-01   5.287977e-03
  3.363209e+00    4.043665e-01   5.257125e-03
  3.365420e+00    4.130444e-01   5.311725e-03
  3.367630e+00    4.190749e-01   5.349355e-03
  3.369841e+00    4.179278e-01   5.340595e-03
  3.372051e+00    4.067623e-01   5.266815e-03
  3.374262e+00    4.239985e-01   5.374779e-03
  3.376472e+00    4.173551e-01   5.330079e-03
  3.378683e+00    4.153174e-01   5.314535e-03
  3.380893e+00    4.134622e-01   5.300322e-03
  3.383103e+00    4.134157e-01   5.297316e-03
  3.385314e+00    4.181511e-01   5.325345e-03
  3.387524e+00    4.124459e-01   5.286187e-03
  3.389735e+00    3.986679e-01   5.194514e-03
  3.391945e+00    4.159802e-01   5.302449e-03
  3.394156e+00    3.997451e-01   5.193776e-03
  3.396366e+00    4.129483e-01   5.275453e-03
  3.398577e+00    3.964835e-01   5.166230e-03
  3.400787e+00    3.958610e-01   5.173848e-03
  3.402998e+00    3.869664e-01   5.152371e-03
  3.405208e+00    4.087398e-01   5.316081e-03
  3.407418e+00    3.935510e-01   5.232038e-03
  3.409629e+00    3.824984e-01   5.171657e-03
  3.411839e+00    3.849342e-01   5.199668e-03
  3.414050e+00    3.964631e-01   5.287926e-03
  3.416260e+00    3.935040e-01   5.277820e-03
  3.418471e+00    3.851689e-01   5.230905e-03
  3.420681e+00    3.960366e-01   5.312739e-03
  3.422892e+00    3.955061e-01   5.317227e-03
  3.425102e+00    3.858290e-01   5.259558e-03
  3.427313e+00    3.880858e-01   5.282095e-03
  3.429523e+00    3.751212e-01   5.200069e-03
  3.431733e+00    3.853641e-01   5.277242e-03
  3.433944e+00    3.864619e-01   5.291256e-03
  3.436154e+00    3.889159e-01   5.314329e-03
  3.438365e+00    3.777173e-01   5.243138e-03
  3.440575e+00    3.910114e-01   5.340614e-03
  3.442786e+00    3.850500e-01   5.305428e-03
  3.444996e+00    3.694688e-01   5.202418e-03
  3.447207e+00    3.585964e-01   5.130454e-03
  3.449417e+00    3.795621e-01   5.319552e-03
  3.451628e+00    3.594015e-01   5.205430e-03
  3.453838e+00    3.691244e-01   5.296575e-03
  3.456049e+00    3.605820e-01   5.258617e-03
  3.458259e+00    3.727384e-01   5.368632e-03
  3.460469e+00    3.713362e-01   5.378458e-03
  3.462680e+00    3.652207e-01   5.353019e-03
  3.464890e+00    3.807290e-01   5.483605e-03
  3.467101e+00    3.817854e-01   5.509040e-03
  3.469311e+00    3.813000e-01   5.522321e-03
  3.471522e+00    4.016960e-01   5.685057e-03
  3.473732e+00    4.022675e-01   5.705541e-03
  3.475943e+00    3.909772e-01   5.640799e-03
  3.478153e+00    3.946459e-01   5.682751e-03
  3.480364e+00    3.996746e-01   5.734119e-03
  3.482574e+00    4.160092e-01   5.865682e-03
  3.484784e+00    4.370123e-01   6.027284e-03
  3.486995e+00    4.082934e-01   5.840823e-03
  3.489205e+00    4.267860e-01   5.986376e-03
  3.491416e+00    4.283291e-01   6.012111e-03
  3.493626e+00    4.361475e-01   6.081349e-03
  3.495837e+00    4.550786e-01   6.226912e-03
  3.498047e+00    4.621464e-01   6.289867e-03
  3.500258e+00    4.606301e-01   6.294266e-03
  3.502468e+00    4.700474e-01   6.372953e-03
  3.504679e+00    4.572502e-01   6.300039e-03
  3.506889e+00    4.614390e-01   6.343190e-03
  3.509099e+00    4.826560e-01   6.501890e-03
  3.511310e+00    4.886605e-01   6.556890e-03
  3.513520e+00    4.937405e-01   6.605474e-03
  3.515731e+00    4.972376e-01   6.643366e-03
  3.517941e+00    4.901354e-01   6.610117e-03
  3.520152e+00    5.119180e-01   6.769937e-03
  3.522362e+00    5.184829e-01   6.827992e-03
  3.524573e+00    5.136824e-01   6.810670e-03
  3.526783e+00    5.266752e-01   6.909819e-03
  3.528994e+00    5.246469e-01   6.908856e-03
  3.531204e+00    5.332556e-01   6.977879e-03
  3.533414e+00    5.291862e-01   6.963353e-03
  3.535625e+00    5.226086e-01   6.932243e-03
  3.537835e+00    5.333424e-01   7.015171e-03
  3.540046e+00    5.408404e-01   7.073316e-03
  3.542256e+00    5.304013e-01   7.012202e-03
  3.544467e+00    5.415589e-01   7.093223e-03
  3.546677e+00    5.455046e-01   7.126681e-03
  3.548888e+00    5.297248e-01   7.030297e-03
  3.551098e+00    5.395231e-01   7.102305e-03
  3.553309e+00    5.643458e-01   7.272261e-03
  3.555519e+00    5.338873e-01   7.084571e-03
  3.557729e+00    5.256146e-01   7.041051e-03
  3.559940e+00    5.329458e-01   7.101510e-03
  3.562150e+00    5.479356e-01   7.212536e-03
  3.564361e+00    5.628686e-01   7.323766e-03
  3.566571e+00    5.495912e-01   7.250932e-03
  3.568782e+00    5.444580e-01   7.231215e-03
  3.570992e+00    5.242522e-01   7.109336e-03
  3.573203e+00    5.408094e-01   7.234946e-03
  3.575413e+00    5.429524e-01   7.263124e-03
  3.577624e+00    5.473771e-01   7.306948e-03
  3.579834e+00    5.562702e-01   7.380191e-03
  3.582045e+00    5.297234e-01   7.215938e-03
  3.584255e+00    5.293605e-01   7.227356e-03
  3.586465e+00    5.383713e-01   7.302628e-03
  3.588676e+00    5.281087e-01   7.246751e-03
  3.590886e+00    5.259870e-01   7.245786e-03
  3.593097e+00    5.275122e-01   7.270613e-03
  3.595307e+00    5.419285e-01   7.383354e-03
  3.597518e+00    5.392607e-01   7.379401e-03
  3.599728e+00    5.386033e-01   7.389050e-03
  3.601939e+00    5.409131e-01   7.419010e-03
  3.604149e+00    5.479063e-01   7.481392e-03
  3.606360e+00    5.380356e-01   7.427869e-03
  3.608570e+00    5.566632e-01   7.569767e-03
  3.610780e+00    5.333231e-01   7.420463e-03
  3.612991e+00    5.563855e-01   7.589397e-03
  3.615201e+00    5.390078e-01   7.479780e-03
  3.617412e+00    5.377583e-01   7.478386e-03
  3.619622e+00    5.432847e-01   7.522718e-03
  3.621833e+00    5.375977e-01   7.489983e-03
  3.624043e+00    5.352576e-01   7.483182e-03
  3.626254e+00    5.259245e-01   7.427284e-03
  3.628464e+00    5.033875e-01   7.277029e-03
  3.630675e+00    5.603017e-01   7.691853e-03
  3.632885e+00    5.422660e-01   7.581647e-03
  3.635095e+00    5.304402e-01   7.512853e-03
  3.637306e+00    5.498133e-01   7.663390e-03
  3.639516e+00    5.396087e-01   7.606588e-03
  3.641727e+00    5.356376e-01   7.593119e-03
  3.643937e+00    5.351548e-01   7.604280e-03
  3.646148e+00    5.508621e-01   7.729924e-03
  3.648358e+00    5.454932e-01   7.707170e-03
  3.650569e+00    5.425323e-01   7.701144e-03
  3.652779e+00    5.322761e-01   7.642720e-03
  3.654990e+00    5.329030e-01   7.662133e-03
  3.657200e+00    5.452462e-01   7.765407e-03
  3.659410e+00    5.434654e-01   7.767895e-03
  3.661621e+00    5.303837e-01   7.688919e-03
  3.663831e+00    5.182971e-01   7.615689e-03
  3.666042e+00    5.185238e-01   7.632331e-03
  3.668252e+00    5.318320e-01   7.744918e-03
  3.670463e+00    5.286058e-01   7.736592e-03
  3.672673e+00    5.193850e-01   7.684059e-03
  3.674884e+00    5.441961e-01   7.881042e-03
  3.677094e+00    5.319939e-01   7.807729e-03
  3.679305e+00    5.381032e-01   7.868124e-03
  3.681515e+00    5.271096e-01   7.802865e-03
  3.683726e+00    5.416209e-01   7.925547e-03
  3.685936e+00    5.525537e-01   8.021167e-03
  3.688146e+00    5.593420e-01   8.086562e-03
  3.690357e+00    5.361025e-01   7.932859e-03
  3.692567e+00    5.412545e-01   7.987187e-03
  3.694778e+00    5.310724e-01   7.927867e-03
  3.696988e+00    5.089375e-01   7.776587e-03
  3.699199e+00    5.318670e-01   7.966177e-03
  3.701409e+00    5.394632e-01   8.039453e-03
  3.703620e+00    5.380065e-01   8.045098e-03
  3.705830e+00    5.385416e-01   8.065758e-03
  3.708041e+00    5.173417e-01   7.921901e-03
  3.710251e+00    4.989783e-01   7.796313e-03
  3.712461e+00    5.300596e-01   8.052312e-03
  3.714672e+00    5.315196e-01   8.080300e-03
  3.716882e+00    5.388734e-01   8.152991e-03
  3.719093e+00    5.415409e-01   8.190638e-03
  3.721303e+00    5.055901e-01   7.930845e-03
  3.723514e+00    5.144578e-01   8.017234e-03
  3.725724e+00    5.237772e-01   8.106812e-03
  3.727935e+00    5.192962e-01   8.089527e-03
  3.730145e+00    5.409572e-01   8.274226e-03
  3.732356e+00    4.993719e-01   7.967143e-03
  3.734566e+00    5.002097e-01   7.991020e-03
  3.736776e+00    5.106081e-01   8.091387e-03
  3.738987e+00    5.118645e-01   8.119023e-03
  3.741197e+00    5.125735e-01   8.142633e-03
  3.743408e+00    5.289187e-01   8.289737e-03
  3.745618e+00    5.141165e-01   8.191304e-03
  3.747829e+00    5.227940e-01   8.278370e-03
  3.750039e+00    5.258572e-01   8.321311e-03
  3.752250e+00    5.060648e-01   8.181527e-03
  3.754460e+00    5.228456e-01   8.334830e-03
  3.756671e+00    5.063316e-01   8.220936e-03
  3.758881e+00    5.037359e-01   8.218378e-03
  3.761091e+00    5.032514e-01   8.233428e-03
  3.763302e+00    5.175717e-01   8.369047e-03
  3.765512e+00    5.072859e-01   8.304723e-03
  3.767723e+00    4.996938e-01   8.261518e-03
  3.769933e+00    4.911985e-01   8.210054e-03
  3.772144e+00    4.961628e-01   8.270808e-03
  3.774354e+00    4.992530e-01   8.316228e-03
  3.776565e+00    5.081822e-01   8.410185e-03
  3.778775e+00    5.105022e-01   8.449439e-03
  3.780986e+00    5.184938e-01   8.535916e-03
  3.783196e+00    5.166001e-01   8.540833e-03
  3.785407e+00    4.941648e-01   8.373562e-03
  3.787617e+00    5.210400e-01   8.619307e-03
  3.789827e+00    5.158464e-01   8.597129e-03
  3.792038e+00    4.950769e-01   8.442967e-03
  3.794248e+00    4.975218e-01   8.484832e-03
  3.796459e+00    5.017392e-01   8.542063e-03
  3.798669e+00    5.259103e-01   8.767356e-03
  3.800880e+00    5.067198e-01   8.627504e-03
  3.803090e+00    4.922674e-01   8.525189e-03
  3.805301e+00    4.964332e-01   8.583179e-03
  3.807511e+00    5.108947e-01   8.729575e-03
  3.809722e+00    5.152448e-01   8.789208e-03
  3.811932e+00    4.994570e-01   8.675775e-03
  3.814142e+00    4.859069e-01   8.579773e-03
  3.816353e+00    5.132443e-01   8.841048e-03
  3.818563e+00    4.802159e-01   8.574499e-03
  3.820774e+00    4.922221e-01   8.704029e-03
  3.822984e+00    4.857910e-01   8.670057e-03
  3.825195e+00    5.179937e-01   8.977044e-03
  3.827405e+00    5.037574e-01   8.876853e-03
  3.829616e+00    4.887851e-01   8.767787e-03
  3.831826e+00    5.013704e-01   8.904217e-03
  3.834037e+00    4.961655e-01   8.882357e-03
  3.836247e+00    5.003994e-01   8.944953e-03
  3.838457e+00    4.944990e-01   8.917044e-03
  3.840668e+00    4.905505e-01   8.906395e-03
  3.842878e+00    4.776028e-01   8.813149e-03
  3.845089e+00    4.765685e-01   8.828641e-03
  3.847299e+00    4.922439e-01   8.998359e-03
  3.849510e+00    4.969766e-01   9.067434e-03
  3.851720e+00    5.017303e-01   9.132242e-03
  3.853931e+00    5.204439e-01   9.320487e-03
  3.856141e+00    4.827435e-01   8.995367e-03
  3.858352e+00    5.131760e-01   9.294117e-03
  3.860562e+00    5.099227e-01   9.284275e-03
  3.862772e+00    5.016269e-01   9.228191e-03
  3.864983e+00    4.846649e-01   9.090322e-03
  3.867193e+00    4.965479e-01   9.220832e-03
  3.869404e+00    5.023875e-01   9.294944e-03
  3.871614e+00    5.006632e-01   9.299140e-03
  3.873825e+00    4.967949e-01   9.283540e-03
  3.876035e+00    4.491657e-01   8.846887e-03
  3.878246e+00    5.152095e-01   9.501335e-03
  3.880456e+00    5.322866e-01   9.687716e-03
  3.882667e+00    5.108438e-01   9.520451e-03
  3.884877e+00    5.046935e-01   9.493128e-03
  3.887087e+00    4.907728e-01   9.391217e-03
  3.889298e+00    4.978729e-01   9.489456e-03
  3.891508e+00    4.603095e-01   9.154064e-03
  3.893719e+00    4.773407e-01   9.352305e-03
  3.895929e+00    4.959801e-01   9.564824e-03
  3.898140e+00    4.925152e-01   9.563152e-03
  3.900350e+00    4.933265e-01   9.603225e-03
  3.902561e+00    4.951665e-01   9.653613e-03
  3.904771e+00    4.756138e-01   9.493481e-03
  3.906982e+00    4.853185e-01   9.622848e-03
  3.909192e+00    5.119569e-01   9.917619e-03
  3.911403e+00    4.953861e-01   9.790125e-03
  3.913613e+00    4.895179e-01   9.766215e-03
  3.915823e+00    4.823205e-01   9.728734e-03
  3.918034e+00    4.644769e-01   9.581449e-03
  3.920244e+00    4.854259e-01   9.830783e-03
  3.922455e+00    4.992326e-01   1.000607e-02
  3.924665e+00    4.875642e-01   9.924904e-03
  3.926876e+00    5.066529e-01   1.015508e-02
  3.929086e+00    4.877381e-01   1.000116e-02
  3.931297e+00    5.035034e-01   1.019679e-02
  3.933507e+00    4.798103e-01   9.982754e-03
  3.935718e+00    4.850188e-01   1.006543e-02
  3.937928e+00    5.049796e-01   1.030049e-02
  3.940138e+00    4.852899e-01   1.012685e-02
  3.942349e+00    5.289359e-01   1.060364e-02
  3.944559e+00    4.906251e-01   1.024267e-02
  3.946770e+00    4.652954e-01   1.000403e-02
  3.948980e+00    5.133283e-01   1.053931e-02
  3.951191e+00    4.888362e-01   1.031585e-02
  3.953401e+00    5.099259e-01   1.056805e-02
  3.955612e+00    4.862784e-01   1.035175e-02
  3.957822e+00    5.103078e-01   1.063690e-02
  3.960033e+00    4.911689e-01   1.046832e-02
  3.962243e+00    4.860906e-01   1.044692e-02
  3.964453e+00    4.920476e-01   1.054411e-02
  3.966664e+00    4.842093e-01   1.049306e-02
  3.968874e+00    4.625451e-01   1.028344e-02
  3.971085e+00    4.777883e-01   1.047312e-02
  3.973295e+00    5.112116e-01   1.085538e-02
  3.975506e+00    5.297353e-01   1.107279e-02
  3.977716e+00    5.227529e-01   1.102256e-02
  3.979927e+00    5.158843e-01   1.097259e-02
  3.982137e+00    4.838481e-01   1.064877e-02
  3.984348e+00    4.853626e-01   1.068795e-02
  3.986558e+00    4.727473e-01   1.057016e-02
  3.988768e+00    4.953611e-01   1.084318e-02
  3.990979e+00    4.772133e-01   1.066546e-02
  3.993189e+00    4.925819e-01   1.085886e-02
  3.995400e+00    4.986619e-01   1.094970e-02
  3.997610e+00    5.063748e-01   1.106447e-02
  3.999821e+00    5.018072e-01   1.105267e-02
  4.002031e+00    4.867810e-01   1.092436e-02
  4.004242e+00    4.733197e-01   1.081038e-02
  4.006452e+00    4.604163e-01   1.070018e-02
  4.008663e+00    4.852053e-01   1.102465e-02
  4.010873e+00    4.750102e-01   1.094772e-02
  4.013084e+00    4.674885e-01   1.090098e-02
  4.015294e+00    4.897325e-01   1.119841e-02
  4.017504e+00    4.610651e-01   1.090657e-02
  4.019715e+00    4.994361e-01   1.139449e-02
  4.021925e+00    4.957338e-01   1.139574e-02
  4.024136e+00    4.825878e-01   1.128723e-02
  4.026346e+00    4.972034e-01   1.150160e-02
  4.028557e+00    4.537270e-01   1.103021e-02
  4.030767e+00    4.746662e-01   1.132699e-02
  4.032978e+00    4.587572e-01   1.118072e-02
  4.035188e+00    4.547583e-01   1.117649e-02
  4.037399e+00    4.798916e-01   1.152873e-02
  4.039609e+00    4.959235e-01   1.176798e-02
  4.041819e+00    4.932401e-01   1.178542e-02
  4.044030e+00    5.082836e-01   1.201500e-02
  4.046240e+00    4.887690e-01   1.183226e-02
  4.048451e+00    4.963234e-01   1.197484e-02
  4.050661e+00    5.256956e-01   1.237789e-02
  4.052872e+00    4.962776e-01   1.208007e-02
  4.055082e+00    4.888356e-01   1.204306e-02
  4.057293e+00    4.675789e-01   1.183107e-02
  4.059503e+00    4.995241e-01   1.228419e-02
  4.061714e+00    4.754690e-01   1.204086e-02
  4.063924e+00    4.526032e-01   1.180273e-02
  4.066134e+00    4.633699e-01   1.199861e-02
  4.068345e+00    4.735235e-01   1.218766e-02
  4.070555e+00    5.381107e-01   1.305495e-02
  4.072766e+00    5.396028e-01   1.313757e-02
  4.074976e+00    5.239195e-01   1.300970e-02
  4.077187e+00    5.199435e-01   1.302475e-02
  4.079397e+00    5.135418e-01   1.301029e-02
  4.081608e+00    5.017928e-01   1.292772e-02
  4.083818e+00    4.738791e-01   1.262824e-02
  4.086029e+00    4.689139e-01   1.262792e-02
  4.088239e+00    5.303270e-01   1.350192e-02
  4.090449e+00    4.832345e-01   1.295849e-02
  4.092660e+00    4.870490e-01   1.308095e-02
  4.094870e+00    4.737280e-01   1.297270e-02
  4.097081e+00    5.172416e-01   1.362948e-02
  4.099291e+00    5.003844e-01   1.346125e-02
  4.101502e+00    4.415397e-01   1.269212e-02
  4.103712e+00    4.246531e-01   1.249337e-02
  4.105923e+00    4.690039e-01   1.318028e-02
  4.108133e+00    4.818269e-01   1.341092e-02
  4.110344e+00    4.671852e-01   1.325611e-02
  4.112554e+00    5.214908e-01   1.406053e-02
  4.114764e+00    4.916305e-01   1.370700e-02
  4.116975e+00    4.915107e-01   1.375939e-02
  4.119185e+00    5.027797e-01   1.397271e-02
  4.121396e+00    4.850392e-01   1.378077e-02
  4.123606e+00    5.239905e-01   1.438199e-02
  4.125817e+00    5.117888e-01   1.427309e-02
  4.128027e+00    5.128172e-01   1.434790e-02
  4.130238e+00    4.556138e-01   1.358179e-02
  4.132448e+00    4.824321e-01   1.403645e-02
  4.134659e+00    4.960237e-01   1.429405e-02
  4.136869e+00    5.114266e-01   1.457894e-02
  4.139080e+00    4.962341e-01   1.442574e-02
  4.141290e+00    5.093828e-01   1.468014e-02
  4.143500e+00    4.739130e-01   1.422517e-02
  4.145711e+00    5.084815e-01   1.480380e-02
  4.147921e+00    4.790952e-01   1.443539e-02
  4.150132e+00    4.812950e-01   1.453763e-02
  4.152342e+00    5.016055e-01   1.491311e-02
  4.154553e+00    4.868968e-01   1.476280e-02
  4.156763e+00    4.818555e-01   1.475869e-02
  4.158974e+00    4.979345e-01   1.507842e-02
  4.161184e+00    4.766712e-01   1.482609e-02
  4.163395e+00    4.638630e-01   1.470025e-02
  4.165605e+00    4.474574e-01   1.451311e-02
  4.167815e+00    4.780587e-01   1.507921e-02
  4.170026e+00    4.774527e-01   1.514923e-02
  4.172236e+00    4.572734e-01   1.490572e-02
  4.174447e+00    4.865541e-01   1.545914e-02
  4.176657e+00    5.120541e-01   1.594573e-02
  4.178868e+00    5.394149e-01   1.645907e-02
  4.181078e+00    4.887677e-01   1.575545e-02
  4.183289e+00    4.897273e-01   1.586117e-02
  4.185499e+00    5.396103e-01   1.674763e-02
  4.187710e+00    5.323110e-01   1.673150e-02
  4.189920e+00    4.745198e-01   1.589207e-02
  4.192130e+00    5.460244e-01   1.715205e-02
  4.194341e+00    5.062836e-01   1.661703e-02
  4.196551e+00    5.121442e-01   1.681896e-02
  4.198762e+00    4.512340e-01   1.588720e-02
  4.200972e+00    5.052226e-01   1.691965e-02
  4.203183e+00    4.440432e-01   1.596702e-02
  4.205393e+00    4.653853e-01   1.645454e-02
  4.207604e+00    4.876445e-01   1.695875e-02
  4.209814e+00    5.150881e-01   1.754862e-02
  4.212025e+00    5.286350e-01   1.790413e-02
  4.214235e+00    5.132430e-01   1.776660e-02
  4.216445e+00    4.618920e-01   1.697626e-02
  4.218656e+00    4.628601e-01   1.712124e-02
  4.220866e+00    4.716765e-01   1.741171e-02
  4.223077e+00    4.724384e-01   1.755971e-02
  4.225287e+00    4.768463e-01   1.778013e-02
  4.227498e+00    4.865508e-01   1.810091e-02
  4.229708e+00    5.159320e-01   1.879112e-02
  4.231919e+00    5.399597e-01   1.938300e-02
  4.234129e+00    4.944992e-01   1.870433e-02
  4.236340e+00    4.614398e-01   1.822330e-02
  4.238550e+00    4.121528e-01   1.737445e-02
  4.240761e+00    4.204501e-01   1.770320e-02
  4.242971e+00    5.006633e-01   1.949543e-02
  4.245181e+00    4.651822e-01   1.896849e-02
  4.247392e+00    4.770457e-01   1.938843e-02
  4.249602e+00    5.213090e-01   2.046897e-02
  4.251813e+00    5.015922e-01   2.027653e-02
  4.254023e+00    4.456964e-01   1.930565e-02
  4.256234e+00    4.315827e-01   1.920043e-02
  4.258444e+00    5.202138e-01   2.130072e-02
  4.260655e+00    4.672090e-01   2.040871e-02
  4.262865e+00    4.468215e-01   2.018429e-02
  4.265076e+00    4.702039e-01   2.094138e-02
  4.267286e+00    5.817133e-01   2.356841e-02
  4.269496e+00    4.780734e-01   2.162740e-02
  4.271707e+00    5.105832e-01   2.262622e-02
  4.273917e+00    5.628797e-01   2.406386e-02
  4.276128e+00    5.160449e-01   2.334763e-02
  4.278338e+00    4.593205e-01   2.232061e-02
  4.280549e+00    4.539239e-01   2.250794e-02
  4.282759e+00    4.189413e-01   2.193358e-02
  4.284970e+00    4.387553e-01   2.277808e-02
  4.287180e+00    5.653735e-01   2.616723e-02
  4.289391e+00    5.035017e-01   2.487922e-02
  4.291601e+00    4.468339e-01   2.362474e-02
  4.293811e+00    4.611306e-01   2.418677e-02
  4.296022e+00    5.378985e-01   2.633270e-02
  4.298232e+00    5.152256e-01   2.598830e-02
  4.300443e+00    4.395030e-01   2.420042e-02
  4.302653e+00    4.696143e-01   2.523202e-02
  4.304864e+00    4.309714e-01   2.438068e-02
  4.307074e+00    5.419953e-01   2.758739e-02
  4.309285e+00    5.580429e-01   2.824744e-02
  4.311495e+00    4.196844e-01   2.472597e-02
  4.313706e+00    4.268603e-01   2.516964e-02
  4.315916e+00    5.609536e-01   2.913838e-02
  4.318126e+00    4.572112e-01   2.656653e-02
  4.320337e+00    5.037916e-01   2.816892e-02
  4.322547e+00    5.873549e-01   3.073836e-02
  4.324758e+00    5.090861e-01   2.891475e-02
  4.326968e+00    5.113136e-01   2.930422e-02
  4.329179e+00    4.584475e-01   2.805321e-02
  4.331389e+00    5.324869e-01   3.058307e-02
  4.333600e+00    5.203403e-01   3.059251e-02
  4.335810e+00    4.904147e-01   3.005428e-02
  4.338021e+00    4.299605e-01   2.849990e-02
  4.340231e+00    5.604880e-01   3.294772e-02
  4.342442e+00    5.248981e-01   3.231442e-02
  4.344652e+00    4.158985e-01   2.915317e-02
  4.346862e+00    3.603168e-01   2.751597e-02
  4.349073e+00    4.803156e-01   3.223024e-02
  4.351283e+00    5.906569e-01   3.627639e-02
  4.353494e+00    5.070668e-01   3.413065e-02
  4.355704e+00    5.207327e-01   3.514475e-02
  4.357915e+00    4.385706e-01   3.278948e-02
  4.360125e+00    5.435364e-01   3.712574e-02
  4.362336e+00    5.080762e-01   3.654983e-02
  4.364546e+00    3.690226e-01   3.171593e-02
  4.366757e+00    4.892784e-01   3.724579e-02
  4.368967e+00    4.181144e-01   3.511738e-02
  4.371177e+00    4.511679e-01   3.725685e-02
  4.373388e+00    4.247092e-01   3.695293e-02
  4.375598e+00    3.881151e-01   3.613240e-02
  4.377809e+00    5.895290e-01   4.565670e-02
  4.380019e+00    3.195217e-01   3.446284e-02
  4.382230e+00    2.998341e-01   3.430920e-02
  4.384440e+00    4.018444e-01   4.086754e-02
  4.386651e+00    6.448676e-01   5.336208e-02
  4.388861e+00    4.273237e-01   4.489976e-02
  4.391072e+00    4.417404e-01   4.725451e-02
  4.393282e+00    3.622231e-01   4.444207e-02
  4.395492e+00    5.026124e-01   5.452871e-02
  4.397703e+00    4.645542e-01   5.481931e-02
  4.399913e+00    4.126200e-01   5.427829e-02
  4.402124e+00    5.795629e-01   6.797539e-02
  4.404334e+00    5.873305e-01   7.274248e-02
  4.406545e+00    3.030547e-01   5.614171e-02
  4.408755e+00    6.699412e-01   9.052529e-02
  4.410966e+00    2.773750e-01   6.446740e-02
  4.413176e+00    1.047917e-01   4.485976e-02
  4.415387e+00   -4.615297e-01            nan
  4.417597e+00   -2.032841e+00            nan
  4.419807e+00   -3.766224e-01            nan
