# == pyFAI calibration ==
# Distance Sample to Detector: 0.216 m
# PONI: 1.166e-01, 1.308e-01 m
# Rotations: 0.000000 0.000000 0.000000 rad
# 
# == Fit2d calibration ==
# Distance Sample-beamCenter: 216.000 mm
# Center: x=1744.293, y=1555.000 pix
# Tilt: 0.000 deg  TiltPlanRot: 0.000 deg
# 
# Detector Eiger 9M	 PixelSize= 7.500e-05, 7.500e-05 m
#    Detector has a mask: True 
#    Detector has a dark current: False 
#    detector has a flat field: False 
# 
# Wavelength: 9.8e-11 m
# Mask applied: from detector
# Dark current applied: False
# Flat field applied: False
# Polarization factor: None
# Normalization factor: 1.0
# 
# Headers of the input frame:
# {
# "_array_data.header_convention": "SLS_1.0",
# "_array_data.header_contents": "# Detector: Dectris Eiger 9M, S/N E-18-0102\r\n# Pixel_size 75e-6 m x 75e-6 m\r\n# Silicon sensor, thickness 0.000450 m\r\n# Exposure_time 0.024997 s\r\n# Exposure_period 0.025000 s\r\n# Count_cutoff 62318 counts\r\n# Wavelength 0.980106 A\r\n# Detector_distance 0.215992 m\r\n# Beam_xy (1555, 1744) pixels\r\n# Start_angle 0.000000 deg.\r\n# Angle_increment 0.000000 deg.",
# "Content-Type": "application/octet-stream;",
# "conversions": "x-CBF_BYTE_OFFSET",
# "Content-Transfer-Encoding": "BINARY",
# "X-Binary-Size": "10166668",
# "X-Binary-ID": "1",
# "X-Binary-Element-Type": "signed 32-bit integer",
# "X-Binary-Element-Byte-Order": "LITTLE_ENDIAN",
# "Content-MD5": "JQjB3TmVaCjScXJDsByy1Q==",
# "X-Binary-Number-of-Elements": "10166590",
# "X-Binary-Size-Fastest-Dimension": "3110",
# "X-Binary-Size-Second-Dimension": "3269",
# "X-Binary-Size-Padding": "4095"
# }
# --> H:/Proxima2a_2019-04-05/RAW_DATA/C5_gel17_position5/C5_mesh_1_data.cbf/C5_mesh_1_data.cbf000105.dat
#        q_A^-1              I           sigma 
  1.105228e-03    1.866317e+00   7.392301e-01
  3.315685e-03    1.617935e+00   4.184331e-01
  5.526141e-03    1.577391e+00   3.194786e-01
  7.736597e-03    1.418328e+00   2.559225e-01
  9.947054e-03    1.272546e+00   2.137043e-01
  1.215751e-02    1.290519e+00   1.946035e-01
  1.436797e-02    1.389810e+00   1.857606e-01
  1.657842e-02    1.282020e+00   1.660702e-01
  1.878888e-02    1.516277e+00   1.696496e-01
  2.099934e-02    1.846005e+00   1.771000e-01
  2.320979e-02    1.606162e+00   1.571186e-01
  2.542025e-02    1.331099e+00   1.366830e-01
  2.763070e-02    1.417033e+00   1.352634e-01
  2.984116e-02    1.535254e+00   1.354773e-01
  3.205162e-02    1.502517e+00   1.293290e-01
  3.426207e-02    1.482729e+00   1.242527e-01
  3.647253e-02    1.245186e+00   1.103588e-01
  3.868299e-02    1.420074e+00   1.144461e-01
  4.089344e-02    1.406709e+00   1.107855e-01
  4.310390e-02    1.520093e+00   1.121654e-01
  4.531436e-02    1.525710e+00   1.095978e-01
  4.752481e-02    1.478875e+00   1.053622e-01
  4.973527e-02    1.418642e+00   1.008761e-01
  5.194572e-02    1.473723e+00   1.006030e-01
  5.415618e-02    1.497131e+00   9.930444e-02
  5.636664e-02    1.609624e+00   1.009317e-01
  5.857709e-02    1.547084e+00   9.706699e-02
  6.078755e-02    1.491313e+00   9.354955e-02
  6.299801e-02    1.532609e+00   9.315629e-02
  6.520846e-02    1.471267e+00   8.971325e-02
  6.741892e-02    1.476760e+00   8.839034e-02
  6.962938e-02    1.392068e+00   8.444941e-02
  7.183983e-02    1.403474e+00   8.347842e-02
  7.405029e-02    1.448391e+00   8.352647e-02
  7.626074e-02    1.464455e+00   8.276150e-02
  7.847120e-02    1.498775e+00   8.253577e-02
  8.068166e-02    1.433003e+00   7.959062e-02
  8.289211e-02    1.550324e+00   8.167290e-02
  8.510257e-02    1.392868e+00   7.640193e-02
  8.731303e-02    1.493864e+00   7.811243e-02
  8.952348e-02    1.452249e+00   7.606208e-02
  9.173394e-02    1.424186e+00   7.440758e-02
  9.394439e-02    1.543729e+00   7.654817e-02
  9.615485e-02    1.486895e+00   7.425573e-02
  9.836531e-02    1.503919e+00   7.383370e-02
  1.005758e-01    1.499348e+00   7.290724e-02
  1.027862e-01    1.523631e+00   7.269887e-02
  1.049967e-01    1.569685e+00   7.300729e-02
  1.072071e-01    1.560310e+00   7.203376e-02
  1.094176e-01    1.513010e+00   7.021233e-02
  1.116280e-01    1.424552e+00   6.744951e-02
  1.138385e-01    1.542915e+00   6.950950e-02
  1.160490e-01    1.552924e+00   6.906644e-02
  1.182594e-01    1.534955e+00   6.801944e-02
  1.204699e-01    1.580385e+00   6.838205e-02
  1.226803e-01    1.512950e+00   6.629897e-02
  1.248908e-01    1.492753e+00   6.526878e-02
  1.271012e-01    1.489384e+00   6.462441e-02
  1.293117e-01    1.507104e+00   6.444889e-02
  1.315222e-01    1.614614e+00   6.614355e-02
  1.337326e-01    1.656965e+00   6.644807e-02
  1.359431e-01    1.593068e+00   6.519240e-02
  1.381535e-01    1.449576e+00   6.302185e-02
  1.403640e-01    1.502322e+00   6.443519e-02
  1.425744e-01    1.589723e+00   6.638892e-02
  1.447849e-01    1.575740e+00   6.611154e-02
  1.469953e-01    1.469647e+00   6.380716e-02
  1.492058e-01    1.584829e+00   6.618340e-02
  1.514163e-01    1.614738e+00   6.669406e-02
  1.536267e-01    1.558107e+00   6.538618e-02
  1.558372e-01    1.541123e+00   6.488526e-02
  1.580476e-01    1.622777e+00   6.642044e-02
  1.602581e-01    1.651320e+00   6.683188e-02
  1.624685e-01    1.657626e+00   6.677601e-02
  1.646790e-01    1.777799e+00   6.895563e-02
  1.668895e-01    1.728078e+00   6.778821e-02
  1.690999e-01    1.780779e+00   6.860743e-02
  1.713104e-01    1.871266e+00   7.011068e-02
  1.735208e-01    1.798922e+00   6.852832e-02
  1.757313e-01    1.807712e+00   6.848021e-02
  1.779417e-01    1.828374e+00   6.864588e-02
  1.801522e-01    1.856850e+00   6.895803e-02
  1.823626e-01    1.949543e+00   7.042302e-02
  1.845731e-01    1.934540e+00   6.992429e-02
  1.867836e-01    1.945763e+00   6.989015e-02
  1.889940e-01    1.959568e+00   6.990847e-02
  1.912045e-01    1.981661e+00   7.006668e-02
  1.934149e-01    2.019514e+00   7.049597e-02
  1.956254e-01    2.052460e+00   7.083428e-02
  1.978358e-01    2.042866e+00   7.042638e-02
  2.000463e-01    1.995711e+00   6.937812e-02
  2.022568e-01    2.028364e+00   6.971382e-02
  2.044672e-01    1.996129e+00   6.892074e-02
  2.066777e-01    2.070800e+00   6.996498e-02
  2.088881e-01    2.009668e+00   6.869905e-02
  2.110986e-01    2.040795e+00   6.899163e-02
  2.133090e-01    2.003547e+00   6.813689e-02
  2.155195e-01    2.012149e+00   6.805649e-02
  2.177300e-01    2.051836e+00   6.818449e-02
  2.199404e-01    1.986751e+00   6.532645e-02
  2.221509e-01    1.976442e+00   6.408682e-02
  2.243613e-01    1.958254e+00   6.298256e-02
  2.265718e-01    1.987907e+00   6.275818e-02
  2.287822e-01    2.035698e+00   6.287947e-02
  2.309927e-01    2.183408e+00   6.452758e-02
  2.332031e-01    2.144189e+00   6.339813e-02
  2.354136e-01    2.127362e+00   6.263705e-02
  2.376241e-01    2.170014e+00   6.277082e-02
  2.398345e-01    2.195118e+00   6.266563e-02
  2.420450e-01    2.192240e+00   6.217697e-02
  2.442554e-01    2.185007e+00   6.164669e-02
  2.464659e-01    2.119490e+00   6.030777e-02
  2.486763e-01    2.066701e+00   5.916058e-02
  2.508868e-01    2.028150e+00   5.823649e-02
  2.530973e-01    2.095808e+00   5.883286e-02
  2.553077e-01    2.065995e+00   5.805860e-02
  2.575182e-01    2.041264e+00   5.736859e-02
  2.597286e-01    2.096919e+00   5.780743e-02
  2.619391e-01    2.055693e+00   5.690683e-02
  2.641495e-01    2.068196e+00   5.676369e-02
  2.663600e-01    2.103604e+00   5.693274e-02
  2.685704e-01    2.044605e+00   5.582442e-02
  2.707809e-01    2.035281e+00   5.540134e-02
  2.729914e-01    2.030672e+00   5.505019e-02
  2.752018e-01    1.992276e+00   5.424345e-02
  2.774123e-01    2.037954e+00   5.458153e-02
  2.796227e-01    2.030897e+00   5.421741e-02
  2.818332e-01    1.987907e+00   5.337293e-02
  2.840436e-01    2.018548e+00   5.352198e-02
  2.862541e-01    1.927155e+00   5.204494e-02
  2.884646e-01    1.927498e+00   5.180250e-02
  2.906750e-01    1.988472e+00   5.236602e-02
  2.928855e-01    1.900464e+00   5.095688e-02
  2.950959e-01    1.934102e+00   5.116970e-02
  2.973064e-01    1.946450e+00   5.110209e-02
  2.995168e-01    2.004835e+00   5.162795e-02
  3.017273e-01    1.939588e+00   5.055702e-02
  3.039377e-01    1.930411e+00   5.021640e-02
  3.061482e-01    1.989260e+00   5.075559e-02
  3.083587e-01    1.939817e+00   4.990390e-02
  3.105691e-01    1.902153e+00   4.920597e-02
  3.127796e-01    1.919058e+00   4.921636e-02
  3.149900e-01    1.924595e+00   4.908196e-02
  3.172005e-01    1.921867e+00   4.884659e-02
  3.194109e-01    1.865069e+00   4.792075e-02
  3.216214e-01    1.847559e+00   4.750064e-02
  3.238319e-01    1.842504e+00   4.724768e-02
  3.260423e-01    1.857954e+00   4.725638e-02
  3.282528e-01    1.831357e+00   4.673014e-02
  3.304632e-01    1.826165e+00   4.648309e-02
  3.326737e-01    1.814248e+00   4.615039e-02
  3.348841e-01    1.920866e+00   4.730295e-02
  3.370946e-01    1.821851e+00   4.589434e-02
  3.393050e-01    1.875899e+00   4.639370e-02
  3.415155e-01    1.938934e+00   4.698940e-02
  3.437260e-01    1.913162e+00   4.650307e-02
  3.459364e-01    1.865362e+00   4.574861e-02
  3.481469e-01    1.800328e+00   4.477998e-02
  3.503573e-01    1.819843e+00   4.485801e-02
  3.525678e-01    1.840299e+00   4.494867e-02
  3.547782e-01    1.840242e+00   4.478553e-02
  3.569887e-01    1.812612e+00   4.429053e-02
  3.591992e-01    1.877955e+00   4.492228e-02
  3.614096e-01    1.814355e+00   4.400196e-02
  3.636201e-01    1.763042e+00   4.322283e-02
  3.658305e-01    1.776639e+00   4.324115e-02
  3.680410e-01    1.811271e+00   4.351044e-02
  3.702514e-01    1.793372e+00   4.314930e-02
  3.724619e-01    1.840951e+00   4.356909e-02
  3.746724e-01    1.796130e+00   4.289185e-02
  3.768828e-01    1.807485e+00   4.288242e-02
  3.790933e-01    1.789302e+00   4.252715e-02
  3.813037e-01    1.772595e+00   4.218965e-02
  3.835142e-01    1.812168e+00   4.251787e-02
  3.857246e-01    1.804756e+00   4.229354e-02
  3.879351e-01    1.747924e+00   4.148756e-02
  3.901455e-01    1.790075e+00   4.185116e-02
  3.923560e-01    1.771284e+00   4.149861e-02
  3.945665e-01    1.773483e+00   4.139267e-02
  3.967769e-01    1.791387e+00   4.147080e-02
  3.989874e-01    1.769623e+00   4.108941e-02
  4.011978e-01    1.822872e+00   4.157477e-02
  4.034083e-01    1.790871e+00   4.108174e-02
  4.056187e-01    1.828750e+00   4.138603e-02
  4.078292e-01    1.817732e+00   4.113632e-02
  4.100397e-01    1.786084e+00   4.065212e-02
  4.122501e-01    1.806546e+00   4.076201e-02
  4.144606e-01    1.803314e+00   4.060477e-02
  4.166710e-01    1.803080e+00   4.048141e-02
  4.188815e-01    1.740605e+00   3.965642e-02
  4.210919e-01    1.798576e+00   4.019323e-02
  4.233024e-01    1.820426e+00   4.031771e-02
  4.255128e-01    1.794782e+00   3.991702e-02
  4.277233e-01    1.773000e+00   3.956006e-02
  4.299338e-01    1.795307e+00   3.969360e-02
  4.321442e-01    1.889024e+00   4.059992e-02
  4.343547e-01    1.863606e+00   4.021186e-02
  4.365651e-01    1.788843e+00   3.928506e-02
  4.387756e-01    1.769174e+00   3.895907e-02
  4.409860e-01    1.800669e+00   3.919543e-02
  4.431965e-01    1.774484e+00   3.880183e-02
  4.454070e-01    1.710889e+00   3.799417e-02
  4.476174e-01    1.716474e+00   3.795164e-02
  4.498279e-01    1.753824e+00   3.825795e-02
  4.520383e-01    1.773508e+00   3.836646e-02
  4.542488e-01    1.740734e+00   3.790784e-02
  4.564592e-01    1.717099e+00   3.754858e-02
  4.586697e-01    1.741696e+00   3.771621e-02
  4.608801e-01    1.669759e+00   3.683017e-02
  4.630906e-01    1.731290e+00   3.740333e-02
  4.653011e-01    1.771092e+00   3.773135e-02
  4.675115e-01    1.718019e+00   3.706386e-02
  4.697220e-01    1.743819e+00   3.724333e-02
  4.719324e-01    1.709874e+00   3.678370e-02
  4.741429e-01    1.703030e+00   3.661539e-02
  4.763533e-01    1.737229e+00   3.688641e-02
  4.785638e-01    1.734670e+00   3.676401e-02
  4.807743e-01    1.721206e+00   3.652794e-02
  4.829847e-01    1.721743e+00   3.644133e-02
  4.851952e-01    1.731123e+00   3.644800e-02
  4.874056e-01    1.706336e+00   3.609489e-02
  4.896161e-01    1.680940e+00   3.573644e-02
  4.918265e-01    1.680639e+00   3.564448e-02
  4.940370e-01    1.700830e+00   3.576943e-02
  4.962475e-01    1.692892e+00   3.559775e-02
  4.984579e-01    1.681383e+00   3.538910e-02
  5.006684e-01    1.679660e+00   3.528472e-02
  5.028788e-01    1.664696e+00   3.504208e-02
  5.050893e-01    1.662028e+00   3.492881e-02
  5.072997e-01    1.701006e+00   3.525069e-02
  5.095102e-01    1.657493e+00   3.471356e-02
  5.117206e-01    1.640505e+00   3.445308e-02
  5.139311e-01    1.709661e+00   3.508853e-02
  5.161416e-01    1.685068e+00   3.475295e-02
  5.183520e-01    1.635420e+00   3.415577e-02
  5.205625e-01    1.664847e+00   3.438096e-02
  5.227729e-01    1.716860e+00   3.483245e-02
  5.249834e-01    1.713924e+00   3.472188e-02
  5.271938e-01    1.721459e+00   3.471690e-02
  5.294043e-01    1.763048e+00   3.505270e-02
  5.316148e-01    1.792803e+00   3.526630e-02
  5.338252e-01    1.798058e+00   3.523723e-02
  5.360357e-01    1.758151e+00   3.476469e-02
  5.382461e-01    1.739706e+00   3.450366e-02
  5.404566e-01    1.744769e+00   3.447519e-02
  5.426670e-01    1.787634e+00   3.481748e-02
  5.448775e-01    1.763556e+00   3.450497e-02
  5.470879e-01    1.738148e+00   3.417910e-02
  5.492984e-01    1.757634e+00   3.429370e-02
  5.515089e-01    1.761527e+00   3.425556e-02
  5.537193e-01    1.757345e+00   3.413945e-02
  5.559298e-01    1.814917e+00   3.461809e-02
  5.581402e-01    1.786139e+00   3.426748e-02
  5.603507e-01    1.817098e+00   3.448798e-02
  5.625611e-01    1.800717e+00   3.425765e-02
  5.647716e-01    1.780459e+00   3.399048e-02
  5.669821e-01    1.761182e+00   3.373305e-02
  5.691925e-01    1.808102e+00   3.410610e-02
  5.714030e-01    1.736453e+00   3.335226e-02
  5.736134e-01    1.732639e+00   3.324474e-02
  5.758239e-01    1.668513e+00   3.255412e-02
  5.780343e-01    1.667703e+00   3.247735e-02
  5.802448e-01    1.669920e+00   3.243091e-02
  5.824552e-01    1.650900e+00   3.217802e-02
  5.846657e-01    1.650719e+00   3.210920e-02
  5.868762e-01    1.573156e+00   3.128050e-02
  5.890866e-01    1.601477e+00   3.149531e-02
  5.912971e-01    1.632041e+00   3.172861e-02
  5.935075e-01    1.610308e+00   3.145152e-02
  5.957180e-01    1.610076e+00   3.138473e-02
  5.979284e-01    1.630425e+00   3.151795e-02
  6.001389e-01    1.638581e+00   3.153235e-02
  6.023494e-01    1.655587e+00   3.163121e-02
  6.045598e-01    1.623940e+00   3.126365e-02
  6.067703e-01    1.630980e+00   3.126832e-02
  6.089807e-01    1.647190e+00   3.136016e-02
  6.111912e-01    1.654179e+00   3.136386e-02
  6.134016e-01    1.640174e+00   3.116853e-02
  6.156121e-01    1.615408e+00   3.087082e-02
  6.178226e-01    1.683148e+00   3.144904e-02
  6.200330e-01    1.667433e+00   3.124015e-02
  6.222435e-01    1.692614e+00   3.141279e-02
  6.244539e-01    1.697082e+00   3.139265e-02
  6.266644e-01    1.706557e+00   3.141875e-02
  6.288748e-01    1.717309e+00   3.145622e-02
  6.310853e-01    1.710299e+00   3.133102e-02
  6.332957e-01    1.698392e+00   3.116147e-02
  6.355062e-01    1.684335e+00   3.097198e-02
  6.377167e-01    1.709157e+00   3.113947e-02
  6.399271e-01    1.739534e+00   3.135480e-02
  6.421376e-01    1.715442e+00   3.107748e-02
  6.443480e-01    1.701638e+00   3.089331e-02
  6.465585e-01    1.717036e+00   3.097397e-02
  6.487689e-01    1.669239e+00   3.048217e-02
  6.509794e-01    1.666983e+00   3.040409e-02
  6.531899e-01    1.650568e+00   3.019716e-02
  6.554003e-01    1.608335e+00   2.975228e-02
  6.576108e-01    1.633734e+00   2.993044e-02
  6.598212e-01    1.613304e+00   2.968745e-02
  6.620317e-01    1.680484e+00   3.024308e-02
  6.642421e-01    1.664109e+00   3.003972e-02
  6.664526e-01    1.621045e+00   2.959385e-02
  6.686630e-01    1.647928e+00   2.978305e-02
  6.708735e-01    1.629922e+00   2.956557e-02
  6.730840e-01    1.646000e+00   2.965686e-02
  6.752944e-01    1.622152e+00   2.938770e-02
  6.775049e-01    1.596627e+00   2.910263e-02
  6.797153e-01    1.641839e+00   2.945837e-02
  6.819258e-01    1.595544e+00   2.898771e-02
  6.841362e-01    1.627095e+00   2.922026e-02
  6.863467e-01    1.606212e+00   2.898015e-02
  6.885572e-01    1.624660e+00   2.909386e-02
  6.907676e-01    1.614598e+00   2.895168e-02
  6.929781e-01    1.591921e+00   2.869654e-02
  6.951885e-01    1.627658e+00   2.896547e-02
  6.973990e-01    1.601295e+00   2.867913e-02
  6.996094e-01    1.577379e+00   2.841409e-02
  7.018199e-01    1.584860e+00   2.843139e-02
  7.040303e-01    1.595540e+00   2.847692e-02
  7.062408e-01    1.599062e+00   2.845840e-02
  7.084513e-01    1.609557e+00   2.850196e-02
  7.106617e-01    1.593876e+00   2.831352e-02
  7.128722e-01    1.594172e+00   2.826714e-02
  7.150826e-01    1.619219e+00   2.843924e-02
  7.172931e-01    1.589888e+00   2.813192e-02
  7.195035e-01    1.570573e+00   2.791243e-02
  7.217140e-01    1.548295e+00   2.776280e-02
  7.239245e-01    1.545160e+00   2.795927e-02
  7.261349e-01    1.574121e+00   2.832868e-02
  7.283454e-01    1.575698e+00   2.841529e-02
  7.305558e-01    1.614673e+00   2.881923e-02
  7.327663e-01    1.606836e+00   2.879216e-02
  7.349767e-01    1.573087e+00   2.850457e-02
  7.371872e-01    1.591373e+00   2.865847e-02
  7.393976e-01    1.610893e+00   2.881932e-02
  7.416081e-01    1.584840e+00   2.856908e-02
  7.438186e-01    1.596497e+00   2.852863e-02
  7.460290e-01    1.566494e+00   2.796583e-02
  7.482395e-01    1.556008e+00   2.770191e-02
  7.504499e-01    1.557021e+00   2.757542e-02
  7.526604e-01    1.603647e+00   2.786763e-02
  7.548708e-01    1.561628e+00   2.741109e-02
  7.570813e-01    1.545924e+00   2.722239e-02
  7.592918e-01    1.535916e+00   2.709938e-02
  7.615022e-01    1.577921e+00   2.743362e-02
  7.637127e-01    1.606912e+00   2.765137e-02
  7.659231e-01    1.589757e+00   2.747123e-02
  7.681336e-01    1.617905e+00   2.768132e-02
  7.703440e-01    1.594887e+00   2.745230e-02
  7.725545e-01    1.596366e+00   2.743390e-02
  7.747650e-01    1.663836e+00   2.796839e-02
  7.769754e-01    1.609942e+00   2.745845e-02
  7.791859e-01    1.553303e+00   2.691798e-02
  7.813963e-01    1.568217e+00   2.699448e-02
  7.836068e-01    1.589287e+00   2.712315e-02
  7.858172e-01    1.576099e+00   2.695987e-02
  7.880277e-01    1.597371e+00   2.708958e-02
  7.902381e-01    1.637188e+00   2.737528e-02
  7.924486e-01    1.662407e+00   2.753425e-02
  7.946591e-01    1.653334e+00   2.740989e-02
  7.968695e-01    1.648641e+00   2.732203e-02
  7.990800e-01    1.618723e+00   2.702457e-02
  8.012904e-01    1.634184e+00   2.710636e-02
  8.035009e-01    1.657514e+00   2.725058e-02
  8.057113e-01    1.648534e+00   2.712968e-02
  8.079218e-01    1.675081e+00   2.730005e-02
  8.101323e-01    1.659172e+00   2.712396e-02
  8.123427e-01    1.712007e+00   2.750547e-02
  8.145532e-01    1.739350e+00   2.767682e-02
  8.167636e-01    1.772834e+00   2.789497e-02
  8.189741e-01    1.713118e+00   2.737546e-02
  8.211845e-01    1.672412e+00   2.700289e-02
  8.233950e-01    1.742459e+00   2.751776e-02
  8.256054e-01    1.741837e+00   2.746728e-02
  8.278159e-01    1.654801e+00   2.672805e-02
  8.300264e-01    1.645239e+00   2.660753e-02
  8.322368e-01    1.589774e+00   2.611270e-02
  8.344473e-01    1.609057e+00   2.622761e-02
  8.366577e-01    1.616829e+00   2.624858e-02
  8.388682e-01    1.618580e+00   2.622080e-02
  8.410786e-01    1.642517e+00   2.637189e-02
  8.432891e-01    1.627541e+00   2.620970e-02
  8.454996e-01    1.638251e+00   2.625416e-02
  8.477100e-01    1.645304e+00   2.626886e-02
  8.499205e-01    1.627800e+00   2.608773e-02
  8.521309e-01    1.605371e+00   2.586698e-02
  8.543414e-01    1.576292e+00   2.559165e-02
  8.565518e-01    1.568732e+00   2.549045e-02
  8.587623e-01    1.588865e+00   2.561355e-02
  8.609727e-01    1.601986e+00   2.567922e-02
  8.631832e-01    1.615175e+00   2.574495e-02
  8.653937e-01    1.639512e+00   2.589833e-02
  8.676041e-01    1.640070e+00   2.586366e-02
  8.698146e-01    1.695482e+00   2.625673e-02
  8.720250e-01    1.685831e+00   2.614203e-02
  8.742355e-01    1.633800e+00   2.569626e-02
  8.764459e-01    1.609460e+00   2.546523e-02
  8.786564e-01    1.593177e+00   2.529831e-02
  8.808669e-01    1.632057e+00   2.556630e-02
  8.830773e-01    1.603781e+00   2.530574e-02
  8.852878e-01    1.593140e+00   2.518382e-02
  8.874982e-01    1.565835e+00   2.493083e-02
  8.897087e-01    1.576884e+00   2.498123e-02
  8.919191e-01    1.612531e+00   2.522415e-02
  8.941296e-01    1.534395e+00   2.456891e-02
  8.963401e-01    1.571639e+00   2.482920e-02
  8.985505e-01    1.566288e+00   2.475033e-02
  9.007610e-01    1.599889e+00   2.497764e-02
  9.029714e-01    1.599386e+00   2.493790e-02
  9.051819e-01    1.612333e+00   2.500128e-02
  9.073923e-01    1.581843e+00   2.472737e-02
  9.096028e-01    1.609169e+00   2.490503e-02
  9.118132e-01    1.597224e+00   2.477624e-02
  9.140237e-01    1.581692e+00   2.461905e-02
  9.162342e-01    1.584847e+00   2.460921e-02
  9.184446e-01    1.586548e+00   2.458681e-02
  9.206551e-01    1.626273e+00   2.485680e-02
  9.228655e-01    1.633288e+00   2.487479e-02
  9.250760e-01    1.634519e+00   2.484842e-02
  9.272864e-01    1.638392e+00   2.484322e-02
  9.294969e-01    1.659400e+00   2.496554e-02
  9.317074e-01    1.632634e+00   2.472839e-02
  9.339178e-01    1.613454e+00   2.454913e-02
  9.361283e-01    1.611768e+00   2.450012e-02
  9.383387e-01    1.640200e+00   2.468164e-02
  9.405492e-01    1.695349e+00   2.505812e-02
  9.427596e-01    1.668776e+00   2.482518e-02
  9.449701e-01    1.715937e+00   2.513931e-02
  9.471805e-01    1.671263e+00   2.477480e-02
  9.493910e-01    1.638172e+00   2.449461e-02
  9.516015e-01    1.693655e+00   2.487117e-02
  9.538119e-01    1.735627e+00   2.514299e-02
  9.560224e-01    1.741302e+00   2.514860e-02
  9.582328e-01    1.717633e+00   2.494362e-02
  9.604433e-01    1.734746e+00   2.503203e-02
  9.626537e-01    1.731531e+00   2.497522e-02
  9.648642e-01    1.726148e+00   2.490221e-02
  9.670747e-01    1.770502e+00   2.518531e-02
  9.692851e-01    1.843744e+00   2.566682e-02
  9.714956e-01    1.830177e+00   2.553617e-02
  9.737060e-01    1.816127e+00   2.540454e-02
  9.759165e-01    1.815141e+00   2.536183e-02
  9.781269e-01    1.849427e+00   2.556673e-02
  9.803374e-01    1.859079e+00   2.559793e-02
  9.825478e-01    1.811868e+00   2.523749e-02
  9.847583e-01    1.776690e+00   2.495733e-02
  9.869688e-01    1.825986e+00   2.526733e-02
  9.891792e-01    1.806626e+00   2.509964e-02
  9.913897e-01    1.783839e+00   2.490718e-02
  9.936001e-01    1.764044e+00   2.473617e-02
  9.958106e-01    1.811181e+00   2.503039e-02
  9.980210e-01    1.833362e+00   2.515055e-02
  1.000231e+00    1.702462e+00   2.436884e-02
  1.002442e+00    1.651735e+00   2.413056e-02
  1.004652e+00    1.632828e+00   2.405899e-02
  1.006863e+00    1.623816e+00   2.404227e-02
  1.009073e+00    1.649928e+00   2.427190e-02
  1.011284e+00    1.649308e+00   2.429980e-02
  1.013494e+00    1.611041e+00   2.404007e-02
  1.015705e+00    1.566487e+00   2.372772e-02
  1.017915e+00    1.582379e+00   2.386419e-02
  1.020126e+00    1.573358e+00   2.381216e-02
  1.022336e+00    1.548293e+00   2.363337e-02
  1.024547e+00    1.517973e+00   2.341191e-02
  1.026757e+00    1.517735e+00   2.341836e-02
  1.028967e+00    1.514640e+00   2.340208e-02
  1.031178e+00    1.543926e+00   2.363341e-02
  1.033388e+00    1.596294e+00   2.403602e-02
  1.035599e+00    1.816964e+00   2.564730e-02
  1.037809e+00    2.011880e+00   2.699177e-02
  1.040020e+00    1.742536e+00   2.512153e-02
  1.042230e+00    1.533834e+00   2.357106e-02
  1.044441e+00    1.486251e+00   2.320234e-02
  1.046651e+00    1.498345e+00   2.329669e-02
  1.048862e+00    1.542067e+00   2.363336e-02
  1.051072e+00    1.556171e+00   2.373878e-02
  1.053282e+00    1.654323e+00   2.447495e-02
  1.055493e+00    1.720900e+00   2.495800e-02
  1.057703e+00    1.670799e+00   2.459043e-02
  1.059914e+00    1.648717e+00   2.442289e-02
  1.062124e+00    1.705858e+00   2.483815e-02
  1.064335e+00    1.651905e+00   2.443863e-02
  1.066545e+00    1.512364e+00   2.337759e-02
  1.068756e+00    1.472378e+00   2.306272e-02
  1.070966e+00    1.492007e+00   2.320938e-02
  1.073177e+00    1.508469e+00   2.333091e-02
  1.075387e+00    1.507259e+00   2.331631e-02
  1.077597e+00    1.484881e+00   2.313525e-02
  1.079808e+00    1.505295e+00   2.315916e-02
  1.082018e+00    1.500611e+00   2.293159e-02
  1.084229e+00    1.537122e+00   2.309600e-02
  1.086439e+00    1.516964e+00   2.285478e-02
  1.088650e+00    1.523410e+00   2.282586e-02
  1.090860e+00    1.463789e+00   2.230690e-02
  1.093071e+00    1.418619e+00   2.189852e-02
  1.095281e+00    1.439538e+00   2.200225e-02
  1.097492e+00    1.426250e+00   2.184592e-02
  1.099702e+00    1.439772e+00   2.189787e-02
  1.101912e+00    1.413551e+00   2.164914e-02
  1.104123e+00    1.380026e+00   2.134360e-02
  1.106333e+00    1.388633e+00   2.136630e-02
  1.108544e+00    1.436834e+00   2.168962e-02
  1.110754e+00    1.420689e+00   2.152448e-02
  1.112965e+00    1.414868e+00   2.143992e-02
  1.115175e+00    1.371028e+00   2.106466e-02
  1.117386e+00    1.391027e+00   2.117882e-02
  1.119596e+00    1.410905e+00   2.129175e-02
  1.121807e+00    1.410929e+00   2.125310e-02
  1.124017e+00    1.385242e+00   2.102239e-02
  1.126228e+00    1.375889e+00   2.091589e-02
  1.128438e+00    1.389094e+00   2.097943e-02
  1.130648e+00    1.408457e+00   2.109069e-02
  1.132859e+00    1.415591e+00   2.110947e-02
  1.135069e+00    1.399690e+00   2.095576e-02
  1.137280e+00    1.391870e+00   2.086410e-02
  1.139490e+00    1.380262e+00   2.074395e-02
  1.141701e+00    1.376253e+00   2.068078e-02
  1.143911e+00    1.397129e+00   2.080501e-02
  1.146122e+00    1.363696e+00   2.052279e-02
  1.148332e+00    1.361865e+00   2.047730e-02
  1.150543e+00    1.366362e+00   2.048040e-02
  1.152753e+00    1.381759e+00   2.056453e-02
  1.154963e+00    1.373079e+00   2.046884e-02
  1.157174e+00    1.360018e+00   2.034121e-02
  1.159384e+00    1.362312e+00   2.032863e-02
  1.161595e+00    1.362352e+00   2.029916e-02
  1.163805e+00    1.382270e+00   2.041760e-02
  1.166016e+00    1.390403e+00   2.044792e-02
  1.168226e+00    1.383373e+00   2.036702e-02
  1.170437e+00    1.397690e+00   2.044318e-02
  1.172647e+00    1.393558e+00   2.038377e-02
  1.174858e+00    1.454111e+00   2.079285e-02
  1.177068e+00    1.654451e+00   2.214785e-02
  1.179278e+00    2.039451e+00   2.455516e-02
  1.181489e+00    2.239689e+00   2.569785e-02
  1.183699e+00    1.965655e+00   2.404143e-02
  1.185910e+00    1.598365e+00   2.164907e-02
  1.188120e+00    1.458332e+00   2.065130e-02
  1.190331e+00    1.423577e+00   2.037628e-02
  1.192541e+00    1.392927e+00   2.012799e-02
  1.194752e+00    1.360678e+00   1.986646e-02
  1.196962e+00    1.378974e+00   1.997360e-02
  1.199173e+00    1.349328e+00   1.973124e-02
  1.201383e+00    1.335455e+00   1.960251e-02
  1.203593e+00    1.347852e+00   1.966851e-02
  1.205804e+00    1.325183e+00   1.947673e-02
  1.208014e+00    1.340681e+00   1.956351e-02
  1.210225e+00    1.368703e+00   1.974141e-02
  1.212435e+00    1.367816e+00   1.971006e-02
  1.214646e+00    1.384988e+00   1.980696e-02
  1.216856e+00    1.391676e+00   1.982886e-02
  1.219067e+00    1.381594e+00   1.973215e-02
  1.221277e+00    1.394195e+00   1.979649e-02
  1.223488e+00    1.391965e+00   1.975451e-02
  1.225698e+00    1.377391e+00   1.962367e-02
  1.227909e+00    1.368278e+00   1.952825e-02
  1.230119e+00    1.378741e+00   1.957059e-02
  1.232329e+00    1.371852e+00   1.949067e-02
  1.234540e+00    1.386497e+00   1.956372e-02
  1.236750e+00    1.407209e+00   1.967842e-02
  1.238961e+00    1.427435e+00   1.979159e-02
  1.241171e+00    1.413679e+00   1.967128e-02
  1.243382e+00    1.401989e+00   1.956579e-02
  1.245592e+00    1.400684e+00   1.953215e-02
  1.247803e+00    1.363123e+00   1.924472e-02
  1.250013e+00    1.334082e+00   1.901520e-02
  1.252224e+00    1.342620e+00   1.905276e-02
  1.254434e+00    1.312362e+00   1.881345e-02
  1.256644e+00    1.339362e+00   1.898285e-02
  1.258855e+00    1.354041e+00   1.906331e-02
  1.261065e+00    1.332289e+00   1.888634e-02
  1.263276e+00    1.345013e+00   1.895343e-02
  1.265486e+00    1.332332e+00   1.884113e-02
  1.267697e+00    1.328857e+00   1.879371e-02
  1.269907e+00    1.336998e+00   1.882860e-02
  1.272118e+00    1.329615e+00   1.875415e-02
  1.274328e+00    1.332447e+00   1.875152e-02
  1.276539e+00    1.333440e+00   1.873586e-02
  1.278749e+00    1.345006e+00   1.879469e-02
  1.280959e+00    1.339535e+00   1.873398e-02
  1.283170e+00    1.351349e+00   1.879397e-02
  1.285380e+00    1.331139e+00   1.863061e-02
  1.287591e+00    1.315418e+00   1.849852e-02
  1.289801e+00    1.313385e+00   1.846328e-02
  1.292012e+00    1.337219e+00   1.861304e-02
  1.294222e+00    1.339959e+00   1.861593e-02
  1.296433e+00    1.330742e+00   1.853630e-02
  1.298643e+00    1.343267e+00   1.860691e-02
  1.300854e+00    1.353982e+00   1.866451e-02
  1.303064e+00    1.358666e+00   1.867750e-02
  1.305274e+00    1.361527e+00   1.867562e-02
  1.307485e+00    1.343679e+00   1.853132e-02
  1.309695e+00    1.360761e+00   1.862641e-02
  1.311906e+00    1.361247e+00   1.860793e-02
  1.314116e+00    1.345326e+00   1.847804e-02
  1.316327e+00    1.346643e+00   1.846542e-02
  1.318537e+00    1.382253e+00   1.868582e-02
  1.320748e+00    1.380576e+00   1.865270e-02
  1.322958e+00    1.360411e+00   1.849538e-02
  1.325169e+00    1.370314e+00   1.854139e-02
  1.327379e+00    1.362393e+00   1.846582e-02
  1.329589e+00    1.368285e+00   1.848448e-02
  1.331800e+00    1.403466e+00   1.869952e-02
  1.334010e+00    1.383138e+00   1.854269e-02
  1.336221e+00    1.374129e+00   1.846027e-02
  1.338431e+00    1.362880e+00   1.836358e-02
  1.340642e+00    1.367243e+00   1.845752e-02
  1.342852e+00    1.359365e+00   1.850530e-02
  1.345063e+00    1.365275e+00   1.859523e-02
  1.347273e+00    1.377990e+00   1.871725e-02
  1.349484e+00    1.338757e+00   1.847643e-02
  1.351694e+00    1.342938e+00   1.852789e-02
  1.353905e+00    1.343293e+00   1.854831e-02
  1.356115e+00    1.330508e+00   1.847475e-02
  1.358325e+00    1.332857e+00   1.850429e-02
  1.360536e+00    1.331751e+00   1.850816e-02
  1.362746e+00    1.348956e+00   1.863688e-02
  1.364957e+00    1.346437e+00   1.862714e-02
  1.367167e+00    1.363756e+00   1.875374e-02
  1.369378e+00    1.366183e+00   1.877650e-02
  1.371588e+00    1.331937e+00   1.854479e-02
  1.373799e+00    1.331388e+00   1.854461e-02
  1.376009e+00    1.314326e+00   1.842877e-02
  1.378220e+00    1.291720e+00   1.827209e-02
  1.380430e+00    1.298518e+00   1.832276e-02
  1.382640e+00    1.292334e+00   1.828000e-02
  1.384851e+00    1.255336e+00   1.801729e-02
  1.387061e+00    1.250965e+00   1.798616e-02
  1.389272e+00    1.292464e+00   1.828226e-02
  1.391482e+00    1.302211e+00   1.835041e-02
  1.393693e+00    1.258073e+00   1.803587e-02
  1.395903e+00    1.270265e+00   1.812155e-02
  1.398114e+00    1.295020e+00   1.829590e-02
  1.400324e+00    1.279749e+00   1.818560e-02
  1.402535e+00    1.259886e+00   1.804158e-02
  1.404745e+00    1.277273e+00   1.816331e-02
  1.406955e+00    1.237764e+00   1.787752e-02
  1.409166e+00    1.264605e+00   1.806701e-02
  1.411376e+00    1.261403e+00   1.804104e-02
  1.413587e+00    1.237808e+00   1.786773e-02
  1.415797e+00    1.270411e+00   1.809797e-02
  1.418008e+00    1.271859e+00   1.806640e-02
  1.420218e+00    1.258411e+00   1.782159e-02
  1.422429e+00    1.250599e+00   1.768151e-02
  1.424639e+00    1.274337e+00   1.778373e-02
  1.426850e+00    1.301325e+00   1.791569e-02
  1.429060e+00    1.309830e+00   1.792439e-02
  1.431270e+00    1.303272e+00   1.783459e-02
  1.433481e+00    1.279847e+00   1.763246e-02
  1.435691e+00    1.257857e+00   1.744208e-02
  1.437902e+00    1.281458e+00   1.756832e-02
  1.440112e+00    1.262802e+00   1.740474e-02
  1.442323e+00    1.255848e+00   1.732388e-02
  1.444533e+00    1.244877e+00   1.721582e-02
  1.446744e+00    1.263898e+00   1.731578e-02
  1.448954e+00    1.245535e+00   1.715964e-02
  1.451165e+00    1.265215e+00   1.726495e-02
  1.453375e+00    1.286329e+00   1.738023e-02
  1.455586e+00    1.267023e+00   1.722114e-02
  1.457796e+00    1.294163e+00   1.737686e-02
  1.460006e+00    1.269131e+00   1.718073e-02
  1.462217e+00    1.242506e+00   1.697363e-02
  1.464427e+00    1.260641e+00   1.707152e-02
  1.466638e+00    1.273334e+00   1.713188e-02
  1.468848e+00    1.271064e+00   1.709127e-02
  1.471059e+00    1.261558e+00   1.700221e-02
  1.473269e+00    1.253614e+00   1.692438e-02
  1.475480e+00    1.266961e+00   1.699047e-02
  1.477690e+00    1.276198e+00   1.702840e-02
  1.479901e+00    1.255724e+00   1.686753e-02
  1.482111e+00    1.264237e+00   1.690130e-02
  1.484321e+00    1.279898e+00   1.698244e-02
  1.486532e+00    1.268549e+00   1.688464e-02
  1.488742e+00    1.258833e+00   1.679724e-02
  1.490953e+00    1.259773e+00   1.678095e-02
  1.493163e+00    1.281893e+00   1.690520e-02
  1.495374e+00    1.258845e+00   1.673107e-02
  1.497584e+00    1.276318e+00   1.682501e-02
  1.499795e+00    1.292425e+00   1.690892e-02
  1.502005e+00    1.273090e+00   1.676018e-02
  1.504216e+00    1.291437e+00   1.685920e-02
  1.506426e+00    1.292394e+00   1.684435e-02
  1.508636e+00    1.274970e+00   1.670985e-02
  1.510847e+00    1.253700e+00   1.654806e-02
  1.513057e+00    1.288553e+00   1.675109e-02
  1.515268e+00    1.263922e+00   1.656443e-02
  1.517478e+00    1.227945e+00   1.630208e-02
  1.519689e+00    1.247311e+00   1.640522e-02
  1.521899e+00    1.251581e+00   1.641020e-02
  1.524110e+00    1.254099e+00   1.640635e-02
  1.526320e+00    1.263059e+00   1.644520e-02
  1.528531e+00    1.264227e+00   1.643290e-02
  1.530741e+00    1.286758e+00   1.655928e-02
  1.532951e+00    1.261662e+00   1.637734e-02
  1.535162e+00    1.251985e+00   1.640108e-02
  1.537372e+00    1.254317e+00   1.648340e-02
  1.539583e+00    1.236120e+00   1.639746e-02
  1.541793e+00    1.244029e+00   1.645677e-02
  1.544004e+00    1.242729e+00   1.644843e-02
  1.546214e+00    1.224095e+00   1.632315e-02
  1.548425e+00    1.233324e+00   1.638482e-02
  1.550635e+00    1.225636e+00   1.634330e-02
  1.552846e+00    1.209782e+00   1.624675e-02
  1.555056e+00    1.235700e+00   1.637853e-02
  1.557266e+00    1.237686e+00   1.628156e-02
  1.559477e+00    1.213541e+00   1.606357e-02
  1.561687e+00    1.236746e+00   1.618585e-02
  1.563898e+00    1.224252e+00   1.608687e-02
  1.566108e+00    1.225883e+00   1.608175e-02
  1.568319e+00    1.224031e+00   1.605409e-02
  1.570529e+00    1.233632e+00   1.609191e-02
  1.572740e+00    1.246234e+00   1.614625e-02
  1.574950e+00    1.241939e+00   1.609213e-02
  1.577161e+00    1.217486e+00   1.590773e-02
  1.579371e+00    1.242155e+00   1.604442e-02
  1.581582e+00    1.253593e+00   1.609829e-02
  1.583792e+00    1.251379e+00   1.606600e-02
  1.586002e+00    1.231060e+00   1.591751e-02
  1.588213e+00    1.240782e+00   1.596301e-02
  1.590423e+00    1.249399e+00   1.599823e-02
  1.592634e+00    1.266366e+00   1.608468e-02
  1.594844e+00    1.243870e+00   1.591979e-02
  1.597055e+00    1.225105e+00   1.577888e-02
  1.599265e+00    1.242054e+00   1.586693e-02
  1.601476e+00    1.228865e+00   1.576225e-02
  1.603686e+00    1.244777e+00   1.584418e-02
  1.605897e+00    1.203712e+00   1.556077e-02
  1.608107e+00    1.205494e+00   1.555298e-02
  1.610317e+00    1.192101e+00   1.544741e-02
  1.612528e+00    1.179570e+00   1.534722e-02
  1.614738e+00    1.213704e+00   1.554891e-02
  1.616949e+00    1.207709e+00   1.549162e-02
  1.619159e+00    1.217855e+00   1.553788e-02
  1.621370e+00    1.186667e+00   1.531943e-02
  1.623580e+00    1.164091e+00   1.515504e-02
  1.625791e+00    1.174119e+00   1.520219e-02
  1.628001e+00    1.172021e+00   1.517057e-02
  1.630212e+00    1.146365e+00   1.498620e-02
  1.632422e+00    1.165098e+00   1.509040e-02
  1.634632e+00    1.201721e+00   1.530830e-02
  1.636843e+00    1.180905e+00   1.515758e-02
  1.639053e+00    1.180435e+00   1.513722e-02
  1.641264e+00    1.161893e+00   1.500084e-02
  1.643474e+00    1.152438e+00   1.492235e-02
  1.645685e+00    1.149614e+00   1.488744e-02
  1.647895e+00    1.142446e+00   1.482447e-02
  1.650106e+00    1.125154e+00   1.469505e-02
  1.652316e+00    1.112091e+00   1.459325e-02
  1.654527e+00    1.111776e+00   1.457477e-02
  1.656737e+00    1.104268e+00   1.450911e-02
  1.658947e+00    1.123947e+00   1.462161e-02
  1.661158e+00    1.095652e+00   1.442038e-02
  1.663368e+00    1.083953e+00   1.432741e-02
  1.665579e+00    1.105161e+00   1.445086e-02
  1.667789e+00    1.108486e+00   1.445639e-02
  1.670000e+00    1.120578e+00   1.451951e-02
  1.672210e+00    1.095725e+00   1.434180e-02
  1.674421e+00    1.077590e+00   1.420748e-02
  1.676631e+00    1.090140e+00   1.427418e-02
  1.678842e+00    1.077935e+00   1.417844e-02
  1.681052e+00    1.074554e+00   1.414092e-02
  1.683263e+00    1.087702e+00   1.421206e-02
  1.685473e+00    1.102556e+00   1.429349e-02
  1.687683e+00    1.092726e+00   1.421416e-02
  1.689894e+00    1.092397e+00   1.419614e-02
  1.692104e+00    1.096519e+00   1.420786e-02
  1.694315e+00    1.089844e+00   1.414992e-02
  1.696525e+00    1.066635e+00   1.398332e-02
  1.698736e+00    1.041376e+00   1.380210e-02
  1.700946e+00    1.029736e+00   1.370983e-02
  1.703157e+00    1.023953e+00   1.365687e-02
  1.705367e+00    1.016357e+00   1.359188e-02
  1.707578e+00    1.022503e+00   1.361852e-02
  1.709788e+00    1.001980e+00   1.346734e-02
  1.711998e+00    1.025219e+00   1.360773e-02
  1.714209e+00    1.020123e+00   1.355957e-02
  1.716419e+00    1.026060e+00   1.358475e-02
  1.718630e+00    1.020821e+00   1.353584e-02
  1.720840e+00    1.010675e+00   1.345434e-02
  1.723051e+00    1.014974e+00   1.346912e-02
  1.725261e+00    1.010233e+00   1.342303e-02
  1.727472e+00    1.018776e+00   1.346550e-02
  1.729682e+00    9.932082e-01   1.328213e-02
  1.731893e+00    1.012826e+00   1.339874e-02
  1.734103e+00    1.044264e+00   1.359107e-02
  1.736313e+00    1.038556e+00   1.353967e-02
  1.738524e+00    9.791349e-01   1.313296e-02
  1.740734e+00    9.706059e-01   1.306212e-02
  1.742945e+00    9.602708e-01   1.297917e-02
  1.745155e+00    9.813800e-01   1.310767e-02
  1.747366e+00    9.918765e-01   1.316376e-02
  1.749576e+00    9.993774e-01   1.319968e-02
  1.751787e+00    1.007307e+00   1.323844e-02
  1.753997e+00    9.793828e-01   1.304028e-02
  1.756208e+00    9.585307e-01   1.288761e-02
  1.758418e+00    9.537382e-01   1.284236e-02
  1.760628e+00    9.598241e-01   1.286999e-02
  1.762839e+00    9.544544e-01   1.282078e-02
  1.765049e+00    9.493546e-01   1.277347e-02
  1.767260e+00    9.361784e-01   1.267186e-02
  1.769470e+00    9.408668e-01   1.269065e-02
  1.771681e+00    9.422264e-01   1.268676e-02
  1.773891e+00    9.386818e-01   1.264990e-02
  1.776102e+00    9.329339e-01   1.259834e-02
  1.778312e+00    9.369377e-01   1.261266e-02
  1.780523e+00    9.599707e-01   1.275387e-02
  1.782733e+00    1.022164e+00   1.314730e-02
  1.784944e+00    1.019861e+00   1.311907e-02
  1.787154e+00    9.547723e-01   1.268082e-02
  1.789364e+00    9.459053e-01   1.260924e-02
  1.791575e+00    9.133773e-01   1.237809e-02
  1.793785e+00    9.117677e-01   1.235483e-02
  1.795996e+00    9.029498e-01   1.228255e-02
  1.798206e+00    9.354123e-01   1.248875e-02
  1.800417e+00    9.398819e-01   1.250573e-02
  1.802627e+00    9.562541e-01   1.260196e-02
  1.804838e+00    9.308944e-01   1.242152e-02
  1.807048e+00    9.004905e-01   1.220418e-02
  1.809259e+00    1.045441e+00   1.313511e-02
  1.811469e+00    1.319344e+00   1.473778e-02
  1.813679e+00    1.249811e+00   1.432672e-02
  1.815890e+00    9.375770e-01   1.239362e-02
  1.818100e+00    8.814068e-01   1.200162e-02
  1.820311e+00    8.967231e-01   1.209064e-02
  1.822521e+00    9.017515e-01   1.210956e-02
  1.824732e+00    9.090839e-01   1.214371e-02
  1.826942e+00    9.092582e-01   1.213242e-02
  1.829153e+00    8.797976e-01   1.192257e-02
  1.831363e+00    8.776386e-01   1.189596e-02
  1.833574e+00    8.857607e-01   1.193913e-02
  1.835784e+00    9.789094e-01   1.253916e-02
  1.837994e+00    9.504889e-01   1.234367e-02
  1.840205e+00    8.589567e-01   1.172320e-02
  1.842415e+00    8.482158e-01   1.163803e-02
  1.844626e+00    8.535956e-01   1.166345e-02
  1.846836e+00    8.591064e-01   1.168966e-02
  1.849047e+00    8.386503e-01   1.153823e-02
  1.851257e+00    8.680705e-01   1.172927e-02
  1.853468e+00    8.485934e-01   1.158823e-02
  1.855678e+00    8.463048e-01   1.156376e-02
  1.857889e+00    8.326180e-01   1.146151e-02
  1.860099e+00    8.444248e-01   1.153391e-02
  1.862309e+00    8.510634e-01   1.157070e-02
  1.864520e+00    8.404202e-01   1.148960e-02
  1.866730e+00    8.520585e-01   1.155952e-02
  1.868941e+00    8.456172e-01   1.150485e-02
  1.871151e+00    8.506450e-01   1.152761e-02
  1.873362e+00    8.696104e-01   1.164394e-02
  1.875572e+00    8.751208e-01   1.166966e-02
  1.877783e+00    9.151395e-01   1.192162e-02
  1.879993e+00    9.207287e-01   1.194637e-02
  1.882204e+00    8.825964e-01   1.168524e-02
  1.884414e+00    8.480115e-01   1.144290e-02
  1.886624e+00    8.424960e-01   1.139455e-02
  1.888835e+00    8.335213e-01   1.132279e-02
  1.891045e+00    8.422650e-01   1.137111e-02
  1.893256e+00    8.547623e-01   1.144397e-02
  1.895466e+00    8.293104e-01   1.126120e-02
  1.897677e+00    8.351331e-01   1.128972e-02
  1.899887e+00    8.571564e-01   1.142648e-02
  1.902098e+00    8.578840e-01   1.142032e-02
  1.904308e+00    8.596711e-01   1.142146e-02
  1.906519e+00    8.966558e-01   1.165324e-02
  1.908729e+00    9.185089e-01   1.178329e-02
  1.910940e+00    8.538595e-01   1.134975e-02
  1.913150e+00    8.475778e-01   1.129714e-02
  1.915360e+00    8.514863e-01   1.131241e-02
  1.917571e+00    8.205574e-01   1.109418e-02
  1.919781e+00    8.146502e-01   1.104353e-02
  1.921992e+00    8.216723e-01   1.108040e-02
  1.924202e+00    8.256450e-01   1.109634e-02
  1.926413e+00    8.129154e-01   1.100018e-02
  1.928623e+00    8.128716e-01   1.098937e-02
  1.930834e+00    7.991523e-01   1.088587e-02
  1.933044e+00    8.026695e-01   1.089920e-02
  1.935255e+00    8.034406e-01   1.089415e-02
  1.937465e+00    7.909861e-01   1.079910e-02
  1.939675e+00    7.991711e-01   1.084403e-02
  1.941886e+00    8.069126e-01   1.088613e-02
  1.944096e+00    8.077638e-01   1.088167e-02
  1.946307e+00    7.920219e-01   1.076484e-02
  1.948517e+00    7.939366e-01   1.076743e-02
  1.950728e+00    7.959833e-01   1.077108e-02
  1.952938e+00    8.041672e-01   1.081616e-02
  1.955149e+00    8.067674e-01   1.082335e-02
  1.957359e+00    8.058329e-01   1.080697e-02
  1.959570e+00    8.077057e-01   1.080857e-02
  1.961780e+00    7.870975e-01   1.065991e-02
  1.963990e+00    7.910223e-01   1.067634e-02
  1.966201e+00    7.929647e-01   1.067935e-02
  1.968411e+00    7.902551e-01   1.065096e-02
  1.970622e+00    7.760268e-01   1.054461e-02
  1.972832e+00    7.864416e-01   1.060516e-02
  1.975043e+00    7.927199e-01   1.063734e-02
  1.977253e+00    7.909625e-01   1.061553e-02
  1.979464e+00    7.936400e-01   1.062341e-02
  1.981674e+00    7.764878e-01   1.049776e-02
  1.983885e+00    7.529174e-01   1.032737e-02
  1.986095e+00    7.724753e-01   1.045097e-02
  1.988305e+00    7.794048e-01   1.048786e-02
  1.990516e+00    7.828454e-01   1.050103e-02
  1.992726e+00    7.808682e-01   1.047808e-02
  1.994937e+00    7.815864e-01   1.047274e-02
  1.997147e+00    7.592812e-01   1.031259e-02
  1.999358e+00    7.787967e-01   1.043440e-02
  2.001568e+00    7.764154e-01   1.040761e-02
  2.003779e+00    7.552508e-01   1.025300e-02
  2.005989e+00    7.498404e-01   1.020434e-02
  2.008200e+00    7.762403e-01   1.037085e-02
  2.010410e+00    7.596974e-01   1.024809e-02
  2.012621e+00    7.627852e-01   1.025722e-02
  2.014831e+00    7.656178e-01   1.026478e-02
  2.017041e+00    7.943369e-01   1.044498e-02
  2.019252e+00    7.760564e-01   1.031407e-02
  2.021462e+00    7.588487e-01   1.018961e-02
  2.023673e+00    7.605886e-01   1.019192e-02
  2.025883e+00    7.703720e-01   1.024767e-02
  2.028094e+00    7.750082e-01   1.026876e-02
  2.030304e+00    7.753283e-01   1.026125e-02
  2.032515e+00    7.681407e-01   1.020424e-02
  2.034725e+00    7.551250e-01   1.010801e-02
  2.036936e+00    7.555951e-01   1.010182e-02
  2.039146e+00    7.476863e-01   1.003931e-02
  2.041356e+00    7.459221e-01   1.001788e-02
  2.043567e+00    7.569344e-01   1.008224e-02
  2.045777e+00    7.540957e-01   1.005408e-02
  2.047988e+00    7.722617e-01   1.016498e-02
  2.050198e+00    7.699052e-01   1.014094e-02
  2.052409e+00    7.649711e-01   1.010067e-02
  2.054619e+00    7.723193e-01   1.014160e-02
  2.056830e+00    7.604012e-01   1.005583e-02
  2.059040e+00    7.295609e-01   9.842389e-03
  2.061251e+00    7.486761e-01   9.963239e-03
  2.063461e+00    7.492757e-01   9.959660e-03
  2.065671e+00    7.431228e-01   9.909968e-03
  2.067882e+00    7.473880e-01   9.929383e-03
  2.070092e+00    7.342877e-01   9.832880e-03
  2.072303e+00    7.252454e-01   9.763116e-03
  2.074513e+00    7.341285e-01   9.813484e-03
  2.076724e+00    7.392648e-01   9.838321e-03
  2.078934e+00    7.298621e-01   9.766636e-03
  2.081145e+00    7.467619e-01   9.869942e-03
  2.083355e+00    7.510768e-01   9.889196e-03
  2.085566e+00    7.591813e-01   9.933390e-03
  2.087776e+00    7.561810e-01   9.904134e-03
  2.089986e+00    7.450472e-01   9.822128e-03
  2.092197e+00    7.551420e-01   9.879375e-03
  2.094407e+00    7.591704e-01   9.896320e-03
  2.096618e+00    7.567208e-01   9.871322e-03
  2.098828e+00    7.514786e-01   9.827655e-03
  2.101039e+00    7.430198e-01   9.763137e-03
  2.103249e+00    7.315270e-01   9.678668e-03
  2.105460e+00    7.306822e-01   9.664069e-03
  2.107670e+00    7.165015e-01   9.561150e-03
  2.109881e+00    7.144229e-01   9.538209e-03
  2.112091e+00    7.100452e-01   9.500041e-03
  2.114301e+00    7.095995e-01   9.488367e-03
  2.116512e+00    7.034736e-01   9.438653e-03
  2.118722e+00    6.998428e-01   9.405573e-03
  2.120933e+00    7.049905e-01   9.431339e-03
  2.123143e+00    7.028921e-01   9.408475e-03
  2.125354e+00    7.125351e-01   9.464308e-03
  2.127564e+00    7.117151e-01   9.450139e-03
  2.129775e+00    7.212616e-01   9.504559e-03
  2.131985e+00    7.239183e-01   9.512932e-03
  2.134196e+00    7.174274e-01   9.461577e-03
  2.136406e+00    7.089735e-01   9.396938e-03
  2.138617e+00    6.926789e-01   9.279970e-03
  2.140827e+00    7.042091e-01   9.372893e-03
  2.143037e+00    7.205247e-01   9.526747e-03
  2.145248e+00    7.157205e-01   9.517114e-03
  2.147458e+00    7.049950e-01   9.460672e-03
  2.149669e+00    6.983625e-01   9.427871e-03
  2.151879e+00    6.964460e-01   9.424112e-03
  2.154090e+00    6.970072e-01   9.435198e-03
  2.156300e+00    7.147688e-01   9.561329e-03
  2.158511e+00    7.009659e-01   9.473888e-03
  2.160721e+00    6.884104e-01   9.393427e-03
  2.162932e+00    6.850129e-01   9.373922e-03
  2.165142e+00    6.832532e-01   9.364869e-03
  2.167352e+00    6.824928e-01   9.362534e-03
  2.169563e+00    7.011992e-01   9.491936e-03
  2.171773e+00    6.994348e-01   9.482452e-03
  2.173984e+00    6.763748e-01   9.326231e-03
  2.176194e+00    6.863944e-01   9.396220e-03
  2.178405e+00    6.794382e-01   9.349215e-03
  2.180615e+00    6.708571e-01   9.290618e-03
  2.182826e+00    6.968079e-01   9.469299e-03
  2.185036e+00    7.015655e-01   9.501649e-03
  2.187247e+00    6.862216e-01   9.397111e-03
  2.189457e+00    6.717693e-01   9.297215e-03
  2.191667e+00    6.698481e-01   9.283744e-03
  2.193878e+00    6.740329e-01   9.312135e-03
  2.196088e+00    6.835198e-01   9.376753e-03
  2.198299e+00    6.951684e-01   9.455211e-03
  2.200509e+00    6.858540e-01   9.390623e-03
  2.202720e+00    6.810642e-01   9.356593e-03
  2.204930e+00    6.857153e-01   9.387271e-03
  2.207141e+00    6.913348e-01   9.424500e-03
  2.209351e+00    6.867193e-01   9.391128e-03
  2.211562e+00    6.819924e-01   9.357107e-03
  2.213772e+00    6.929584e-01   9.375901e-03
  2.215982e+00    6.836324e-01   9.268151e-03
  2.218193e+00    6.730863e-01   9.166787e-03
  2.220403e+00    6.933566e-01   9.278886e-03
  2.222614e+00    6.787063e-01   9.159305e-03
  2.224824e+00    6.714209e-01   9.090660e-03
  2.227035e+00    6.646157e-01   9.027135e-03
  2.229245e+00    6.851096e-01   9.148113e-03
  2.231456e+00    6.771055e-01   9.078846e-03
  2.233666e+00    6.746876e-01   9.047473e-03
  2.235877e+00    6.866887e-01   9.113168e-03
  2.238087e+00    6.732046e-01   9.009712e-03
  2.240298e+00    7.011033e-01   9.180422e-03
  2.242508e+00    7.002034e-01   9.159046e-03
  2.244718e+00    6.950359e-01   9.109091e-03
  2.246929e+00    7.009180e-01   9.132765e-03
  2.249139e+00    6.893886e-01   9.044779e-03
  2.251350e+00    6.928365e-01   9.055411e-03
  2.253560e+00    7.080460e-01   9.142354e-03
  2.255771e+00    7.364396e-01   9.311845e-03
  2.257981e+00    7.463467e-01   9.362460e-03
  2.260192e+00    7.477189e-01   9.359263e-03
  2.262402e+00    7.338529e-01   9.260689e-03
  2.264613e+00    7.272066e-01   9.207298e-03
  2.266823e+00    7.403233e-01   9.278980e-03
  2.269033e+00    7.151251e-01   9.108953e-03
  2.271244e+00    6.842402e-01   8.899474e-03
  2.273454e+00    7.582800e-01   9.357591e-03
  2.275665e+00    8.870234e-01   1.010891e-02
  2.277875e+00    8.901910e-01   1.011556e-02
  2.280086e+00    7.500026e-01   9.274222e-03
  2.282296e+00    6.688845e-01   8.748848e-03
  2.284507e+00    6.591138e-01   8.674561e-03
  2.286717e+00    6.655375e-01   8.707194e-03
  2.288928e+00    6.669312e-01   8.706382e-03
  2.291138e+00    6.556671e-01   8.623134e-03
  2.293348e+00    6.431297e-01   8.530840e-03
  2.295559e+00    6.355187e-01   8.471028e-03
  2.297769e+00    6.603736e-01   8.625800e-03
  2.299980e+00    6.684633e-01   8.669041e-03
  2.302190e+00    6.699672e-01   8.669547e-03
  2.304401e+00    6.548245e-01   8.561675e-03
  2.306611e+00    6.567168e-01   8.564801e-03
  2.308822e+00    6.579510e-01   8.564419e-03
  2.311032e+00    6.618800e-01   8.583437e-03
  2.313243e+00    6.583277e-01   8.554070e-03
  2.315453e+00    6.417695e-01   8.438282e-03
  2.317663e+00    6.508636e-01   8.488682e-03
  2.319874e+00    6.674068e-01   8.587045e-03
  2.322084e+00    6.489627e-01   8.458562e-03
  2.324295e+00    6.507705e-01   8.462084e-03
  2.326505e+00    6.294009e-01   8.313041e-03
  2.328716e+00    6.365872e-01   8.351851e-03
  2.330926e+00    6.382899e-01   8.354251e-03
  2.333137e+00    6.404255e-01   8.359858e-03
  2.335347e+00    6.457133e-01   8.385384e-03
  2.337558e+00    6.458101e-01   8.377771e-03
  2.339768e+00    6.288393e-01   8.258448e-03
  2.341979e+00    6.367960e-01   8.302173e-03
  2.344189e+00    6.443745e-01   8.343000e-03
  2.346399e+00    6.386969e-01   8.297649e-03
  2.348610e+00    6.459931e-01   8.336388e-03
  2.350820e+00    6.356183e-01   8.260977e-03
  2.353031e+00    6.435764e-01   8.304195e-03
  2.355241e+00    6.326405e-01   8.225285e-03
  2.357452e+00    6.280842e-01   8.187218e-03
  2.359662e+00    6.425319e-01   8.272552e-03
  2.361873e+00    6.513519e-01   8.320770e-03
  2.364083e+00    6.309568e-01   8.181483e-03
  2.366294e+00    6.241659e-01   8.129225e-03
  2.368504e+00    6.390578e-01   8.217483e-03
  2.370714e+00    6.236219e-01   8.109604e-03
  2.372925e+00    6.263757e-01   8.119409e-03
  2.375135e+00    6.344568e-01   8.163502e-03
  2.377346e+00    6.271722e-01   8.108537e-03
  2.379556e+00    6.310867e-01   8.125854e-03
  2.381767e+00    6.042338e-01   7.943359e-03
  2.383977e+00    5.916087e-01   7.852167e-03
  2.386188e+00    6.081022e-01   7.953021e-03
  2.388398e+00    6.125391e-01   7.974077e-03
  2.390609e+00    6.303598e-01   8.081424e-03
  2.392819e+00    6.155576e-01   7.978229e-03
  2.395029e+00    6.126875e-01   7.951945e-03
  2.397240e+00    6.147386e-01   7.957373e-03
  2.399450e+00    6.259482e-01   8.021712e-03
  2.401661e+00    6.099722e-01   7.911029e-03
  2.403871e+00    6.098370e-01   7.902396e-03
  2.406082e+00    5.984646e-01   7.820998e-03
  2.408292e+00    6.048030e-01   7.854538e-03
  2.410503e+00    6.028671e-01   7.834513e-03
  2.412713e+00    6.097957e-01   7.871575e-03
  2.414924e+00    6.132357e-01   7.886229e-03
  2.417134e+00    6.186584e-01   7.913293e-03
  2.419344e+00    6.163049e-01   7.890746e-03
  2.421555e+00    5.976772e-01   7.763109e-03
  2.423765e+00    5.949243e-01   7.737821e-03
  2.425976e+00    5.865359e-01   7.675374e-03
  2.428186e+00    5.778785e-01   7.611407e-03
  2.430397e+00    5.850453e-01   7.651064e-03
  2.432607e+00    5.941653e-01   7.703195e-03
  2.434818e+00    5.923154e-01   7.683681e-03
  2.437028e+00    5.825023e-01   7.612683e-03
  2.439239e+00    5.977705e-01   7.704125e-03
  2.441449e+00    5.897915e-01   7.645360e-03
  2.443659e+00    5.715491e-01   7.518967e-03
  2.445870e+00    5.801615e-01   7.587533e-03
  2.448080e+00    6.005111e-01   7.754792e-03
  2.450291e+00    5.803976e-01   7.640483e-03
  2.452501e+00    5.819551e-01   7.661930e-03
  2.454712e+00    5.680614e-01   7.578325e-03
  2.456922e+00    5.579307e-01   7.516981e-03
  2.459133e+00    5.591462e-01   7.530544e-03
  2.461343e+00    5.626119e-01   7.558200e-03
  2.463554e+00    5.564169e-01   7.519900e-03
  2.465764e+00    5.607027e-01   7.551955e-03
  2.467975e+00    5.517455e-01   7.493652e-03
  2.470185e+00    5.548965e-01   7.517253e-03
  2.472395e+00    5.590638e-01   7.546666e-03
  2.474606e+00    5.530928e-01   7.507822e-03
  2.476816e+00    5.422176e-01   7.434367e-03
  2.479027e+00    5.395114e-01   7.416632e-03
  2.481237e+00    5.545405e-01   7.519492e-03
  2.483448e+00    5.616229e-01   7.567688e-03
  2.485658e+00    5.519806e-01   7.502289e-03
  2.487869e+00    5.511811e-01   7.496885e-03
  2.490079e+00    5.655146e-01   7.593214e-03
  2.492290e+00    5.397215e-01   7.417604e-03
  2.494500e+00    5.396828e-01   7.416593e-03
  2.496710e+00    5.545013e-01   7.517019e-03
  2.498921e+00    5.565789e-01   7.530080e-03
  2.501131e+00    5.460449e-01   7.457531e-03
  2.503342e+00    5.280859e-01   7.332607e-03
  2.505552e+00    5.370861e-01   7.393687e-03
  2.507763e+00    5.175434e-01   7.256532e-03
  2.509973e+00    5.227950e-01   7.291855e-03
  2.512184e+00    5.177340e-01   7.254895e-03
  2.514394e+00    5.129033e-01   7.211705e-03
  2.516605e+00    5.258077e-01   7.254856e-03
  2.518815e+00    5.250140e-01   7.221061e-03
  2.521025e+00    5.309963e-01   7.241030e-03
  2.523236e+00    5.239641e-01   7.174961e-03
  2.525446e+00    5.288065e-01   7.192371e-03
  2.527657e+00    5.397045e-01   7.251325e-03
  2.529867e+00    5.297162e-01   7.169657e-03
  2.532078e+00    5.338739e-01   7.182587e-03
  2.534288e+00    5.362782e-01   7.184680e-03
  2.536499e+00    5.625263e-01   7.346067e-03
  2.538709e+00    5.315720e-01   7.130029e-03
  2.540920e+00    5.263043e-01   7.083931e-03
  2.543130e+00    5.171974e-01   7.012076e-03
  2.545340e+00    5.346305e-01   7.119106e-03
  2.547551e+00    5.398474e-01   7.143652e-03
  2.549761e+00    5.379864e-01   7.121605e-03
  2.551972e+00    5.334782e-01   7.082248e-03
  2.554182e+00    5.413107e-01   7.124708e-03
  2.556393e+00    5.302631e-01   7.042441e-03
  2.558603e+00    5.378547e-01   7.083456e-03
  2.560814e+00    5.381689e-01   7.076670e-03
  2.563024e+00    5.358810e-01   7.052901e-03
  2.565235e+00    5.315155e-01   7.014494e-03
  2.567445e+00    5.206574e-01   6.932901e-03
  2.569656e+00    5.256225e-01   6.956065e-03
  2.571866e+00    5.131642e-01   6.863818e-03
  2.574076e+00    5.131665e-01   6.854597e-03
  2.576287e+00    5.199652e-01   6.891499e-03
  2.578497e+00    5.302960e-01   6.951662e-03
  2.580708e+00    5.230317e-01   6.895758e-03
  2.582918e+00    5.030510e-01   6.755085e-03
  2.585129e+00    5.163839e-01   6.836243e-03
  2.587339e+00    5.086352e-01   6.777116e-03
  2.589550e+00    5.173281e-01   6.827211e-03
  2.591760e+00    5.122573e-01   6.785920e-03
  2.593971e+00    5.184169e-01   6.819031e-03
  2.596181e+00    5.038424e-01   6.716320e-03
  2.598391e+00    5.035852e-01   6.709452e-03
  2.600602e+00    5.131147e-01   6.766682e-03
  2.602812e+00    5.176693e-01   6.789074e-03
  2.605023e+00    5.014882e-01   6.675008e-03
  2.607233e+00    5.074616e-01   6.707487e-03
  2.609444e+00    5.121766e-01   6.731336e-03
  2.611654e+00    4.988612e-01   6.635984e-03
  2.613865e+00    5.189950e-01   6.761450e-03
  2.616075e+00    5.045664e-01   6.659681e-03
  2.618286e+00    4.986509e-01   6.613580e-03
  2.620496e+00    4.978303e-01   6.601470e-03
  2.622706e+00    5.107879e-01   6.681059e-03
  2.624917e+00    5.044852e-01   6.633880e-03
  2.627127e+00    5.046023e-01   6.628896e-03
  2.629338e+00    5.077825e-01   6.643737e-03
  2.631548e+00    5.110424e-01   6.658830e-03
  2.633759e+00    5.061728e-01   6.619851e-03
  2.635969e+00    5.021847e-01   6.587034e-03
  2.638180e+00    4.948583e-01   6.531870e-03
  2.640390e+00    4.862808e-01   6.468506e-03
  2.642601e+00    4.870055e-01   6.466754e-03
  2.644811e+00    4.972176e-01   6.527130e-03
  2.647021e+00    5.118707e-01   6.615987e-03
  2.649232e+00    4.984199e-01   6.521772e-03
  2.651442e+00    5.055824e-01   6.561914e-03
  2.653653e+00    5.086533e-01   6.574963e-03
  2.655863e+00    5.059748e-01   6.550885e-03
  2.658074e+00    5.056328e-01   6.542014e-03
  2.660284e+00    5.082421e-01   6.552442e-03
  2.662495e+00    5.026512e-01   6.509529e-03
  2.664705e+00    5.026416e-01   6.502839e-03
  2.666916e+00    5.080993e-01   6.531525e-03
  2.669126e+00    5.020855e-01   6.486251e-03
  2.671337e+00    5.046117e-01   6.495907e-03
  2.673547e+00    5.048362e-01   6.490927e-03
  2.675757e+00    4.976802e-01   6.438269e-03
  2.677968e+00    5.077610e-01   6.496548e-03
  2.680178e+00    5.028739e-01   6.458739e-03
  2.682389e+00    5.046177e-01   6.463466e-03
  2.684599e+00    4.932429e-01   6.384020e-03
  2.686810e+00    4.958123e-01   6.393977e-03
  2.689020e+00    4.945448e-01   6.379507e-03
  2.691231e+00    4.887684e-01   6.335861e-03
  2.693441e+00    4.888803e-01   6.330448e-03
  2.695652e+00    4.925965e-01   6.347932e-03
  2.697862e+00    4.871212e-01   6.306231e-03
  2.700072e+00    4.919952e-01   6.331595e-03
  2.702283e+00    4.923743e-01   6.327822e-03
  2.704493e+00    4.879782e-01   6.293197e-03
  2.706704e+00    5.003819e-01   6.366228e-03
  2.708914e+00    4.872153e-01   6.275934e-03
  2.711125e+00    4.799856e-01   6.223012e-03
  2.713335e+00    4.775122e-01   6.200913e-03
  2.715546e+00    4.795507e-01   6.207728e-03
  2.717756e+00    4.809133e-01   6.210691e-03
  2.719967e+00    4.778728e-01   6.184876e-03
  2.722177e+00    4.728775e-01   6.146409e-03
  2.724387e+00    4.895521e-01   6.247691e-03
  2.726598e+00    4.989977e-01   6.301557e-03
  2.728808e+00    4.927651e-01   6.255877e-03
  2.731019e+00    4.803654e-01   6.170578e-03
  2.733229e+00    4.788148e-01   6.154822e-03
  2.735440e+00    4.858218e-01   6.193423e-03
  2.737650e+00    4.877174e-01   6.199445e-03
  2.739861e+00    5.023893e-01   6.285815e-03
  2.742071e+00    4.985237e-01   6.255761e-03
  2.744282e+00    4.912949e-01   6.203925e-03
  2.746492e+00    4.904169e-01   6.192308e-03
  2.748702e+00    4.843479e-01   6.147946e-03
  2.750913e+00    4.850250e-01   6.146427e-03
  2.753123e+00    4.747329e-01   6.074799e-03
  2.755334e+00    4.838136e-01   6.126515e-03
  2.757544e+00    4.847164e-01   6.126478e-03
  2.759755e+00    4.828717e-01   6.108907e-03
  2.761965e+00    4.836638e-01   6.107905e-03
  2.764176e+00    4.761503e-01   6.054333e-03
  2.766386e+00    4.755561e-01   6.044770e-03
  2.768597e+00    4.735460e-01   6.026160e-03
  2.770807e+00    4.847235e-01   6.090957e-03
  2.773017e+00    4.822077e-01   6.069134e-03
  2.775228e+00    4.830921e-01   6.068901e-03
  2.777438e+00    4.706499e-01   5.984477e-03
  2.779649e+00    4.741884e-01   6.001050e-03
  2.781859e+00    4.728723e-01   5.986993e-03
  2.784070e+00    4.772168e-01   6.008559e-03
  2.786280e+00    4.837122e-01   6.043526e-03
  2.788491e+00    4.749808e-01   5.982890e-03
  2.790701e+00    4.723873e-01   5.960924e-03
  2.792912e+00    4.814565e-01   6.011862e-03
  2.795122e+00    4.812969e-01   6.005128e-03
  2.797333e+00    4.676824e-01   5.914046e-03
  2.799543e+00    4.709891e-01   5.929100e-03
  2.801753e+00    4.725012e-01   5.932757e-03
  2.803964e+00    4.696280e-01   5.909062e-03
  2.806174e+00    4.834177e-01   5.988991e-03
  2.808385e+00    4.828821e-01   5.978833e-03
  2.810595e+00    4.713306e-01   5.900033e-03
  2.812806e+00    4.731040e-01   5.904525e-03
  2.815016e+00    4.648329e-01   5.847994e-03
  2.817227e+00    4.705248e-01   5.909501e-03
  2.819437e+00    4.622987e-01   5.868590e-03
  2.821648e+00    4.545521e-01   5.821440e-03
  2.823858e+00    4.763009e-01   5.964423e-03
  2.826068e+00    4.768670e-01   5.972991e-03
  2.828279e+00    4.680100e-01   5.921266e-03
  2.830489e+00    4.696072e-01   5.934699e-03
  2.832700e+00    4.705548e-01   5.943234e-03
  2.834910e+00    4.784487e-01   5.994949e-03
  2.837121e+00    4.629350e-01   5.898667e-03
  2.839331e+00    4.655011e-01   5.916198e-03
  2.841542e+00    4.686692e-01   5.937317e-03
  2.843752e+00    4.722069e-01   5.960469e-03
  2.845963e+00    4.664934e-01   5.924694e-03
  2.848173e+00    4.604612e-01   5.886364e-03
  2.850383e+00    4.529543e-01   5.838460e-03
  2.852594e+00    4.562717e-01   5.859721e-03
  2.854804e+00    4.690842e-01   5.940914e-03
  2.857015e+00    4.715994e-01   5.956397e-03
  2.859225e+00    4.705786e-01   5.949694e-03
  2.861436e+00    4.670266e-01   5.926532e-03
  2.863646e+00    4.635901e-01   5.904739e-03
  2.865857e+00    4.542333e-01   5.845182e-03
  2.868067e+00    4.447465e-01   5.784035e-03
  2.870278e+00    4.470165e-01   5.798420e-03
  2.872488e+00    4.556555e-01   5.853043e-03
  2.874698e+00    4.543624e-01   5.843687e-03
  2.876909e+00    4.616796e-01   5.889238e-03
  2.879119e+00    4.614863e-01   5.886380e-03
  2.881330e+00    4.619335e-01   5.887773e-03
  2.883540e+00    4.563075e-01   5.850411e-03
  2.885751e+00    4.696780e-01   5.933844e-03
  2.887961e+00    4.832185e-01   6.016869e-03
  2.890172e+00    4.622213e-01   5.883071e-03
  2.892382e+00    4.762148e-01   5.969628e-03
  2.894593e+00    4.687125e-01   5.920583e-03
  2.896803e+00    4.606028e-01   5.867185e-03
  2.899014e+00    4.515533e-01   5.807344e-03
  2.901224e+00    4.506673e-01   5.799681e-03
  2.903434e+00    4.628288e-01   5.875453e-03
  2.905645e+00    4.600964e-01   5.855879e-03
  2.907855e+00    4.515354e-01   5.799046e-03
  2.910066e+00    4.601724e-01   5.852170e-03
  2.912276e+00    4.608057e-01   5.854064e-03
  2.914487e+00    4.677414e-01   5.895479e-03
  2.916697e+00    4.818087e-01   5.981188e-03
  2.918908e+00    4.668207e-01   5.885425e-03
  2.921118e+00    4.536232e-01   5.798953e-03
  2.923329e+00    4.445831e-01   5.738571e-03
  2.925539e+00    4.519997e-01   5.783983e-03
  2.927749e+00    4.532408e-01   5.789611e-03
  2.929960e+00    4.572858e-01   5.812612e-03
  2.932170e+00    4.675018e-01   5.874837e-03
  2.934381e+00    4.561149e-01   5.800414e-03
  2.936591e+00    4.609232e-01   5.828293e-03
  2.938802e+00    4.584602e-01   5.810003e-03
  2.941012e+00    4.669551e-01   5.861213e-03
  2.943223e+00    4.600071e-01   5.814740e-03
  2.945433e+00    4.572192e-01   5.793354e-03
  2.947644e+00    4.499849e-01   5.743217e-03
  2.949854e+00    4.535161e-01   5.761457e-03
  2.952064e+00    4.494311e-01   5.731241e-03
  2.954275e+00    4.631377e-01   5.813536e-03
  2.956485e+00    4.612725e-01   5.797608e-03
  2.958696e+00    4.485771e-01   5.712913e-03
  2.960906e+00    4.738296e-01   5.867262e-03
  2.963117e+00    4.590414e-01   5.770466e-03
  2.965327e+00    4.551793e-01   5.742242e-03
  2.967538e+00    4.658860e-01   5.806426e-03
  2.969748e+00    4.546436e-01   5.733125e-03
  2.971959e+00    4.557853e-01   5.737172e-03
  2.974169e+00    4.538829e-01   5.722622e-03
  2.976379e+00    4.489568e-01   5.688564e-03
  2.978590e+00    4.553380e-01   5.725706e-03
  2.980800e+00    4.553513e-01   5.723002e-03
  2.983011e+00    4.553669e-01   5.720282e-03
  2.985221e+00    4.621142e-01   5.759350e-03
  2.987432e+00    4.493476e-01   5.676119e-03
  2.989642e+00    4.563415e-01   5.717501e-03
  2.991853e+00    4.559107e-01   5.711512e-03
  2.994063e+00    4.546646e-01   5.700797e-03
  2.996274e+00    4.524579e-01   5.683762e-03
  2.998484e+00    4.577522e-01   5.714202e-03
  3.000694e+00    4.567093e-01   5.704227e-03
  3.002905e+00    4.542492e-01   5.685912e-03
  3.005115e+00    4.576310e-01   5.704033e-03
  3.007326e+00    4.495130e-01   5.650087e-03
  3.009536e+00    4.523991e-01   5.664913e-03
  3.011747e+00    4.840266e-01   5.856604e-03
  3.013957e+00    4.640469e-01   5.731241e-03
  3.016168e+00    4.541327e-01   5.666417e-03
  3.018378e+00    4.641437e-01   5.725442e-03
  3.020589e+00    4.686622e-01   5.749984e-03
  3.022799e+00    4.679895e-01   5.742645e-03
  3.025010e+00    4.539041e-01   5.652322e-03
  3.027220e+00    4.484267e-01   5.615015e-03
  3.029430e+00    4.531755e-01   5.641422e-03
  3.031641e+00    4.477679e-01   5.604522e-03
  3.033851e+00    4.513339e-01   5.623304e-03
  3.036062e+00    4.418201e-01   5.560964e-03
  3.038272e+00    4.357073e-01   5.518839e-03
  3.040483e+00    4.427788e-01   5.560244e-03
  3.042693e+00    4.402819e-01   5.541336e-03
  3.044904e+00    4.562511e-01   5.636872e-03
  3.047114e+00    4.529652e-01   5.611734e-03
  3.049325e+00    4.569105e-01   5.631696e-03
  3.051535e+00    4.525468e-01   5.600337e-03
  3.053745e+00    4.385045e-01   5.508083e-03
  3.055956e+00    4.571014e-01   5.619048e-03
  3.058166e+00    4.424243e-01   5.523891e-03
  3.060377e+00    4.451260e-01   5.535987e-03
  3.062587e+00    4.450476e-01   5.530887e-03
  3.064798e+00    4.492513e-01   5.552695e-03
  3.067008e+00    4.479658e-01   5.540026e-03
  3.069219e+00    4.463817e-01   5.525748e-03
  3.071429e+00    4.435730e-01   5.504818e-03
  3.073640e+00    4.469208e-01   5.522257e-03
  3.075850e+00    4.441145e-01   5.501310e-03
  3.078060e+00    4.573334e-01   5.579452e-03
  3.080271e+00    4.434818e-01   5.490859e-03
  3.082481e+00    4.503089e-01   5.529493e-03
  3.084692e+00    4.575184e-01   5.570188e-03
  3.086902e+00    4.436463e-01   5.481866e-03
  3.089113e+00    4.329943e-01   5.412142e-03
  3.091323e+00    4.308985e-01   5.395722e-03
  3.093534e+00    4.274190e-01   5.370591e-03
  3.095744e+00    4.504747e-01   5.510136e-03
  3.097955e+00    4.493832e-01   5.499929e-03
  3.100165e+00    4.428324e-01   5.456366e-03
  3.102375e+00    4.409284e-01   5.441230e-03
  3.104586e+00    4.463322e-01   5.470972e-03
  3.106796e+00    4.451442e-01   5.460182e-03
  3.109007e+00    4.473075e-01   5.470211e-03
  3.111217e+00    4.382301e-01   5.410761e-03
  3.113428e+00    4.499984e-01   5.479496e-03
  3.115638e+00    4.406567e-01   5.419101e-03
  3.117849e+00    4.525236e-01   5.487838e-03
  3.120059e+00    4.465383e-01   5.447954e-03
  3.122270e+00    4.506387e-01   5.469632e-03
  3.124480e+00    4.517429e-01   5.472621e-03
  3.126691e+00    4.539491e-01   5.482353e-03
  3.128901e+00    4.565277e-01   5.494755e-03
  3.131111e+00    4.499376e-01   5.451084e-03
  3.133322e+00    4.379764e-01   5.374726e-03
  3.135532e+00    4.323550e-01   5.336752e-03
  3.137743e+00    4.575706e-01   5.486627e-03
  3.139953e+00    4.450736e-01   5.407529e-03
  3.142164e+00    4.380307e-01   5.376494e-03
  3.144374e+00    4.468464e-01   5.458883e-03
  3.146585e+00    4.521598e-01   5.505958e-03
  3.148795e+00    4.568910e-01   5.545658e-03
  3.151006e+00    4.598279e-01   5.572162e-03
  3.153216e+00    4.506158e-01   5.523281e-03
  3.155426e+00    4.433874e-01   5.485124e-03
  3.157637e+00    4.425303e-01   5.485343e-03
  3.159847e+00    4.405456e-01   5.477923e-03
  3.162058e+00    4.524016e-01   5.555620e-03
  3.164268e+00    4.405299e-01   5.486315e-03
  3.166479e+00    4.420957e-01   5.499719e-03
  3.168689e+00    4.422297e-01   5.503925e-03
  3.170900e+00    4.390765e-01   5.487448e-03
  3.173110e+00    4.414734e-01   5.505270e-03
  3.175321e+00    4.474652e-01   5.545028e-03
  3.177531e+00    4.490022e-01   5.557314e-03
  3.179741e+00    4.472136e-01   5.548346e-03
  3.181952e+00    4.379323e-01   5.492573e-03
  3.184162e+00    4.410061e-01   5.514014e-03
  3.186373e+00    4.423054e-01   5.523735e-03
  3.188583e+00    4.415835e-01   5.521035e-03
  3.190794e+00    4.283577e-01   5.439452e-03
  3.193004e+00    4.403188e-01   5.516125e-03
  3.195215e+00    4.307879e-01   5.457596e-03
  3.197425e+00    4.356342e-01   5.489415e-03
  3.199636e+00    4.323682e-01   5.468038e-03
  3.201846e+00    4.358131e-01   5.489157e-03
  3.204056e+00    4.360082e-01   5.491302e-03
  3.206267e+00    4.243130e-01   5.417983e-03
  3.208477e+00    4.094173e-01   5.322925e-03
  3.210688e+00    4.266499e-01   5.434621e-03
  3.212898e+00    4.210502e-01   5.399427e-03
  3.215109e+00    4.268142e-01   5.436997e-03
  3.217319e+00    4.269021e-01   5.438179e-03
  3.219530e+00    4.286230e-01   5.449544e-03
  3.221740e+00    4.160610e-01   5.369635e-03
  3.223951e+00    4.333046e-01   5.480236e-03
  3.226161e+00    4.333310e-01   5.480601e-03
  3.228372e+00    4.265194e-01   5.437903e-03
  3.230582e+00    4.215640e-01   5.406321e-03
  3.232792e+00    4.364155e-01   5.500975e-03
  3.235003e+00    4.417112e-01   5.534497e-03
  3.237213e+00    4.429063e-01   5.542083e-03
  3.239424e+00    4.319246e-01   5.472944e-03
  3.241634e+00    4.207591e-01   5.401869e-03
  3.243845e+00    4.334787e-01   5.482974e-03
  3.246055e+00    4.249098e-01   5.428247e-03
  3.248266e+00    4.343784e-01   5.488592e-03
  3.250476e+00    4.318136e-01   5.472065e-03
  3.252687e+00    4.123372e-01   5.347160e-03
  3.254897e+00    4.342886e-01   5.487498e-03
  3.257107e+00    4.384159e-01   5.513229e-03
  3.259318e+00    4.183387e-01   5.385264e-03
  3.261528e+00    4.131648e-01   5.351736e-03
  3.263739e+00    4.213398e-01   5.403847e-03
  3.265949e+00    4.251816e-01   5.428306e-03
  3.268160e+00    4.239162e-01   5.419817e-03
  3.270370e+00    4.245915e-01   5.423614e-03
  3.272581e+00    4.363506e-01   5.497922e-03
  3.274791e+00    4.279349e-01   5.444136e-03
  3.277002e+00    4.132939e-01   5.349640e-03
  3.279212e+00    4.054593e-01   5.298300e-03
  3.281422e+00    4.223675e-01   5.407063e-03
  3.283633e+00    4.358257e-01   5.491864e-03
  3.285843e+00    4.210648e-01   5.397717e-03
  3.288054e+00    4.355531e-01   5.488842e-03
  3.290264e+00    4.266060e-01   5.431876e-03
  3.292475e+00    4.306093e-01   5.456442e-03
  3.294685e+00    4.246128e-01   5.417699e-03
  3.296896e+00    4.233547e-01   5.408892e-03
  3.299106e+00    4.364702e-01   5.491483e-03
  3.301317e+00    4.353020e-01   5.483096e-03
  3.303527e+00    4.361204e-01   5.487764e-03
  3.305737e+00    4.346839e-01   5.477665e-03
  3.307948e+00    4.261286e-01   5.422818e-03
  3.310158e+00    4.273388e-01   5.429660e-03
  3.312369e+00    4.263789e-01   5.422673e-03
  3.314579e+00    4.235995e-01   5.404050e-03
  3.316790e+00    4.366244e-01   5.485788e-03
  3.319000e+00    4.295346e-01   5.439880e-03
  3.321211e+00    4.234050e-01   5.400315e-03
  3.323421e+00    4.210781e-01   5.384249e-03
  3.325632e+00    4.238077e-01   5.400775e-03
  3.327842e+00    4.255125e-01   5.410730e-03
  3.330052e+00    4.265858e-01   5.416450e-03
  3.332263e+00    4.191474e-01   5.368028e-03
  3.334473e+00    4.238970e-01   5.397419e-03
  3.336684e+00    4.367818e-01   5.477562e-03
  3.338894e+00    4.244870e-01   5.399071e-03
  3.341105e+00    4.257749e-01   5.406038e-03
  3.343315e+00    4.273425e-01   5.414840e-03
  3.345526e+00    4.263580e-01   5.407686e-03
  3.347736e+00    4.181883e-01   5.354230e-03
  3.349947e+00    4.287482e-01   5.420458e-03
  3.352157e+00    4.225354e-01   5.379873e-03
  3.354368e+00    4.249339e-01   5.393806e-03
  3.356578e+00    4.186726e-01   5.352909e-03
  3.358788e+00    4.190224e-01   5.353815e-03
  3.360999e+00    4.217693e-01   5.370073e-03
  3.363209e+00    4.139996e-01   5.319381e-03
  3.365420e+00    4.251428e-01   5.388950e-03
  3.367630e+00    4.346051e-01   5.447573e-03
  3.369841e+00    4.291941e-01   5.412096e-03
  3.372051e+00    4.320565e-01   5.428110e-03
  3.374262e+00    4.183401e-01   5.338809e-03
  3.376472e+00    4.130411e-01   5.302454e-03
  3.378683e+00    4.120636e-01   5.293675e-03
  3.380893e+00    4.065564e-01   5.255866e-03
  3.383103e+00    4.129978e-01   5.294648e-03
  3.385314e+00    4.159208e-01   5.311128e-03
  3.387524e+00    4.074793e-01   5.254236e-03
  3.389735e+00    4.148525e-01   5.298935e-03
  3.391945e+00    4.180431e-01   5.315566e-03
  3.394156e+00    4.048358e-01   5.226753e-03
  3.396366e+00    4.011453e-01   5.199507e-03
  3.398577e+00    4.082993e-01   5.242623e-03
  3.400787e+00    4.242339e-01   5.356063e-03
  3.402998e+00    4.208421e-01   5.373177e-03
  3.405208e+00    3.871096e-01   5.173536e-03
  3.407418e+00    3.855315e-01   5.178420e-03
  3.409629e+00    4.052956e-01   5.323545e-03
  3.411839e+00    3.974887e-01   5.283778e-03
  3.414050e+00    3.888344e-01   5.236836e-03
  3.416260e+00    3.772129e-01   5.167394e-03
  3.418471e+00    3.872412e-01   5.244965e-03
  3.420681e+00    3.965342e-01   5.316074e-03
  3.422892e+00    3.835580e-01   5.236297e-03
  3.425102e+00    3.812882e-01   5.228500e-03
  3.427313e+00    3.840595e-01   5.254631e-03
  3.429523e+00    3.849182e-01   5.267529e-03
  3.431733e+00    3.867292e-01   5.286583e-03
  3.433944e+00    3.946353e-01   5.346915e-03
  3.436154e+00    3.824901e-01   5.270243e-03
  3.438365e+00    3.899263e-01   5.327211e-03
  3.440575e+00    3.808891e-01   5.271056e-03
  3.442786e+00    3.720423e-01   5.215028e-03
  3.444996e+00    3.726911e-01   5.225041e-03
  3.447207e+00    3.540259e-01   5.097656e-03
  3.449417e+00    3.671072e-01   5.231555e-03
  3.451628e+00    3.600410e-01   5.210057e-03
  3.453838e+00    3.601366e-01   5.231682e-03
  3.456049e+00    3.611380e-01   5.262671e-03
  3.458259e+00    3.647088e-01   5.310500e-03
  3.460469e+00    3.597818e-01   5.294110e-03
  3.462680e+00    3.681799e-01   5.374653e-03
  3.464890e+00    3.796275e-01   5.475684e-03
  3.467101e+00    3.911032e-01   5.575856e-03
  3.469311e+00    3.819621e-01   5.527094e-03
  3.471522e+00    4.114088e-01   5.753392e-03
  3.473732e+00    3.955387e-01   5.657633e-03
  3.475943e+00    3.950874e-01   5.670338e-03
  3.478153e+00    4.034540e-01   5.745835e-03
  3.480364e+00    4.043726e-01   5.767717e-03
  3.482574e+00    3.997928e-01   5.750232e-03
  3.484784e+00    4.194495e-01   5.904894e-03
  3.486995e+00    4.236109e-01   5.949416e-03
  3.489205e+00    4.267284e-01   5.985938e-03
  3.491416e+00    4.494071e-01   6.158258e-03
  3.493626e+00    4.593123e-01   6.240757e-03
  3.495837e+00    4.587898e-01   6.252272e-03
  3.498047e+00    4.602700e-01   6.277092e-03
  3.500258e+00    4.619454e-01   6.303234e-03
  3.502468e+00    4.764250e-01   6.416022e-03
  3.504679e+00    4.873971e-01   6.504402e-03
  3.506889e+00    4.850065e-01   6.503170e-03
  3.509099e+00    4.824695e-01   6.500643e-03
  3.511310e+00    4.833891e-01   6.521432e-03
  3.513520e+00    4.901730e-01   6.581557e-03
  3.515731e+00    4.848958e-01   6.560402e-03
  3.517941e+00    4.981083e-01   6.663652e-03
  3.520152e+00    5.159261e-01   6.796420e-03
  3.522362e+00    5.016170e-01   6.715983e-03
  3.524573e+00    5.142518e-01   6.814471e-03
  3.526783e+00    5.036336e-01   6.756982e-03
  3.528994e+00    5.113521e-01   6.820749e-03
  3.531204e+00    5.264040e-01   6.932907e-03
  3.533414e+00    5.524784e-01   7.114927e-03
  3.535625e+00    5.585310e-01   7.166532e-03
  3.537835e+00    5.488666e-01   7.116556e-03
  3.540046e+00    5.449925e-01   7.100405e-03
  3.542256e+00    5.410270e-01   7.082090e-03
  3.544467e+00    5.487912e-01   7.140434e-03
  3.546677e+00    5.521967e-01   7.170267e-03
  3.548888e+00    5.383862e-01   7.087529e-03
  3.551098e+00    5.496964e-01   7.168976e-03
  3.553309e+00    5.357715e-01   7.085756e-03
  3.555519e+00    5.356618e-01   7.096319e-03
  3.557729e+00    5.292351e-01   7.065288e-03
  3.559940e+00    5.335261e-01   7.105360e-03
  3.562150e+00    5.177768e-01   7.011235e-03
  3.564361e+00    5.262955e-01   7.081870e-03
  3.566571e+00    5.338429e-01   7.146248e-03
  3.568782e+00    5.402589e-01   7.203270e-03
  3.570992e+00    5.393779e-01   7.211171e-03
  3.573203e+00    5.466284e-01   7.273767e-03
  3.575413e+00    5.346370e-01   7.207304e-03
  3.577624e+00    5.501059e-01   7.325124e-03
  3.579834e+00    5.531126e-01   7.359204e-03
  3.582045e+00    5.452426e-01   7.320867e-03
  3.584255e+00    5.266640e-01   7.208949e-03
  3.586465e+00    5.267308e-01   7.223249e-03
  3.588676e+00    5.234869e-01   7.214967e-03
  3.590886e+00    5.232509e-01   7.226903e-03
  3.593097e+00    5.351614e-01   7.323164e-03
  3.595307e+00    5.281449e-01   7.288850e-03
  3.597518e+00    5.232086e-01   7.268760e-03
  3.599728e+00    5.413110e-01   7.407557e-03
  3.601939e+00    5.450969e-01   7.447661e-03
  3.604149e+00    5.490059e-01   7.488875e-03
  3.606360e+00    5.283183e-01   7.360522e-03
  3.608570e+00    5.315116e-01   7.396766e-03
  3.610780e+00    5.585552e-01   7.593967e-03
  3.612991e+00    5.546019e-01   7.577220e-03
  3.615201e+00    5.359282e-01   7.458394e-03
  3.617412e+00    5.379043e-01   7.479401e-03
  3.619622e+00    5.319528e-01   7.443849e-03
  3.621833e+00    5.372033e-01   7.487235e-03
  3.624043e+00    5.337288e-01   7.472469e-03
  3.626254e+00    5.391815e-01   7.520296e-03
  3.628464e+00    5.498642e-01   7.605563e-03
  3.630675e+00    5.518210e-01   7.633440e-03
  3.632885e+00    5.504779e-01   7.638830e-03
  3.635095e+00    5.380188e-01   7.566325e-03
  3.637306e+00    5.409005e-01   7.601033e-03
  3.639516e+00    5.399153e-01   7.608732e-03
  3.641727e+00    5.372653e-01   7.604656e-03
  3.643937e+00    5.483683e-01   7.697578e-03
  3.646148e+00    5.462036e-01   7.697188e-03
  3.648358e+00    5.337893e-01   7.624032e-03
  3.650569e+00    5.596646e-01   7.821778e-03
  3.652779e+00    5.483443e-01   7.757224e-03
  3.654990e+00    5.418032e-01   7.725865e-03
  3.657200e+00    5.293638e-01   7.651498e-03
  3.659410e+00    5.316817e-01   7.683203e-03
  3.661621e+00    5.170965e-01   7.591962e-03
  3.663831e+00    5.294893e-01   7.697498e-03
  3.666042e+00    5.214297e-01   7.653697e-03
  3.668252e+00    5.325994e-01   7.750478e-03
  3.670463e+00    5.375711e-01   7.801938e-03
  3.672673e+00    5.298877e-01   7.761377e-03
  3.674884e+00    5.242066e-01   7.734944e-03
  3.677094e+00    5.167093e-01   7.694763e-03
  3.679305e+00    5.404681e-01   7.885358e-03
  3.681515e+00    5.170547e-01   7.728118e-03
  3.683726e+00    5.357731e-01   7.882617e-03
  3.685936e+00    5.355186e-01   7.896580e-03
  3.688146e+00    5.326595e-01   7.891321e-03
  3.690357e+00    5.385578e-01   7.950990e-03
  3.692567e+00    5.232857e-01   7.853510e-03
  3.694778e+00    5.329093e-01   7.941536e-03
  3.696988e+00    5.305862e-01   7.940263e-03
  3.699199e+00    5.235352e-01   7.903544e-03
  3.701409e+00    5.166777e-01   7.867827e-03
  3.703620e+00    5.344698e-01   8.018618e-03
  3.705830e+00    5.439492e-01   8.106126e-03
  3.708041e+00    5.495333e-01   8.164648e-03
  3.710251e+00    5.173727e-01   7.938731e-03
  3.712461e+00    5.309091e-01   8.058765e-03
  3.714672e+00    5.227627e-01   8.013474e-03
  3.716882e+00    5.099673e-01   7.931318e-03
  3.719093e+00    5.078011e-01   7.931398e-03
  3.721303e+00    5.139138e-01   7.995790e-03
  3.723514e+00    5.332795e-01   8.162620e-03
  3.725724e+00    5.252811e-01   8.118453e-03
  3.727935e+00    5.149376e-01   8.055494e-03
  3.730145e+00    5.204281e-01   8.115728e-03
  3.732356e+00    5.218752e-01   8.144611e-03
  3.734566e+00    5.243195e-01   8.181413e-03
  3.736776e+00    4.968049e-01   7.981235e-03
  3.738987e+00    5.065189e-01   8.076503e-03
  3.741197e+00    5.063851e-01   8.093334e-03
  3.743408e+00    4.968461e-01   8.034518e-03
  3.745618e+00    5.057487e-01   8.124319e-03
  3.747829e+00    5.023855e-01   8.115254e-03
  3.750039e+00    4.959902e-01   8.081477e-03
  3.752250e+00    5.141121e-01   8.246318e-03
  3.754460e+00    5.115703e-01   8.244495e-03
  3.756671e+00    4.983260e-01   8.155666e-03
  3.758881e+00    5.047770e-01   8.226858e-03
  3.761091e+00    5.076210e-01   8.269101e-03
  3.763302e+00    5.068321e-01   8.281781e-03
  3.765512e+00    5.017340e-01   8.259082e-03
  3.767723e+00    5.378101e-01   8.570859e-03
  3.769933e+00    5.158842e-01   8.413792e-03
  3.772144e+00    5.071954e-01   8.362276e-03
  3.774354e+00    5.215032e-01   8.499537e-03
  3.776565e+00    5.076430e-01   8.405750e-03
  3.778775e+00    5.006775e-01   8.367726e-03
  3.780986e+00    5.054304e-01   8.427718e-03
  3.783196e+00    5.058803e-01   8.451720e-03
  3.785407e+00    5.093284e-01   8.501081e-03
  3.787617e+00    4.910810e-01   8.367863e-03
  3.789827e+00    5.050262e-01   8.506481e-03
  3.792038e+00    4.999112e-01   8.484050e-03
  3.794248e+00    5.096678e-01   8.587781e-03
  3.796459e+00    5.159993e-01   8.662635e-03
  3.798669e+00    5.108198e-01   8.640658e-03
  3.800880e+00    5.147739e-01   8.695751e-03
  3.803090e+00    4.880070e-01   8.488277e-03
  3.805301e+00    4.988335e-01   8.603864e-03
  3.807511e+00    5.189153e-01   8.797794e-03
  3.809722e+00    5.232428e-01   8.857221e-03
  3.811932e+00    5.158190e-01   8.816710e-03
  3.814142e+00    4.655292e-01   8.397977e-03
  3.816353e+00    5.012505e-01   8.737054e-03
  3.818563e+00    5.098401e-01   8.835035e-03
  3.820774e+00    5.053240e-01   8.819138e-03
  3.822984e+00    4.911786e-01   8.718049e-03
  3.825195e+00    4.795030e-01   8.637083e-03
  3.827405e+00    4.796675e-01   8.661964e-03
  3.829616e+00    4.990126e-01   8.859036e-03
  3.831826e+00    5.169192e-01   9.041236e-03
  3.834037e+00    4.765894e-01   8.705391e-03
  3.836247e+00    4.820528e-01   8.779429e-03
  3.838457e+00    4.735778e-01   8.726350e-03
  3.840668e+00    5.154821e-01   9.129965e-03
  3.842878e+00    4.891140e-01   8.918632e-03
  3.845089e+00    5.158592e-01   9.185419e-03
  3.847299e+00    4.817827e-01   8.902258e-03
  3.849510e+00    5.031337e-01   9.123424e-03
  3.851720e+00    4.915549e-01   9.039207e-03
  3.853931e+00    5.006087e-01   9.141110e-03
  3.856141e+00    5.190407e-01   9.327391e-03
  3.858352e+00    5.234237e-01   9.386502e-03
  3.860562e+00    5.034846e-01   9.225475e-03
  3.862772e+00    4.937045e-01   9.154988e-03
  3.864983e+00    5.061721e-01   9.289835e-03
  3.867193e+00    4.917126e-01   9.175835e-03
  3.869404e+00    4.936442e-01   9.213762e-03
  3.871614e+00    4.911807e-01   9.210587e-03
  3.873825e+00    5.225604e-01   9.521194e-03
  3.876035e+00    4.944538e-01   9.282196e-03
  3.878246e+00    5.185760e-01   9.532386e-03
  3.880456e+00    5.157425e-01   9.535928e-03
  3.882667e+00    5.255029e-01   9.656114e-03
  3.884877e+00    5.148034e-01   9.587727e-03
  3.887087e+00    5.328580e-01   9.785552e-03
  3.889298e+00    5.535130e-01   1.000567e-02
  3.891508e+00    4.979744e-01   9.521191e-03
  3.893719e+00    5.213788e-01   9.774250e-03
  3.895929e+00    5.274636e-01   9.863751e-03
  3.898140e+00    4.969451e-01   9.606064e-03
  3.900350e+00    4.974804e-01   9.643595e-03
  3.902561e+00    4.790758e-01   9.495476e-03
  3.904771e+00    5.065017e-01   9.796884e-03
  3.906982e+00    4.824061e-01   9.593925e-03
  3.909192e+00    5.015536e-01   9.816365e-03
  3.911403e+00    4.951725e-01   9.787969e-03
  3.913613e+00    4.945956e-01   9.816749e-03
  3.915823e+00    4.753163e-01   9.657817e-03
  3.918034e+00    4.810022e-01   9.750452e-03
  3.920244e+00    4.752393e-01   9.727050e-03
  3.922455e+00    4.926028e-01   9.939440e-03
  3.924665e+00    5.010167e-01   1.006084e-02
  3.926876e+00    4.866656e-01   9.952798e-03
  3.929086e+00    4.742683e-01   9.862062e-03
  3.931297e+00    4.757698e-01   9.912076e-03
  3.933507e+00    4.980741e-01   1.017089e-02
  3.935718e+00    4.974651e-01   1.019378e-02
  3.937928e+00    5.098106e-01   1.034964e-02
  3.940138e+00    4.654805e-01   9.918053e-03
  3.942349e+00    5.284327e-01   1.059854e-02
  3.944559e+00    5.158409e-01   1.050242e-02
  3.946770e+00    4.999911e-01   1.037045e-02
  3.948980e+00    4.826911e-01   1.022004e-02
  3.951191e+00    4.968023e-01   1.039947e-02
  3.953401e+00    4.928012e-01   1.038907e-02
  3.955612e+00    4.816198e-01   1.030204e-02
  3.957822e+00    4.935782e-01   1.046109e-02
  3.960033e+00    4.945332e-01   1.050416e-02
  3.962243e+00    4.855523e-01   1.044114e-02
  3.964453e+00    4.948184e-01   1.057367e-02
  3.966664e+00    5.175655e-01   1.084856e-02
  3.968874e+00    4.965329e-01   1.065449e-02
  3.971085e+00    5.125558e-01   1.084753e-02
  3.973295e+00    5.214621e-01   1.096367e-02
  3.975506e+00    4.959598e-01   1.071401e-02
  3.977716e+00    5.298120e-01   1.109670e-02
  3.979927e+00    5.238643e-01   1.105713e-02
  3.982137e+00    4.776817e-01   1.058074e-02
  3.984348e+00    4.522756e-01   1.031721e-02
  3.986558e+00    5.032287e-01   1.090554e-02
  3.988768e+00    4.955663e-01   1.084557e-02
  3.990979e+00    5.028574e-01   1.094815e-02
  3.993189e+00    4.745930e-01   1.065878e-02
  3.995400e+00    4.943159e-01   1.090186e-02
  3.997610e+00    5.212919e-01   1.122631e-02
  3.999821e+00    4.878781e-01   1.089817e-02
  4.002031e+00    4.927514e-01   1.099119e-02
  4.004242e+00    4.893925e-01   1.099231e-02
  4.006452e+00    4.796617e-01   1.092164e-02
  4.008663e+00    4.872519e-01   1.104785e-02
  4.010873e+00    4.655646e-01   1.083840e-02
  4.013084e+00    4.804183e-01   1.105057e-02
  4.015294e+00    4.677286e-01   1.094400e-02
  4.017504e+00    4.856694e-01   1.119378e-02
  4.019715e+00    4.812452e-01   1.118514e-02
  4.021925e+00    4.754066e-01   1.115958e-02
  4.024136e+00    4.824121e-01   1.128521e-02
  4.026346e+00    5.032596e-01   1.157142e-02
  4.028557e+00    4.564443e-01   1.106319e-02
  4.030767e+00    4.698794e-01   1.126974e-02
  4.032978e+00    5.117377e-01   1.180857e-02
  4.035188e+00    5.147691e-01   1.189127e-02
  4.037399e+00    4.880453e-01   1.162624e-02
  4.039609e+00    4.688995e-01   1.144294e-02
  4.041819e+00    4.834295e-01   1.166760e-02
  4.044030e+00    4.604158e-01   1.143523e-02
  4.046240e+00    4.859908e-01   1.179861e-02
  4.048451e+00    4.603384e-01   1.153258e-02
  4.050661e+00    4.970924e-01   1.203639e-02
  4.052872e+00    4.829699e-01   1.191701e-02
  4.055082e+00    4.711825e-01   1.182350e-02
  4.057293e+00    4.495747e-01   1.160103e-02
  4.059503e+00    4.944611e-01   1.222175e-02
  4.061714e+00    4.465619e-01   1.166919e-02
  4.063924e+00    4.510823e-01   1.178284e-02
  4.066134e+00    4.626039e-01   1.198862e-02
  4.068345e+00    4.599593e-01   1.201203e-02
  4.070555e+00    4.486496e-01   1.192047e-02
  4.072766e+00    4.732871e-01   1.230375e-02
  4.074976e+00    4.711838e-01   1.233761e-02
  4.077187e+00    4.697449e-01   1.238001e-02
  4.079397e+00    4.733762e-01   1.249118e-02
  4.081608e+00    4.648472e-01   1.244254e-02
  4.083818e+00    4.908821e-01   1.285275e-02
  4.086029e+00    4.787487e-01   1.275989e-02
  4.088239e+00    4.725215e-01   1.274479e-02
  4.090449e+00    4.818362e-01   1.293971e-02
  4.092660e+00    4.765375e-01   1.293906e-02
  4.094870e+00    4.899406e-01   1.319257e-02
  4.097081e+00    5.152532e-01   1.360352e-02
  4.099291e+00    4.860227e-01   1.326652e-02
  4.101502e+00    5.096369e-01   1.363572e-02
  4.103712e+00    4.567825e-01   1.295742e-02
  4.105923e+00    4.915821e-01   1.349392e-02
  4.108133e+00    4.357180e-01   1.275300e-02
  4.110344e+00    4.571480e-01   1.311284e-02
  4.112554e+00    4.728186e-01   1.338842e-02
  4.114764e+00    4.551100e-01   1.318811e-02
  4.116975e+00    4.711854e-01   1.347193e-02
  4.119185e+00    4.497469e-01   1.321527e-02
  4.121396e+00    4.873934e-01   1.381407e-02
  4.123606e+00    4.781408e-01   1.373842e-02
  4.125817e+00    4.790608e-01   1.380934e-02
  4.128027e+00    4.484733e-01   1.341734e-02
  4.130238e+00    4.989168e-01   1.421258e-02
  4.132448e+00    5.335851e-01   1.476184e-02
  4.134659e+00    5.259987e-01   1.471976e-02
  4.136869e+00    4.492664e-01   1.366442e-02
  4.139080e+00    4.796698e-01   1.418276e-02
  4.141290e+00    4.737837e-01   1.415799e-02
  4.143500e+00    4.836432e-01   1.437034e-02
  4.145711e+00    4.642810e-01   1.414577e-02
  4.147921e+00    4.659411e-01   1.423580e-02
  4.150132e+00    4.807524e-01   1.452954e-02
  4.152342e+00    5.238807e-01   1.524054e-02
  4.154553e+00    4.708849e-01   1.451804e-02
  4.156763e+00    4.633547e-01   1.447264e-02
  4.158974e+00    4.632773e-01   1.454407e-02
  4.161184e+00    4.826451e-01   1.491868e-02
  4.163395e+00    4.783622e-01   1.492819e-02
  4.165605e+00    4.607228e-01   1.472647e-02
  4.167815e+00    5.031655e-01   1.547027e-02
  4.170026e+00    5.165497e-01   1.575726e-02
  4.172236e+00    4.871986e-01   1.538570e-02
  4.174447e+00    4.599409e-01   1.503052e-02
  4.176657e+00    4.822215e-01   1.547440e-02
  4.178868e+00    4.293966e-01   1.468480e-02
  4.181078e+00    4.621874e-01   1.532106e-02
  4.183289e+00    4.973619e-01   1.598432e-02
  4.185499e+00    5.083817e-01   1.625597e-02
  4.187710e+00    4.690275e-01   1.570538e-02
  4.189920e+00    4.882024e-01   1.611969e-02
  4.192130e+00    4.509635e-01   1.558768e-02
  4.194341e+00    4.090471e-01   1.493630e-02
  4.196551e+00    5.089808e-01   1.676663e-02
  4.198762e+00    4.927998e-01   1.660306e-02
  4.200972e+00    4.336450e-01   1.567557e-02
  4.203183e+00    4.302246e-01   1.571622e-02
  4.205393e+00    5.075951e-01   1.718471e-02
  4.207604e+00    5.179904e-01   1.747821e-02
  4.209814e+00    5.165164e-01   1.757316e-02
  4.212025e+00    4.666913e-01   1.682240e-02
  4.214235e+00    4.401418e-01   1.645281e-02
  4.216445e+00    5.134060e-01   1.789790e-02
  4.218656e+00    4.304147e-01   1.651036e-02
  4.220866e+00    5.106347e-01   1.811633e-02
  4.223077e+00    4.793603e-01   1.768782e-02
  4.225287e+00    4.782573e-01   1.780641e-02
  4.227498e+00    5.094607e-01   1.852243e-02
  4.229708e+00    4.658536e-01   1.785609e-02
  4.231919e+00    4.088531e-01   1.686619e-02
  4.234129e+00    4.897633e-01   1.861474e-02
  4.236340e+00    4.503224e-01   1.800205e-02
  4.238550e+00    4.562528e-01   1.828032e-02
  4.240761e+00    4.874170e-01   1.906126e-02
  4.242971e+00    4.500316e-01   1.848342e-02
  4.245181e+00    4.458103e-01   1.856906e-02
  4.247392e+00    5.012484e-01   1.987424e-02
  4.249602e+00    4.447791e-01   1.890699e-02
  4.251813e+00    4.930153e-01   2.010209e-02
  4.254023e+00    4.594714e-01   1.960201e-02
  4.256234e+00    4.957231e-01   2.057791e-02
  4.258444e+00    4.747670e-01   2.034889e-02
  4.260655e+00    4.930167e-01   2.096448e-02
  4.262865e+00    5.208890e-01   2.179332e-02
  4.265076e+00    4.603422e-01   2.072072e-02
  4.267286e+00    4.475484e-01   2.067286e-02
  4.269496e+00    3.922479e-01   1.958995e-02
  4.271707e+00    4.308087e-01   2.078373e-02
  4.273917e+00    3.930436e-01   2.010852e-02
  4.276128e+00    4.493323e-01   2.178562e-02
  4.278338e+00    4.954545e-01   2.318249e-02
  4.280549e+00    4.705550e-01   2.291593e-02
  4.282759e+00    4.565367e-01   2.289700e-02
  4.284970e+00    4.657180e-01   2.346828e-02
  4.287180e+00    4.178436e-01   2.249506e-02
  4.289391e+00    4.315089e-01   2.303187e-02
  4.291601e+00    4.925541e-01   2.480418e-02
  4.293811e+00    4.168933e-01   2.299766e-02
  4.296022e+00    4.432948e-01   2.390524e-02
  4.298232e+00    4.981052e-01   2.555223e-02
  4.300443e+00    4.622978e-01   2.482054e-02
  4.302653e+00    4.502508e-01   2.470619e-02
  4.304864e+00    4.606832e-01   2.520759e-02
  4.307074e+00    4.440571e-01   2.497029e-02
  4.309285e+00    5.778722e-01   2.874524e-02
  4.311495e+00    4.701877e-01   2.617141e-02
  4.313706e+00    4.382872e-01   2.550505e-02
  4.315916e+00    4.113660e-01   2.495214e-02
  4.318126e+00    4.880466e-01   2.744794e-02
  4.320337e+00    4.601972e-01   2.692234e-02
  4.322547e+00    4.952019e-01   2.822405e-02
  4.324758e+00    5.388904e-01   2.974921e-02
  4.326968e+00    4.327469e-01   2.695896e-02
  4.329179e+00    4.655731e-01   2.827108e-02
  4.331389e+00    4.996576e-01   2.962506e-02
  4.333600e+00    4.280419e-01   2.774822e-02
  4.335810e+00    2.854479e-01   2.292806e-02
  4.338021e+00    4.959994e-01   3.060993e-02
  4.340231e+00    4.184807e-01   2.847114e-02
  4.342442e+00    3.915179e-01   2.790671e-02
  4.344652e+00    3.696085e-01   2.748378e-02
  4.346862e+00    3.781189e-01   2.818630e-02
  4.349073e+00    5.053576e-01   3.306131e-02
  4.351283e+00    5.051786e-01   3.354875e-02
  4.353494e+00    4.464717e-01   3.202563e-02
  4.355704e+00    4.187294e-01   3.151526e-02
  4.357915e+00    4.040697e-01   3.147371e-02
  4.360125e+00    5.233181e-01   3.642890e-02
  4.362336e+00    4.351323e-01   3.382448e-02
  4.364546e+00    3.531905e-01   3.102831e-02
  4.366757e+00    4.203447e-01   3.452087e-02
  4.368967e+00    4.269677e-01   3.548686e-02
  4.371177e+00    4.934805e-01   3.896352e-02
  4.373388e+00    4.264806e-01   3.703203e-02
  4.375598e+00    4.377975e-01   3.837495e-02
  4.377809e+00    5.489713e-01   4.405910e-02
  4.380019e+00    3.591577e-01   3.653451e-02
  4.382230e+00    4.016937e-01   3.971648e-02
  4.384440e+00    1.670004e-01   2.634286e-02
  4.386651e+00    4.123703e-01   4.267312e-02
  4.388861e+00    5.542451e-01   5.113232e-02
  4.391072e+00    5.139509e-01   5.096828e-02
  4.393282e+00    6.876243e-01   6.123372e-02
  4.395492e+00    5.128494e-01   5.508283e-02
  4.397703e+00    3.815714e-01   4.968406e-02
  4.399913e+00    4.044278e-01   5.373490e-02
  4.402124e+00    1.417717e-01   3.362432e-02
  4.404334e+00    5.336401e-01   6.933357e-02
  4.406545e+00    4.794686e-01   7.061221e-02
  4.408755e+00    6.732233e-01   9.074776e-02
  4.410966e+00    5.067557e-01   8.713959e-02
  4.413176e+00    1.365137e-01   5.119190e-02
  4.415387e+00   -4.313591e-01            nan
  4.417597e+00   -2.027282e+00            nan
  4.419807e+00   -3.766224e-01            nan
