# == pyFAI calibration ==
# Distance Sample to Detector: 0.216 m
# PONI: 1.166e-01, 1.308e-01 m
# Rotations: 0.000000 0.000000 0.000000 rad
# 
# == Fit2d calibration ==
# Distance Sample-beamCenter: 216.000 mm
# Center: x=1744.293, y=1555.000 pix
# Tilt: 0.000 deg  TiltPlanRot: 0.000 deg
# 
# Detector Eiger 9M	 PixelSize= 7.500e-05, 7.500e-05 m
#    Detector has a mask: True 
#    Detector has a dark current: False 
#    detector has a flat field: False 
# 
# Wavelength: 9.8e-11 m
# Mask applied: from detector
# Dark current applied: False
# Flat field applied: False
# Polarization factor: None
# Normalization factor: 1.0
# 
# Headers of the input frame:
# {
# "_array_data.header_convention": "SLS_1.0",
# "_array_data.header_contents": "# Detector: Dectris Eiger 9M, S/N E-18-0102\r\n# Pixel_size 75e-6 m x 75e-6 m\r\n# Silicon sensor, thickness 0.000450 m\r\n# Exposure_time 0.024997 s\r\n# Exposure_period 0.025000 s\r\n# Count_cutoff 62318 counts\r\n# Wavelength 0.980106 A\r\n# Detector_distance 0.215992 m\r\n# Beam_xy (1555, 1744) pixels\r\n# Start_angle 0.000000 deg.\r\n# Angle_increment 0.000000 deg.",
# "Content-Type": "application/octet-stream;",
# "conversions": "x-CBF_BYTE_OFFSET",
# "Content-Transfer-Encoding": "BINARY",
# "X-Binary-Size": "10166596",
# "X-Binary-ID": "1",
# "X-Binary-Element-Type": "signed 32-bit integer",
# "X-Binary-Element-Byte-Order": "LITTLE_ENDIAN",
# "Content-MD5": "a7ldIJE7Oh0ANesxhQzcqA==",
# "X-Binary-Number-of-Elements": "10166590",
# "X-Binary-Size-Fastest-Dimension": "3110",
# "X-Binary-Size-Second-Dimension": "3269",
# "X-Binary-Size-Padding": "4095"
# }
# --> H:/Proxima2a_2019-04-05/RAW_DATA/C5_gel17_position5/C5_mesh_1_data.cbf/C5_mesh_1_data.cbf000185.dat
#        q_A^-1              I           sigma 
  1.105228e-03    1.465122e+00   6.549736e-01
  3.315685e-03    1.412238e+00   3.909304e-01
  5.526141e-03    1.466189e+00   3.080116e-01
  7.736597e-03    1.469619e+00   2.605089e-01
  9.947054e-03    1.371897e+00   2.218898e-01
  1.215751e-02    1.383497e+00   2.014919e-01
  1.436797e-02    1.560350e+00   1.968280e-01
  1.657842e-02    1.590145e+00   1.849536e-01
  1.878888e-02    1.440528e+00   1.653577e-01
  2.099934e-02    1.447333e+00   1.568145e-01
  2.320979e-02    1.579695e+00   1.558186e-01
  2.542025e-02    1.286635e+00   1.343808e-01
  2.763070e-02    1.286103e+00   1.288630e-01
  2.984116e-02    1.365173e+00   1.277528e-01
  3.205162e-02    1.262884e+00   1.185681e-01
  3.426207e-02    1.312217e+00   1.168901e-01
  3.647253e-02    1.242700e+00   1.102486e-01
  3.868299e-02    1.287059e+00   1.089544e-01
  4.089344e-02    1.458327e+00   1.127997e-01
  4.310390e-02    1.381944e+00   1.069471e-01
  4.531436e-02    1.452436e+00   1.069336e-01
  4.752481e-02    1.473378e+00   1.051662e-01
  4.973527e-02    1.456836e+00   1.022250e-01
  5.194572e-02    1.416686e+00   9.863698e-02
  5.415618e-02    1.507532e+00   9.964878e-02
  5.636664e-02    1.416126e+00   9.467085e-02
  5.857709e-02    1.323057e+00   8.976434e-02
  6.078755e-02    1.396827e+00   9.053753e-02
  6.299801e-02    1.444544e+00   9.044025e-02
  6.520846e-02    1.463114e+00   8.946431e-02
  6.741892e-02    1.498937e+00   8.905157e-02
  6.962938e-02    1.588575e+00   9.021321e-02
  7.183983e-02    1.496853e+00   8.621080e-02
  7.405029e-02    1.356157e+00   8.082324e-02
  7.626074e-02    1.302536e+00   7.805222e-02
  7.847120e-02    1.376932e+00   7.910977e-02
  8.068166e-02    1.481570e+00   8.092810e-02
  8.289211e-02    1.415646e+00   7.804479e-02
  8.510257e-02    1.488887e+00   7.899147e-02
  8.731303e-02    1.502577e+00   7.833993e-02
  8.952348e-02    1.477455e+00   7.671931e-02
  9.173394e-02    1.572251e+00   7.817986e-02
  9.394439e-02    1.512240e+00   7.576343e-02
  9.615485e-02    1.537844e+00   7.551719e-02
  9.836531e-02    1.687781e+00   7.821687e-02
  1.005758e-01    1.567442e+00   7.454444e-02
  1.027862e-01    1.485861e+00   7.179214e-02
  1.049967e-01    1.500381e+00   7.137741e-02
  1.072071e-01    1.587819e+00   7.266598e-02
  1.094176e-01    1.634367e+00   7.297385e-02
  1.116280e-01    1.609596e+00   7.169654e-02
  1.138385e-01    1.442641e+00   6.721289e-02
  1.160490e-01    1.456261e+00   6.688233e-02
  1.182594e-01    1.671397e+00   7.097822e-02
  1.204699e-01    1.598993e+00   6.878345e-02
  1.226803e-01    1.590549e+00   6.797794e-02
  1.248908e-01    1.521682e+00   6.589819e-02
  1.271012e-01    1.508092e+00   6.502903e-02
  1.293117e-01    1.550199e+00   6.536383e-02
  1.315222e-01    1.576208e+00   6.535216e-02
  1.337326e-01    1.595322e+00   6.520034e-02
  1.359431e-01    1.541927e+00   6.413746e-02
  1.381535e-01    1.488434e+00   6.386095e-02
  1.403640e-01    1.569121e+00   6.585214e-02
  1.425744e-01    1.632414e+00   6.727445e-02
  1.447849e-01    1.530151e+00   6.514815e-02
  1.469953e-01    1.495654e+00   6.436925e-02
  1.492058e-01    1.526171e+00   6.494705e-02
  1.514163e-01    1.607052e+00   6.653513e-02
  1.536267e-01    1.592417e+00   6.610218e-02
  1.558372e-01    1.596686e+00   6.604459e-02
  1.580476e-01    1.579311e+00   6.552488e-02
  1.602581e-01    1.576700e+00   6.530441e-02
  1.624685e-01    1.585527e+00   6.530765e-02
  1.646790e-01    1.630939e+00   6.604613e-02
  1.668895e-01    1.583634e+00   6.489327e-02
  1.690999e-01    1.716781e+00   6.736335e-02
  1.713104e-01    1.694724e+00   6.672152e-02
  1.735208e-01    1.697035e+00   6.655935e-02
  1.757313e-01    1.771905e+00   6.779861e-02
  1.779417e-01    1.895094e+00   6.988712e-02
  1.801522e-01    1.944768e+00   7.057167e-02
  1.823626e-01    1.907819e+00   6.966535e-02
  1.845731e-01    1.889035e+00   6.909700e-02
  1.867836e-01    1.946179e+00   6.989762e-02
  1.889940e-01    1.946366e+00   6.967258e-02
  1.912045e-01    1.847806e+00   6.765892e-02
  1.934149e-01    1.938596e+00   6.906919e-02
  1.956254e-01    2.075430e+00   7.122956e-02
  1.978358e-01    1.998082e+00   6.965014e-02
  2.000463e-01    2.115935e+00   7.143728e-02
  2.022568e-01    2.014601e+00   6.947692e-02
  2.044672e-01    2.017811e+00   6.929402e-02
  2.066777e-01    2.059187e+00   6.976853e-02
  2.088881e-01    2.064998e+00   6.963834e-02
  2.110986e-01    1.967767e+00   6.774597e-02
  2.133090e-01    1.992369e+00   6.794655e-02
  2.155195e-01    1.953696e+00   6.706072e-02
  2.177300e-01    1.913991e+00   6.585430e-02
  2.199404e-01    2.008545e+00   6.568375e-02
  2.221509e-01    1.972560e+00   6.402386e-02
  2.243613e-01    1.975204e+00   6.325455e-02
  2.265718e-01    2.005657e+00   6.303775e-02
  2.287822e-01    2.028260e+00   6.276452e-02
  2.309927e-01    2.088209e+00   6.310515e-02
  2.332031e-01    2.085964e+00   6.253143e-02
  2.354136e-01    2.057295e+00   6.159690e-02
  2.376241e-01    2.149152e+00   6.246836e-02
  2.398345e-01    2.146049e+00   6.196127e-02
  2.420450e-01    2.109531e+00   6.099278e-02
  2.442554e-01    2.214054e+00   6.205508e-02
  2.464659e-01    2.207406e+00   6.154585e-02
  2.486763e-01    2.188175e+00   6.087438e-02
  2.508868e-01    2.136855e+00   5.977680e-02
  2.530973e-01    2.093575e+00   5.880152e-02
  2.553077e-01    2.034235e+00   5.761059e-02
  2.575182e-01    2.086184e+00   5.799640e-02
  2.597286e-01    2.118080e+00   5.809836e-02
  2.619391e-01    2.097816e+00   5.748692e-02
  2.641495e-01    2.059062e+00   5.663823e-02
  2.663600e-01    2.087348e+00   5.671232e-02
  2.685704e-01    2.054589e+00   5.596055e-02
  2.707809e-01    2.075845e+00   5.595069e-02
  2.729914e-01    2.062946e+00   5.548593e-02
  2.752018e-01    2.012624e+00   5.451977e-02
  2.774123e-01    1.940865e+00   5.326553e-02
  2.796227e-01    1.940352e+00   5.299503e-02
  2.818332e-01    1.957269e+00   5.296003e-02
  2.840436e-01    1.987392e+00   5.310732e-02
  2.862541e-01    1.909711e+00   5.180883e-02
  2.884646e-01    2.000956e+00   5.278040e-02
  2.906750e-01    1.991525e+00   5.240621e-02
  2.928855e-01    1.957208e+00   5.171200e-02
  2.950959e-01    1.928358e+00   5.109367e-02
  2.973064e-01    1.938624e+00   5.099926e-02
  2.995168e-01    1.915502e+00   5.046460e-02
  3.017273e-01    1.865060e+00   4.957618e-02
  3.039377e-01    1.952564e+00   5.050371e-02
  3.061482e-01    1.962725e+00   5.041593e-02
  3.083587e-01    1.949100e+00   5.002317e-02
  3.105691e-01    1.880164e+00   4.892074e-02
  3.127796e-01    1.903649e+00   4.901836e-02
  3.149900e-01    1.924001e+00   4.907438e-02
  3.172005e-01    1.863686e+00   4.810154e-02
  3.194109e-01    1.861222e+00   4.787128e-02
  3.216214e-01    1.903540e+00   4.821491e-02
  3.238319e-01    1.906515e+00   4.806140e-02
  3.260423e-01    1.904001e+00   4.783841e-02
  3.282528e-01    1.829796e+00   4.671021e-02
  3.304632e-01    1.853979e+00   4.683574e-02
  3.326737e-01    1.840070e+00   4.647765e-02
  3.348841e-01    1.843459e+00   4.634006e-02
  3.370946e-01    1.787328e+00   4.545742e-02
  3.393050e-01    1.819019e+00   4.568493e-02
  3.415155e-01    1.790922e+00   4.516030e-02
  3.437260e-01    1.764139e+00   4.465520e-02
  3.459364e-01    1.793761e+00   4.486197e-02
  3.481469e-01    1.811818e+00   4.492265e-02
  3.503573e-01    1.845667e+00   4.517518e-02
  3.525678e-01    1.773462e+00   4.412488e-02
  3.547782e-01    1.799862e+00   4.429141e-02
  3.569887e-01    1.849561e+00   4.473969e-02
  3.591992e-01    1.808005e+00   4.407771e-02
  3.614096e-01    1.815211e+00   4.401232e-02
  3.636201e-01    1.819999e+00   4.391547e-02
  3.658305e-01    1.736635e+00   4.275158e-02
  3.680410e-01    1.773959e+00   4.305993e-02
  3.702514e-01    1.840100e+00   4.370784e-02
  3.724619e-01    1.773894e+00   4.276821e-02
  3.746724e-01    1.775081e+00   4.263977e-02
  3.768828e-01    1.795158e+00   4.273594e-02
  3.790933e-01    1.762136e+00   4.220308e-02
  3.813037e-01    1.773670e+00   4.220244e-02
  3.835142e-01    1.795538e+00   4.232234e-02
  3.857246e-01    1.766426e+00   4.184199e-02
  3.879351e-01    1.802176e+00   4.212650e-02
  3.901455e-01    1.762512e+00   4.152770e-02
  3.923560e-01    1.776177e+00   4.155589e-02
  3.945665e-01    1.712993e+00   4.068064e-02
  3.967769e-01    1.832380e+00   4.194259e-02
  3.989874e-01    1.793672e+00   4.136768e-02
  4.011978e-01    1.798201e+00   4.129248e-02
  4.034083e-01    1.761467e+00   4.074309e-02
  4.056187e-01    1.791873e+00   4.096663e-02
  4.078292e-01    1.851232e+00   4.151364e-02
  4.100397e-01    1.780012e+00   4.058299e-02
  4.122501e-01    1.717409e+00   3.974367e-02
  4.144606e-01    1.745851e+00   3.995259e-02
  4.166710e-01    1.813692e+00   4.060034e-02
  4.188815e-01    1.843430e+00   4.081094e-02
  4.210919e-01    1.819919e+00   4.043102e-02
  4.233024e-01    1.807180e+00   4.017077e-02
  4.255128e-01    1.840410e+00   4.042121e-02
  4.277233e-01    1.832727e+00   4.022087e-02
  4.299338e-01    1.771540e+00   3.943000e-02
  4.321442e-01    1.785643e+00   3.947334e-02
  4.343547e-01    1.825408e+00   3.979761e-02
  4.365651e-01    1.744896e+00   3.879949e-02
  4.387756e-01    1.721545e+00   3.843109e-02
  4.409860e-01    1.723835e+00   3.835009e-02
  4.431965e-01    1.750948e+00   3.854363e-02
  4.454070e-01    1.744853e+00   3.836945e-02
  4.476174e-01    1.723751e+00   3.803200e-02
  4.498279e-01    1.775841e+00   3.849733e-02
  4.520383e-01    1.768656e+00   3.831397e-02
  4.542488e-01    1.714251e+00   3.761837e-02
  4.564592e-01    1.717809e+00   3.755634e-02
  4.586697e-01    1.756373e+00   3.787478e-02
  4.608801e-01    1.709444e+00   3.726528e-02
  4.630906e-01    1.694989e+00   3.700913e-02
  4.653011e-01    1.732911e+00   3.732242e-02
  4.675115e-01    1.719314e+00   3.707782e-02
  4.697220e-01    1.708238e+00   3.686144e-02
  4.719324e-01    1.681800e+00   3.648047e-02
  4.741429e-01    1.725325e+00   3.685428e-02
  4.763533e-01    1.724600e+00   3.675210e-02
  4.785638e-01    1.732152e+00   3.673732e-02
  4.807743e-01    1.716653e+00   3.647958e-02
  4.829847e-01    1.723646e+00   3.646147e-02
  4.851952e-01    1.715899e+00   3.628739e-02
  4.874056e-01    1.737671e+00   3.642479e-02
  4.896161e-01    1.718791e+00   3.613655e-02
  4.918265e-01    1.709688e+00   3.595122e-02
  4.940370e-01    1.687689e+00   3.563098e-02
  4.962475e-01    1.741435e+00   3.610450e-02
  4.984579e-01    1.693509e+00   3.551648e-02
  5.006684e-01    1.689431e+00   3.538720e-02
  5.028788e-01    1.659605e+00   3.498846e-02
  5.050893e-01    1.614006e+00   3.442051e-02
  5.072997e-01    1.698308e+00   3.522269e-02
  5.095102e-01    1.723771e+00   3.540080e-02
  5.117206e-01    1.670384e+00   3.476542e-02
  5.139311e-01    1.723709e+00   3.523238e-02
  5.161416e-01    1.676993e+00   3.466957e-02
  5.183520e-01    1.656810e+00   3.437841e-02
  5.205625e-01    1.674499e+00   3.448048e-02
  5.227729e-01    1.641017e+00   3.405441e-02
  5.249834e-01    1.631886e+00   3.388069e-02
  5.271938e-01    1.660606e+00   3.409777e-02
  5.294043e-01    1.743077e+00   3.485360e-02
  5.316148e-01    1.761439e+00   3.495646e-02
  5.338252e-01    1.763797e+00   3.489991e-02
  5.360357e-01    1.700758e+00   3.419256e-02
  5.382461e-01    1.695884e+00   3.406633e-02
  5.404566e-01    1.692084e+00   3.395069e-02
  5.426670e-01    1.775917e+00   3.470319e-02
  5.448775e-01    1.759420e+00   3.446447e-02
  5.470879e-01    1.788305e+00   3.466872e-02
  5.492984e-01    1.788751e+00   3.459596e-02
  5.515089e-01    1.775084e+00   3.438711e-02
  5.537193e-01    1.754455e+00   3.411140e-02
  5.559298e-01    1.751564e+00   3.400851e-02
  5.581402e-01    1.834942e+00   3.473247e-02
  5.603507e-01    1.766528e+00   3.400470e-02
  5.625611e-01    1.792172e+00   3.417626e-02
  5.647716e-01    1.788308e+00   3.406530e-02
  5.669821e-01    1.812951e+00   3.422526e-02
  5.691925e-01    1.794313e+00   3.397581e-02
  5.714030e-01    1.724361e+00   3.323593e-02
  5.736134e-01    1.729672e+00   3.321626e-02
  5.758239e-01    1.762828e+00   3.346154e-02
  5.780343e-01    1.696814e+00   3.275960e-02
  5.802448e-01    1.695584e+00   3.267916e-02
  5.824552e-01    1.647392e+00   3.214382e-02
  5.846657e-01    1.633581e+00   3.194207e-02
  5.868762e-01    1.614450e+00   3.168838e-02
  5.890866e-01    1.641704e+00   3.188842e-02
  5.912971e-01    1.638300e+00   3.178941e-02
  5.935075e-01    1.624575e+00   3.159054e-02
  5.957180e-01    1.615562e+00   3.143816e-02
  5.979284e-01    1.594431e+00   3.116811e-02
  6.001389e-01    1.619425e+00   3.134749e-02
  6.023494e-01    1.616722e+00   3.125773e-02
  6.045598e-01    1.640971e+00   3.142715e-02
  6.067703e-01    1.650520e+00   3.145508e-02
  6.089807e-01    1.666502e+00   3.154345e-02
  6.111912e-01    1.687570e+00   3.167884e-02
  6.134016e-01    1.696431e+00   3.169854e-02
  6.156121e-01    1.712250e+00   3.178270e-02
  6.178226e-01    1.652136e+00   3.115800e-02
  6.200330e-01    1.647842e+00   3.105609e-02
  6.222435e-01    1.653218e+00   3.104506e-02
  6.244539e-01    1.691389e+00   3.133996e-02
  6.266644e-01    1.704313e+00   3.139808e-02
  6.288748e-01    1.709690e+00   3.138638e-02
  6.310853e-01    1.730676e+00   3.151710e-02
  6.332957e-01    1.751039e+00   3.164076e-02
  6.355062e-01    1.720164e+00   3.129965e-02
  6.377167e-01    1.717281e+00   3.121340e-02
  6.399271e-01    1.725497e+00   3.122803e-02
  6.421376e-01    1.697699e+00   3.091634e-02
  6.443480e-01    1.733165e+00   3.117818e-02
  6.465585e-01    1.696398e+00   3.078728e-02
  6.487689e-01    1.683245e+00   3.060977e-02
  6.509794e-01    1.687927e+00   3.059451e-02
  6.531899e-01    1.630773e+00   3.001553e-02
  6.554003e-01    1.641837e+00   3.006053e-02
  6.576108e-01    1.613561e+00   2.974510e-02
  6.598212e-01    1.590793e+00   2.947960e-02
  6.620317e-01    1.563429e+00   2.917078e-02
  6.642421e-01    1.605004e+00   2.950142e-02
  6.664526e-01    1.571868e+00   2.914150e-02
  6.686630e-01    1.626902e+00   2.959244e-02
  6.708735e-01    1.626737e+00   2.953668e-02
  6.730840e-01    1.591784e+00   2.916436e-02
  6.752944e-01    1.572538e+00   2.893479e-02
  6.775049e-01    1.576956e+00   2.892280e-02
  6.797153e-01    1.622702e+00   2.928618e-02
  6.819258e-01    1.596154e+00   2.899326e-02
  6.841362e-01    1.561427e+00   2.862454e-02
  6.863467e-01    1.616824e+00   2.907572e-02
  6.885572e-01    1.602590e+00   2.889561e-02
  6.907676e-01    1.593277e+00   2.875987e-02
  6.929781e-01    1.591231e+00   2.869033e-02
  6.951885e-01    1.616242e+00   2.886371e-02
  6.973990e-01    1.600344e+00   2.867062e-02
  6.996094e-01    1.618084e+00   2.877837e-02
  7.018199e-01    1.603969e+00   2.860229e-02
  7.040303e-01    1.557992e+00   2.813986e-02
  7.062408e-01    1.567237e+00   2.817377e-02
  7.084513e-01    1.590048e+00   2.832873e-02
  7.106617e-01    1.543913e+00   2.786620e-02
  7.128722e-01    1.558851e+00   2.795224e-02
  7.150826e-01    1.578521e+00   2.807956e-02
  7.172931e-01    1.592387e+00   2.815401e-02
  7.195035e-01    1.565658e+00   2.786872e-02
  7.217140e-01    1.597536e+00   2.820082e-02
  7.239245e-01    1.546023e+00   2.796710e-02
  7.261349e-01    1.529464e+00   2.792396e-02
  7.283454e-01    1.538054e+00   2.807381e-02
  7.305558e-01    1.537693e+00   2.812387e-02
  7.327663e-01    1.567568e+00   2.843816e-02
  7.349767e-01    1.547466e+00   2.827147e-02
  7.371872e-01    1.567925e+00   2.844656e-02
  7.393976e-01    1.584221e+00   2.857974e-02
  7.416081e-01    1.571007e+00   2.844412e-02
  7.438186e-01    1.588606e+00   2.845806e-02
  7.460290e-01    1.548162e+00   2.780171e-02
  7.482395e-01    1.591496e+00   2.801601e-02
  7.504499e-01    1.599790e+00   2.795160e-02
  7.526604e-01    1.559536e+00   2.748169e-02
  7.548708e-01    1.536845e+00   2.719270e-02
  7.570813e-01    1.519097e+00   2.698515e-02
  7.592918e-01    1.571520e+00   2.741168e-02
  7.615022e-01    1.562976e+00   2.730339e-02
  7.637127e-01    1.572014e+00   2.734946e-02
  7.659231e-01    1.591781e+00   2.748871e-02
  7.681336e-01    1.564537e+00   2.722095e-02
  7.703440e-01    1.552577e+00   2.708571e-02
  7.725545e-01    1.553696e+00   2.706478e-02
  7.747650e-01    1.562983e+00   2.710751e-02
  7.769754e-01    1.556094e+00   2.699530e-02
  7.791859e-01    1.547550e+00   2.686810e-02
  7.813963e-01    1.577950e+00   2.707810e-02
  7.836068e-01    1.601833e+00   2.723001e-02
  7.858172e-01    1.581931e+00   2.700970e-02
  7.880277e-01    1.595236e+00   2.707148e-02
  7.902381e-01    1.599395e+00   2.705747e-02
  7.924486e-01    1.606299e+00   2.706560e-02
  7.946591e-01    1.599454e+00   2.695958e-02
  7.968695e-01    1.585425e+00   2.679307e-02
  7.990800e-01    1.573549e+00   2.664482e-02
  8.012904e-01    1.587227e+00   2.671409e-02
  8.035009e-01    1.578775e+00   2.659545e-02
  8.057113e-01    1.617048e+00   2.686934e-02
  8.079218e-01    1.668208e+00   2.724398e-02
  8.101323e-01    1.646142e+00   2.701726e-02
  8.123427e-01    1.634959e+00   2.687942e-02
  8.145532e-01    1.621071e+00   2.671921e-02
  8.167636e-01    1.657050e+00   2.696868e-02
  8.189741e-01    1.604367e+00   2.649229e-02
  8.211845e-01    1.598917e+00   2.640289e-02
  8.233950e-01    1.602554e+00   2.638994e-02
  8.256054e-01    1.625219e+00   2.653185e-02
  8.278159e-01    1.610027e+00   2.636398e-02
  8.300264e-01    1.638634e+00   2.655406e-02
  8.322368e-01    1.615925e+00   2.632660e-02
  8.344473e-01    1.640742e+00   2.648458e-02
  8.366577e-01    1.623590e+00   2.630342e-02
  8.388682e-01    1.618757e+00   2.622224e-02
  8.410786e-01    1.640529e+00   2.635592e-02
  8.432891e-01    1.635514e+00   2.627383e-02
  8.454996e-01    1.592684e+00   2.588646e-02
  8.477100e-01    1.627307e+00   2.612479e-02
  8.499205e-01    1.627357e+00   2.608418e-02
  8.521309e-01    1.636191e+00   2.611410e-02
  8.543414e-01    1.634094e+00   2.605664e-02
  8.565518e-01    1.636756e+00   2.603726e-02
  8.587623e-01    1.607360e+00   2.576221e-02
  8.609727e-01    1.612614e+00   2.576425e-02
  8.631832e-01    1.604483e+00   2.565961e-02
  8.653937e-01    1.612756e+00   2.568613e-02
  8.676041e-01    1.600265e+00   2.554788e-02
  8.698146e-01    1.603173e+00   2.553197e-02
  8.720250e-01    1.578727e+00   2.529798e-02
  8.742355e-01    1.604584e+00   2.546545e-02
  8.764459e-01    1.595814e+00   2.535704e-02
  8.786564e-01    1.576001e+00   2.516157e-02
  8.808669e-01    1.599165e+00   2.530737e-02
  8.830773e-01    1.594753e+00   2.523440e-02
  8.852878e-01    1.584021e+00   2.511164e-02
  8.874982e-01    1.590724e+00   2.512819e-02
  8.897087e-01    1.564544e+00   2.488332e-02
  8.919191e-01    1.551584e+00   2.474285e-02
  8.941296e-01    1.620197e+00   2.524650e-02
  8.963401e-01    1.588948e+00   2.496557e-02
  8.985505e-01    1.609092e+00   2.508622e-02
  9.007610e-01    1.643294e+00   2.531421e-02
  9.029714e-01    1.632249e+00   2.519280e-02
  9.051819e-01    1.612762e+00   2.500460e-02
  9.073923e-01    1.610021e+00   2.494664e-02
  9.096028e-01    1.595387e+00   2.479814e-02
  9.118132e-01    1.602625e+00   2.481809e-02
  9.140237e-01    1.611307e+00   2.484847e-02
  9.162342e-01    1.605497e+00   2.476900e-02
  9.184446e-01    1.608287e+00   2.475468e-02
  9.206551e-01    1.573065e+00   2.444682e-02
  9.228655e-01    1.594350e+00   2.457646e-02
  9.250760e-01    1.609750e+00   2.465944e-02
  9.272864e-01    1.603088e+00   2.457410e-02
  9.294969e-01    1.599056e+00   2.450740e-02
  9.317074e-01    1.604246e+00   2.451245e-02
  9.339178e-01    1.607579e+00   2.450439e-02
  9.361283e-01    1.622808e+00   2.458389e-02
  9.383387e-01    1.629658e+00   2.460221e-02
  9.405492e-01    1.641533e+00   2.465720e-02
  9.427596e-01    1.631379e+00   2.454546e-02
  9.449701e-01    1.620085e+00   2.442708e-02
  9.471805e-01    1.650976e+00   2.462395e-02
  9.493910e-01    1.663084e+00   2.468016e-02
  9.516015e-01    1.668158e+00   2.468327e-02
  9.538119e-01    1.676463e+00   2.471074e-02
  9.560224e-01    1.682885e+00   2.472316e-02
  9.582328e-01    1.703440e+00   2.484032e-02
  9.604433e-01    1.742618e+00   2.508877e-02
  9.626537e-01    1.777819e+00   2.530684e-02
  9.648642e-01    1.804922e+00   2.546407e-02
  9.670747e-01    1.825525e+00   2.557368e-02
  9.692851e-01    1.889009e+00   2.597998e-02
  9.714956e-01    1.832039e+00   2.554917e-02
  9.737060e-01    1.802680e+00   2.531031e-02
  9.759165e-01    1.803001e+00   2.527687e-02
  9.781269e-01    1.826742e+00   2.540945e-02
  9.803374e-01    1.904107e+00   2.590605e-02
  9.825478e-01    1.981477e+00   2.639228e-02
  9.847583e-01    2.035527e+00   2.671349e-02
  9.869688e-01    2.085936e+00   2.700606e-02
  9.891792e-01    1.967281e+00   2.619189e-02
  9.913897e-01    1.866781e+00   2.547967e-02
  9.936001e-01    1.781194e+00   2.485613e-02
  9.958106e-01    1.746315e+00   2.457812e-02
  9.980210e-01    1.680054e+00   2.407603e-02
  1.000231e+00    1.671430e+00   2.414569e-02
  1.002442e+00    1.682598e+00   2.435496e-02
  1.004652e+00    1.649097e+00   2.417855e-02
  1.006863e+00    1.675512e+00   2.442198e-02
  1.009073e+00    1.720279e+00   2.478396e-02
  1.011284e+00    1.686267e+00   2.457057e-02
  1.013494e+00    1.655295e+00   2.436799e-02
  1.015705e+00    1.655320e+00   2.439122e-02
  1.017915e+00    1.614295e+00   2.410367e-02
  1.020126e+00    1.635446e+00   2.427743e-02
  1.022336e+00    1.746757e+00   2.510237e-02
  1.024547e+00    1.743310e+00   2.508952e-02
  1.026757e+00    1.728520e+00   2.499169e-02
  1.028967e+00    1.696609e+00   2.476799e-02
  1.031178e+00    1.596703e+00   2.403400e-02
  1.033388e+00    1.562815e+00   2.378267e-02
  1.035599e+00    1.538157e+00   2.359773e-02
  1.037809e+00    1.543876e+00   2.364485e-02
  1.040020e+00    1.482380e+00   2.317041e-02
  1.042230e+00    1.472739e+00   2.309682e-02
  1.044441e+00    1.500230e+00   2.331117e-02
  1.046651e+00    1.478127e+00   2.313900e-02
  1.048862e+00    1.497504e+00   2.328937e-02
  1.051072e+00    1.500593e+00   2.331103e-02
  1.053282e+00    1.504995e+00   2.334425e-02
  1.055493e+00    1.474653e+00   2.310344e-02
  1.057703e+00    1.519538e+00   2.345088e-02
  1.059914e+00    1.542413e+00   2.362241e-02
  1.062124e+00    1.511812e+00   2.338283e-02
  1.064335e+00    1.521953e+00   2.345763e-02
  1.066545e+00    1.507448e+00   2.333954e-02
  1.068756e+00    1.504421e+00   2.331234e-02
  1.070966e+00    1.465831e+00   2.300489e-02
  1.073177e+00    1.437122e+00   2.277250e-02
  1.075387e+00    1.438493e+00   2.277819e-02
  1.077597e+00    1.460165e+00   2.294189e-02
  1.079808e+00    1.441661e+00   2.266438e-02
  1.082018e+00    1.410519e+00   2.223257e-02
  1.084229e+00    1.432716e+00   2.229782e-02
  1.086439e+00    1.432682e+00   2.221081e-02
  1.088650e+00    1.427480e+00   2.209549e-02
  1.090860e+00    1.430749e+00   2.205369e-02
  1.093071e+00    1.427172e+00   2.196444e-02
  1.095281e+00    1.407941e+00   2.175944e-02
  1.097492e+00    1.397380e+00   2.162370e-02
  1.099702e+00    1.419108e+00   2.174014e-02
  1.101912e+00    1.419922e+00   2.169787e-02
  1.104123e+00    1.423505e+00   2.167720e-02
  1.106333e+00    1.407303e+00   2.150948e-02
  1.108544e+00    1.414110e+00   2.151741e-02
  1.110754e+00    1.412342e+00   2.146116e-02
  1.112965e+00    1.408018e+00   2.138795e-02
  1.115175e+00    1.378908e+00   2.112512e-02
  1.117386e+00    1.401905e+00   2.126146e-02
  1.119596e+00    1.390921e+00   2.114042e-02
  1.121807e+00    1.402582e+00   2.119013e-02
  1.124017e+00    1.388531e+00   2.104733e-02
  1.126228e+00    1.366543e+00   2.084474e-02
  1.128438e+00    1.388630e+00   2.097593e-02
  1.130648e+00    1.346245e+00   2.061967e-02
  1.132859e+00    1.337050e+00   2.051549e-02
  1.135069e+00    1.385108e+00   2.084630e-02
  1.137280e+00    1.366784e+00   2.067525e-02
  1.139490e+00    1.342292e+00   2.045663e-02
  1.141701e+00    1.367008e+00   2.061120e-02
  1.143911e+00    1.353371e+00   2.047662e-02
  1.146122e+00    1.372804e+00   2.059118e-02
  1.148332e+00    1.397727e+00   2.074518e-02
  1.150543e+00    1.379348e+00   2.057749e-02
  1.152753e+00    1.345210e+00   2.029076e-02
  1.154963e+00    1.360997e+00   2.037856e-02
  1.157174e+00    1.356072e+00   2.031170e-02
  1.159384e+00    1.360570e+00   2.031560e-02
  1.161595e+00    1.368190e+00   2.034263e-02
  1.163805e+00    1.376168e+00   2.037248e-02
  1.166016e+00    1.390092e+00   2.044564e-02
  1.168226e+00    1.350982e+00   2.012717e-02
  1.170437e+00    1.368810e+00   2.023088e-02
  1.172647e+00    1.369823e+00   2.020943e-02
  1.174858e+00    1.384558e+00   2.028953e-02
  1.177068e+00    1.388296e+00   2.028838e-02
  1.179278e+00    1.394449e+00   2.030437e-02
  1.181489e+00    1.423552e+00   2.048751e-02
  1.183699e+00    1.393323e+00   2.024093e-02
  1.185910e+00    1.387285e+00   2.016893e-02
  1.188120e+00    1.381632e+00   2.010088e-02
  1.190331e+00    1.355934e+00   1.988629e-02
  1.192541e+00    1.353436e+00   1.984059e-02
  1.194752e+00    1.379837e+00   2.000583e-02
  1.196962e+00    1.423212e+00   2.029143e-02
  1.199173e+00    1.437429e+00   2.036522e-02
  1.201383e+00    1.383197e+00   1.994985e-02
  1.203593e+00    1.357909e+00   1.974174e-02
  1.205804e+00    1.335688e+00   1.955377e-02
  1.208014e+00    1.332297e+00   1.950226e-02
  1.210225e+00    1.340368e+00   1.953601e-02
  1.212435e+00    1.341002e+00   1.951590e-02
  1.214646e+00    1.372025e+00   1.971407e-02
  1.216856e+00    1.317642e+00   1.929422e-02
  1.219067e+00    1.329673e+00   1.935783e-02
  1.221277e+00    1.320032e+00   1.926278e-02
  1.223488e+00    1.338569e+00   1.937191e-02
  1.225698e+00    1.370984e+00   1.957796e-02
  1.227909e+00    1.375509e+00   1.957979e-02
  1.230119e+00    1.346309e+00   1.933906e-02
  1.232329e+00    1.331587e+00   1.920250e-02
  1.234540e+00    1.327683e+00   1.914430e-02
  1.236750e+00    1.321128e+00   1.906704e-02
  1.238961e+00    1.341201e+00   1.918446e-02
  1.241171e+00    1.356398e+00   1.926860e-02
  1.243382e+00    1.368968e+00   1.933402e-02
  1.245592e+00    1.346009e+00   1.914714e-02
  1.247803e+00    1.358133e+00   1.920945e-02
  1.250013e+00    1.377990e+00   1.932556e-02
  1.252224e+00    1.471017e+00   1.994296e-02
  1.254434e+00    1.427432e+00   1.962094e-02
  1.256644e+00    1.342963e+00   1.900839e-02
  1.258855e+00    1.331197e+00   1.890180e-02
  1.261065e+00    1.361421e+00   1.909170e-02
  1.263276e+00    1.371151e+00   1.913670e-02
  1.265486e+00    1.350107e+00   1.896640e-02
  1.267697e+00    1.338954e+00   1.886498e-02
  1.269907e+00    1.330609e+00   1.878355e-02
  1.272118e+00    1.343563e+00   1.885226e-02
  1.274328e+00    1.339553e+00   1.880145e-02
  1.276539e+00    1.347293e+00   1.883292e-02
  1.278749e+00    1.372709e+00   1.898725e-02
  1.280959e+00    1.370775e+00   1.895118e-02
  1.283170e+00    1.327910e+00   1.863029e-02
  1.285380e+00    1.314441e+00   1.851338e-02
  1.287591e+00    1.326041e+00   1.857305e-02
  1.289801e+00    1.344845e+00   1.868311e-02
  1.292012e+00    1.346403e+00   1.867685e-02
  1.294222e+00    1.332596e+00   1.856472e-02
  1.296433e+00    1.328217e+00   1.851870e-02
  1.298643e+00    1.326241e+00   1.848860e-02
  1.300854e+00    1.349494e+00   1.863355e-02
  1.303064e+00    1.362669e+00   1.870499e-02
  1.305274e+00    1.370591e+00   1.873768e-02
  1.307485e+00    1.361504e+00   1.865383e-02
  1.309695e+00    1.355736e+00   1.859199e-02
  1.311906e+00    1.362966e+00   1.861967e-02
  1.314116e+00    1.417135e+00   1.896477e-02
  1.316327e+00    1.421427e+00   1.897122e-02
  1.318537e+00    1.424716e+00   1.897068e-02
  1.320748e+00    1.391734e+00   1.872794e-02
  1.322958e+00    1.387242e+00   1.867686e-02
  1.325169e+00    1.389745e+00   1.867240e-02
  1.327379e+00    1.364578e+00   1.848061e-02
  1.329589e+00    1.378359e+00   1.855241e-02
  1.331800e+00    1.384568e+00   1.857319e-02
  1.334010e+00    1.374153e+00   1.848238e-02
  1.336221e+00    1.367040e+00   1.841258e-02
  1.338431e+00    1.365163e+00   1.837895e-02
  1.340642e+00    1.351178e+00   1.834877e-02
  1.342852e+00    1.350420e+00   1.844430e-02
  1.345063e+00    1.373902e+00   1.865389e-02
  1.347273e+00    1.371253e+00   1.867141e-02
  1.349484e+00    1.364796e+00   1.865526e-02
  1.351694e+00    1.312304e+00   1.831535e-02
  1.353905e+00    1.346661e+00   1.857154e-02
  1.356115e+00    1.332936e+00   1.849160e-02
  1.358325e+00    1.347489e+00   1.860559e-02
  1.360536e+00    1.325677e+00   1.846588e-02
  1.362746e+00    1.375288e+00   1.881791e-02
  1.364957e+00    1.351717e+00   1.866364e-02
  1.367167e+00    1.334898e+00   1.855427e-02
  1.369378e+00    1.305334e+00   1.835359e-02
  1.371588e+00    1.290029e+00   1.825071e-02
  1.373799e+00    1.281788e+00   1.819589e-02
  1.376009e+00    1.324263e+00   1.849828e-02
  1.378220e+00    1.341619e+00   1.862167e-02
  1.380430e+00    1.293107e+00   1.828456e-02
  1.382640e+00    1.294737e+00   1.829697e-02
  1.384851e+00    1.304782e+00   1.836868e-02
  1.387061e+00    1.289483e+00   1.826099e-02
  1.389272e+00    1.257848e+00   1.803578e-02
  1.391482e+00    1.295226e+00   1.830112e-02
  1.393693e+00    1.276359e+00   1.816647e-02
  1.395903e+00    1.287216e+00   1.824207e-02
  1.398114e+00    1.302535e+00   1.834890e-02
  1.400324e+00    1.312683e+00   1.841810e-02
  1.402535e+00    1.294079e+00   1.828479e-02
  1.404745e+00    1.268500e+00   1.810081e-02
  1.406955e+00    1.271741e+00   1.812124e-02
  1.409166e+00    1.253920e+00   1.799054e-02
  1.411376e+00    1.243529e+00   1.791274e-02
  1.413587e+00    1.256956e+00   1.800540e-02
  1.415797e+00    1.253819e+00   1.797942e-02
  1.418008e+00    1.246129e+00   1.788270e-02
  1.420218e+00    1.263573e+00   1.785809e-02
  1.422429e+00    1.254216e+00   1.770707e-02
  1.424639e+00    1.265865e+00   1.772452e-02
  1.426850e+00    1.246859e+00   1.753677e-02
  1.429060e+00    1.264031e+00   1.760822e-02
  1.431270e+00    1.271975e+00   1.761914e-02
  1.433481e+00    1.259062e+00   1.748870e-02
  1.435691e+00    1.264272e+00   1.748650e-02
  1.437902e+00    1.279660e+00   1.755599e-02
  1.440112e+00    1.268008e+00   1.744058e-02
  1.442323e+00    1.252545e+00   1.730109e-02
  1.444533e+00    1.253805e+00   1.727744e-02
  1.446744e+00    1.252938e+00   1.724054e-02
  1.448954e+00    1.263446e+00   1.728258e-02
  1.451165e+00    1.264162e+00   1.725777e-02
  1.453375e+00    1.250368e+00   1.713556e-02
  1.455586e+00    1.245265e+00   1.707265e-02
  1.457796e+00    1.245659e+00   1.704810e-02
  1.460006e+00    1.275001e+00   1.722041e-02
  1.462217e+00    1.253641e+00   1.704952e-02
  1.464427e+00    1.256157e+00   1.704114e-02
  1.466638e+00    1.266119e+00   1.708328e-02
  1.468848e+00    1.266928e+00   1.706345e-02
  1.471059e+00    1.250852e+00   1.692992e-02
  1.473269e+00    1.251249e+00   1.690841e-02
  1.475480e+00    1.264974e+00   1.697714e-02
  1.477690e+00    1.256849e+00   1.689883e-02
  1.479901e+00    1.256177e+00   1.687055e-02
  1.482111e+00    1.262797e+00   1.689170e-02
  1.484321e+00    1.243704e+00   1.674060e-02
  1.486532e+00    1.249370e+00   1.675650e-02
  1.488742e+00    1.223257e+00   1.655820e-02
  1.490953e+00    1.227399e+00   1.656393e-02
  1.493163e+00    1.236548e+00   1.660350e-02
  1.495374e+00    1.250864e+00   1.667795e-02
  1.497584e+00    1.267621e+00   1.676759e-02
  1.499795e+00    1.248245e+00   1.661742e-02
  1.502005e+00    1.238380e+00   1.653011e-02
  1.504216e+00    1.258806e+00   1.664485e-02
  1.506426e+00    1.230867e+00   1.643851e-02
  1.508636e+00    1.247310e+00   1.652757e-02
  1.510847e+00    1.250585e+00   1.652750e-02
  1.513057e+00    1.247702e+00   1.648343e-02
  1.515268e+00    1.264680e+00   1.656938e-02
  1.517478e+00    1.236209e+00   1.635686e-02
  1.519689e+00    1.232498e+00   1.630751e-02
  1.521899e+00    1.283600e+00   1.661878e-02
  1.524110e+00    1.255516e+00   1.641564e-02
  1.526320e+00    1.239838e+00   1.629331e-02
  1.528531e+00    1.249947e+00   1.633985e-02
  1.530741e+00    1.244375e+00   1.628429e-02
  1.532951e+00    1.250599e+00   1.630536e-02
  1.535162e+00    1.261962e+00   1.646630e-02
  1.537372e+00    1.241395e+00   1.639827e-02
  1.539583e+00    1.231015e+00   1.636357e-02
  1.541793e+00    1.213906e+00   1.625632e-02
  1.544004e+00    1.212542e+00   1.624741e-02
  1.546214e+00    1.249629e+00   1.649252e-02
  1.548425e+00    1.251698e+00   1.650643e-02
  1.550635e+00    1.230468e+00   1.637547e-02
  1.552846e+00    1.227730e+00   1.636683e-02
  1.555056e+00    1.212351e+00   1.622307e-02
  1.557266e+00    1.204782e+00   1.606365e-02
  1.559477e+00    1.223252e+00   1.612771e-02
  1.561687e+00    1.242654e+00   1.622446e-02
  1.563898e+00    1.247576e+00   1.623939e-02
  1.566108e+00    1.260364e+00   1.630632e-02
  1.568319e+00    1.280750e+00   1.642185e-02
  1.570529e+00    1.251076e+00   1.620531e-02
  1.572740e+00    1.228004e+00   1.602772e-02
  1.574950e+00    1.258445e+00   1.619870e-02
  1.577161e+00    1.258862e+00   1.617578e-02
  1.579371e+00    1.245380e+00   1.606525e-02
  1.581582e+00    1.242814e+00   1.602893e-02
  1.583792e+00    1.259823e+00   1.612012e-02
  1.586002e+00    1.229602e+00   1.590808e-02
  1.588213e+00    1.262371e+00   1.610128e-02
  1.590423e+00    1.232123e+00   1.588725e-02
  1.592634e+00    1.242894e+00   1.593491e-02
  1.594844e+00    1.225532e+00   1.580199e-02
  1.597055e+00    1.230540e+00   1.581384e-02
  1.599265e+00    1.231863e+00   1.580171e-02
  1.601476e+00    1.222939e+00   1.572421e-02
  1.603686e+00    1.227531e+00   1.573403e-02
  1.605897e+00    1.207289e+00   1.558387e-02
  1.608107e+00    1.218963e+00   1.563961e-02
  1.610317e+00    1.251373e+00   1.582676e-02
  1.612528e+00    1.225237e+00   1.564151e-02
  1.614738e+00    1.214635e+00   1.555487e-02
  1.616949e+00    1.225134e+00   1.560297e-02
  1.619159e+00    1.220084e+00   1.555209e-02
  1.621370e+00    1.233284e+00   1.561743e-02
  1.623580e+00    1.231606e+00   1.558833e-02
  1.625791e+00    1.209676e+00   1.543067e-02
  1.628001e+00    1.203898e+00   1.537549e-02
  1.630212e+00    1.200504e+00   1.533600e-02
  1.632422e+00    1.168353e+00   1.511150e-02
  1.634632e+00    1.152151e+00   1.498923e-02
  1.636843e+00    1.159858e+00   1.502190e-02
  1.639053e+00    1.165007e+00   1.503796e-02
  1.641264e+00    1.148917e+00   1.491683e-02
  1.643474e+00    1.146594e+00   1.488446e-02
  1.645685e+00    1.162932e+00   1.497343e-02
  1.647895e+00    1.176008e+00   1.504064e-02
  1.650106e+00    1.144490e+00   1.482077e-02
  1.652316e+00    1.151214e+00   1.484774e-02
  1.654527e+00    1.121983e+00   1.464153e-02
  1.656737e+00    1.090339e+00   1.441733e-02
  1.658947e+00    1.091096e+00   1.440634e-02
  1.661158e+00    1.123604e+00   1.460313e-02
  1.663368e+00    1.112832e+00   1.451704e-02
  1.665579e+00    1.114742e+00   1.451335e-02
  1.667789e+00    1.092302e+00   1.435049e-02
  1.670000e+00    1.082467e+00   1.427044e-02
  1.672210e+00    1.090456e+00   1.430727e-02
  1.674421e+00    1.101690e+00   1.436547e-02
  1.676631e+00    1.098983e+00   1.433198e-02
  1.678842e+00    1.081492e+00   1.420180e-02
  1.681052e+00    1.081794e+00   1.418848e-02
  1.683263e+00    1.065676e+00   1.406743e-02
  1.685473e+00    1.057063e+00   1.399552e-02
  1.687683e+00    1.035643e+00   1.383791e-02
  1.689894e+00    1.060378e+00   1.398655e-02
  1.692104e+00    1.050563e+00   1.390694e-02
  1.694315e+00    1.047280e+00   1.387085e-02
  1.696525e+00    1.040500e+00   1.381094e-02
  1.698736e+00    1.033995e+00   1.375309e-02
  1.700946e+00    1.041163e+00   1.378568e-02
  1.703157e+00    1.050877e+00   1.383525e-02
  1.705367e+00    1.042304e+00   1.376428e-02
  1.707578e+00    1.047215e+00   1.378209e-02
  1.709788e+00    1.057848e+00   1.383771e-02
  1.711998e+00    1.004319e+00   1.346833e-02
  1.714209e+00    1.014678e+00   1.352333e-02
  1.716419e+00    1.001939e+00   1.342414e-02
  1.718630e+00    1.005593e+00   1.343449e-02
  1.720840e+00    1.009869e+00   1.344897e-02
  1.723051e+00    1.017696e+00   1.348718e-02
  1.725261e+00    9.961423e-01   1.332910e-02
  1.727472e+00    9.809144e-01   1.321291e-02
  1.729682e+00    9.942377e-01   1.328901e-02
  1.731893e+00    9.960987e-01   1.328765e-02
  1.734103e+00    1.001421e+00   1.330936e-02
  1.736313e+00    9.949103e-01   1.325210e-02
  1.738524e+00    9.655159e-01   1.304129e-02
  1.740734e+00    9.726754e-01   1.307603e-02
  1.742945e+00    9.933411e-01   1.320076e-02
  1.745155e+00    9.967957e-01   1.321026e-02
  1.747366e+00    9.782691e-01   1.307315e-02
  1.749576e+00    9.648714e-01   1.296981e-02
  1.751787e+00    9.586931e-01   1.291503e-02
  1.753997e+00    9.510310e-01   1.285014e-02
  1.756208e+00    9.271997e-01   1.267525e-02
  1.758418e+00    9.453118e-01   1.278550e-02
  1.760628e+00    9.417188e-01   1.274803e-02
  1.762839e+00    9.503060e-01   1.279289e-02
  1.765049e+00    9.471132e-01   1.275838e-02
  1.767260e+00    9.338315e-01   1.265597e-02
  1.769470e+00    9.324971e-01   1.263409e-02
  1.771681e+00    9.242218e-01   1.256497e-02
  1.773891e+00    9.194191e-01   1.251943e-02
  1.776102e+00    9.340482e-01   1.260586e-02
  1.778312e+00    9.216324e-01   1.250923e-02
  1.780523e+00    9.006030e-01   1.235323e-02
  1.782733e+00    9.115139e-01   1.241534e-02
  1.784944e+00    9.107788e-01   1.239761e-02
  1.787154e+00    9.232135e-01   1.246948e-02
  1.789364e+00    9.305918e-01   1.250674e-02
  1.791575e+00    9.404808e-01   1.256038e-02
  1.793785e+00    9.360696e-01   1.251841e-02
  1.795996e+00    9.145038e-01   1.236090e-02
  1.798206e+00    8.948313e-01   1.221486e-02
  1.800417e+00    8.965095e-01   1.221376e-02
  1.802627e+00    9.124040e-01   1.230964e-02
  1.804838e+00    8.974223e-01   1.219615e-02
  1.807048e+00    8.947641e-01   1.216534e-02
  1.809259e+00    8.896297e-01   1.211690e-02
  1.811469e+00    9.250441e-01   1.234058e-02
  1.813679e+00    9.318631e-01   1.237079e-02
  1.815890e+00    9.065560e-01   1.218682e-02
  1.818100e+00    9.095134e-01   1.219147e-02
  1.820311e+00    9.121233e-01   1.219402e-02
  1.822521e+00    9.213013e-01   1.224012e-02
  1.824732e+00    9.098932e-01   1.214914e-02
  1.826942e+00    8.810061e-01   1.194244e-02
  1.829153e+00    8.826022e-01   1.194155e-02
  1.831363e+00    8.832135e-01   1.193368e-02
  1.833574e+00    8.837641e-01   1.192569e-02
  1.835784e+00    8.719139e-01   1.183409e-02
  1.837994e+00    8.765413e-01   1.185376e-02
  1.840205e+00    8.569047e-01   1.170916e-02
  1.842415e+00    8.714362e-01   1.179627e-02
  1.844626e+00    8.582484e-01   1.169518e-02
  1.846836e+00    8.533741e-01   1.165062e-02
  1.849047e+00    8.408053e-01   1.155303e-02
  1.851257e+00    8.729157e-01   1.176196e-02
  1.853468e+00    8.643641e-01   1.169540e-02
  1.855678e+00    8.520706e-01   1.160310e-02
  1.857889e+00    8.462849e-01   1.155519e-02
  1.860099e+00    8.438283e-01   1.152985e-02
  1.862309e+00    8.459634e-01   1.153596e-02
  1.864520e+00    8.603738e-01   1.162521e-02
  1.866730e+00    8.592305e-01   1.160807e-02
  1.868941e+00    8.621559e-01   1.161681e-02
  1.871151e+00    8.530231e-01   1.154371e-02
  1.873362e+00    8.657104e-01   1.161779e-02
  1.875572e+00    8.593222e-01   1.156387e-02
  1.877783e+00    8.343307e-01   1.138313e-02
  1.879993e+00    8.399537e-01   1.141030e-02
  1.882204e+00    8.354778e-01   1.136904e-02
  1.884414e+00    8.285324e-01   1.131069e-02
  1.886624e+00    8.433981e-01   1.140066e-02
  1.888835e+00    8.323345e-01   1.131472e-02
  1.891045e+00    8.393598e-01   1.135147e-02
  1.893256e+00    8.541700e-01   1.144001e-02
  1.895466e+00    8.419426e-01   1.134663e-02
  1.897677e+00    8.474403e-01   1.137260e-02
  1.899887e+00    8.757674e-01   1.154986e-02
  1.902098e+00    8.713778e-01   1.150981e-02
  1.904308e+00    8.421532e-01   1.130448e-02
  1.906519e+00    8.310035e-01   1.121856e-02
  1.908729e+00    8.215452e-01   1.114397e-02
  1.910940e+00    8.285767e-01   1.118042e-02
  1.913150e+00    8.026705e-01   1.099383e-02
  1.915360e+00    8.075152e-01   1.101641e-02
  1.917571e+00    8.305542e-01   1.116156e-02
  1.919781e+00    8.171966e-01   1.106078e-02
  1.921992e+00    8.202035e-01   1.107049e-02
  1.924202e+00    8.117421e-01   1.100251e-02
  1.926413e+00    8.157090e-01   1.101907e-02
  1.928623e+00    8.145069e-01   1.100041e-02
  1.930834e+00    8.110704e-01   1.096674e-02
  1.933044e+00    8.068319e-01   1.092744e-02
  1.935255e+00    7.886240e-01   1.079323e-02
  1.937465e+00    8.028054e-01   1.087947e-02
  1.939675e+00    8.086607e-01   1.090823e-02
  1.941886e+00    8.077548e-01   1.089181e-02
  1.944096e+00    8.033459e-01   1.085186e-02
  1.946307e+00    8.020307e-01   1.083264e-02
  1.948517e+00    7.902848e-01   1.074265e-02
  1.950728e+00    7.872576e-01   1.071187e-02
  1.952938e+00    7.949376e-01   1.075393e-02
  1.955149e+00    7.948880e-01   1.074336e-02
  1.957359e+00    7.877684e-01   1.068516e-02
  1.959570e+00    7.942862e-01   1.071839e-02
  1.961780e+00    7.809997e-01   1.061854e-02
  1.963990e+00    7.739418e-01   1.056044e-02
  1.966201e+00    7.746416e-01   1.055526e-02
  1.968411e+00    7.913308e-01   1.065818e-02
  1.970622e+00    8.048942e-01   1.073895e-02
  1.972832e+00    7.876121e-01   1.061307e-02
  1.975043e+00    7.769166e-01   1.053076e-02
  1.977253e+00    7.887581e-01   1.060074e-02
  1.979464e+00    7.820385e-01   1.054547e-02
  1.981674e+00    7.698134e-01   1.045255e-02
  1.983885e+00    7.724851e-01   1.046069e-02
  1.986095e+00    7.860909e-01   1.054268e-02
  1.988305e+00    7.843090e-01   1.052082e-02
  1.990516e+00    7.602639e-01   1.034847e-02
  1.992726e+00    7.728527e-01   1.042414e-02
  1.994937e+00    7.833565e-01   1.048459e-02
  1.997147e+00    7.742680e-01   1.041388e-02
  1.999358e+00    7.434306e-01   1.019474e-02
  2.001568e+00    7.460065e-01   1.020174e-02
  2.003779e+00    7.614887e-01   1.029524e-02
  2.005989e+00    7.829911e-01   1.042747e-02
  2.008200e+00    7.715859e-01   1.033973e-02
  2.010410e+00    7.736054e-01   1.034145e-02
  2.012621e+00    7.819376e-01   1.038521e-02
  2.014831e+00    7.480078e-01   1.014606e-02
  2.017041e+00    7.641151e-01   1.024435e-02
  2.019252e+00    7.653927e-01   1.024295e-02
  2.021462e+00    7.501172e-01   1.013082e-02
  2.023673e+00    7.567669e-01   1.016628e-02
  2.025883e+00    7.471886e-01   1.009232e-02
  2.028094e+00    7.623566e-01   1.018459e-02
  2.030304e+00    7.537700e-01   1.011760e-02
  2.032515e+00    7.656412e-01   1.018761e-02
  2.034725e+00    7.549069e-01   1.010656e-02
  2.036936e+00    7.567443e-01   1.010949e-02
  2.039146e+00    7.541452e-01   1.008257e-02
  2.041356e+00    7.480353e-01   1.003207e-02
  2.043567e+00    7.594521e-01   1.009898e-02
  2.045777e+00    7.722404e-01   1.017433e-02
  2.047988e+00    7.530274e-01   1.003761e-02
  2.050198e+00    7.499934e-01   1.000894e-02
  2.052409e+00    7.473527e-01   9.983690e-03
  2.054619e+00    7.490061e-01   9.987351e-03
  2.056830e+00    7.479284e-01   9.973017e-03
  2.059040e+00    7.499027e-01   9.978648e-03
  2.061251e+00    7.600794e-01   1.003885e-02
  2.063461e+00    7.531416e-01   9.985306e-03
  2.065671e+00    7.579002e-01   1.000802e-02
  2.067882e+00    7.379566e-01   9.866551e-03
  2.070092e+00    7.301445e-01   9.805078e-03
  2.072303e+00    7.464834e-01   9.905040e-03
  2.074513e+00    7.418951e-01   9.865265e-03
  2.076724e+00    7.270567e-01   9.756749e-03
  2.078934e+00    7.305182e-01   9.771030e-03
  2.081145e+00    7.199606e-01   9.691224e-03
  2.083355e+00    7.205278e-01   9.685982e-03
  2.085566e+00    7.324064e-01   9.756655e-03
  2.087776e+00    7.332739e-01   9.752955e-03
  2.089986e+00    7.469668e-01   9.834772e-03
  2.092197e+00    7.451025e-01   9.813486e-03
  2.094407e+00    7.370704e-01   9.751223e-03
  2.096618e+00    7.274602e-01   9.678580e-03
  2.098828e+00    7.366905e-01   9.730472e-03
  2.101039e+00    7.291971e-01   9.671906e-03
  2.103249e+00    7.215120e-01   9.612187e-03
  2.105460e+00    7.105038e-01   9.529694e-03
  2.107670e+00    7.027013e-01   9.468632e-03
  2.109881e+00    7.167608e-01   9.553785e-03
  2.112091e+00    7.249623e-01   9.599322e-03
  2.114301e+00    7.057488e-01   9.462589e-03
  2.116512e+00    7.140759e-01   9.509515e-03
  2.118722e+00    6.996201e-01   9.404076e-03
  2.120933e+00    7.083443e-01   9.453734e-03
  2.123143e+00    7.248456e-01   9.554279e-03
  2.125354e+00    7.084512e-01   9.437157e-03
  2.127564e+00    7.014409e-01   9.381671e-03
  2.129775e+00    7.236274e-01   9.520142e-03
  2.131985e+00    7.100859e-01   9.421606e-03
  2.134196e+00    7.116203e-01   9.423202e-03
  2.136406e+00    6.884305e-01   9.259802e-03
  2.138617e+00    6.941917e-01   9.290086e-03
  2.140827e+00    7.046312e-01   9.375717e-03
  2.143037e+00    6.951677e-01   9.357621e-03
  2.145248e+00    6.884223e-01   9.333842e-03
  2.147458e+00    7.122934e-01   9.509497e-03
  2.149669e+00    7.184575e-01   9.562550e-03
  2.151879e+00    7.180443e-01   9.569136e-03
  2.154090e+00    7.040246e-01   9.482584e-03
  2.156300e+00    6.979679e-01   9.448295e-03
  2.158511e+00    7.029381e-01   9.487191e-03
  2.160721e+00    6.962038e-01   9.446452e-03
  2.162932e+00    6.873603e-01   9.389974e-03
  2.165142e+00    6.852291e-01   9.378395e-03
  2.167352e+00    6.813705e-01   9.354839e-03
  2.169563e+00    6.828662e-01   9.367037e-03
  2.171773e+00    6.806246e-01   9.354069e-03
  2.173984e+00    6.678528e-01   9.267290e-03
  2.176194e+00    6.721489e-01   9.298212e-03
  2.178405e+00    6.821972e-01   9.368150e-03
  2.180615e+00    6.860911e-01   9.395529e-03
  2.182826e+00    6.838014e-01   9.380516e-03
  2.185036e+00    6.939126e-01   9.449662e-03
  2.187247e+00    6.934051e-01   9.446171e-03
  2.189457e+00    6.824779e-01   9.371031e-03
  2.191667e+00    6.856619e-01   9.392686e-03
  2.193878e+00    6.885446e-01   9.411843e-03
  2.196088e+00    6.906432e-01   9.425494e-03
  2.198299e+00    6.758739e-01   9.323098e-03
  2.200509e+00    6.688468e-01   9.273439e-03
  2.202720e+00    6.677956e-01   9.265007e-03
  2.204930e+00    6.785728e-01   9.338236e-03
  2.207141e+00    6.914190e-01   9.425093e-03
  2.209351e+00    6.860996e-01   9.386877e-03
  2.211562e+00    6.729220e-01   9.294691e-03
  2.213772e+00    6.654996e-01   9.188260e-03
  2.215982e+00    6.815665e-01   9.254115e-03
  2.218193e+00    6.826919e-01   9.231973e-03
  2.220403e+00    6.859137e-01   9.228949e-03
  2.222614e+00    6.687542e-01   9.091905e-03
  2.224824e+00    6.644044e-01   9.043037e-03
  2.227035e+00    6.733547e-01   9.086285e-03
  2.229245e+00    6.804479e-01   9.116937e-03
  2.231456e+00    6.781296e-01   9.085714e-03
  2.233666e+00    6.753660e-01   9.052017e-03
  2.235877e+00    6.837553e-01   9.093677e-03
  2.238087e+00    6.721026e-01   9.002349e-03
  2.240298e+00    6.611924e-01   8.915308e-03
  2.242508e+00    6.657823e-01   8.931084e-03
  2.244718e+00    6.756606e-01   8.981206e-03
  2.246929e+00    6.811326e-01   9.002957e-03
  2.249139e+00    6.549422e-01   8.815923e-03
  2.251350e+00    6.333297e-01   8.657814e-03
  2.253560e+00    6.600291e-01   8.826908e-03
  2.255771e+00    6.637884e-01   8.840620e-03
  2.257981e+00    6.833288e-01   8.958467e-03
  2.260192e+00    6.876113e-01   8.975207e-03
  2.262402e+00    6.984239e-01   9.034364e-03
  2.264613e+00    6.812288e-01   8.911499e-03
  2.266823e+00    6.543779e-01   8.723767e-03
  2.269033e+00    6.673351e-01   8.799290e-03
  2.271244e+00    6.674339e-01   8.789510e-03
  2.273454e+00    6.850694e-01   8.894433e-03
  2.275665e+00    7.116811e-01   9.054870e-03
  2.277875e+00    6.798650e-01   8.840105e-03
  2.280086e+00    6.690864e-01   8.759619e-03
  2.282296e+00    6.563066e-01   8.666186e-03
  2.284507e+00    6.568621e-01   8.659728e-03
  2.286717e+00    6.476517e-01   8.589416e-03
  2.288928e+00    6.423647e-01   8.544510e-03
  2.291138e+00    6.532234e-01   8.607046e-03
  2.293348e+00    6.569552e-01   8.622039e-03
  2.295559e+00    6.632957e-01   8.654174e-03
  2.297769e+00    6.779978e-01   8.740152e-03
  2.299980e+00    6.631380e-01   8.634449e-03
  2.302190e+00    6.466325e-01   8.517237e-03
  2.304401e+00    6.396503e-01   8.461888e-03
  2.306611e+00    6.484166e-01   8.510501e-03
  2.308822e+00    6.517345e-01   8.523854e-03
  2.311032e+00    6.368716e-01   8.419739e-03
  2.313243e+00    6.402875e-01   8.436037e-03
  2.315453e+00    6.318266e-01   8.372664e-03
  2.317663e+00    6.442800e-01   8.445650e-03
  2.319874e+00    6.437528e-01   8.433494e-03
  2.322084e+00    6.387176e-01   8.391535e-03
  2.324295e+00    6.466002e-01   8.434919e-03
  2.326505e+00    6.407370e-01   8.387560e-03
  2.328716e+00    6.457046e-01   8.411456e-03
  2.330926e+00    6.442875e-01   8.393411e-03
  2.333137e+00    6.377125e-01   8.342134e-03
  2.335347e+00    6.476678e-01   8.398064e-03
  2.337558e+00    6.440004e-01   8.366024e-03
  2.339768e+00    6.351914e-01   8.300056e-03
  2.341979e+00    6.323170e-01   8.272924e-03
  2.344189e+00    6.346954e-01   8.280105e-03
  2.346399e+00    6.360121e-01   8.280187e-03
  2.348610e+00    6.488379e-01   8.354710e-03
  2.350820e+00    6.455771e-01   8.325456e-03
  2.353031e+00    6.466997e-01   8.324312e-03
  2.355241e+00    6.453362e-01   8.307413e-03
  2.357452e+00    6.347200e-01   8.230357e-03
  2.359662e+00    6.450507e-01   8.288749e-03
  2.361873e+00    6.275322e-01   8.167230e-03
  2.364083e+00    6.101791e-01   8.045628e-03
  2.366294e+00    6.184526e-01   8.091941e-03
  2.368504e+00    6.205499e-01   8.097623e-03
  2.370714e+00    6.189126e-01   8.078901e-03
  2.372925e+00    6.259036e-01   8.116363e-03
  2.375135e+00    6.286384e-01   8.125981e-03
  2.377346e+00    6.230099e-01   8.081586e-03
  2.379556e+00    6.213038e-01   8.062625e-03
  2.381767e+00    6.093702e-01   7.977030e-03
  2.383977e+00    6.134185e-01   7.995604e-03
  2.386188e+00    5.995976e-01   7.897224e-03
  2.388398e+00    6.200586e-01   8.022856e-03
  2.390609e+00    6.320092e-01   8.092000e-03
  2.392819e+00    6.194596e-01   8.003469e-03
  2.395029e+00    6.091163e-01   7.928741e-03
  2.397240e+00    6.108717e-01   7.932316e-03
  2.399450e+00    6.053773e-01   7.888808e-03
  2.401661e+00    6.134452e-01   7.933499e-03
  2.403871e+00    6.211350e-01   7.975262e-03
  2.406082e+00    6.087996e-01   7.888238e-03
  2.408292e+00    6.148725e-01   7.919674e-03
  2.410503e+00    5.862353e-01   7.725685e-03
  2.412713e+00    5.912639e-01   7.751050e-03
  2.414924e+00    6.063674e-01   7.841932e-03
  2.417134e+00    6.024854e-01   7.809184e-03
  2.419344e+00    5.931124e-01   7.740857e-03
  2.421555e+00    5.843781e-01   7.676235e-03
  2.423765e+00    5.998507e-01   7.769788e-03
  2.425976e+00    6.009712e-01   7.769245e-03
  2.428186e+00    5.914003e-01   7.699947e-03
  2.430397e+00    5.982975e-01   7.737243e-03
  2.432607e+00    5.871896e-01   7.657831e-03
  2.434818e+00    6.055847e-01   7.769276e-03
  2.437028e+00    5.930144e-01   7.681060e-03
  2.439239e+00    6.006113e-01   7.722412e-03
  2.441449e+00    6.034903e-01   7.733638e-03
  2.443659e+00    5.880892e-01   7.626982e-03
  2.445870e+00    5.732461e-01   7.542201e-03
  2.448080e+00    5.726215e-01   7.572567e-03
  2.450291e+00    5.638664e-01   7.530891e-03
  2.452501e+00    5.726928e-01   7.600698e-03
  2.454712e+00    5.814061e-01   7.666818e-03
  2.456922e+00    5.758591e-01   7.636792e-03
  2.459133e+00    5.639390e-01   7.562770e-03
  2.461343e+00    5.537732e-01   7.498594e-03
  2.463554e+00    5.582007e-01   7.531938e-03
  2.465764e+00    5.493180e-01   7.474900e-03
  2.467975e+00    5.552708e-01   7.517535e-03
  2.470185e+00    5.477013e-01   7.468387e-03
  2.472395e+00    5.472189e-01   7.466277e-03
  2.474606e+00    5.430573e-01   7.439402e-03
  2.476816e+00    5.408971e-01   7.425303e-03
  2.479027e+00    5.474761e-01   7.471181e-03
  2.481237e+00    5.420774e-01   7.434530e-03
  2.483448e+00    5.444422e-01   7.451019e-03
  2.485658e+00    5.370668e-01   7.400255e-03
  2.487869e+00    5.484519e-01   7.478296e-03
  2.490079e+00    5.239635e-01   7.308951e-03
  2.492290e+00    5.220526e-01   7.295172e-03
  2.494500e+00    5.357347e-01   7.389413e-03
  2.496710e+00    5.338428e-01   7.375666e-03
  2.498921e+00    5.366474e-01   7.394028e-03
  2.501131e+00    5.312554e-01   7.355832e-03
  2.503342e+00    5.236268e-01   7.301592e-03
  2.505552e+00    5.231486e-01   7.297107e-03
  2.507763e+00    5.150751e-01   7.239222e-03
  2.509973e+00    5.118205e-01   7.214898e-03
  2.512184e+00    5.231954e-01   7.293050e-03
  2.514394e+00    5.330107e-01   7.351708e-03
  2.516605e+00    5.324493e-01   7.300539e-03
  2.518815e+00    5.127057e-01   7.135927e-03
  2.521025e+00    5.126923e-01   7.115128e-03
  2.523236e+00    5.085124e-01   7.068373e-03
  2.525446e+00    5.148712e-01   7.096978e-03
  2.527657e+00    5.239550e-01   7.144729e-03
  2.529867e+00    5.252960e-01   7.139693e-03
  2.532078e+00    5.113016e-01   7.029101e-03
  2.534288e+00    5.192909e-01   7.069982e-03
  2.536499e+00    5.211915e-01   7.071024e-03
  2.538709e+00    5.162301e-01   7.026368e-03
  2.540920e+00    5.094265e-01   6.969425e-03
  2.543130e+00    5.110976e-01   6.970594e-03
  2.545340e+00    5.170268e-01   7.000927e-03
  2.547551e+00    5.268518e-01   7.057155e-03
  2.549761e+00    5.251210e-01   7.035930e-03
  2.551972e+00    5.205027e-01   6.995601e-03
  2.554182e+00    5.129766e-01   6.935730e-03
  2.556393e+00    5.179408e-01   6.960139e-03
  2.558603e+00    5.204817e-01   6.968108e-03
  2.560814e+00    5.158172e-01   6.928162e-03
  2.563024e+00    5.244052e-01   6.976957e-03
  2.565235e+00    5.211454e-01   6.945735e-03
  2.567445e+00    5.108423e-01   6.867249e-03
  2.569656e+00    5.059468e-01   6.824621e-03
  2.571866e+00    5.211247e-01   6.916843e-03
  2.574076e+00    5.179192e-01   6.886279e-03
  2.576287e+00    5.040622e-01   6.785301e-03
  2.578497e+00    4.950077e-01   6.716390e-03
  2.580708e+00    4.978156e-01   6.727470e-03
  2.582918e+00    4.989394e-01   6.727417e-03
  2.585129e+00    4.935263e-01   6.683232e-03
  2.587339e+00    5.024713e-01   6.735925e-03
  2.589550e+00    5.064186e-01   6.754842e-03
  2.591760e+00    5.014534e-01   6.713981e-03
  2.593971e+00    5.010828e-01   6.704059e-03
  2.596181e+00    5.078495e-01   6.742967e-03
  2.598391e+00    5.028847e-01   6.704778e-03
  2.600602e+00    5.000236e-01   6.679825e-03
  2.602812e+00    5.005171e-01   6.675642e-03
  2.605023e+00    4.968317e-01   6.643947e-03
  2.607233e+00    4.977590e-01   6.643063e-03
  2.609444e+00    4.977632e-01   6.635940e-03
  2.611654e+00    4.945910e-01   6.607524e-03
  2.613865e+00    5.137959e-01   6.727497e-03
  2.616075e+00    4.953860e-01   6.598820e-03
  2.618286e+00    5.037029e-01   6.646990e-03
  2.620496e+00    4.955088e-01   6.586062e-03
  2.622706e+00    4.998545e-01   6.609183e-03
  2.624917e+00    5.025208e-01   6.620929e-03
  2.627127e+00    5.033730e-01   6.620820e-03
  2.629338e+00    5.054069e-01   6.628195e-03
  2.631548e+00    5.081941e-01   6.640236e-03
  2.633759e+00    5.008590e-01   6.585013e-03
  2.635969e+00    4.993565e-01   6.568460e-03
  2.638180e+00    4.939042e-01   6.525567e-03
  2.640390e+00    4.883638e-01   6.482333e-03
  2.642601e+00    5.094999e-01   6.614414e-03
  2.644811e+00    4.911876e-01   6.487462e-03
  2.647021e+00    4.857158e-01   6.444736e-03
  2.649232e+00    4.945461e-01   6.496373e-03
  2.651442e+00    5.037488e-01   6.550001e-03
  2.653653e+00    5.006393e-01   6.522957e-03
  2.655863e+00    4.973556e-01   6.494863e-03
  2.658074e+00    4.888823e-01   6.432728e-03
  2.660284e+00    5.068764e-01   6.543634e-03
  2.662495e+00    5.030798e-01   6.512303e-03
  2.664705e+00    4.906525e-01   6.424826e-03
  2.666916e+00    4.824826e-01   6.364749e-03
  2.669126e+00    4.909574e-01   6.413958e-03
  2.671337e+00    5.066499e-01   6.509011e-03
  2.673547e+00    5.058724e-01   6.497588e-03
  2.675757e+00    4.948739e-01   6.420086e-03
  2.677968e+00    4.972678e-01   6.429073e-03
  2.680178e+00    4.899766e-01   6.375382e-03
  2.682389e+00    4.907354e-01   6.373935e-03
  2.684599e+00    4.970821e-01   6.408810e-03
  2.686810e+00    4.962002e-01   6.396476e-03
  2.689020e+00    5.058145e-01   6.451796e-03
  2.691231e+00    4.816210e-01   6.289364e-03
  2.693441e+00    4.779834e-01   6.259496e-03
  2.695652e+00    4.906979e-01   6.335686e-03
  2.697862e+00    5.032268e-01   6.409630e-03
  2.700072e+00    4.703360e-01   6.190692e-03
  2.702283e+00    4.684527e-01   6.172164e-03
  2.704493e+00    4.974822e-01   6.354190e-03
  2.706704e+00    4.994343e-01   6.360189e-03
  2.708914e+00    4.910145e-01   6.300356e-03
  2.711125e+00    4.961640e-01   6.327011e-03
  2.713335e+00    4.921684e-01   6.295367e-03
  2.715546e+00    4.782847e-01   6.199534e-03
  2.717756e+00    4.864333e-01   6.246229e-03
  2.719967e+00    4.848664e-01   6.229963e-03
  2.722177e+00    4.837748e-01   6.216822e-03
  2.724387e+00    4.865643e-01   6.228618e-03
  2.726598e+00    4.858575e-01   6.218032e-03
  2.728808e+00    4.699695e-01   6.109470e-03
  2.731019e+00    4.686951e-01   6.095154e-03
  2.733229e+00    4.640547e-01   6.059217e-03
  2.735440e+00    4.663489e-01   6.068031e-03
  2.737650e+00    4.874656e-01   6.197832e-03
  2.739861e+00    4.943594e-01   6.235397e-03
  2.742071e+00    4.865243e-01   6.179995e-03
  2.744282e+00    4.936585e-01   6.218840e-03
  2.746492e+00    4.875361e-01   6.174092e-03
  2.748702e+00    4.780580e-01   6.107897e-03
  2.750913e+00    4.759911e-01   6.088919e-03
  2.753123e+00    4.781519e-01   6.096633e-03
  2.755334e+00    4.716583e-01   6.049069e-03
  2.757544e+00    4.749160e-01   6.064231e-03
  2.759755e+00    4.598546e-01   5.961529e-03
  2.761965e+00    4.691519e-01   6.015582e-03
  2.764176e+00    4.763256e-01   6.055424e-03
  2.766386e+00    4.843857e-01   6.100636e-03
  2.768597e+00    4.837401e-01   6.090678e-03
  2.770807e+00    4.834306e-01   6.082824e-03
  2.773017e+00    4.744550e-01   6.020169e-03
  2.775228e+00    4.796986e-01   6.047522e-03
  2.777438e+00    4.773326e-01   6.026816e-03
  2.779649e+00    4.746966e-01   6.004274e-03
  2.781859e+00    4.765302e-01   6.010099e-03
  2.784070e+00    4.675623e-01   5.947483e-03
  2.786280e+00    4.754164e-01   5.991469e-03
  2.788491e+00    4.754229e-01   5.985677e-03
  2.790701e+00    4.788727e-01   6.001699e-03
  2.792912e+00    4.682417e-01   5.928793e-03
  2.795122e+00    4.713812e-01   5.942927e-03
  2.797333e+00    4.624008e-01   5.880573e-03
  2.799543e+00    4.682426e-01   5.911771e-03
  2.801753e+00    4.665782e-01   5.895468e-03
  2.803964e+00    4.834569e-01   5.995423e-03
  2.806174e+00    4.882154e-01   6.018642e-03
  2.808385e+00    4.689708e-01   5.892086e-03
  2.810595e+00    4.603939e-01   5.831182e-03
  2.812806e+00    4.614864e-01   5.831578e-03
  2.815016e+00    4.628156e-01   5.835271e-03
  2.817227e+00    4.794680e-01   5.965410e-03
  2.819437e+00    4.708152e-01   5.922396e-03
  2.821648e+00    4.607420e-01   5.860936e-03
  2.823858e+00    4.762632e-01   5.964197e-03
  2.826068e+00    4.707909e-01   5.934813e-03
  2.828279e+00    4.673332e-01   5.916987e-03
  2.830489e+00    4.647698e-01   5.904051e-03
  2.832700e+00    4.609906e-01   5.882532e-03
  2.834910e+00    4.753632e-01   5.975575e-03
  2.837121e+00    4.753322e-01   5.977124e-03
  2.839331e+00    4.672257e-01   5.927156e-03
  2.841542e+00    4.778850e-01   5.995407e-03
  2.843752e+00    4.591344e-01   5.877399e-03
  2.845963e+00    4.511822e-01   5.826646e-03
  2.848173e+00    4.631633e-01   5.903600e-03
  2.850383e+00    4.481449e-01   5.807378e-03
  2.852594e+00    4.611169e-01   5.890755e-03
  2.854804e+00    4.655848e-01   5.918710e-03
  2.857015e+00    4.593837e-01   5.878757e-03
  2.859225e+00    4.494850e-01   5.814810e-03
  2.861436e+00    4.566431e-01   5.860284e-03
  2.863646e+00    4.609579e-01   5.887945e-03
  2.865857e+00    4.472129e-01   5.799835e-03
  2.868067e+00    4.635050e-01   5.904735e-03
  2.870278e+00    4.653933e-01   5.916421e-03
  2.872488e+00    4.646055e-01   5.910245e-03
  2.874698e+00    4.619970e-01   5.892583e-03
  2.876909e+00    4.613721e-01   5.887270e-03
  2.879119e+00    4.626261e-01   5.893647e-03
  2.881330e+00    4.649252e-01   5.906803e-03
  2.883540e+00    4.685440e-01   5.928336e-03
  2.885751e+00    4.735238e-01   5.958107e-03
  2.887961e+00    4.684113e-01   5.923958e-03
  2.890172e+00    4.501147e-01   5.805518e-03
  2.892382e+00    4.630627e-01   5.886615e-03
  2.894593e+00    4.501990e-01   5.802483e-03
  2.896803e+00    4.568219e-01   5.843038e-03
  2.899014e+00    4.583096e-01   5.850629e-03
  2.901224e+00    4.576962e-01   5.844739e-03
  2.903434e+00    4.540426e-01   5.819428e-03
  2.905645e+00    4.459406e-01   5.765076e-03
  2.907855e+00    4.619482e-01   5.865530e-03
  2.910066e+00    4.634634e-01   5.873065e-03
  2.912276e+00    4.530732e-01   5.804746e-03
  2.914487e+00    4.495151e-01   5.779476e-03
  2.916697e+00    4.650748e-01   5.876403e-03
  2.918908e+00    4.632165e-01   5.862648e-03
  2.921118e+00    4.634428e-01   5.861372e-03
  2.923329e+00    4.567714e-01   5.816708e-03
  2.925539e+00    4.627706e-01   5.852495e-03
  2.927749e+00    4.457629e-01   5.741665e-03
  2.929960e+00    4.487177e-01   5.757902e-03
  2.932170e+00    4.455321e-01   5.735124e-03
  2.934381e+00    4.577237e-01   5.810628e-03
  2.936591e+00    4.622824e-01   5.836891e-03
  2.938802e+00    4.578038e-01   5.805846e-03
  2.941012e+00    4.502524e-01   5.755423e-03
  2.943223e+00    4.623865e-01   5.829761e-03
  2.945433e+00    4.538733e-01   5.772116e-03
  2.947644e+00    4.468666e-01   5.723292e-03
  2.949854e+00    4.591297e-01   5.796994e-03
  2.952064e+00    4.609560e-01   5.804271e-03
  2.954275e+00    4.643308e-01   5.821017e-03
  2.956485e+00    4.536773e-01   5.749678e-03
  2.958696e+00    4.602535e-01   5.786793e-03
  2.960906e+00    4.607490e-01   5.785716e-03
  2.963117e+00    4.433395e-01   5.670917e-03
  2.965327e+00    4.546661e-01   5.738987e-03
  2.967538e+00    4.677435e-01   5.817984e-03
  2.969748e+00    4.680519e-01   5.817059e-03
  2.971959e+00    4.476252e-01   5.685593e-03
  2.974169e+00    4.538369e-01   5.722311e-03
  2.976379e+00    4.610107e-01   5.764419e-03
  2.978590e+00    4.623581e-01   5.769704e-03
  2.980800e+00    4.449154e-01   5.657026e-03
  2.983011e+00    4.538496e-01   5.710751e-03
  2.985221e+00    4.523869e-01   5.698414e-03
  2.987432e+00    4.466969e-01   5.659346e-03
  2.989642e+00    4.461447e-01   5.653270e-03
  2.991853e+00    4.437983e-01   5.635125e-03
  2.994063e+00    4.498076e-01   5.670255e-03
  2.996274e+00    4.620984e-01   5.743989e-03
  2.998484e+00    4.605349e-01   5.731564e-03
  3.000694e+00    4.523200e-01   5.676748e-03
  3.002905e+00    4.595296e-01   5.718853e-03
  3.005115e+00    4.564660e-01   5.696774e-03
  3.007326e+00    4.530814e-01   5.672462e-03
  3.009536e+00    4.518159e-01   5.661275e-03
  3.011747e+00    4.639828e-01   5.734060e-03
  3.013957e+00    4.485090e-01   5.634462e-03
  3.016168e+00    4.558895e-01   5.677365e-03
  3.018378e+00    4.506333e-01   5.641516e-03
  3.020589e+00    4.405400e-01   5.574792e-03
  3.022799e+00    4.430732e-01   5.587676e-03
  3.025010e+00    4.573992e-01   5.674028e-03
  3.027220e+00    4.498356e-01   5.623836e-03
  3.029430e+00    4.452356e-01   5.591774e-03
  3.031641e+00    4.428500e-01   5.573672e-03
  3.033851e+00    4.431492e-01   5.572072e-03
  3.036062e+00    4.443950e-01   5.577141e-03
  3.038272e+00    4.569033e-01   5.651468e-03
  3.040483e+00    4.518857e-01   5.617156e-03
  3.042693e+00    4.482727e-01   5.591397e-03
  3.044904e+00    4.461156e-01   5.573919e-03
  3.047114e+00    4.515823e-01   5.603152e-03
  3.049325e+00    4.552557e-01   5.621488e-03
  3.051535e+00    4.659713e-01   5.682788e-03
  3.053745e+00    4.595238e-01   5.638552e-03
  3.055956e+00    4.510082e-01   5.581480e-03
  3.058166e+00    4.535198e-01   5.592722e-03
  3.060377e+00    4.475146e-01   5.550822e-03
  3.062587e+00    4.503558e-01   5.563766e-03
  3.064798e+00    4.457546e-01   5.531067e-03
  3.067008e+00    4.456823e-01   5.525878e-03
  3.069219e+00    4.591704e-01   5.604327e-03
  3.071429e+00    4.625057e-01   5.621077e-03
  3.073640e+00    4.474041e-01   5.525250e-03
  3.075850e+00    4.357260e-01   5.449107e-03
  3.078060e+00    4.364402e-01   5.450513e-03
  3.080271e+00    4.446225e-01   5.497921e-03
  3.082481e+00    4.340053e-01   5.428479e-03
  3.084692e+00    4.545314e-01   5.551968e-03
  3.086902e+00    4.444113e-01   5.486585e-03
  3.089113e+00    4.526550e-01   5.533637e-03
  3.091323e+00    4.586039e-01   5.566492e-03
  3.093534e+00    4.411157e-01   5.455965e-03
  3.095744e+00    4.433136e-01   5.466175e-03
  3.097955e+00    4.561454e-01   5.541143e-03
  3.100165e+00    4.527965e-01   5.517422e-03
  3.102375e+00    4.415947e-01   5.445337e-03
  3.104586e+00    4.397210e-01   5.430305e-03
  3.106796e+00    4.484812e-01   5.480605e-03
  3.109007e+00    4.458856e-01   5.461514e-03
  3.111217e+00    4.333073e-01   5.380289e-03
  3.113428e+00    4.411759e-01   5.425510e-03
  3.115638e+00    4.427772e-01   5.432132e-03
  3.117849e+00    4.470803e-01   5.454724e-03
  3.120059e+00    4.513146e-01   5.477020e-03
  3.122270e+00    4.280466e-01   5.330776e-03
  3.124480e+00    4.383425e-01   5.390828e-03
  3.126691e+00    4.315175e-01   5.345190e-03
  3.128901e+00    4.452845e-01   5.426668e-03
  3.131111e+00    4.461044e-01   5.427803e-03
  3.133322e+00    4.570403e-01   5.490440e-03
  3.135532e+00    4.449627e-01   5.414022e-03
  3.137743e+00    4.319583e-01   5.330872e-03
  3.139953e+00    4.282233e-01   5.304158e-03
  3.142164e+00    4.394083e-01   5.384946e-03
  3.144374e+00    4.390156e-01   5.410839e-03
  3.146585e+00    4.449072e-01   5.461634e-03
  3.148795e+00    4.386510e-01   5.433828e-03
  3.151006e+00    4.381696e-01   5.439361e-03
  3.153216e+00    4.332437e-01   5.415749e-03
  3.155426e+00    4.446647e-01   5.493016e-03
  3.157637e+00    4.463018e-01   5.508680e-03
  3.159847e+00    4.298896e-01   5.411260e-03
  3.162058e+00    4.430229e-01   5.497738e-03
  3.164268e+00    4.212609e-01   5.364991e-03
  3.166479e+00    4.227558e-01   5.378074e-03
  3.168689e+00    4.194880e-01   5.360543e-03
  3.170900e+00    4.223601e-01   5.381967e-03
  3.173110e+00    4.227701e-01   5.387398e-03
  3.175321e+00    4.359844e-01   5.473433e-03
  3.177531e+00    4.353163e-01   5.471964e-03
  3.179741e+00    4.356594e-01   5.476191e-03
  3.181952e+00    4.249769e-01   5.410730e-03
  3.184162e+00    4.343723e-01   5.472371e-03
  3.186373e+00    4.403776e-01   5.511690e-03
  3.188583e+00    4.323360e-01   5.462913e-03
  3.190794e+00    4.344737e-01   5.478157e-03
  3.193004e+00    4.291379e-01   5.445632e-03
  3.195215e+00    4.335672e-01   5.475165e-03
  3.197425e+00    4.341147e-01   5.479847e-03
  3.199636e+00    4.124468e-01   5.340586e-03
  3.201846e+00    4.244056e-01   5.416842e-03
  3.204056e+00    4.258925e-01   5.427218e-03
  3.206267e+00    4.369982e-01   5.498374e-03
  3.208477e+00    4.269438e-01   5.435649e-03
  3.210688e+00    4.413201e-01   5.527272e-03
  3.212898e+00    4.484432e-01   5.572285e-03
  3.215109e+00    4.359053e-01   5.494612e-03
  3.217319e+00    4.325595e-01   5.474104e-03
  3.219530e+00    4.201719e-01   5.395547e-03
  3.221740e+00    4.328810e-01   5.477078e-03
  3.223951e+00    4.361330e-01   5.498107e-03
  3.226161e+00    4.251523e-01   5.428645e-03
  3.228372e+00    4.234910e-01   5.418540e-03
  3.230582e+00    4.221100e-01   5.409843e-03
  3.232792e+00    4.238799e-01   5.421396e-03
  3.235003e+00    4.224799e-01   5.412668e-03
  3.237213e+00    4.208182e-01   5.402131e-03
  3.239424e+00    4.172363e-01   5.379084e-03
  3.241634e+00    4.175282e-01   5.381075e-03
  3.243845e+00    4.143320e-01   5.360526e-03
  3.246055e+00    4.165394e-01   5.374510e-03
  3.248266e+00    4.289158e-01   5.453970e-03
  3.250476e+00    4.303656e-01   5.462876e-03
  3.252687e+00    4.216726e-01   5.407345e-03
  3.254897e+00    4.297175e-01   5.458565e-03
  3.257107e+00    4.195688e-01   5.393406e-03
  3.259318e+00    4.128149e-01   5.349612e-03
  3.261528e+00    4.099236e-01   5.330679e-03
  3.263739e+00    4.292801e-01   5.454519e-03
  3.265949e+00    4.369639e-01   5.503030e-03
  3.268160e+00    4.087426e-01   5.321939e-03
  3.270370e+00    4.121433e-01   5.343516e-03
  3.272581e+00    4.220061e-01   5.406806e-03
  3.274791e+00    4.033824e-01   5.285649e-03
  3.277002e+00    4.085429e-01   5.318789e-03
  3.279212e+00    3.975806e-01   5.246572e-03
  3.281422e+00    4.218928e-01   5.404035e-03
  3.283633e+00    4.405345e-01   5.521426e-03
  3.285843e+00    4.338906e-01   5.479326e-03
  3.288054e+00    4.263206e-01   5.430366e-03
  3.290264e+00    4.154840e-01   5.360597e-03
  3.292475e+00    4.277254e-01   5.438135e-03
  3.294685e+00    4.347613e-01   5.482052e-03
  3.296896e+00    4.250941e-01   5.420006e-03
  3.299106e+00    4.274557e-01   5.434479e-03
  3.301317e+00    4.354876e-01   5.484258e-03
  3.303527e+00    4.213814e-01   5.394252e-03
  3.305737e+00    4.062076e-01   5.295197e-03
  3.307948e+00    4.253843e-01   5.418074e-03
  3.310158e+00    4.143614e-01   5.346593e-03
  3.312369e+00    4.129770e-01   5.336758e-03
  3.314579e+00    4.303740e-01   5.447083e-03
  3.316790e+00    4.336421e-01   5.467031e-03
  3.319000e+00    4.234354e-01   5.401117e-03
  3.321211e+00    4.257549e-01   5.415272e-03
  3.323421e+00    4.247911e-01   5.407951e-03
  3.325632e+00    4.152419e-01   5.345918e-03
  3.327842e+00    4.251277e-01   5.408268e-03
  3.330052e+00    4.270590e-01   5.419467e-03
  3.332263e+00    4.378633e-01   5.486554e-03
  3.334473e+00    4.337850e-01   5.460028e-03
  3.336684e+00    4.246934e-01   5.401237e-03
  3.338894e+00    4.293790e-01   5.430067e-03
  3.341105e+00    4.271706e-01   5.414913e-03
  3.343315e+00    4.173724e-01   5.351298e-03
  3.345526e+00    4.142511e-01   5.330349e-03
  3.347736e+00    4.342926e-01   5.456337e-03
  3.349947e+00    4.281633e-01   5.416778e-03
  3.352157e+00    4.199776e-01   5.363546e-03
  3.354368e+00    4.233648e-01   5.383861e-03
  3.356578e+00    4.035905e-01   5.255609e-03
  3.358788e+00    4.101659e-01   5.296937e-03
  3.360999e+00    4.097795e-01   5.293183e-03
  3.363209e+00    4.185026e-01   5.348228e-03
  3.365420e+00    4.229259e-01   5.374889e-03
  3.367630e+00    4.284330e-01   5.408743e-03
  3.369841e+00    4.256628e-01   5.389797e-03
  3.372051e+00    4.269183e-01   5.395724e-03
  3.374262e+00    4.201084e-01   5.350086e-03
  3.376472e+00    4.028287e-01   5.236493e-03
  3.378683e+00    4.008091e-01   5.220868e-03
  3.380893e+00    4.180200e-01   5.329462e-03
  3.383103e+00    4.067692e-01   5.254575e-03
  3.385314e+00    3.990638e-01   5.202376e-03
  3.387524e+00    4.104038e-01   5.273058e-03
  3.389735e+00    4.117124e-01   5.278840e-03
  3.391945e+00    4.065180e-01   5.241783e-03
  3.394156e+00    3.962831e-01   5.171257e-03
  3.396366e+00    3.967423e-01   5.170896e-03
  3.398577e+00    3.916429e-01   5.134583e-03
  3.400787e+00    4.063466e-01   5.241917e-03
  3.402998e+00    4.175122e-01   5.351870e-03
  3.405208e+00    4.165730e-01   5.366785e-03
  3.407418e+00    4.023759e-01   5.290374e-03
  3.409629e+00    4.005095e-01   5.292018e-03
  3.411839e+00    3.835021e-01   5.189981e-03
  3.414050e+00    3.972936e-01   5.293481e-03
  3.416260e+00    3.903861e-01   5.256853e-03
  3.418471e+00    3.837112e-01   5.221014e-03
  3.420681e+00    3.829109e-01   5.223960e-03
  3.422892e+00    3.879923e-01   5.266463e-03
  3.425102e+00    3.875519e-01   5.271284e-03
  3.427313e+00    3.784243e-01   5.215941e-03
  3.429523e+00    3.803961e-01   5.236482e-03
  3.431733e+00    3.735726e-01   5.195886e-03
  3.433944e+00    3.751123e-01   5.212981e-03
  3.436154e+00    3.738711e-01   5.210525e-03
  3.438365e+00    3.722830e-01   5.205293e-03
  3.440575e+00    3.693696e-01   5.190726e-03
  3.442786e+00    3.826743e-01   5.289012e-03
  3.444996e+00    3.774271e-01   5.258149e-03
  3.447207e+00    3.538056e-01   5.096078e-03
  3.449417e+00    3.641336e-01   5.210327e-03
  3.451628e+00    3.601035e-01   5.210491e-03
  3.453838e+00    3.601074e-01   5.231486e-03
  3.456049e+00    3.564338e-01   5.228278e-03
  3.458259e+00    3.623308e-01   5.293146e-03
  3.460469e+00    3.729733e-01   5.390299e-03
  3.462680e+00    3.874454e-01   5.513472e-03
  3.464890e+00    3.738389e-01   5.433801e-03
  3.467101e+00    3.655206e-01   5.390389e-03
  3.469311e+00    3.748216e-01   5.475227e-03
  3.471522e+00    3.712272e-01   5.465199e-03
  3.473732e+00    3.935090e-01   5.643080e-03
  3.475943e+00    3.938257e-01   5.661298e-03
  3.478153e+00    3.966599e-01   5.697228e-03
  3.480364e+00    4.166272e-01   5.854467e-03
  3.482574e+00    4.067403e-01   5.799973e-03
  3.484784e+00    4.156399e-01   5.878041e-03
  3.486995e+00    4.324648e-01   6.011242e-03
  3.489205e+00    4.334891e-01   6.033201e-03
  3.491416e+00    4.411547e-01   6.101447e-03
  3.493626e+00    4.555022e-01   6.214829e-03
  3.495837e+00    4.432152e-01   6.145225e-03
  3.498047e+00    4.563450e-01   6.250253e-03
  3.500258e+00    4.764729e-01   6.401588e-03
  3.502468e+00    4.736453e-01   6.397288e-03
  3.504679e+00    4.697576e-01   6.385623e-03
  3.506889e+00    4.692023e-01   6.396326e-03
  3.509099e+00    4.649352e-01   6.381450e-03
  3.511310e+00    4.792328e-01   6.493311e-03
  3.513520e+00    4.815108e-01   6.523147e-03
  3.515731e+00    4.918274e-01   6.607134e-03
  3.517941e+00    4.763226e-01   6.516312e-03
  3.520152e+00    4.918017e-01   6.635586e-03
  3.522362e+00    4.978146e-01   6.690515e-03
  3.524573e+00    5.004491e-01   6.722364e-03
  3.526783e+00    5.149913e-01   6.832757e-03
  3.528994e+00    5.265266e-01   6.921205e-03
  3.531204e+00    5.342653e-01   6.984500e-03
  3.533414e+00    5.330785e-01   6.988889e-03
  3.535625e+00    5.488880e-01   7.104402e-03
  3.537835e+00    5.403017e-01   7.060790e-03
  3.540046e+00    5.272226e-01   6.983710e-03
  3.542256e+00    5.441263e-01   7.102343e-03
  3.544467e+00    5.428116e-01   7.101418e-03
  3.546677e+00    5.488477e-01   7.148486e-03
  3.548888e+00    5.469307e-01   7.143570e-03
  3.551098e+00    5.323716e-01   7.055100e-03
  3.553309e+00    5.271565e-01   7.028553e-03
  3.555519e+00    5.324331e-01   7.074881e-03
  3.557729e+00    5.317630e-01   7.082164e-03
  3.559940e+00    5.327610e-01   7.100230e-03
  3.562150e+00    5.436275e-01   7.184152e-03
  3.564361e+00    5.253229e-01   7.075322e-03
  3.566571e+00    5.360318e-01   7.160881e-03
  3.568782e+00    5.453857e-01   7.237374e-03
  3.570992e+00    5.265959e-01   7.125225e-03
  3.573203e+00    5.281976e-01   7.150065e-03
  3.575413e+00    5.345784e-01   7.206917e-03
  3.577624e+00    5.368334e-01   7.236228e-03
  3.579834e+00    5.268614e-01   7.182465e-03
  3.582045e+00    5.254198e-01   7.186518e-03
  3.584255e+00    5.170632e-01   7.142981e-03
  3.586465e+00    5.303193e-01   7.247761e-03
  3.588676e+00    5.408934e-01   7.333968e-03
  3.590886e+00    5.387810e-01   7.333348e-03
  3.593097e+00    5.306835e-01   7.292478e-03
  3.595307e+00    5.433266e-01   7.392861e-03
  3.597518e+00    5.235578e-01   7.271161e-03
  3.599728e+00    5.385541e-01   7.388724e-03
  3.601939e+00    5.385088e-01   7.402478e-03
  3.604149e+00    5.396130e-01   7.424555e-03
  3.606360e+00    5.275015e-01   7.354806e-03
  3.608570e+00    5.377581e-01   7.440128e-03
  3.610780e+00    5.401875e-01   7.468050e-03
  3.612991e+00    5.488454e-01   7.537787e-03
  3.615201e+00    5.579436e-01   7.610020e-03
  3.617412e+00    5.375423e-01   7.476917e-03
  3.619622e+00    5.271170e-01   7.409946e-03
  3.621833e+00    5.332517e-01   7.459605e-03
  3.624043e+00    5.434654e-01   7.540349e-03
  3.626254e+00    5.288574e-01   7.447966e-03
  3.628464e+00    5.317343e-01   7.479118e-03
  3.630675e+00    5.411546e-01   7.559306e-03
  3.632885e+00    5.220544e-01   7.439008e-03
  3.635095e+00    5.451009e-01   7.615942e-03
  3.637306e+00    5.421135e-01   7.609568e-03
  3.639516e+00    5.344084e-01   7.569825e-03
  3.641727e+00    5.160960e-01   7.453359e-03
  3.643937e+00    5.131075e-01   7.445978e-03
  3.646148e+00    5.476996e-01   7.707677e-03
  3.648358e+00    5.446367e-01   7.701156e-03
  3.650569e+00    5.361749e-01   7.655835e-03
  3.652779e+00    5.324414e-01   7.643948e-03
  3.654990e+00    5.228389e-01   7.589426e-03
  3.657200e+00    5.298961e-01   7.655343e-03
  3.659410e+00    5.421548e-01   7.758474e-03
  3.661621e+00    5.423133e-01   7.774909e-03
  3.663831e+00    5.240551e-01   7.657897e-03
  3.666042e+00    5.302308e-01   7.718005e-03
  3.668252e+00    5.440496e-01   7.833345e-03
  3.670463e+00    5.371674e-01   7.799011e-03
  3.672673e+00    5.304263e-01   7.765319e-03
  3.674884e+00    5.195817e-01   7.700755e-03
  3.677094e+00    5.114467e-01   7.655495e-03
  3.679305e+00    5.112437e-01   7.669213e-03
  3.681515e+00    5.063583e-01   7.647708e-03
  3.683726e+00    5.299737e-01   7.839888e-03
  3.685936e+00    5.236114e-01   7.808298e-03
  3.688146e+00    5.203978e-01   7.799937e-03
  3.690357e+00    5.275456e-01   7.869288e-03
  3.692567e+00    5.313269e-01   7.913632e-03
  3.694778e+00    5.147606e-01   7.805130e-03
  3.696988e+00    5.351275e-01   7.974158e-03
  3.699199e+00    5.334356e-01   7.977913e-03
  3.701409e+00    5.457242e-01   8.085984e-03
  3.703620e+00    5.197512e-01   7.907481e-03
  3.705830e+00    5.198050e-01   7.924167e-03
  3.708041e+00    5.176860e-01   7.924504e-03
  3.710251e+00    5.085312e-01   7.870612e-03
  3.712461e+00    5.065797e-01   7.871970e-03
  3.714672e+00    5.075549e-01   7.896039e-03
  3.716882e+00    5.111724e-01   7.940673e-03
  3.719093e+00    5.122700e-01   7.966202e-03
  3.721303e+00    5.198274e-01   8.041718e-03
  3.723514e+00    5.100562e-01   7.982884e-03
  3.725724e+00    5.200089e-01   8.077586e-03
  3.727935e+00    5.038791e-01   7.968551e-03
  3.730145e+00    5.053893e-01   7.997604e-03
  3.732356e+00    4.968318e-01   7.946812e-03
  3.734566e+00    5.245175e-01   8.182905e-03
  3.736776e+00    5.073090e-01   8.065175e-03
  3.738987e+00    5.052297e-01   8.066250e-03
  3.741197e+00    4.911729e-01   7.970857e-03
  3.743408e+00    4.957951e-01   8.025976e-03
  3.745618e+00    5.094556e-01   8.154060e-03
  3.747829e+00    5.031794e-01   8.121621e-03
  3.750039e+00    5.219797e-01   8.290516e-03
  3.752250e+00    5.197695e-01   8.291594e-03
  3.754460e+00    5.154870e-01   8.275986e-03
  3.756671e+00    5.235764e-01   8.359739e-03
  3.758881e+00    5.117364e-01   8.283379e-03
  3.761091e+00    5.099523e-01   8.288100e-03
  3.763302e+00    5.023541e-01   8.245070e-03
  3.765512e+00    5.018028e-01   8.259697e-03
  3.767723e+00    5.142502e-01   8.380987e-03
  3.769933e+00    5.125982e-01   8.387001e-03
  3.772144e+00    5.175536e-01   8.447164e-03
  3.774354e+00    5.185782e-01   8.475704e-03
  3.776565e+00    4.985711e-01   8.330273e-03
  3.778775e+00    5.068793e-01   8.419405e-03
  3.780986e+00    5.075766e-01   8.445589e-03
  3.783196e+00    4.958411e-01   8.367489e-03
  3.785407e+00    4.809983e-01   8.261235e-03
  3.787617e+00    5.076278e-01   8.507673e-03
  3.789827e+00    5.079623e-01   8.531132e-03
  3.792038e+00    5.044522e-01   8.522525e-03
  3.794248e+00    5.000582e-01   8.506450e-03
  3.796459e+00    5.084507e-01   8.599017e-03
  3.798669e+00    4.893070e-01   8.456781e-03
  3.800880e+00    4.746538e-01   8.350003e-03
  3.803090e+00    5.223122e-01   8.781510e-03
  3.805301e+00    4.759410e-01   8.404179e-03
  3.807511e+00    4.900642e-01   8.549747e-03
  3.809722e+00    4.911671e-01   8.581399e-03
  3.811932e+00    4.790147e-01   8.496326e-03
  3.814142e+00    5.130764e-01   8.816398e-03
  3.816353e+00    5.157573e-01   8.862666e-03
  3.818563e+00    5.084158e-01   8.822654e-03
  3.820774e+00    4.998149e-01   8.770922e-03
  3.822984e+00    4.901159e-01   8.708605e-03
  3.825195e+00    4.766203e-01   8.611090e-03
  3.827405e+00    4.819736e-01   8.682781e-03
  3.829616e+00    4.864232e-01   8.746588e-03
  3.831826e+00    5.017787e-01   8.907791e-03
  3.834037e+00    5.258100e-01   9.143851e-03
  3.836247e+00    5.289249e-01   9.196391e-03
  3.838457e+00    4.974474e-01   8.943589e-03
  3.840668e+00    5.229287e-01   9.195644e-03
  3.842878e+00    5.046642e-01   9.059369e-03
  3.845089e+00    4.992085e-01   9.035902e-03
  3.847299e+00    4.989970e-01   9.059903e-03
  3.849510e+00    5.075278e-01   9.163205e-03
  3.851720e+00    4.845036e-01   8.974125e-03
  3.853931e+00    4.956025e-01   9.095307e-03
  3.856141e+00    4.975432e-01   9.132207e-03
  3.858352e+00    4.930779e-01   9.110317e-03
  3.860562e+00    4.900755e-01   9.101792e-03
  3.862772e+00    4.975495e-01   9.190610e-03
  3.864983e+00    5.015758e-01   9.247455e-03
  3.867193e+00    5.120075e-01   9.363412e-03
  3.869404e+00    4.835096e-01   9.118640e-03
  3.871614e+00    4.849146e-01   9.151670e-03
  3.873825e+00    5.001796e-01   9.315071e-03
  3.876035e+00    4.961187e-01   9.297778e-03
  3.878246e+00    5.150769e-01   9.500204e-03
  3.880456e+00    4.794695e-01   9.194530e-03
  3.882667e+00    5.000427e-01   9.419236e-03
  3.884877e+00    5.058332e-01   9.503842e-03
  3.887087e+00    4.912860e-01   9.396116e-03
  3.889298e+00    4.826482e-01   9.343225e-03
  3.891508e+00    4.881791e-01   9.427044e-03
  3.893719e+00    5.117872e-01   9.683925e-03
  3.895929e+00    5.087053e-01   9.686802e-03
  3.898140e+00    4.977703e-01   9.614027e-03
  3.900350e+00    4.997859e-01   9.665889e-03
  3.902561e+00    4.913374e-01   9.616257e-03
  3.904771e+00    4.784183e-01   9.521418e-03
  3.906982e+00    4.942482e-01   9.710921e-03
  3.909192e+00    5.025244e-01   9.825885e-03
  3.911403e+00    4.952148e-01   9.788367e-03
  3.913613e+00    4.823948e-01   9.694969e-03
  3.915823e+00    4.690289e-01   9.593667e-03
  3.918034e+00    5.057228e-01   9.997876e-03
  3.920244e+00    4.836339e-01   9.812636e-03
  3.922455e+00    4.680054e-01   9.688117e-03
  3.924665e+00    4.795967e-01   9.843392e-03
  3.926876e+00    4.796417e-01   9.880733e-03
  3.929086e+00    4.702032e-01   9.819714e-03
  3.931297e+00    4.659705e-01   9.809457e-03
  3.933507e+00    4.662365e-01   9.840474e-03
  3.935718e+00    4.833185e-01   1.004778e-02
  3.937928e+00    4.844355e-01   1.008874e-02
  3.940138e+00    4.917289e-01   1.019387e-02
  3.942349e+00    5.115317e-01   1.042771e-02
  3.944559e+00    4.911838e-01   1.024841e-02
  3.946770e+00    4.949866e-01   1.031832e-02
  3.948980e+00    4.747346e-01   1.013550e-02
  3.951191e+00    4.683208e-01   1.009692e-02
  3.953401e+00    4.785317e-01   1.023758e-02
  3.955612e+00    5.041720e-01   1.054051e-02
  3.957822e+00    4.771475e-01   1.028549e-02
  3.960033e+00    4.935418e-01   1.049358e-02
  3.962243e+00    4.964286e-01   1.055737e-02
  3.964453e+00    4.944336e-01   1.056965e-02
  3.966664e+00    4.848281e-01   1.049983e-02
  3.968874e+00    4.913431e-01   1.059863e-02
  3.971085e+00    4.886936e-01   1.059203e-02
  3.973295e+00    4.554944e-01   1.024682e-02
  3.975506e+00    4.724911e-01   1.045743e-02
  3.977716e+00    4.743222e-01   1.049950e-02
  3.979927e+00    4.802991e-01   1.058740e-02
  3.982137e+00    4.842232e-01   1.065287e-02
  3.984348e+00    4.495260e-01   1.028584e-02
  3.986558e+00    4.795650e-01   1.064597e-02
  3.988768e+00    5.033576e-01   1.093048e-02
  3.990979e+00    5.114779e-01   1.104161e-02
  3.993189e+00    4.735413e-01   1.064707e-02
  3.995400e+00    4.865851e-01   1.081626e-02
  3.997610e+00    4.753109e-01   1.071972e-02
  3.999821e+00    4.911792e-01   1.093498e-02
  4.002031e+00    4.979872e-01   1.104942e-02
  4.004242e+00    4.912939e-01   1.101363e-02
  4.006452e+00    4.833601e-01   1.096370e-02
  4.008663e+00    4.925951e-01   1.110820e-02
  4.010873e+00    4.756653e-01   1.095528e-02
  4.013084e+00    4.764034e-01   1.100440e-02
  4.015294e+00    4.806459e-01   1.109407e-02
  4.017504e+00    4.676116e-01   1.098382e-02
  4.019715e+00    4.428887e-01   1.073007e-02
  4.021925e+00    4.584948e-01   1.095928e-02
  4.024136e+00    4.859937e-01   1.132698e-02
  4.026346e+00    4.846511e-01   1.135546e-02
  4.028557e+00    4.889332e-01   1.145008e-02
  4.030767e+00    4.777146e-01   1.136337e-02
  4.032978e+00    4.720266e-01   1.134121e-02
  4.035188e+00    4.758483e-01   1.143282e-02
  4.037399e+00    4.944770e-01   1.170258e-02
  4.039609e+00    4.866223e-01   1.165717e-02
  4.041819e+00    4.747267e-01   1.156208e-02
  4.044030e+00    4.906036e-01   1.180415e-02
  4.046240e+00    4.958748e-01   1.191798e-02
  4.048451e+00    4.904725e-01   1.190412e-02
  4.050661e+00    4.945581e-01   1.200569e-02
  4.052872e+00    4.788454e-01   1.186600e-02
  4.055082e+00    4.604397e-01   1.168796e-02
  4.057293e+00    5.055031e-01   1.230149e-02
  4.059503e+00    5.302269e-01   1.265611e-02
  4.061714e+00    4.874148e-01   1.219111e-02
  4.063924e+00    5.077717e-01   1.250130e-02
  4.066134e+00    5.055180e-01   1.253247e-02
  4.068345e+00    4.638808e-01   1.206305e-02
  4.070555e+00    4.835141e-01   1.237501e-02
  4.072766e+00    4.814280e-01   1.240909e-02
  4.074976e+00    4.608515e-01   1.220165e-02
  4.077187e+00    4.717087e-01   1.240583e-02
  4.079397e+00    4.667288e-01   1.240328e-02
  4.081608e+00    4.359062e-01   1.204897e-02
  4.083818e+00    4.578709e-01   1.241311e-02
  4.086029e+00    4.192367e-01   1.194050e-02
  4.088239e+00    4.673243e-01   1.267443e-02
  4.090449e+00    4.706854e-01   1.278901e-02
  4.092660e+00    5.103770e-01   1.339064e-02
  4.094870e+00    5.168013e-01   1.354958e-02
  4.097081e+00    4.868332e-01   1.322288e-02
  4.099291e+00    4.562512e-01   1.285379e-02
  4.101502e+00    4.805309e-01   1.324064e-02
  4.103712e+00    4.878113e-01   1.339024e-02
  4.105923e+00    4.903057e-01   1.347642e-02
  4.108133e+00    4.834092e-01   1.343270e-02
  4.110344e+00    4.957187e-01   1.365484e-02
  4.112554e+00    4.739167e-01   1.340411e-02
  4.114764e+00    4.559181e-01   1.319970e-02
  4.116975e+00    4.874773e-01   1.370285e-02
  4.119185e+00    4.704710e-01   1.351625e-02
  4.121396e+00    4.590523e-01   1.340648e-02
  4.123606e+00    4.663840e-01   1.356839e-02
  4.125817e+00    4.822383e-01   1.385507e-02
  4.128027e+00    4.874287e-01   1.398795e-02
  4.130238e+00    5.015717e-01   1.425048e-02
  4.132448e+00    5.155680e-01   1.451037e-02
  4.134659e+00    5.259208e-01   1.471859e-02
  4.136869e+00    4.864987e-01   1.421938e-02
  4.139080e+00    4.665780e-01   1.398781e-02
  4.141290e+00    4.807480e-01   1.426170e-02
  4.143500e+00    4.467088e-01   1.381087e-02
  4.145711e+00    5.044267e-01   1.474448e-02
  4.147921e+00    5.000757e-01   1.474819e-02
  4.150132e+00    5.094448e-01   1.495662e-02
  4.152342e+00    5.170777e-01   1.514141e-02
  4.154553e+00    4.583707e-01   1.432378e-02
  4.156763e+00    5.069385e-01   1.513794e-02
  4.158974e+00    4.591460e-01   1.447901e-02
  4.161184e+00    4.944840e-01   1.510063e-02
  4.163395e+00    4.768830e-01   1.490518e-02
  4.165605e+00    4.488330e-01   1.453535e-02
  4.167815e+00    4.393249e-01   1.445561e-02
  4.170026e+00    5.015897e-01   1.552719e-02
  4.172236e+00    4.568549e-01   1.489901e-02
  4.174447e+00    5.121356e-01   1.586032e-02
  4.176657e+00    4.825222e-01   1.547921e-02
  4.178868e+00    5.490239e-01   1.660487e-02
  4.181078e+00    5.033542e-01   1.598885e-02
  4.183289e+00    4.422964e-01   1.507348e-02
  4.185499e+00    4.489892e-01   1.527708e-02
  4.187710e+00    4.650235e-01   1.563811e-02
  4.189920e+00    4.573893e-01   1.560281e-02
  4.192130e+00    4.970604e-01   1.636463e-02
  4.194341e+00    4.999155e-01   1.651226e-02
  4.196551e+00    4.084429e-01   1.502013e-02
  4.198762e+00    4.978854e-01   1.668818e-02
  4.200972e+00    4.937838e-01   1.672706e-02
  4.203183e+00    4.620810e-01   1.628798e-02
  4.205393e+00    4.694176e-01   1.652561e-02
  4.207604e+00    5.238900e-01   1.757765e-02
  4.209814e+00    5.459801e-01   1.806719e-02
  4.212025e+00    4.622949e-01   1.674320e-02
  4.214235e+00    4.842726e-01   1.725782e-02
  4.216445e+00    4.778479e-01   1.726692e-02
  4.218656e+00    4.796599e-01   1.742896e-02
  4.220866e+00    5.177852e-01   1.824294e-02
  4.223077e+00    5.272269e-01   1.855002e-02
  4.225287e+00    4.577098e-01   1.741982e-02
  4.227498e+00    4.806299e-01   1.799036e-02
  4.229708e+00    4.612707e-01   1.776803e-02
  4.231919e+00    4.179494e-01   1.705313e-02
  4.234129e+00    4.023992e-01   1.687262e-02
  4.236340e+00    4.927140e-01   1.883032e-02
  4.238550e+00    4.987485e-01   1.911246e-02
  4.240761e+00    5.128855e-01   1.955297e-02
  4.242971e+00    5.379098e-01   2.020747e-02
  4.245181e+00    4.754797e-01   1.917742e-02
  4.247392e+00    4.682156e-01   1.920784e-02
  4.249602e+00    4.585381e-01   1.919740e-02
  4.251813e+00    4.645039e-01   1.951226e-02
  4.254023e+00    4.677666e-01   1.977783e-02
  4.256234e+00    5.243130e-01   2.116310e-02
  4.258444e+00    4.779567e-01   2.041715e-02
  4.260655e+00    5.133449e-01   2.139239e-02
  4.262865e+00    4.491732e-01   2.023777e-02
  4.265076e+00    4.252075e-01   1.991410e-02
  4.267286e+00    4.094321e-01   1.977316e-02
  4.269496e+00    3.796297e-01   1.927173e-02
  4.271707e+00    4.447126e-01   2.111662e-02
  4.273917e+00    3.971125e-01   2.021216e-02
  4.276128e+00    4.306675e-01   2.132884e-02
  4.278338e+00    4.206068e-01   2.135922e-02
  4.280549e+00    4.443859e-01   2.226997e-02
  4.282759e+00    4.673912e-01   2.316726e-02
  4.284970e+00    4.149274e-01   2.215149e-02
  4.287180e+00    4.046764e-01   2.213788e-02
  4.289391e+00    4.697990e-01   2.403210e-02
  4.291601e+00    4.386173e-01   2.340622e-02
  4.293811e+00    4.529749e-01   2.397262e-02
  4.296022e+00    5.002904e-01   2.539561e-02
  4.298232e+00    4.397415e-01   2.400839e-02
  4.300443e+00    5.199237e-01   2.632147e-02
  4.302653e+00    5.244740e-01   2.666538e-02
  4.304864e+00    5.196850e-01   2.677343e-02
  4.307074e+00    4.250437e-01   2.443013e-02
  4.309285e+00    5.209358e-01   2.729156e-02
  4.311495e+00    5.339110e-01   2.788820e-02
  4.313706e+00    5.992249e-01   2.982244e-02
  4.315916e+00    4.735751e-01   2.677326e-02
  4.318126e+00    4.758095e-01   2.710088e-02
  4.320337e+00    4.304495e-01   2.603867e-02
  4.322547e+00    4.266227e-01   2.619679e-02
  4.324758e+00    4.516852e-01   2.723608e-02
  4.326968e+00    5.220466e-01   2.961029e-02
  4.329179e+00    4.414482e-01   2.752861e-02
  4.331389e+00    4.624016e-01   2.849896e-02
  4.333600e+00    4.830747e-01   2.947652e-02
  4.335810e+00    4.593255e-01   2.908525e-02
  4.338021e+00    5.077420e-01   3.097142e-02
  4.340231e+00    4.044133e-01   2.798768e-02
  4.342442e+00    3.915271e-01   2.790781e-02
  4.344652e+00    3.890815e-01   2.819759e-02
  4.346862e+00    3.719428e-01   2.795627e-02
  4.349073e+00    4.697228e-01   3.187260e-02
  4.351283e+00    4.031701e-01   2.997172e-02
  4.353494e+00    3.994755e-01   3.029268e-02
  4.355704e+00    4.958220e-01   3.429450e-02
  4.357915e+00    4.278542e-01   3.238579e-02
  4.360125e+00    4.276120e-01   3.292982e-02
  4.362336e+00    5.406990e-01   3.770430e-02
  4.364546e+00    3.597845e-01   3.131623e-02
  4.366757e+00    5.174924e-01   3.830512e-02
  4.368967e+00    4.682467e-01   3.716486e-02
  4.371177e+00    3.291604e-01   3.182125e-02
  4.373388e+00    4.003426e-01   3.587792e-02
  4.375598e+00    4.251338e-01   3.781654e-02
  4.377809e+00    4.051836e-01   3.785164e-02
  4.380019e+00    4.112164e-01   3.909260e-02
  4.382230e+00    4.550417e-01   4.227112e-02
  4.384440e+00    1.955712e-01   2.851022e-02
  4.386651e+00    3.591120e-01   3.982110e-02
  4.388861e+00    4.193112e-01   4.447547e-02
  4.391072e+00    4.686896e-01   4.867309e-02
  4.393282e+00    3.924693e-01   4.626339e-02
  4.395492e+00    3.723222e-01   4.692857e-02
  4.397703e+00    5.141379e-01   5.767221e-02
  4.399913e+00    3.708271e-01   5.145726e-02
  4.402124e+00    3.227507e-01   5.072693e-02
  4.404334e+00    5.066667e-01   6.755918e-02
  4.406545e+00    4.267230e-01   6.661684e-02
  4.408755e+00    5.806710e-01   8.427586e-02
  4.410966e+00    3.405905e-01   7.143742e-02
  4.413176e+00    3.198193e-01   7.836691e-02
  4.415387e+00   -6.601199e-01            nan
  4.417597e+00   -1.572734e+00            nan
  4.419807e+00    3.257673e-01   2.050554e-01
