# == pyFAI calibration ==
# Distance Sample to Detector: 0.216 m
# PONI: 1.166e-01, 1.308e-01 m
# Rotations: 0.000000 0.000000 0.000000 rad
# 
# == Fit2d calibration ==
# Distance Sample-beamCenter: 216.000 mm
# Center: x=1744.293, y=1555.000 pix
# Tilt: 0.000 deg  TiltPlanRot: 0.000 deg
# 
# Detector Eiger 9M	 PixelSize= 7.500e-05, 7.500e-05 m
#    Detector has a mask: True 
#    Detector has a dark current: False 
#    detector has a flat field: False 
# 
# Wavelength: 9.8e-11 m
# Mask applied: from detector
# Dark current applied: False
# Flat field applied: False
# Polarization factor: None
# Normalization factor: 1.0
# 
# Headers of the input frame:
# {
# "_array_data.header_convention": "SLS_1.0",
# "_array_data.header_contents": "# Detector: Dectris Eiger 9M, S/N E-18-0102\r\n# Pixel_size 75e-6 m x 75e-6 m\r\n# Silicon sensor, thickness 0.000450 m\r\n# Exposure_time 0.024997 s\r\n# Exposure_period 0.025000 s\r\n# Count_cutoff 62318 counts\r\n# Wavelength 0.980106 A\r\n# Detector_distance 0.215992 m\r\n# Beam_xy (1555, 1744) pixels\r\n# Start_angle 0.000000 deg.\r\n# Angle_increment 0.000000 deg.",
# "Content-Type": "application/octet-stream;",
# "conversions": "x-CBF_BYTE_OFFSET",
# "Content-Transfer-Encoding": "BINARY",
# "X-Binary-Size": "10166608",
# "X-Binary-ID": "1",
# "X-Binary-Element-Type": "signed 32-bit integer",
# "X-Binary-Element-Byte-Order": "LITTLE_ENDIAN",
# "Content-MD5": "cNNgZZwHvl9ZIMJk2Y1m7A==",
# "X-Binary-Number-of-Elements": "10166590",
# "X-Binary-Size-Fastest-Dimension": "3110",
# "X-Binary-Size-Second-Dimension": "3269",
# "X-Binary-Size-Padding": "4095"
# }
# --> H:/Proxima2a_2019-04-05/RAW_DATA/C5_gel17_position5/C5_mesh_1_data.cbf/C5_mesh_1_data.cbf000120.dat
#        q_A^-1              I           sigma 
  1.105228e-03    1.340185e+00   6.264254e-01
  3.315685e-03    1.638612e+00   4.210984e-01
  5.526141e-03    1.442263e+00   3.054882e-01
  7.736597e-03    1.333578e+00   2.481587e-01
  9.947054e-03    1.235666e+00   2.105848e-01
  1.215751e-02    1.169002e+00   1.852151e-01
  1.436797e-02    1.302209e+00   1.798109e-01
  1.657842e-02    1.283293e+00   1.661527e-01
  1.878888e-02    1.457382e+00   1.663222e-01
  2.099934e-02    1.358080e+00   1.519024e-01
  2.320979e-02    1.337057e+00   1.433533e-01
  2.542025e-02    1.503105e+00   1.452460e-01
  2.763070e-02    1.432762e+00   1.360120e-01
  2.984116e-02    1.384796e+00   1.286676e-01
  3.205162e-02    1.293320e+00   1.199884e-01
  3.426207e-02    1.317392e+00   1.171204e-01
  3.647253e-02    1.271666e+00   1.115261e-01
  3.868299e-02    1.320969e+00   1.103804e-01
  4.089344e-02    1.392159e+00   1.102110e-01
  4.310390e-02    1.364260e+00   1.062606e-01
  4.531436e-02    1.352055e+00   1.031723e-01
  4.752481e-02    1.429801e+00   1.035993e-01
  4.973527e-02    1.324524e+00   9.747240e-02
  5.194572e-02    1.464499e+00   1.002876e-01
  5.415618e-02    1.454651e+00   9.788544e-02
  5.636664e-02    1.387157e+00   9.369750e-02
  5.857709e-02    1.467199e+00   9.452766e-02
  6.078755e-02    1.586894e+00   9.650090e-02
  6.299801e-02    1.318147e+00   8.639297e-02
  6.520846e-02    1.390024e+00   8.720107e-02
  6.741892e-02    1.431858e+00   8.703618e-02
  6.962938e-02    1.438113e+00   8.583469e-02
  7.183983e-02    1.403462e+00   8.347808e-02
  7.405029e-02    1.444443e+00   8.341255e-02
  7.626074e-02    1.412314e+00   8.127481e-02
  7.847120e-02    1.437876e+00   8.084156e-02
  8.068166e-02    1.388920e+00   7.835686e-02
  8.289211e-02    1.350785e+00   7.623595e-02
  8.510257e-02    1.458276e+00   7.817522e-02
  8.731303e-02    1.519639e+00   7.878345e-02
  8.952348e-02    1.407395e+00   7.487823e-02
  9.173394e-02    1.469650e+00   7.558589e-02
  9.394439e-02    1.478962e+00   7.492518e-02
  9.615485e-02    1.431547e+00   7.286057e-02
  9.836531e-02    1.396789e+00   7.115540e-02
  1.005758e-01    1.331844e+00   6.871413e-02
  1.027862e-01    1.459782e+00   7.115933e-02
  1.049967e-01    1.519364e+00   7.182751e-02
  1.072071e-01    1.522983e+00   7.116695e-02
  1.094176e-01    1.543461e+00   7.091534e-02
  1.116280e-01    1.535210e+00   7.002024e-02
  1.138385e-01    1.466383e+00   6.776369e-02
  1.160490e-01    1.388167e+00   6.529997e-02
  1.182594e-01    1.381002e+00   6.451822e-02
  1.204699e-01    1.454731e+00   6.560726e-02
  1.226803e-01    1.477586e+00   6.551952e-02
  1.248908e-01    1.507660e+00   6.559385e-02
  1.271012e-01    1.600185e+00   6.698513e-02
  1.293117e-01    1.545296e+00   6.526041e-02
  1.315222e-01    1.549674e+00   6.479974e-02
  1.337326e-01    1.647827e+00   6.626459e-02
  1.359431e-01    1.570903e+00   6.473729e-02
  1.381535e-01    1.555929e+00   6.529282e-02
  1.403640e-01    1.524661e+00   6.491251e-02
  1.425744e-01    1.487074e+00   6.420977e-02
  1.447849e-01    1.476192e+00   6.398915e-02
  1.469953e-01    1.552760e+00   6.558657e-02
  1.492058e-01    1.587168e+00   6.623223e-02
  1.514163e-01    1.548250e+00   6.530652e-02
  1.536267e-01    1.577797e+00   6.579804e-02
  1.558372e-01    1.581466e+00   6.572906e-02
  1.580476e-01    1.618800e+00   6.633899e-02
  1.602581e-01    1.707530e+00   6.795982e-02
  1.624685e-01    1.598741e+00   6.557925e-02
  1.646790e-01    1.583093e+00   6.507012e-02
  1.668895e-01    1.706879e+00   6.737112e-02
  1.690999e-01    1.687997e+00   6.679627e-02
  1.713104e-01    1.608535e+00   6.500275e-02
  1.735208e-01    1.651640e+00   6.566312e-02
  1.757313e-01    1.646895e+00   6.536324e-02
  1.779417e-01    1.738019e+00   6.692820e-02
  1.801522e-01    1.747524e+00   6.689721e-02
  1.823626e-01    1.831234e+00   6.825273e-02
  1.845731e-01    1.890490e+00   6.912363e-02
  1.867836e-01    1.743021e+00   6.614888e-02
  1.889940e-01    1.806142e+00   6.711590e-02
  1.912045e-01    1.929888e+00   6.914534e-02
  1.934149e-01    1.916626e+00   6.867673e-02
  1.956254e-01    1.946820e+00   6.898729e-02
  1.978358e-01    1.980079e+00   6.933565e-02
  2.000463e-01    2.012946e+00   6.967705e-02
  2.022568e-01    1.973247e+00   6.876015e-02
  2.044672e-01    1.916176e+00   6.752636e-02
  2.066777e-01    1.872462e+00   6.653010e-02
  2.088881e-01    1.871849e+00   6.630158e-02
  2.110986e-01    1.982935e+00   6.800658e-02
  2.133090e-01    1.950899e+00   6.723569e-02
  2.155195e-01    1.977371e+00   6.746581e-02
  2.177300e-01    1.880282e+00   6.527182e-02
  2.199404e-01    1.941438e+00   6.457717e-02
  2.221509e-01    1.956660e+00   6.376528e-02
  2.243613e-01    1.981396e+00   6.335362e-02
  2.265718e-01    1.949421e+00   6.214773e-02
  2.287822e-01    2.025337e+00   6.271927e-02
  2.309927e-01    2.100906e+00   6.329672e-02
  2.332031e-01    2.183853e+00   6.398182e-02
  2.354136e-01    2.101455e+00   6.225450e-02
  2.376241e-01    2.048305e+00   6.098512e-02
  2.398345e-01    2.013431e+00   6.001625e-02
  2.420450e-01    2.012100e+00   5.956763e-02
  2.442554e-01    2.112777e+00   6.061916e-02
  2.464659e-01    2.235551e+00   6.193696e-02
  2.486763e-01    2.129508e+00   6.005280e-02
  2.508868e-01    2.062930e+00   5.873371e-02
  2.530973e-01    2.048892e+00   5.817064e-02
  2.553077e-01    2.020114e+00   5.741031e-02
  2.575182e-01    2.025817e+00   5.715113e-02
  2.597286e-01    1.992779e+00   5.635368e-02
  2.619391e-01    1.988681e+00   5.597162e-02
  2.641495e-01    1.960869e+00   5.527124e-02
  2.663600e-01    1.983380e+00   5.528191e-02
  2.685704e-01    1.959701e+00   5.465304e-02
  2.707809e-01    1.948243e+00   5.420379e-02
  2.729914e-01    2.008402e+00   5.474748e-02
  2.752018e-01    1.940538e+00   5.353450e-02
  2.774123e-01    1.943391e+00   5.330015e-02
  2.796227e-01    2.013406e+00   5.398344e-02
  2.818332e-01    1.882953e+00   5.194488e-02
  2.840436e-01    1.921852e+00   5.222430e-02
  2.862541e-01    1.884617e+00   5.146733e-02
  2.884646e-01    1.879661e+00   5.115565e-02
  2.906750e-01    1.967644e+00   5.209105e-02
  2.928855e-01    1.962724e+00   5.178482e-02
  2.950959e-01    1.949382e+00   5.137145e-02
  2.973064e-01    1.887653e+00   5.032435e-02
  2.995168e-01    1.880486e+00   5.000121e-02
  3.017273e-01    1.850365e+00   4.938050e-02
  3.039377e-01    1.822872e+00   4.879763e-02
  3.061482e-01    1.888171e+00   4.944913e-02
  3.083587e-01    1.864004e+00   4.891900e-02
  3.105691e-01    1.859074e+00   4.864558e-02
  3.127796e-01    1.838356e+00   4.817039e-02
  3.149900e-01    1.835608e+00   4.793382e-02
  3.172005e-01    1.844733e+00   4.785632e-02
  3.194109e-01    1.861810e+00   4.787886e-02
  3.216214e-01    1.881543e+00   4.793551e-02
  3.238319e-01    1.872185e+00   4.762672e-02
  3.260423e-01    1.920998e+00   4.805144e-02
  3.282528e-01    1.897136e+00   4.756198e-02
  3.304632e-01    1.846362e+00   4.673943e-02
  3.326737e-01    1.814601e+00   4.615489e-02
  3.348841e-01    1.776775e+00   4.549418e-02
  3.370946e-01    1.841084e+00   4.613593e-02
  3.393050e-01    1.850189e+00   4.607471e-02
  3.415155e-01    1.768492e+00   4.487659e-02
  3.437260e-01    1.816185e+00   4.530913e-02
  3.459364e-01    1.789159e+00   4.480440e-02
  3.481469e-01    1.840686e+00   4.527911e-02
  3.503573e-01    1.795231e+00   4.455366e-02
  3.525678e-01    1.754829e+00   4.389248e-02
  3.547782e-01    1.717361e+00   4.326442e-02
  3.569887e-01    1.741521e+00   4.341331e-02
  3.591992e-01    1.753655e+00   4.341014e-02
  3.614096e-01    1.730351e+00   4.297124e-02
  3.636201e-01    1.763798e+00   4.323209e-02
  3.658305e-01    1.754367e+00   4.296929e-02
  3.680410e-01    1.720949e+00   4.241170e-02
  3.702514e-01    1.749061e+00   4.261290e-02
  3.724619e-01    1.750060e+00   4.247992e-02
  3.746724e-01    1.725670e+00   4.204213e-02
  3.768828e-01    1.770269e+00   4.243863e-02
  3.790933e-01    1.749552e+00   4.205214e-02
  3.813037e-01    1.722732e+00   4.159201e-02
  3.835142e-01    1.745152e+00   4.172430e-02
  3.857246e-01    1.744537e+00   4.158193e-02
  3.879351e-01    1.724507e+00   4.120874e-02
  3.901455e-01    1.691639e+00   4.068418e-02
  3.923560e-01    1.827097e+00   4.214733e-02
  3.945665e-01    1.797733e+00   4.167472e-02
  3.967769e-01    1.786358e+00   4.141253e-02
  3.989874e-01    1.833605e+00   4.182563e-02
  4.011978e-01    1.709368e+00   4.025964e-02
  4.034083e-01    1.692944e+00   3.994273e-02
  4.056187e-01    1.765528e+00   4.066436e-02
  4.078292e-01    1.771748e+00   4.061265e-02
  4.100397e-01    1.755646e+00   4.030425e-02
  4.122501e-01    1.742919e+00   4.003776e-02
  4.144606e-01    1.742700e+00   3.991653e-02
  4.166710e-01    1.737651e+00   3.974014e-02
  4.188815e-01    1.717837e+00   3.939617e-02
  4.210919e-01    1.844851e+00   4.070701e-02
  4.233024e-01    1.768114e+00   3.973422e-02
  4.255128e-01    1.751990e+00   3.943827e-02
  4.277233e-01    1.750180e+00   3.930464e-02
  4.299338e-01    1.774846e+00   3.946676e-02
  4.321442e-01    1.754848e+00   3.913150e-02
  4.343547e-01    1.750031e+00   3.896724e-02
  4.365651e-01    1.723428e+00   3.856006e-02
  4.387756e-01    1.726104e+00   3.848193e-02
  4.409860e-01    1.699946e+00   3.808344e-02
  4.431965e-01    1.647995e+00   3.739331e-02
  4.454070e-01    1.664901e+00   3.748006e-02
  4.476174e-01    1.670904e+00   3.744446e-02
  4.498279e-01    1.682100e+00   3.746750e-02
  4.520383e-01    1.698151e+00   3.754252e-02
  4.542488e-01    1.664665e+00   3.707030e-02
  4.564592e-01    1.684678e+00   3.719242e-02
  4.586697e-01    1.638494e+00   3.658172e-02
  4.608801e-01    1.680729e+00   3.695095e-02
  4.630906e-01    1.684930e+00   3.689915e-02
  4.653011e-01    1.691623e+00   3.687513e-02
  4.675115e-01    1.713309e+00   3.701299e-02
  4.697220e-01    1.748304e+00   3.729121e-02
  4.719324e-01    1.679398e+00   3.645441e-02
  4.741429e-01    1.627314e+00   3.579220e-02
  4.763533e-01    1.655644e+00   3.600985e-02
  4.785638e-01    1.663216e+00   3.599886e-02
  4.807743e-01    1.663805e+00   3.591369e-02
  4.829847e-01    1.696397e+00   3.617210e-02
  4.851952e-01    1.716039e+00   3.628887e-02
  4.874056e-01    1.678489e+00   3.579914e-02
  4.896161e-01    1.690600e+00   3.583895e-02
  4.918265e-01    1.681288e+00   3.565137e-02
  4.940370e-01    1.642079e+00   3.514624e-02
  4.962475e-01    1.622669e+00   3.485159e-02
  4.984579e-01    1.694466e+00   3.552650e-02
  5.006684e-01    1.681089e+00   3.529973e-02
  5.028788e-01    1.645087e+00   3.483509e-02
  5.050893e-01    1.639852e+00   3.469501e-02
  5.072997e-01    1.687641e+00   3.511192e-02
  5.095102e-01    1.652612e+00   3.466242e-02
  5.117206e-01    1.649512e+00   3.454752e-02
  5.139311e-01    1.637527e+00   3.434035e-02
  5.161416e-01    1.637661e+00   3.426057e-02
  5.183520e-01    1.641516e+00   3.421937e-02
  5.205625e-01    1.613775e+00   3.384951e-02
  5.227729e-01    1.609804e+00   3.372899e-02
  5.249834e-01    1.642519e+00   3.399088e-02
  5.271938e-01    1.686256e+00   3.436012e-02
  5.294043e-01    1.705893e+00   3.447983e-02
  5.316148e-01    1.773538e+00   3.507631e-02
  5.338252e-01    1.768888e+00   3.495023e-02
  5.360357e-01    1.784467e+00   3.502389e-02
  5.382461e-01    1.715799e+00   3.426578e-02
  5.404566e-01    1.691210e+00   3.394194e-02
  5.426670e-01    1.711277e+00   3.406577e-02
  5.448775e-01    1.696710e+00   3.384471e-02
  5.470879e-01    1.677266e+00   3.357516e-02
  5.492984e-01    1.732841e+00   3.405097e-02
  5.515089e-01    1.760659e+00   3.424710e-02
  5.537193e-01    1.762123e+00   3.418585e-02
  5.559298e-01    1.744934e+00   3.394409e-02
  5.581402e-01    1.723524e+00   3.366149e-02
  5.603507e-01    1.765686e+00   3.399658e-02
  5.625611e-01    1.779173e+00   3.405211e-02
  5.647716e-01    1.777463e+00   3.396185e-02
  5.669821e-01    1.717847e+00   3.331548e-02
  5.691925e-01    1.709742e+00   3.316544e-02
  5.714030e-01    1.710962e+00   3.310654e-02
  5.736134e-01    1.680683e+00   3.274250e-02
  5.758239e-01    1.672553e+00   3.259349e-02
  5.780343e-01    1.653995e+00   3.234361e-02
  5.802448e-01    1.633206e+00   3.207241e-02
  5.824552e-01    1.598482e+00   3.166307e-02
  5.846657e-01    1.579984e+00   3.141369e-02
  5.868762e-01    1.573930e+00   3.128818e-02
  5.890866e-01    1.585304e+00   3.133588e-02
  5.912971e-01    1.595711e+00   3.137348e-02
  5.935075e-01    1.583881e+00   3.119237e-02
  5.957180e-01    1.655092e+00   3.182044e-02
  5.979284e-01    1.644408e+00   3.165283e-02
  6.001389e-01    1.620304e+00   3.135600e-02
  6.023494e-01    1.614119e+00   3.123256e-02
  6.045598e-01    1.607878e+00   3.110865e-02
  6.067703e-01    1.628816e+00   3.124758e-02
  6.089807e-01    1.598013e+00   3.088848e-02
  6.111912e-01    1.632050e+00   3.115335e-02
  6.134016e-01    1.672022e+00   3.146967e-02
  6.156121e-01    1.644736e+00   3.114980e-02
  6.178226e-01    1.681889e+00   3.143727e-02
  6.200330e-01    1.689992e+00   3.145077e-02
  6.222435e-01    1.665178e+00   3.115719e-02
  6.244539e-01    1.639162e+00   3.085228e-02
  6.266644e-01    1.671709e+00   3.109631e-02
  6.288748e-01    1.674121e+00   3.105817e-02
  6.310853e-01    1.673357e+00   3.099079e-02
  6.332957e-01    1.680876e+00   3.100037e-02
  6.355062e-01    1.664660e+00   3.079056e-02
  6.377167e-01    1.640015e+00   3.050312e-02
  6.399271e-01    1.645925e+00   3.049949e-02
  6.421376e-01    1.682074e+00   3.077373e-02
  6.443480e-01    1.677441e+00   3.067289e-02
  6.465585e-01    1.645993e+00   3.032643e-02
  6.487689e-01    1.665439e+00   3.044745e-02
  6.509794e-01    1.612982e+00   2.990759e-02
  6.531899e-01    1.582821e+00   2.957094e-02
  6.554003e-01    1.569855e+00   2.939419e-02
  6.576108e-01    1.556025e+00   2.920995e-02
  6.598212e-01    1.559075e+00   2.918424e-02
  6.620317e-01    1.557966e+00   2.911977e-02
  6.642421e-01    1.568568e+00   2.916462e-02
  6.664526e-01    1.561913e+00   2.904907e-02
  6.686630e-01    1.588533e+00   2.924142e-02
  6.708735e-01    1.571525e+00   2.903108e-02
  6.730840e-01    1.614170e+00   2.936873e-02
  6.752944e-01    1.565585e+00   2.887076e-02
  6.775049e-01    1.556661e+00   2.873609e-02
  6.797153e-01    1.589218e+00   2.898244e-02
  6.819258e-01    1.620437e+00   2.921296e-02
  6.841362e-01    1.577363e+00   2.877026e-02
  6.863467e-01    1.568776e+00   2.864045e-02
  6.885572e-01    1.562694e+00   2.853365e-02
  6.907676e-01    1.548807e+00   2.835567e-02
  6.929781e-01    1.593935e+00   2.871470e-02
  6.951885e-01    1.568687e+00   2.843591e-02
  6.973990e-01    1.568124e+00   2.838053e-02
  6.996094e-01    1.560235e+00   2.825926e-02
  7.018199e-01    1.564727e+00   2.825022e-02
  7.040303e-01    1.578032e+00   2.832026e-02
  7.062408e-01    1.550406e+00   2.802208e-02
  7.084513e-01    1.595162e+00   2.837424e-02
  7.106617e-01    1.571747e+00   2.811627e-02
  7.128722e-01    1.562981e+00   2.798925e-02
  7.150826e-01    1.570733e+00   2.801022e-02
  7.172931e-01    1.555084e+00   2.782229e-02
  7.195035e-01    1.545302e+00   2.768697e-02
  7.217140e-01    1.518803e+00   2.749711e-02
  7.239245e-01    1.532342e+00   2.784306e-02
  7.261349e-01    1.537008e+00   2.799272e-02
  7.283454e-01    1.555909e+00   2.823629e-02
  7.305558e-01    1.537552e+00   2.812259e-02
  7.327663e-01    1.536072e+00   2.815101e-02
  7.349767e-01    1.577105e+00   2.854092e-02
  7.371872e-01    1.585617e+00   2.860662e-02
  7.393976e-01    1.603093e+00   2.874945e-02
  7.416081e-01    1.531423e+00   2.808352e-02
  7.438186e-01    1.528940e+00   2.791850e-02
  7.460290e-01    1.532773e+00   2.766318e-02
  7.482395e-01    1.545758e+00   2.761052e-02
  7.504499e-01    1.506084e+00   2.712062e-02
  7.526604e-01    1.464950e+00   2.663526e-02
  7.548708e-01    1.503714e+00   2.689797e-02
  7.570813e-01    1.540489e+00   2.717449e-02
  7.592918e-01    1.540575e+00   2.714046e-02
  7.615022e-01    1.568151e+00   2.734854e-02
  7.637127e-01    1.556554e+00   2.721466e-02
  7.659231e-01    1.570103e+00   2.730087e-02
  7.681336e-01    1.529212e+00   2.691190e-02
  7.703440e-01    1.521537e+00   2.681358e-02
  7.725545e-01    1.504492e+00   2.663276e-02
  7.747650e-01    1.608444e+00   2.749890e-02
  7.769754e-01    1.564000e+00   2.706382e-02
  7.791859e-01    1.560844e+00   2.698324e-02
  7.813963e-01    1.571595e+00   2.702354e-02
  7.836068e-01    1.572687e+00   2.698114e-02
  7.858172e-01    1.567596e+00   2.688707e-02
  7.880277e-01    1.529827e+00   2.651066e-02
  7.902381e-01    1.572149e+00   2.682603e-02
  7.924486e-01    1.606836e+00   2.707010e-02
  7.946591e-01    1.595369e+00   2.692515e-02
  7.968695e-01    1.582007e+00   2.676416e-02
  7.990800e-01    1.603228e+00   2.689492e-02
  8.012904e-01    1.622323e+00   2.700781e-02
  8.035009e-01    1.627387e+00   2.700181e-02
  8.057113e-01    1.607529e+00   2.679015e-02
  8.079218e-01    1.610458e+00   2.676827e-02
  8.101323e-01    1.642719e+00   2.698914e-02
  8.123427e-01    1.638075e+00   2.690503e-02
  8.145532e-01    1.621695e+00   2.672437e-02
  8.167636e-01    1.598872e+00   2.649102e-02
  8.189741e-01    1.602832e+00   2.647959e-02
  8.211845e-01    1.600195e+00   2.641346e-02
  8.233950e-01    1.623966e+00   2.656563e-02
  8.256054e-01    1.619638e+00   2.648627e-02
  8.278159e-01    1.623605e+00   2.647490e-02
  8.300264e-01    1.614025e+00   2.635392e-02
  8.322368e-01    1.630685e+00   2.644656e-02
  8.344473e-01    1.630653e+00   2.640303e-02
  8.366577e-01    1.618133e+00   2.625919e-02
  8.388682e-01    1.568516e+00   2.581211e-02
  8.410786e-01    1.609099e+00   2.610223e-02
  8.432891e-01    1.610733e+00   2.607399e-02
  8.454996e-01    1.611346e+00   2.603768e-02
  8.477100e-01    1.602755e+00   2.592697e-02
  8.499205e-01    1.589483e+00   2.577886e-02
  8.521309e-01    1.576758e+00   2.563542e-02
  8.543414e-01    1.594115e+00   2.573591e-02
  8.565518e-01    1.603016e+00   2.576749e-02
  8.587623e-01    1.577029e+00   2.551798e-02
  8.609727e-01    1.587400e+00   2.556206e-02
  8.631832e-01    1.584998e+00   2.550332e-02
  8.653937e-01    1.569690e+00   2.534087e-02
  8.676041e-01    1.549959e+00   2.514311e-02
  8.698146e-01    1.548595e+00   2.509361e-02
  8.720250e-01    1.581835e+00   2.532285e-02
  8.742355e-01    1.605896e+00   2.547586e-02
  8.764459e-01    1.632209e+00   2.564456e-02
  8.786564e-01    1.592822e+00   2.529550e-02
  8.808669e-01    1.583119e+00   2.518010e-02
  8.830773e-01    1.548718e+00   2.486752e-02
  8.852878e-01    1.510830e+00   2.452464e-02
  8.874982e-01    1.538924e+00   2.471566e-02
  8.897087e-01    1.556777e+00   2.482147e-02
  8.919191e-01    1.571129e+00   2.489820e-02
  8.941296e-01    1.587055e+00   2.498696e-02
  8.963401e-01    1.591192e+00   2.498317e-02
  8.985505e-01    1.583329e+00   2.488462e-02
  9.007610e-01    1.585913e+00   2.486832e-02
  9.029714e-01    1.577437e+00   2.476619e-02
  9.051819e-01    1.574971e+00   2.470990e-02
  9.073923e-01    1.577090e+00   2.469020e-02
  9.096028e-01    1.580846e+00   2.468487e-02
  9.118132e-01    1.592879e+00   2.474251e-02
  9.140237e-01    1.560426e+00   2.445299e-02
  9.162342e-01    1.565853e+00   2.446129e-02
  9.184446e-01    1.574739e+00   2.449511e-02
  9.206551e-01    1.594680e+00   2.461421e-02
  9.228655e-01    1.572611e+00   2.440834e-02
  9.250760e-01    1.577996e+00   2.441501e-02
  9.272864e-01    1.609903e+00   2.462627e-02
  9.294969e-01    1.603601e+00   2.454222e-02
  9.317074e-01    1.569953e+00   2.424905e-02
  9.339178e-01    1.572296e+00   2.423398e-02
  9.361283e-01    1.614048e+00   2.451744e-02
  9.383387e-01    1.635519e+00   2.464641e-02
  9.405492e-01    1.622834e+00   2.451638e-02
  9.427596e-01    1.606101e+00   2.435452e-02
  9.449701e-01    1.648715e+00   2.464199e-02
  9.471805e-01    1.652089e+00   2.463224e-02
  9.493910e-01    1.705546e+00   2.499324e-02
  9.516015e-01    1.688760e+00   2.483523e-02
  9.538119e-01    1.721468e+00   2.504021e-02
  9.560224e-01    1.798440e+00   2.555786e-02
  9.582328e-01    1.817957e+00   2.566171e-02
  9.604433e-01    1.799773e+00   2.549691e-02
  9.626537e-01    1.761934e+00   2.519353e-02
  9.648642e-01    1.780591e+00   2.529187e-02
  9.670747e-01    1.783208e+00   2.527555e-02
  9.692851e-01    1.793440e+00   2.531425e-02
  9.714956e-01    1.833956e+00   2.556252e-02
  9.737060e-01    1.797567e+00   2.527440e-02
  9.759165e-01    1.797100e+00   2.523547e-02
  9.781269e-01    1.802002e+00   2.523682e-02
  9.803374e-01    1.800751e+00   2.519316e-02
  9.825478e-01    1.830673e+00   2.536808e-02
  9.847583e-01    1.857010e+00   2.551525e-02
  9.869688e-01    1.806118e+00   2.512950e-02
  9.891792e-01    1.797474e+00   2.503598e-02
  9.913897e-01    1.783204e+00   2.490273e-02
  9.936001e-01    1.770643e+00   2.478240e-02
  9.958106e-01    1.727263e+00   2.444368e-02
  9.980210e-01    1.676940e+00   2.405371e-02
  1.000231e+00    1.642531e+00   2.393606e-02
  1.002442e+00    1.636871e+00   2.402173e-02
  1.004652e+00    1.629717e+00   2.403606e-02
  1.006863e+00    1.590035e+00   2.379089e-02
  1.009073e+00    1.586492e+00   2.380073e-02
  1.011284e+00    1.567421e+00   2.368888e-02
  1.013494e+00    1.545521e+00   2.354616e-02
  1.015705e+00    1.539233e+00   2.352038e-02
  1.017915e+00    1.574615e+00   2.380558e-02
  1.020126e+00    1.533558e+00   2.350907e-02
  1.022336e+00    1.505328e+00   2.330313e-02
  1.024547e+00    1.519811e+00   2.342608e-02
  1.026757e+00    1.506050e+00   2.332805e-02
  1.028967e+00    1.483838e+00   2.316291e-02
  1.031178e+00    1.476760e+00   2.311363e-02
  1.033388e+00    1.504083e+00   2.333150e-02
  1.035599e+00    1.469361e+00   2.306398e-02
  1.037809e+00    1.449050e+00   2.290720e-02
  1.040020e+00    1.437127e+00   2.281398e-02
  1.042230e+00    1.474467e+00   2.311036e-02
  1.044441e+00    1.473497e+00   2.310258e-02
  1.046651e+00    1.461371e+00   2.300747e-02
  1.048862e+00    1.457411e+00   2.297549e-02
  1.051072e+00    1.462264e+00   2.301139e-02
  1.053282e+00    1.454678e+00   2.295069e-02
  1.055493e+00    1.452216e+00   2.292702e-02
  1.057703e+00    1.452462e+00   2.292747e-02
  1.059914e+00    1.445489e+00   2.286816e-02
  1.062124e+00    1.451050e+00   2.290811e-02
  1.064335e+00    1.460095e+00   2.297598e-02
  1.066545e+00    1.448183e+00   2.287615e-02
  1.068756e+00    1.406730e+00   2.254272e-02
  1.070966e+00    1.409523e+00   2.255871e-02
  1.073177e+00    1.388482e+00   2.238381e-02
  1.075387e+00    1.413341e+00   2.257818e-02
  1.077597e+00    1.419275e+00   2.261839e-02
  1.079808e+00    1.380158e+00   2.217565e-02
  1.082018e+00    1.373719e+00   2.194063e-02
  1.084229e+00    1.383116e+00   2.190845e-02
  1.086439e+00    1.394908e+00   2.191606e-02
  1.088650e+00    1.382182e+00   2.174207e-02
  1.090860e+00    1.453195e+00   2.222599e-02
  1.093071e+00    1.465512e+00   2.225752e-02
  1.095281e+00    1.433609e+00   2.195690e-02
  1.097492e+00    1.407038e+00   2.169831e-02
  1.099702e+00    1.395057e+00   2.155513e-02
  1.101912e+00    1.386685e+00   2.144242e-02
  1.104123e+00    1.391426e+00   2.143155e-02
  1.106333e+00    1.402730e+00   2.147450e-02
  1.108544e+00    1.415344e+00   2.152680e-02
  1.110754e+00    1.401316e+00   2.137724e-02
  1.112965e+00    1.384618e+00   2.120947e-02
  1.115175e+00    1.388280e+00   2.119680e-02
  1.117386e+00    1.383941e+00   2.112480e-02
  1.119596e+00    1.383853e+00   2.108665e-02
  1.121807e+00    1.375174e+00   2.098207e-02
  1.124017e+00    1.398405e+00   2.112203e-02
  1.126228e+00    1.369096e+00   2.086422e-02
  1.128438e+00    1.360801e+00   2.076466e-02
  1.130648e+00    1.340417e+00   2.057499e-02
  1.132859e+00    1.328011e+00   2.044603e-02
  1.135069e+00    1.336793e+00   2.047951e-02
  1.137280e+00    1.341029e+00   2.047951e-02
  1.139490e+00    1.335172e+00   2.040230e-02
  1.141701e+00    1.376244e+00   2.068070e-02
  1.143911e+00    1.348482e+00   2.043963e-02
  1.146122e+00    1.336065e+00   2.031378e-02
  1.148332e+00    1.358271e+00   2.045027e-02
  1.150543e+00    1.360003e+00   2.043267e-02
  1.152753e+00    1.346864e+00   2.030324e-02
  1.154963e+00    1.365583e+00   2.041285e-02
  1.157174e+00    1.362938e+00   2.036306e-02
  1.159384e+00    1.363255e+00   2.033565e-02
  1.161595e+00    1.362489e+00   2.030020e-02
  1.163805e+00    1.349548e+00   2.017449e-02
  1.166016e+00    1.345270e+00   2.011332e-02
  1.168226e+00    1.322461e+00   1.991358e-02
  1.170437e+00    1.342876e+00   2.003830e-02
  1.172647e+00    1.344073e+00   2.001857e-02
  1.174858e+00    1.360237e+00   2.011053e-02
  1.177068e+00    1.368288e+00   2.014166e-02
  1.179278e+00    1.352966e+00   2.000007e-02
  1.181489e+00    1.373567e+00   2.012462e-02
  1.183699e+00    1.366731e+00   2.004683e-02
  1.185910e+00    1.329269e+00   1.974271e-02
  1.188120e+00    1.322574e+00   1.966656e-02
  1.190331e+00    1.354055e+00   1.987249e-02
  1.192541e+00    1.354146e+00   1.984581e-02
  1.194752e+00    1.344469e+00   1.974778e-02
  1.196962e+00    1.351757e+00   1.977549e-02
  1.199173e+00    1.364602e+00   1.984260e-02
  1.201383e+00    1.320340e+00   1.949129e-02
  1.203593e+00    1.338124e+00   1.959738e-02
  1.205804e+00    1.360890e+00   1.973738e-02
  1.208014e+00    1.364246e+00   1.973470e-02
  1.210225e+00    1.354168e+00   1.963632e-02
  1.212435e+00    1.340128e+00   1.950955e-02
  1.214646e+00    1.369892e+00   1.969870e-02
  1.216856e+00    1.353745e+00   1.955679e-02
  1.219067e+00    1.322760e+00   1.930744e-02
  1.221277e+00    1.340681e+00   1.941284e-02
  1.223488e+00    1.353009e+00   1.947613e-02
  1.225698e+00    1.357704e+00   1.948290e-02
  1.227909e+00    1.332102e+00   1.926840e-02
  1.230119e+00    1.315106e+00   1.911361e-02
  1.232329e+00    1.313537e+00   1.907193e-02
  1.234540e+00    1.314599e+00   1.904972e-02
  1.236750e+00    1.331561e+00   1.914219e-02
  1.238961e+00    1.321231e+00   1.904110e-02
  1.241171e+00    1.316428e+00   1.898259e-02
  1.243382e+00    1.315095e+00   1.894976e-02
  1.245592e+00    1.311398e+00   1.889934e-02
  1.247803e+00    1.325394e+00   1.897651e-02
  1.250013e+00    1.321837e+00   1.892773e-02
  1.252224e+00    1.303401e+00   1.877244e-02
  1.254434e+00    1.282681e+00   1.859947e-02
  1.256644e+00    1.311288e+00   1.878285e-02
  1.258855e+00    1.345986e+00   1.900652e-02
  1.261065e+00    1.336062e+00   1.891308e-02
  1.263276e+00    1.308969e+00   1.869774e-02
  1.265486e+00    1.301654e+00   1.862296e-02
  1.267697e+00    1.286717e+00   1.849330e-02
  1.269907e+00    1.331877e+00   1.879250e-02
  1.272118e+00    1.314646e+00   1.864828e-02
  1.274328e+00    1.338574e+00   1.879456e-02
  1.276539e+00    1.340554e+00   1.878578e-02
  1.278749e+00    1.308562e+00   1.853832e-02
  1.280959e+00    1.322168e+00   1.861214e-02
  1.283170e+00    1.314163e+00   1.853359e-02
  1.285380e+00    1.342118e+00   1.870726e-02
  1.287591e+00    1.358520e+00   1.879915e-02
  1.289801e+00    1.363020e+00   1.880893e-02
  1.292012e+00    1.361551e+00   1.878162e-02
  1.294222e+00    1.366058e+00   1.879634e-02
  1.296433e+00    1.369257e+00   1.880263e-02
  1.298643e+00    1.361817e+00   1.873494e-02
  1.300854e+00    1.325383e+00   1.846636e-02
  1.303064e+00    1.360843e+00   1.869244e-02
  1.305274e+00    1.339422e+00   1.852340e-02
  1.307485e+00    1.357886e+00   1.862901e-02
  1.309695e+00    1.396330e+00   1.886827e-02
  1.311906e+00    1.384425e+00   1.876570e-02
  1.314116e+00    1.360104e+00   1.857926e-02
  1.316327e+00    1.367106e+00   1.860519e-02
  1.318537e+00    1.368822e+00   1.859482e-02
  1.320748e+00    1.396861e+00   1.876238e-02
  1.322958e+00    1.383853e+00   1.865406e-02
  1.325169e+00    1.360284e+00   1.847341e-02
  1.327379e+00    1.358689e+00   1.844070e-02
  1.329589e+00    1.363480e+00   1.845200e-02
  1.331800e+00    1.383681e+00   1.856724e-02
  1.334010e+00    1.391155e+00   1.859635e-02
  1.336221e+00    1.398872e+00   1.862571e-02
  1.338431e+00    1.408455e+00   1.866809e-02
  1.340642e+00    1.389918e+00   1.860995e-02
  1.342852e+00    1.373973e+00   1.860447e-02
  1.345063e+00    1.329807e+00   1.835211e-02
  1.347273e+00    1.340093e+00   1.845806e-02
  1.349484e+00    1.339725e+00   1.848310e-02
  1.351694e+00    1.327688e+00   1.842241e-02
  1.353905e+00    1.328806e+00   1.844800e-02
  1.356115e+00    1.323108e+00   1.842331e-02
  1.358325e+00    1.341321e+00   1.856294e-02
  1.360536e+00    1.354145e+00   1.866313e-02
  1.362746e+00    1.319078e+00   1.842934e-02
  1.364957e+00    1.328721e+00   1.850419e-02
  1.367167e+00    1.324074e+00   1.847889e-02
  1.369378e+00    1.331551e+00   1.853697e-02
  1.371588e+00    1.326054e+00   1.850379e-02
  1.373799e+00    1.293941e+00   1.828196e-02
  1.376009e+00    1.308643e+00   1.838888e-02
  1.378220e+00    1.294194e+00   1.828958e-02
  1.380430e+00    1.293768e+00   1.828923e-02
  1.382640e+00    1.273424e+00   1.814575e-02
  1.384851e+00    1.290210e+00   1.826583e-02
  1.387061e+00    1.274496e+00   1.815454e-02
  1.389272e+00    1.242680e+00   1.792672e-02
  1.391482e+00    1.272714e+00   1.814137e-02
  1.393693e+00    1.262019e+00   1.806414e-02
  1.395903e+00    1.258882e+00   1.804018e-02
  1.398114e+00    1.258366e+00   1.803512e-02
  1.400324e+00    1.269855e+00   1.811515e-02
  1.402535e+00    1.275133e+00   1.815043e-02
  1.404745e+00    1.300509e+00   1.832774e-02
  1.406955e+00    1.349620e+00   1.866784e-02
  1.409166e+00    1.301135e+00   1.832613e-02
  1.411376e+00    1.291803e+00   1.825711e-02
  1.413587e+00    1.300516e+00   1.831475e-02
  1.415797e+00    1.278363e+00   1.815454e-02
  1.418008e+00    1.268402e+00   1.804182e-02
  1.420218e+00    1.273423e+00   1.792756e-02
  1.422429e+00    1.276754e+00   1.786546e-02
  1.424639e+00    1.260734e+00   1.768857e-02
  1.426850e+00    1.247972e+00   1.754459e-02
  1.429060e+00    1.243575e+00   1.746518e-02
  1.431270e+00    1.250083e+00   1.746686e-02
  1.433481e+00    1.269827e+00   1.756328e-02
  1.435691e+00    1.310263e+00   1.780171e-02
  1.437902e+00    1.334988e+00   1.793150e-02
  1.440112e+00    1.327052e+00   1.784201e-02
  1.442323e+00    1.316943e+00   1.774026e-02
  1.444533e+00    1.313635e+00   1.768486e-02
  1.446744e+00    1.329037e+00   1.775640e-02
  1.448954e+00    1.312605e+00   1.761560e-02
  1.451165e+00    1.282906e+00   1.738526e-02
  1.453375e+00    1.299727e+00   1.747049e-02
  1.455586e+00    1.282869e+00   1.732851e-02
  1.457796e+00    1.321690e+00   1.756067e-02
  1.460006e+00    1.331180e+00   1.759570e-02
  1.462217e+00    1.360340e+00   1.776025e-02
  1.464427e+00    1.363963e+00   1.775734e-02
  1.466638e+00    1.312927e+00   1.739622e-02
  1.468848e+00    1.302989e+00   1.730456e-02
  1.471059e+00    1.307024e+00   1.730589e-02
  1.473269e+00    1.302726e+00   1.725271e-02
  1.475480e+00    1.290765e+00   1.714936e-02
  1.477690e+00    1.294817e+00   1.715216e-02
  1.479901e+00    1.314601e+00   1.725842e-02
  1.482111e+00    1.293865e+00   1.709822e-02
  1.484321e+00    1.290133e+00   1.705020e-02
  1.486532e+00    1.273420e+00   1.691703e-02
  1.488742e+00    1.255247e+00   1.677330e-02
  1.490953e+00    1.268954e+00   1.684199e-02
  1.493163e+00    1.243078e+00   1.664730e-02
  1.495374e+00    1.212683e+00   1.642146e-02
  1.497584e+00    1.233823e+00   1.654253e-02
  1.499795e+00    1.260408e+00   1.669818e-02
  1.502005e+00    1.225139e+00   1.644151e-02
  1.504216e+00    1.240087e+00   1.652062e-02
  1.506426e+00    1.236809e+00   1.647815e-02
  1.508636e+00    1.266471e+00   1.665403e-02
  1.510847e+00    1.257524e+00   1.657330e-02
  1.513057e+00    1.248144e+00   1.648634e-02
  1.515268e+00    1.253892e+00   1.649857e-02
  1.517478e+00    1.258884e+00   1.650616e-02
  1.519689e+00    1.280465e+00   1.662184e-02
  1.521899e+00    1.256356e+00   1.644148e-02
  1.524110e+00    1.253414e+00   1.640187e-02
  1.526320e+00    1.223902e+00   1.618828e-02
  1.528531e+00    1.249776e+00   1.633871e-02
  1.530741e+00    1.270043e+00   1.645138e-02
  1.532951e+00    1.245282e+00   1.627068e-02
  1.535162e+00    1.248931e+00   1.638106e-02
  1.537372e+00    1.231699e+00   1.633412e-02
  1.539583e+00    1.193408e+00   1.611168e-02
  1.541793e+00    1.197055e+00   1.614308e-02
  1.544004e+00    1.203997e+00   1.619007e-02
  1.546214e+00    1.216623e+00   1.627326e-02
  1.548425e+00    1.232750e+00   1.638100e-02
  1.550635e+00    1.259481e+00   1.656740e-02
  1.552846e+00    1.235987e+00   1.642179e-02
  1.555056e+00    1.234721e+00   1.637204e-02
  1.557266e+00    1.235471e+00   1.626697e-02
  1.559477e+00    1.250238e+00   1.630463e-02
  1.561687e+00    1.267202e+00   1.638393e-02
  1.563898e+00    1.270968e+00   1.639091e-02
  1.566108e+00    1.270660e+00   1.637282e-02
  1.568319e+00    1.275202e+00   1.638623e-02
  1.570529e+00    1.315327e+00   1.661620e-02
  1.572740e+00    1.320905e+00   1.662292e-02
  1.574950e+00    1.369025e+00   1.689542e-02
  1.577161e+00    1.320071e+00   1.656439e-02
  1.579371e+00    1.270887e+00   1.622894e-02
  1.581582e+00    1.278230e+00   1.625571e-02
  1.583792e+00    1.251631e+00   1.606762e-02
  1.586002e+00    1.260405e+00   1.610608e-02
  1.588213e+00    1.311800e+00   1.641347e-02
  1.590423e+00    1.426017e+00   1.709159e-02
  1.592634e+00    1.404898e+00   1.694169e-02
  1.594844e+00    1.293187e+00   1.623232e-02
  1.597055e+00    1.257158e+00   1.598398e-02
  1.599265e+00    1.240637e+00   1.585788e-02
  1.601476e+00    1.242413e+00   1.584890e-02
  1.603686e+00    1.257053e+00   1.592212e-02
  1.605897e+00    1.247230e+00   1.583955e-02
  1.608107e+00    1.226645e+00   1.568882e-02
  1.610317e+00    1.275323e+00   1.597748e-02
  1.612528e+00    1.239714e+00   1.573367e-02
  1.614738e+00    1.221398e+00   1.559810e-02
  1.616949e+00    1.195804e+00   1.541510e-02
  1.619159e+00    1.216402e+00   1.552857e-02
  1.621370e+00    1.221599e+00   1.554328e-02
  1.623580e+00    1.205881e+00   1.542467e-02
  1.625791e+00    1.199707e+00   1.536695e-02
  1.628001e+00    1.172017e+00   1.517056e-02
  1.630212e+00    1.172333e+00   1.515498e-02
  1.632422e+00    1.181378e+00   1.519549e-02
  1.634632e+00    1.171643e+00   1.511551e-02
  1.636843e+00    1.147291e+00   1.494030e-02
  1.639053e+00    1.146563e+00   1.491846e-02
  1.641264e+00    1.156397e+00   1.496530e-02
  1.643474e+00    1.140837e+00   1.484705e-02
  1.645685e+00    1.132275e+00   1.477475e-02
  1.647895e+00    1.157993e+00   1.492500e-02
  1.650106e+00    1.126671e+00   1.470494e-02
  1.652316e+00    1.135276e+00   1.474460e-02
  1.654527e+00    1.120092e+00   1.462917e-02
  1.656737e+00    1.089184e+00   1.440970e-02
  1.658947e+00    1.085765e+00   1.437111e-02
  1.661158e+00    1.104444e+00   1.447810e-02
  1.663368e+00    1.114871e+00   1.453031e-02
  1.665579e+00    1.097135e+00   1.439831e-02
  1.667789e+00    1.073030e+00   1.422330e-02
  1.670000e+00    1.096051e+00   1.435971e-02
  1.672210e+00    1.103451e+00   1.439227e-02
  1.674421e+00    1.105212e+00   1.438841e-02
  1.676631e+00    1.106370e+00   1.438005e-02
  1.678842e+00    1.115097e+00   1.442076e-02
  1.681052e+00    1.096040e+00   1.428161e-02
  1.683263e+00    1.086479e+00   1.420406e-02
  1.685473e+00    1.051190e+00   1.395660e-02
  1.687683e+00    1.043367e+00   1.388940e-02
  1.689894e+00    1.056895e+00   1.396356e-02
  1.692104e+00    1.048291e+00   1.389190e-02
  1.694315e+00    1.058938e+00   1.394785e-02
  1.696525e+00    1.047209e+00   1.385539e-02
  1.698736e+00    1.047053e+00   1.383967e-02
  1.700946e+00    1.042084e+00   1.379179e-02
  1.703157e+00    1.031553e+00   1.370746e-02
  1.705367e+00    1.023804e+00   1.364157e-02
  1.707578e+00    1.032498e+00   1.368491e-02
  1.709788e+00    1.044563e+00   1.375054e-02
  1.711998e+00    1.042135e+00   1.371954e-02
  1.714209e+00    1.039958e+00   1.369077e-02
  1.716419e+00    1.044907e+00   1.370895e-02
  1.718630e+00    1.012418e+00   1.348003e-02
  1.720840e+00    9.958243e-01   1.335512e-02
  1.723051e+00    9.912195e-01   1.331059e-02
  1.725261e+00    9.646364e-01   1.311661e-02
  1.727472e+00    9.756605e-01   1.317747e-02
  1.729682e+00    9.732788e-01   1.314820e-02
  1.731893e+00    9.834207e-01   1.320281e-02
  1.734103e+00    9.910060e-01   1.323997e-02
  1.736313e+00    9.875684e-01   1.320312e-02
  1.738524e+00    9.626482e-01   1.302190e-02
  1.740734e+00    9.535297e-01   1.294671e-02
  1.742945e+00    9.493670e-01   1.290527e-02
  1.745155e+00    9.603457e-01   1.296647e-02
  1.747366e+00    9.579782e-01   1.293686e-02
  1.749576e+00    9.561171e-01   1.291083e-02
  1.751787e+00    9.474273e-01   1.283893e-02
  1.753997e+00    9.253933e-01   1.267575e-02
  1.756208e+00    9.355738e-01   1.273235e-02
  1.758418e+00    9.356636e-01   1.272009e-02
  1.760628e+00    9.383139e-01   1.272496e-02
  1.762839e+00    9.323994e-01   1.267181e-02
  1.765049e+00    9.275773e-01   1.262609e-02
  1.767260e+00    9.330810e-01   1.265090e-02
  1.769470e+00    9.042062e-01   1.244095e-02
  1.771681e+00    9.258294e-01   1.257589e-02
  1.773891e+00    9.087961e-01   1.244690e-02
  1.776102e+00    8.970106e-01   1.235340e-02
  1.778312e+00    9.240351e-01   1.252552e-02
  1.780523e+00    8.763801e-01   1.218598e-02
  1.782733e+00    8.778187e-01   1.218369e-02
  1.784944e+00    8.988742e-01   1.231633e-02
  1.787154e+00    8.883162e-01   1.223154e-02
  1.789364e+00    9.119073e-01   1.238054e-02
  1.791575e+00    8.950749e-01   1.225345e-02
  1.793785e+00    8.854016e-01   1.217488e-02
  1.795996e+00    8.928913e-01   1.221395e-02
  1.798206e+00    8.931164e-01   1.220315e-02
  1.800417e+00    8.772746e-01   1.208203e-02
  1.802627e+00    8.840982e-01   1.211719e-02
  1.804838e+00    8.977956e-01   1.219867e-02
  1.807048e+00    9.431849e-01   1.249014e-02
  1.809259e+00    9.797333e-01   1.271570e-02
  1.811469e+00    9.706762e-01   1.264135e-02
  1.813679e+00    8.921024e-01   1.210400e-02
  1.815890e+00    8.770086e-01   1.198657e-02
  1.818100e+00    8.651161e-01   1.189020e-02
  1.820311e+00    8.611937e-01   1.184870e-02
  1.822521e+00    8.720875e-01   1.190870e-02
  1.824732e+00    8.998525e-01   1.208190e-02
  1.826942e+00    8.885797e-01   1.199365e-02
  1.829153e+00    8.539154e-01   1.174591e-02
  1.831363e+00    8.700956e-01   1.184471e-02
  1.833574e+00    8.908652e-01   1.197349e-02
  1.835784e+00    8.899704e-01   1.195602e-02
  1.837994e+00    8.742000e-01   1.183789e-02
  1.840205e+00    8.780359e-01   1.185267e-02
  1.842415e+00    8.623239e-01   1.173442e-02
  1.844626e+00    8.882180e-01   1.189763e-02
  1.846836e+00    8.855754e-01   1.186838e-02
  1.849047e+00    8.769013e-01   1.179844e-02
  1.851257e+00    8.701314e-01   1.174319e-02
  1.853468e+00    8.811428e-01   1.180837e-02
  1.855678e+00    8.753875e-01   1.176078e-02
  1.857889e+00    8.569639e-01   1.162788e-02
  1.860099e+00    8.432392e-01   1.152581e-02
  1.862309e+00    8.562097e-01   1.160563e-02
  1.864520e+00    8.394488e-01   1.148296e-02
  1.866730e+00    8.527074e-01   1.156393e-02
  1.868941e+00    8.441950e-01   1.149517e-02
  1.871151e+00    8.445758e-01   1.148642e-02
  1.873362e+00    8.595034e-01   1.157606e-02
  1.875572e+00    8.563427e-01   1.154381e-02
  1.877783e+00    8.295715e-01   1.135062e-02
  1.879993e+00    8.354048e-01   1.137936e-02
  1.882204e+00    8.473116e-01   1.144927e-02
  1.884414e+00    8.339718e-01   1.134777e-02
  1.886624e+00    8.427239e-01   1.139610e-02
  1.888835e+00    8.408115e-01   1.137218e-02
  1.891045e+00    8.379079e-01   1.134167e-02
  1.893256e+00    8.232648e-01   1.123115e-02
  1.895466e+00    8.310205e-01   1.127277e-02
  1.897677e+00    8.480923e-01   1.137700e-02
  1.899887e+00    8.472248e-01   1.136009e-02
  1.902098e+00    8.667794e-01   1.147937e-02
  1.904308e+00    8.652428e-01   1.145841e-02
  1.906519e+00    8.366146e-01   1.125637e-02
  1.908729e+00    8.405988e-01   1.127246e-02
  1.910940e+00    8.302208e-01   1.119151e-02
  1.913150e+00    8.180623e-01   1.109872e-02
  1.915360e+00    8.137410e-01   1.105882e-02
  1.917571e+00    8.174859e-01   1.107338e-02
  1.919781e+00    8.342133e-01   1.117535e-02
  1.921992e+00    8.369554e-01   1.118298e-02
  1.924202e+00    8.074095e-01   1.097312e-02
  1.926413e+00    7.968783e-01   1.089114e-02
  1.928623e+00    7.882387e-01   1.082156e-02
  1.930834e+00    8.028504e-01   1.091104e-02
  1.933044e+00    7.982441e-01   1.086911e-02
  1.935255e+00    7.886297e-01   1.079326e-02
  1.937465e+00    8.001183e-01   1.086126e-02
  1.939675e+00    7.877373e-01   1.076618e-02
  1.941886e+00    7.919459e-01   1.078471e-02
  1.944096e+00    7.765735e-01   1.066950e-02
  1.946307e+00    7.848341e-01   1.071588e-02
  1.948517e+00    7.833573e-01   1.069545e-02
  1.950728e+00    7.789674e-01   1.065533e-02
  1.952938e+00    7.814505e-01   1.066229e-02
  1.955149e+00    8.043181e-01   1.080690e-02
  1.957359e+00    7.797033e-01   1.063033e-02
  1.959570e+00    7.683464e-01   1.054192e-02
  1.961780e+00    7.611019e-01   1.048240e-02
  1.963990e+00    7.566341e-01   1.044169e-02
  1.966201e+00    7.730598e-01   1.054446e-02
  1.968411e+00    7.809646e-01   1.058817e-02
  1.970622e+00    7.672526e-01   1.048482e-02
  1.972832e+00    7.599370e-01   1.042493e-02
  1.975043e+00    7.856106e-01   1.058951e-02
  1.977253e+00    7.845736e-01   1.057260e-02
  1.979464e+00    7.817581e-01   1.054356e-02
  1.981674e+00    7.768546e-01   1.050025e-02
  1.983885e+00    7.687801e-01   1.043557e-02
  1.986095e+00    7.825709e-01   1.051905e-02
  1.988305e+00    8.073303e-01   1.067409e-02
  1.990516e+00    7.936114e-01   1.057300e-02
  1.992726e+00    7.900890e-01   1.053976e-02
  1.994937e+00    7.778026e-01   1.044737e-02
  1.997147e+00    7.662550e-01   1.035983e-02
  1.999358e+00    7.960593e-01   1.054941e-02
  2.001568e+00    7.704082e-01   1.036727e-02
  2.003779e+00    7.763706e-01   1.039535e-02
  2.005989e+00    7.740777e-01   1.036797e-02
  2.008200e+00    7.607601e-01   1.026693e-02
  2.010410e+00    7.613032e-01   1.025891e-02
  2.012621e+00    7.638604e-01   1.026445e-02
  2.014831e+00    7.530236e-01   1.018001e-02
  2.017041e+00    7.616738e-01   1.022799e-02
  2.019252e+00    7.389927e-01   1.006476e-02
  2.021462e+00    7.412126e-01   1.007049e-02
  2.023673e+00    7.691211e-01   1.024892e-02
  2.025883e+00    7.617397e-01   1.019012e-02
  2.028094e+00    7.513204e-01   1.011061e-02
  2.030304e+00    7.526287e-01   1.010993e-02
  2.032515e+00    7.515907e-01   1.009371e-02
  2.034725e+00    7.601357e-01   1.014149e-02
  2.036936e+00    7.618065e-01   1.014326e-02
  2.039146e+00    7.518437e-01   1.006719e-02
  2.041356e+00    7.579565e-01   1.009836e-02
  2.043567e+00    7.603523e-01   1.010498e-02
  2.045777e+00    7.763397e-01   1.020128e-02
  2.047988e+00    7.888284e-01   1.027344e-02
  2.050198e+00    7.638395e-01   1.010092e-02
  2.052409e+00    7.552183e-01   1.003609e-02
  2.054619e+00    7.474349e-01   9.976869e-03
  2.056830e+00    7.496449e-01   9.984456e-03
  2.059040e+00    7.667387e-01   1.009004e-02
  2.061251e+00    7.529993e-01   9.991983e-03
  2.063461e+00    7.560465e-01   1.000453e-02
  2.065671e+00    7.573085e-01   1.000413e-02
  2.067882e+00    7.416729e-01   9.891340e-03
  2.070092e+00    7.396988e-01   9.869034e-03
  2.072303e+00    7.225468e-01   9.744946e-03
  2.074513e+00    7.313710e-01   9.795022e-03
  2.076724e+00    7.458853e-01   9.882282e-03
  2.078934e+00    7.542951e-01   9.928749e-03
  2.081145e+00    7.538986e-01   9.917015e-03
  2.083355e+00    7.351226e-01   9.783607e-03
  2.085566e+00    7.221195e-01   9.687896e-03
  2.087776e+00    7.096253e-01   9.594404e-03
  2.089986e+00    7.335706e-01   9.746186e-03
  2.092197e+00    7.042359e-01   9.540571e-03
  2.094407e+00    7.141890e-01   9.598659e-03
  2.096618e+00    7.183068e-01   9.617503e-03
  2.098828e+00    7.249014e-01   9.652295e-03
  2.101039e+00    7.316175e-01   9.687942e-03
  2.103249e+00    7.328699e-01   9.687542e-03
  2.105460e+00    7.152153e-01   9.561241e-03
  2.107670e+00    7.022789e-01   9.465790e-03
  2.109881e+00    7.066762e-01   9.486345e-03
  2.112091e+00    7.093226e-01   9.495204e-03
  2.114301e+00    7.163501e-01   9.533391e-03
  2.116512e+00    7.148083e-01   9.514398e-03
  2.118722e+00    6.831530e-01   9.292751e-03
  2.120933e+00    7.063234e-01   9.440237e-03
  2.123143e+00    7.013025e-01   9.397837e-03
  2.125354e+00    6.979756e-01   9.367110e-03
  2.127564e+00    7.198147e-01   9.503758e-03
  2.129775e+00    7.095566e-01   9.427122e-03
  2.131985e+00    7.059289e-01   9.393986e-03
  2.134196e+00    7.190706e-01   9.472398e-03
  2.136406e+00    7.024638e-01   9.353707e-03
  2.138617e+00    7.201805e-01   9.462369e-03
  2.140827e+00    7.598729e-01   9.736281e-03
  2.143037e+00    7.453718e-01   9.689666e-03
  2.145248e+00    6.821464e-01   9.291208e-03
  2.147458e+00    6.904971e-01   9.362874e-03
  2.149669e+00    6.979055e-01   9.424791e-03
  2.151879e+00    7.045264e-01   9.478618e-03
  2.154090e+00    6.930349e-01   9.408293e-03
  2.156300e+00    6.805722e-01   9.329811e-03
  2.158511e+00    6.797245e-01   9.329219e-03
  2.160721e+00    6.936922e-01   9.429388e-03
  2.162932e+00    6.770211e-01   9.319091e-03
  2.165142e+00    6.911452e-01   9.418774e-03
  2.167352e+00    7.074795e-01   9.532390e-03
  2.169563e+00    6.843109e-01   9.376947e-03
  2.171773e+00    6.713198e-01   9.289917e-03
  2.173984e+00    6.705527e-01   9.285985e-03
  2.176194e+00    6.760964e-01   9.325486e-03
  2.178405e+00    6.685121e-01   9.273712e-03
  2.180615e+00    6.806756e-01   9.358373e-03
  2.182826e+00    6.792283e-01   9.349100e-03
  2.185036e+00    6.756256e-01   9.324318e-03
  2.187247e+00    6.770667e-01   9.334201e-03
  2.189457e+00    6.847502e-01   9.386620e-03
  2.191667e+00    6.841150e-01   9.382085e-03
  2.193878e+00    6.849505e-01   9.387256e-03
  2.196088e+00    6.646741e-01   9.246594e-03
  2.198299e+00    6.794918e-01   9.347995e-03
  2.200509e+00    6.807498e-01   9.355599e-03
  2.202720e+00    6.672318e-01   9.261106e-03
  2.204930e+00    6.812695e-01   9.356764e-03
  2.207141e+00    6.734026e-01   9.301499e-03
  2.209351e+00    6.678107e-01   9.260915e-03
  2.211562e+00    6.811544e-01   9.351358e-03
  2.213772e+00    6.757544e-01   9.258799e-03
  2.215982e+00    6.748551e-01   9.208430e-03
  2.218193e+00    6.689189e-01   9.138397e-03
  2.220403e+00    6.580303e-01   9.039405e-03
  2.222614e+00    6.726204e-01   9.118145e-03
  2.224824e+00    6.551004e-01   8.979498e-03
  2.227035e+00    6.557444e-01   8.966678e-03
  2.229245e+00    6.790093e-01   9.107296e-03
  2.231456e+00    6.823854e-01   9.114165e-03
  2.233666e+00    6.658049e-01   8.987743e-03
  2.235877e+00    6.600389e-01   8.934552e-03
  2.238087e+00    6.783761e-01   9.044269e-03
  2.240298e+00    6.643549e-01   8.936600e-03
  2.242508e+00    6.626089e-01   8.909787e-03
  2.244718e+00    6.642128e-01   8.904794e-03
  2.246929e+00    6.654943e-01   8.899007e-03
  2.249139e+00    6.573961e-01   8.832406e-03
  2.251350e+00    6.432674e-01   8.725480e-03
  2.253560e+00    6.507173e-01   8.764429e-03
  2.255771e+00    6.473671e-01   8.730588e-03
  2.257981e+00    6.521692e-01   8.751839e-03
  2.260192e+00    6.493671e-01   8.722042e-03
  2.262402e+00    6.643336e-01   8.811110e-03
  2.264613e+00    6.779329e-01   8.889907e-03
  2.266823e+00    6.592209e-01   8.755988e-03
  2.269033e+00    6.607975e-01   8.756092e-03
  2.271244e+00    6.451834e-01   8.641770e-03
  2.273454e+00    6.523453e-01   8.679407e-03
  2.275665e+00    6.505545e-01   8.657281e-03
  2.277875e+00    6.471505e-01   8.624780e-03
  2.280086e+00    6.420595e-01   8.580874e-03
  2.282296e+00    6.550733e-01   8.658031e-03
  2.284507e+00    6.480039e-01   8.601149e-03
  2.286717e+00    6.417126e-01   8.549925e-03
  2.288928e+00    6.685585e-01   8.716988e-03
  2.291138e+00    6.570330e-01   8.632117e-03
  2.293348e+00    6.424624e-01   8.526404e-03
  2.295559e+00    6.428944e-01   8.520048e-03
  2.297769e+00    6.439192e-01   8.517681e-03
  2.299980e+00    6.403180e-01   8.484568e-03
  2.302190e+00    6.446670e-01   8.504276e-03
  2.304401e+00    6.424193e-01   8.480181e-03
  2.306611e+00    6.500247e-01   8.521067e-03
  2.308822e+00    6.335306e-01   8.403959e-03
  2.311032e+00    6.478740e-01   8.492147e-03
  2.313243e+00    6.416405e-01   8.444955e-03
  2.315453e+00    6.325131e-01   8.377202e-03
  2.317663e+00    6.290717e-01   8.345386e-03
  2.319874e+00    6.394774e-01   8.405433e-03
  2.322084e+00    6.280987e-01   8.321492e-03
  2.324295e+00    6.284195e-01   8.315488e-03
  2.326505e+00    6.357000e-01   8.354532e-03
  2.328716e+00    6.081017e-01   8.162874e-03
  2.330926e+00    6.069680e-01   8.146681e-03
  2.333137e+00    6.310560e-01   8.298484e-03
  2.335347e+00    6.181356e-01   8.204372e-03
  2.337558e+00    6.186470e-01   8.199682e-03
  2.339768e+00    6.223102e-01   8.215464e-03
  2.341979e+00    6.292866e-01   8.253075e-03
  2.344189e+00    6.290632e-01   8.243287e-03
  2.346399e+00    6.118738e-01   8.121552e-03
  2.348610e+00    6.262884e-01   8.208243e-03
  2.350820e+00    6.304740e-01   8.227485e-03
  2.353031e+00    6.257144e-01   8.188149e-03
  2.355241e+00    6.101939e-01   8.078056e-03
  2.357452e+00    6.270501e-01   8.180460e-03
  2.359662e+00    6.296566e-01   8.189259e-03
  2.361873e+00    6.170011e-01   8.098396e-03
  2.364083e+00    6.134523e-01   8.067175e-03
  2.366294e+00    6.085773e-01   8.027086e-03
  2.368504e+00    6.097027e-01   8.026524e-03
  2.370714e+00    6.139868e-01   8.046708e-03
  2.372925e+00    6.148853e-01   8.044600e-03
  2.375135e+00    6.156144e-01   8.041362e-03
  2.377346e+00    6.287681e-01   8.118838e-03
  2.379556e+00    6.308082e-01   8.124061e-03
  2.381767e+00    6.136253e-01   8.004841e-03
  2.383977e+00    6.121290e-01   7.987197e-03
  2.386188e+00    5.977994e-01   7.885371e-03
  2.388398e+00    5.909135e-01   7.832053e-03
  2.390609e+00    6.092938e-01   7.945232e-03
  2.392819e+00    6.142793e-01   7.969923e-03
  2.395029e+00    6.131197e-01   7.954763e-03
  2.397240e+00    6.071012e-01   7.907791e-03
  2.399450e+00    6.039016e-01   7.879188e-03
  2.401661e+00    6.000417e-01   7.846361e-03
  2.403871e+00    5.977753e-01   7.823846e-03
  2.406082e+00    6.079737e-01   7.882886e-03
  2.408292e+00    6.061287e-01   7.863152e-03
  2.410503e+00    5.965071e-01   7.793082e-03
  2.412713e+00    5.864797e-01   7.719631e-03
  2.414924e+00    5.816613e-01   7.680513e-03
  2.417134e+00    6.031997e-01   7.813804e-03
  2.419344e+00    5.875602e-01   7.704533e-03
  2.421555e+00    6.006508e-01   7.782386e-03
  2.423765e+00    5.929217e-01   7.724792e-03
  2.425976e+00    5.976699e-01   7.747863e-03
  2.428186e+00    5.885062e-01   7.681099e-03
  2.430397e+00    5.822024e-01   7.632446e-03
  2.432607e+00    5.931171e-01   7.696403e-03
  2.434818e+00    5.885347e-01   7.659118e-03
  2.437028e+00    5.897101e-01   7.659637e-03
  2.439239e+00    5.796971e-01   7.586766e-03
  2.441449e+00    5.813997e-01   7.590776e-03
  2.443659e+00    5.849153e-01   7.606357e-03
  2.445870e+00    5.876008e-01   7.636050e-03
  2.448080e+00    5.659071e-01   7.528054e-03
  2.450291e+00    5.545710e-01   7.468547e-03
  2.452501e+00    5.579970e-01   7.502564e-03
  2.454712e+00    5.517814e-01   7.468929e-03
  2.456922e+00    5.552949e-01   7.499200e-03
  2.459133e+00    5.433823e-01   7.423643e-03
  2.461343e+00    5.471169e-01   7.453379e-03
  2.463554e+00    5.468183e-01   7.454767e-03
  2.465764e+00    5.490427e-01   7.473017e-03
  2.467975e+00    5.490822e-01   7.475531e-03
  2.470185e+00    5.488980e-01   7.476527e-03
  2.472395e+00    5.320466e-01   7.362061e-03
  2.474606e+00    5.348919e-01   7.383254e-03
  2.476816e+00    5.355314e-01   7.388387e-03
  2.479027e+00    5.326244e-01   7.369136e-03
  2.481237e+00    5.443336e-01   7.449980e-03
  2.483448e+00    5.434217e-01   7.444039e-03
  2.485658e+00    5.471354e-01   7.469289e-03
  2.487869e+00    5.240968e-01   7.310391e-03
  2.490079e+00    5.182118e-01   7.268711e-03
  2.492290e+00    5.157803e-01   7.251215e-03
  2.494500e+00    5.216863e-01   7.291893e-03
  2.496710e+00    5.196572e-01   7.277002e-03
  2.498921e+00    5.333711e-01   7.371414e-03
  2.501131e+00    5.262899e-01   7.321386e-03
  2.503342e+00    5.102347e-01   7.207612e-03
  2.505552e+00    5.012676e-01   7.142882e-03
  2.507763e+00    5.104181e-01   7.206412e-03
  2.509973e+00    5.010055e-01   7.138272e-03
  2.512184e+00    5.166199e-01   7.247068e-03
  2.514394e+00    5.168886e-01   7.239684e-03
  2.516605e+00    5.120878e-01   7.159574e-03
  2.518815e+00    5.119663e-01   7.130777e-03
  2.521025e+00    5.218161e-01   7.178155e-03
  2.523236e+00    5.106471e-01   7.083195e-03
  2.525446e+00    5.281609e-01   7.187986e-03
  2.527657e+00    5.149779e-01   7.083274e-03
  2.529867e+00    5.087665e-01   7.026447e-03
  2.532078e+00    5.121472e-01   7.034914e-03
  2.534288e+00    5.032943e-01   6.960248e-03
  2.536499e+00    5.025507e-01   6.943406e-03
  2.538709e+00    5.187367e-01   7.043407e-03
  2.540920e+00    5.180663e-01   7.028263e-03
  2.543130e+00    5.162607e-01   7.005743e-03
  2.545340e+00    5.040841e-01   6.912746e-03
  2.547551e+00    5.021155e-01   6.889482e-03
  2.549761e+00    5.180619e-01   6.988477e-03
  2.551972e+00    5.193876e-01   6.988099e-03
  2.554182e+00    5.276645e-01   7.034321e-03
  2.556393e+00    5.114672e-01   6.916503e-03
  2.558603e+00    5.059687e-01   6.870293e-03
  2.560814e+00    5.045892e-01   6.852338e-03
  2.563024e+00    5.106859e-01   6.885091e-03
  2.565235e+00    5.225035e-01   6.954759e-03
  2.567445e+00    5.200153e-01   6.928642e-03
  2.569656e+00    5.000370e-01   6.784656e-03
  2.571866e+00    5.058913e-01   6.814992e-03
  2.574076e+00    5.136378e-01   6.857749e-03
  2.576287e+00    5.109751e-01   6.831661e-03
  2.578497e+00    5.169287e-01   6.863496e-03
  2.580708e+00    5.131113e-01   6.830044e-03
  2.582918e+00    5.003123e-01   6.736671e-03
  2.585129e+00    5.066315e-01   6.771381e-03
  2.587339e+00    5.136082e-01   6.810166e-03
  2.589550e+00    5.103435e-01   6.780962e-03
  2.591760e+00    4.930256e-01   6.657345e-03
  2.593971e+00    4.939637e-01   6.656253e-03
  2.596181e+00    4.889911e-01   6.616584e-03
  2.598391e+00    4.875492e-01   6.601766e-03
  2.600602e+00    4.917125e-01   6.624061e-03
  2.602812e+00    4.948716e-01   6.637899e-03
  2.605023e+00    5.028064e-01   6.683764e-03
  2.607233e+00    5.049236e-01   6.690704e-03
  2.609444e+00    5.008032e-01   6.656183e-03
  2.611654e+00    4.765005e-01   6.485561e-03
  2.613865e+00    4.962877e-01   6.611879e-03
  2.616075e+00    4.906344e-01   6.567087e-03
  2.618286e+00    4.892488e-01   6.550936e-03
  2.620496e+00    4.716145e-01   6.425321e-03
  2.622706e+00    4.823853e-01   6.492634e-03
  2.624917e+00    4.866801e-01   6.515761e-03
  2.627127e+00    4.841453e-01   6.493131e-03
  2.629338e+00    4.959346e-01   6.565770e-03
  2.631548e+00    5.066805e-01   6.630344e-03
  2.633759e+00    4.996440e-01   6.577027e-03
  2.635969e+00    4.854048e-01   6.476041e-03
  2.638180e+00    5.054809e-01   6.601593e-03
  2.640390e+00    5.041575e-01   6.586337e-03
  2.642601e+00    4.818474e-01   6.432422e-03
  2.644811e+00    4.924817e-01   6.495982e-03
  2.647021e+00    4.890621e-01   6.466905e-03
  2.649232e+00    4.908644e-01   6.472155e-03
  2.651442e+00    4.819984e-01   6.407044e-03
  2.653653e+00    4.877916e-01   6.438710e-03
  2.655863e+00    4.809197e-01   6.386643e-03
  2.658074e+00    4.939880e-01   6.466225e-03
  2.660284e+00    4.980734e-01   6.486579e-03
  2.662495e+00    4.938349e-01   6.452174e-03
  2.664705e+00    4.998426e-01   6.484713e-03
  2.666916e+00    5.061818e-01   6.519177e-03
  2.669126e+00    5.107486e-01   6.541983e-03
  2.671337e+00    4.985625e-01   6.456860e-03
  2.673547e+00    4.848577e-01   6.361180e-03
  2.675757e+00    5.008317e-01   6.458630e-03
  2.677968e+00    4.870644e-01   6.362765e-03
  2.680178e+00    4.807742e-01   6.315230e-03
  2.682389e+00    4.771899e-01   6.285363e-03
  2.684599e+00    4.831880e-01   6.318603e-03
  2.686810e+00    4.791299e-01   6.285500e-03
  2.689020e+00    4.873258e-01   6.332757e-03
  2.691231e+00    4.925726e-01   6.360474e-03
  2.693441e+00    4.870438e-01   6.318542e-03
  2.695652e+00    4.952051e-01   6.364720e-03
  2.697862e+00    4.824219e-01   6.275751e-03
  2.700072e+00    4.698224e-01   6.187282e-03
  2.702283e+00    4.809686e-01   6.254080e-03
  2.704493e+00    4.876614e-01   6.291167e-03
  2.706704e+00    4.824131e-01   6.250875e-03
  2.708914e+00    4.752127e-01   6.198148e-03
  2.711125e+00    4.692807e-01   6.153218e-03
  2.713335e+00    4.755405e-01   6.188095e-03
  2.715546e+00    4.862290e-01   6.250800e-03
  2.717756e+00    4.807334e-01   6.209533e-03
  2.719967e+00    4.772988e-01   6.181151e-03
  2.722177e+00    4.880648e-01   6.244331e-03
  2.724387e+00    4.858624e-01   6.224129e-03
  2.726598e+00    4.856719e-01   6.216833e-03
  2.728808e+00    4.797479e-01   6.172715e-03
  2.731019e+00    4.599933e-01   6.038296e-03
  2.733229e+00    4.796032e-01   6.159890e-03
  2.735440e+00    4.737767e-01   6.116168e-03
  2.737650e+00    4.659591e-01   6.059578e-03
  2.739861e+00    4.781385e-01   6.132231e-03
  2.742071e+00    4.869037e-01   6.182416e-03
  2.744282e+00    4.855781e-01   6.167729e-03
  2.746492e+00    4.747194e-01   6.092401e-03
  2.748702e+00    4.762603e-01   6.096392e-03
  2.750913e+00    4.823668e-01   6.129563e-03
  2.753123e+00    4.831927e-01   6.128681e-03
  2.755334e+00    4.748483e-01   6.069503e-03
  2.757544e+00    4.725763e-01   6.049261e-03
  2.759755e+00    4.794884e-01   6.087467e-03
  2.761965e+00    4.712744e-01   6.029177e-03
  2.764176e+00    4.702325e-01   6.016576e-03
  2.766386e+00    4.769187e-01   6.053432e-03
  2.768597e+00    4.684525e-01   5.993670e-03
  2.770807e+00    4.670937e-01   5.979165e-03
  2.773017e+00    4.638619e-01   5.952564e-03
  2.775228e+00    4.690601e-01   5.980103e-03
  2.777438e+00    4.773568e-01   6.026962e-03
  2.779649e+00    4.641115e-01   5.936962e-03
  2.781859e+00    4.643236e-01   5.932624e-03
  2.784070e+00    4.689482e-01   5.956277e-03
  2.786280e+00    4.635724e-01   5.916368e-03
  2.788491e+00    4.777980e-01   6.000615e-03
  2.790701e+00    4.662530e-01   5.922084e-03
  2.792912e+00    4.720850e-01   5.953077e-03
  2.795122e+00    4.729469e-01   5.952794e-03
  2.797333e+00    4.667107e-01   5.907909e-03
  2.799543e+00    4.670356e-01   5.904144e-03
  2.801753e+00    4.714811e-01   5.926360e-03
  2.803964e+00    4.754305e-01   5.945450e-03
  2.806174e+00    4.732768e-01   5.925848e-03
  2.808385e+00    4.719851e-01   5.910987e-03
  2.810595e+00    4.553823e-01   5.799362e-03
  2.812806e+00    4.640653e-01   5.847833e-03
  2.815016e+00    4.737352e-01   5.903732e-03
  2.817227e+00    4.703541e-01   5.908438e-03
  2.819437e+00    4.680097e-01   5.904706e-03
  2.821648e+00    4.778957e-01   5.969058e-03
  2.823858e+00    4.664665e-01   5.902541e-03
  2.826068e+00    4.600214e-01   5.866528e-03
  2.828279e+00    4.665899e-01   5.912286e-03
  2.830489e+00    4.575211e-01   5.857836e-03
  2.832700e+00    4.616273e-01   5.886576e-03
  2.834910e+00    4.647726e-01   5.908647e-03
  2.837121e+00    4.665198e-01   5.921468e-03
  2.839331e+00    4.519145e-01   5.829218e-03
  2.841542e+00    4.592580e-01   5.877403e-03
  2.843752e+00    4.648984e-01   5.914155e-03
  2.845963e+00    4.735590e-01   5.969394e-03
  2.848173e+00    4.691321e-01   5.941516e-03
  2.850383e+00    4.612154e-01   5.891469e-03
  2.852594e+00    4.471672e-01   5.800972e-03
  2.854804e+00    4.537363e-01   5.842915e-03
  2.857015e+00    4.523668e-01   5.833681e-03
  2.859225e+00    4.618911e-01   5.894510e-03
  2.861436e+00    4.623903e-01   5.897047e-03
  2.863646e+00    4.578452e-01   5.868033e-03
  2.865857e+00    4.607335e-01   5.886852e-03
  2.868067e+00    4.490805e-01   5.812140e-03
  2.870278e+00    4.559168e-01   5.855875e-03
  2.872488e+00    4.570260e-01   5.861831e-03
  2.874698e+00    4.522420e-01   5.830044e-03
  2.876909e+00    4.603613e-01   5.880812e-03
  2.879119e+00    4.625342e-01   5.893063e-03
  2.881330e+00    4.595810e-01   5.872759e-03
  2.883540e+00    4.541211e-01   5.836383e-03
  2.885751e+00    4.514600e-01   5.817642e-03
  2.887961e+00    4.544055e-01   5.834712e-03
  2.890172e+00    4.557749e-01   5.841903e-03
  2.892382e+00    4.656378e-01   5.902950e-03
  2.894593e+00    4.741138e-01   5.954619e-03
  2.896803e+00    4.626618e-01   5.880260e-03
  2.899014e+00    4.532722e-01   5.818402e-03
  2.901224e+00    4.519106e-01   5.807665e-03
  2.903434e+00    4.634901e-01   5.879662e-03
  2.905645e+00    4.519275e-01   5.803651e-03
  2.907855e+00    4.348921e-01   5.691190e-03
  2.910066e+00    4.464293e-01   5.764104e-03
  2.912276e+00    4.557059e-01   5.821581e-03
  2.914487e+00    4.469562e-01   5.763016e-03
  2.916697e+00    4.478380e-01   5.766477e-03
  2.918908e+00    4.486948e-01   5.770019e-03
  2.921118e+00    4.382658e-01   5.699928e-03
  2.923329e+00    4.474827e-01   5.757270e-03
  2.925539e+00    4.506773e-01   5.775512e-03
  2.927749e+00    4.563290e-01   5.809304e-03
  2.929960e+00    4.471380e-01   5.747763e-03
  2.932170e+00    4.549419e-01   5.795374e-03
  2.934381e+00    4.572834e-01   5.807831e-03
  2.936591e+00    4.483769e-01   5.748441e-03
  2.938802e+00    4.350567e-01   5.659764e-03
  2.941012e+00    4.443090e-01   5.717315e-03
  2.943223e+00    4.593653e-01   5.810670e-03
  2.945433e+00    4.609369e-01   5.816856e-03
  2.947644e+00    4.551595e-01   5.776154e-03
  2.949854e+00    4.528582e-01   5.757272e-03
  2.952064e+00    4.528962e-01   5.753300e-03
  2.954275e+00    4.564961e-01   5.771700e-03
  2.956485e+00    4.608919e-01   5.795229e-03
  2.958696e+00    4.363925e-01   5.634796e-03
  2.960906e+00    4.358013e-01   5.626885e-03
  2.963117e+00    4.495189e-01   5.710297e-03
  2.965327e+00    4.565818e-01   5.751074e-03
  2.967538e+00    4.423490e-01   5.657858e-03
  2.969748e+00    4.375887e-01   5.624569e-03
  2.971959e+00    4.388635e-01   5.629665e-03
  2.974169e+00    4.468211e-01   5.677908e-03
  2.976379e+00    4.649093e-01   5.788738e-03
  2.978590e+00    4.564645e-01   5.732807e-03
  2.980800e+00    4.452724e-01   5.659311e-03
  2.983011e+00    4.378972e-01   5.609491e-03
  2.985221e+00    4.384725e-01   5.610071e-03
  2.987432e+00    4.444736e-01   5.645264e-03
  2.989642e+00    4.452813e-01   5.647777e-03
  2.991853e+00    4.431881e-01   5.631264e-03
  2.994063e+00    4.514236e-01   5.680430e-03
  2.996274e+00    4.414702e-01   5.614331e-03
  2.998484e+00    4.416277e-01   5.612657e-03
  3.000694e+00    4.441978e-01   5.625564e-03
  3.002905e+00    4.509422e-01   5.665153e-03
  3.005115e+00    4.499407e-01   5.655918e-03
  3.007326e+00    4.480775e-01   5.641046e-03
  3.009536e+00    4.580746e-01   5.700359e-03
  3.011747e+00    4.498872e-01   5.646285e-03
  3.013957e+00    4.423633e-01   5.595735e-03
  3.016168e+00    4.451365e-01   5.610002e-03
  3.018378e+00    4.461508e-01   5.613382e-03
  3.020589e+00    4.428310e-01   5.589275e-03
  3.022799e+00    4.306559e-01   5.508835e-03
  3.025010e+00    4.563429e-01   5.667462e-03
  3.027220e+00    4.495864e-01   5.622276e-03
  3.029430e+00    4.555019e-01   5.655880e-03
  3.031641e+00    4.418388e-01   5.567292e-03
  3.033851e+00    4.468794e-01   5.595490e-03
  3.036062e+00    4.372880e-01   5.532364e-03
  3.038272e+00    4.344605e-01   5.510932e-03
  3.040483e+00    4.439334e-01   5.567503e-03
  3.042693e+00    4.410237e-01   5.545987e-03
  3.044904e+00    4.476390e-01   5.583442e-03
  3.047114e+00    4.410034e-01   5.537126e-03
  3.049325e+00    4.447148e-01   5.556048e-03
  3.051535e+00    4.368553e-01   5.502365e-03
  3.053745e+00    4.457198e-01   5.553214e-03
  3.055956e+00    4.407411e-01   5.517585e-03
  3.058166e+00    4.450299e-01   5.540117e-03
  3.060377e+00    4.567293e-01   5.607674e-03
  3.062587e+00    4.478596e-01   5.548349e-03
  3.064798e+00    4.404837e-01   5.498248e-03
  3.067008e+00    4.392183e-01   5.485680e-03
  3.069219e+00    4.392609e-01   5.481463e-03
  3.071429e+00    4.540728e-01   5.569604e-03
  3.073640e+00    4.502847e-01   5.542995e-03
  3.075850e+00    4.322127e-01   5.427101e-03
  3.078060e+00    4.403345e-01   5.474770e-03
  3.080271e+00    4.525200e-01   5.546528e-03
  3.082481e+00    4.564083e-01   5.566829e-03
  3.084692e+00    4.478008e-01   5.510715e-03
  3.086902e+00    4.419017e-01   5.471072e-03
  3.089113e+00    4.367618e-01   5.435638e-03
  3.091323e+00    4.435260e-01   5.474199e-03
  3.093534e+00    4.415173e-01   5.458460e-03
  3.095744e+00    4.393458e-01   5.441659e-03
  3.097955e+00    4.337114e-01   5.403178e-03
  3.100165e+00    4.400902e-01   5.439432e-03
  3.102375e+00    4.497083e-01   5.495136e-03
  3.104586e+00    4.294697e-01   5.366646e-03
  3.106796e+00    4.473174e-01   5.473482e-03
  3.109007e+00    4.431083e-01   5.444485e-03
  3.111217e+00    4.278785e-01   5.346477e-03
  3.113428e+00    4.311704e-01   5.363633e-03
  3.115638e+00    4.364270e-01   5.393039e-03
  3.117849e+00    4.298981e-01   5.348897e-03
  3.120059e+00    4.355906e-01   5.380746e-03
  3.122270e+00    4.406449e-01   5.408649e-03
  3.124480e+00    4.408278e-01   5.406090e-03
  3.126691e+00    4.406152e-01   5.401253e-03
  3.128901e+00    4.391885e-01   5.389385e-03
  3.131111e+00    4.408945e-01   5.396028e-03
  3.133322e+00    4.446148e-01   5.415291e-03
  3.135532e+00    4.474570e-01   5.429155e-03
  3.137743e+00    4.481308e-01   5.429761e-03
  3.139953e+00    4.284308e-01   5.305456e-03
  3.142164e+00    4.274938e-01   5.311430e-03
  3.144374e+00    4.441231e-01   5.442221e-03
  3.146585e+00    4.540764e-01   5.517618e-03
  3.148795e+00    4.473127e-01   5.487224e-03
  3.151006e+00    4.331647e-01   5.408201e-03
  3.153216e+00    4.434967e-01   5.479458e-03
  3.155426e+00    4.469449e-01   5.507084e-03
  3.157637e+00    4.404685e-01   5.472567e-03
  3.159847e+00    4.275396e-01   5.396447e-03
  3.162058e+00    4.289418e-01   5.409677e-03
  3.164268e+00    4.210930e-01   5.363901e-03
  3.166479e+00    4.353247e-01   5.457438e-03
  3.168689e+00    4.284273e-01   5.417356e-03
  3.170900e+00    4.406160e-01   5.497049e-03
  3.173110e+00    4.297029e-01   5.431397e-03
  3.175321e+00    4.300426e-01   5.436002e-03
  3.177531e+00    4.300928e-01   5.439047e-03
  3.179741e+00    4.299504e-01   5.440199e-03
  3.181952e+00    4.252829e-01   5.412658e-03
  3.184162e+00    4.291117e-01   5.439151e-03
  3.186373e+00    4.225655e-01   5.399079e-03
  3.188583e+00    4.237593e-01   5.408439e-03
  3.190794e+00    4.316539e-01   5.460352e-03
  3.193004e+00    4.229641e-01   5.406328e-03
  3.195215e+00    4.288631e-01   5.445381e-03
  3.197425e+00    4.261371e-01   5.429256e-03
  3.199636e+00    4.288407e-01   5.445670e-03
  3.201846e+00    4.368783e-01   5.495872e-03
  3.204056e+00    4.327517e-01   5.470758e-03
  3.206267e+00    4.190890e-01   5.384514e-03
  3.208477e+00    4.267440e-01   5.434392e-03
  3.210688e+00    4.291390e-01   5.450461e-03
  3.212898e+00    4.352754e-01   5.489866e-03
  3.215109e+00    4.197119e-01   5.391579e-03
  3.217319e+00    4.200077e-01   5.394108e-03
  3.219530e+00    4.150321e-01   5.362437e-03
  3.221740e+00    4.106158e-01   5.334385e-03
  3.223951e+00    4.120328e-01   5.344036e-03
  3.226161e+00    4.128004e-01   5.349194e-03
  3.228372e+00    4.181691e-01   5.384377e-03
  3.230582e+00    4.199470e-01   5.395967e-03
  3.232792e+00    4.183452e-01   5.385875e-03
  3.235003e+00    4.297539e-01   5.459065e-03
  3.237213e+00    4.186800e-01   5.388404e-03
  3.239424e+00    4.100496e-01   5.332544e-03
  3.241634e+00    4.189122e-01   5.389994e-03
  3.243845e+00    4.268721e-01   5.441026e-03
  3.246055e+00    4.372752e-01   5.506673e-03
  3.248266e+00    4.191878e-01   5.391769e-03
  3.250476e+00    4.143569e-01   5.360311e-03
  3.252687e+00    4.163104e-01   5.372857e-03
  3.254897e+00    4.113851e-01   5.340863e-03
  3.257107e+00    4.159054e-01   5.369805e-03
  3.259318e+00    4.267458e-01   5.439115e-03
  3.261528e+00    4.237313e-01   5.419720e-03
  3.263739e+00    4.365923e-01   5.500794e-03
  3.265949e+00    4.295208e-01   5.455942e-03
  3.268160e+00    4.240114e-01   5.420423e-03
  3.270370e+00    4.312750e-01   5.466131e-03
  3.272581e+00    4.246377e-01   5.423647e-03
  3.274791e+00    4.093812e-01   5.324812e-03
  3.277002e+00    4.052870e-01   5.297543e-03
  3.279212e+00    4.182414e-01   5.381185e-03
  3.281422e+00    4.138545e-01   5.352298e-03
  3.283633e+00    4.208300e-01   5.396551e-03
  3.285843e+00    4.219714e-01   5.403532e-03
  3.288054e+00    4.019499e-01   5.272861e-03
  3.290264e+00    4.282846e-01   5.442542e-03
  3.292475e+00    4.068138e-01   5.303561e-03
  3.294685e+00    4.089273e-01   5.316673e-03
  3.296896e+00    4.057001e-01   5.294919e-03
  3.299106e+00    4.127992e-01   5.340501e-03
  3.301317e+00    4.105334e-01   5.324811e-03
  3.303527e+00    4.193819e-01   5.381424e-03
  3.305737e+00    4.210526e-01   5.391082e-03
  3.307948e+00    4.203887e-01   5.386173e-03
  3.310158e+00    4.132923e-01   5.339688e-03
  3.312369e+00    4.066907e-01   5.296000e-03
  3.314579e+00    4.059849e-01   5.290488e-03
  3.316790e+00    4.323119e-01   5.458632e-03
  3.319000e+00    4.201292e-01   5.379977e-03
  3.321211e+00    4.390223e-01   5.499006e-03
  3.323421e+00    4.183362e-01   5.366710e-03
  3.325632e+00    4.136574e-01   5.335711e-03
  3.327842e+00    4.236718e-01   5.399006e-03
  3.330052e+00    4.149401e-01   5.342014e-03
  3.332263e+00    4.185542e-01   5.364218e-03
  3.334473e+00    4.235637e-01   5.395300e-03
  3.336684e+00    4.155004e-01   5.342462e-03
  3.338894e+00    4.075936e-01   5.290546e-03
  3.341105e+00    4.224212e-01   5.384706e-03
  3.343315e+00    4.262304e-01   5.407783e-03
  3.345526e+00    4.081490e-01   5.290954e-03
  3.347736e+00    4.187802e-01   5.358011e-03
  3.349947e+00    4.166946e-01   5.343718e-03
  3.352157e+00    4.166209e-01   5.342094e-03
  3.354368e+00    4.061460e-01   5.273230e-03
  3.356578e+00    3.925851e-01   5.183456e-03
  3.358788e+00    4.026732e-01   5.248326e-03
  3.360999e+00    4.046617e-01   5.260032e-03
  3.363209e+00    4.067438e-01   5.272562e-03
  3.365420e+00    3.990415e-01   5.220912e-03
  3.367630e+00    4.037502e-01   5.250630e-03
  3.369841e+00    3.954231e-01   5.194816e-03
  3.372051e+00    4.086253e-01   5.278864e-03
  3.374262e+00    3.991333e-01   5.214797e-03
  3.376472e+00    4.110772e-01   5.289841e-03
  3.378683e+00    4.017535e-01   5.227021e-03
  3.380893e+00    4.083453e-01   5.267419e-03
  3.383103e+00    4.105991e-01   5.279246e-03
  3.385314e+00    4.062957e-01   5.249318e-03
  3.387524e+00    4.097809e-01   5.269048e-03
  3.389735e+00    3.983124e-01   5.192237e-03
  3.391945e+00    4.102130e-01   5.265542e-03
  3.394156e+00    4.123109e-01   5.274776e-03
  3.396366e+00    4.139756e-01   5.282016e-03
  3.398577e+00    3.899015e-01   5.123170e-03
  3.400787e+00    3.979560e-01   5.187522e-03
  3.402998e+00    4.035283e-01   5.261478e-03
  3.405208e+00    3.957417e-01   5.230881e-03
  3.407418e+00    3.982241e-01   5.262994e-03
  3.409629e+00    3.930973e-01   5.242820e-03
  3.411839e+00    3.870738e-01   5.214104e-03
  3.414050e+00    3.751497e-01   5.143849e-03
  3.416260e+00    3.941847e-01   5.282350e-03
  3.418471e+00    3.873571e-01   5.245761e-03
  3.420681e+00    3.768651e-01   5.182551e-03
  3.422892e+00    3.812096e-01   5.220243e-03
  3.425102e+00    3.731246e-01   5.172243e-03
  3.427313e+00    3.718732e-01   5.170571e-03
  3.429523e+00    3.719519e-01   5.178069e-03
  3.431733e+00    3.675075e-01   5.153520e-03
  3.433944e+00    3.892494e-01   5.310295e-03
  3.436154e+00    3.737879e-01   5.209953e-03
  3.438365e+00    3.711432e-01   5.197310e-03
  3.440575e+00    3.801490e-01   5.265912e-03
  3.442786e+00    3.729645e-01   5.221495e-03
  3.444996e+00    3.694383e-01   5.202222e-03
  3.447207e+00    3.428783e-01   5.016754e-03
  3.449417e+00    3.624582e-01   5.198308e-03
  3.451628e+00    3.751963e-01   5.318566e-03
  3.453838e+00    3.551874e-01   5.195642e-03
  3.456049e+00    3.476700e-01   5.163591e-03
  3.458259e+00    3.549763e-01   5.239153e-03
  3.460469e+00    3.705724e-01   5.372908e-03
  3.462680e+00    3.788204e-01   5.451765e-03
  3.464890e+00    3.822811e-01   5.494805e-03
  3.467101e+00    3.753564e-01   5.462446e-03
  3.469311e+00    3.742457e-01   5.470994e-03
  3.471522e+00    3.820231e-01   5.544121e-03
  3.473732e+00    3.806529e-01   5.550135e-03
  3.475943e+00    3.820949e-01   5.576340e-03
  3.478153e+00    3.871402e-01   5.628471e-03
  3.480364e+00    3.976947e-01   5.719866e-03
  3.482574e+00    4.099524e-01   5.822842e-03
  3.484784e+00    4.018907e-01   5.780011e-03
  3.486995e+00    4.190003e-01   5.916914e-03
  3.489205e+00    4.250962e-01   5.974499e-03
  3.491416e+00    4.280261e-01   6.009991e-03
  3.493626e+00    4.410052e-01   6.115119e-03
  3.495837e+00    4.544016e-01   6.222295e-03
  3.498047e+00    4.296576e-01   6.064759e-03
  3.500258e+00    4.453107e-01   6.188712e-03
  3.502468e+00    4.433798e-01   6.189521e-03
  3.504679e+00    4.371792e-01   6.160210e-03
  3.506889e+00    4.690654e-01   6.395375e-03
  3.509099e+00    4.678620e-01   6.401523e-03
  3.511310e+00    4.651748e-01   6.397350e-03
  3.513520e+00    4.821208e-01   6.527280e-03
  3.515731e+00    4.803919e-01   6.529875e-03
  3.517941e+00    4.958510e-01   6.648526e-03
  3.520152e+00    5.000308e-01   6.690914e-03
  3.522362e+00    4.877624e-01   6.622600e-03
  3.524573e+00    5.000483e-01   6.719682e-03
  3.526783e+00    5.033267e-01   6.754939e-03
  3.528994e+00    4.989236e-01   6.737348e-03
  3.531204e+00    5.181314e-01   6.878199e-03
  3.533414e+00    5.288829e-01   6.961364e-03
  3.535625e+00    5.233299e-01   6.937009e-03
  3.537835e+00    5.213668e-01   6.935989e-03
  3.540046e+00    5.270801e-01   6.982727e-03
  3.542256e+00    5.412600e-01   7.083631e-03
  3.544467e+00    5.300220e-01   7.017250e-03
  3.546677e+00    5.358395e-01   7.063277e-03
  3.548888e+00    5.347878e-01   7.063784e-03
  3.551098e+00    5.452817e-01   7.140144e-03
  3.553309e+00    5.376984e-01   7.098491e-03
  3.555519e+00    5.331296e-01   7.079522e-03
  3.557729e+00    5.237908e-01   7.028849e-03
  3.559940e+00    5.269265e-01   7.061279e-03
  3.562150e+00    5.383886e-01   7.149420e-03
  3.564361e+00    5.527638e-01   7.257756e-03
  3.566571e+00    5.382358e-01   7.175617e-03
  3.568782e+00    5.555982e-01   7.304786e-03
  3.570992e+00    5.374873e-01   7.198546e-03
  3.573203e+00    5.320191e-01   7.175901e-03
  3.575413e+00    5.339184e-01   7.202468e-03
  3.577624e+00    5.428674e-01   7.276762e-03
  3.579834e+00    5.367166e-01   7.249345e-03
  3.582045e+00    5.175022e-01   7.132168e-03
  3.584255e+00    5.500103e-01   7.367003e-03
  3.586465e+00    5.199400e-01   7.176521e-03
  3.588676e+00    5.414897e-01   7.337971e-03
  3.590886e+00    5.437521e-01   7.367135e-03
  3.593097e+00    5.391791e-01   7.350604e-03
  3.595307e+00    5.312940e-01   7.310534e-03
  3.597518e+00    5.366618e-01   7.361636e-03
  3.599728e+00    5.109143e-01   7.196595e-03
  3.601939e+00    5.220729e-01   7.288656e-03
  3.604149e+00    5.405412e-01   7.430927e-03
  3.606360e+00    5.380223e-01   7.427762e-03
  3.608570e+00    5.499515e-01   7.524034e-03
  3.610780e+00    5.247121e-01   7.360302e-03
  3.612991e+00    5.340655e-01   7.435598e-03
  3.615201e+00    5.433933e-01   7.510135e-03
  3.617412e+00    5.379842e-01   7.479965e-03
  3.619622e+00    5.291345e-01   7.424113e-03
  3.621833e+00    5.202090e-01   7.367874e-03
  3.624043e+00    5.454497e-01   7.554059e-03
  3.626254e+00    5.249843e-01   7.420645e-03
  3.628464e+00    5.227107e-01   7.415395e-03
  3.630675e+00    5.374677e-01   7.533509e-03
  3.632885e+00    5.434224e-01   7.589703e-03
  3.635095e+00    5.245389e-01   7.470939e-03
  3.637306e+00    5.213090e-01   7.462128e-03
  3.639516e+00    5.168326e-01   7.444286e-03
  3.641727e+00    5.448914e-01   7.658434e-03
  3.643937e+00    5.163642e-01   7.469624e-03
  3.646148e+00    5.181746e-01   7.497051e-03
  3.648358e+00    5.140818e-01   7.482022e-03
  3.650569e+00    5.240631e-01   7.568866e-03
  3.652779e+00    5.375854e-01   7.680750e-03
  3.654990e+00    5.393725e-01   7.708509e-03
  3.657200e+00    5.213901e-01   7.593654e-03
  3.659410e+00    5.208102e-01   7.604250e-03
  3.661621e+00    5.247840e-01   7.648164e-03
  3.663831e+00    5.287119e-01   7.691863e-03
  3.666042e+00    5.268770e-01   7.693571e-03
  3.668252e+00    5.122268e-01   7.600821e-03
  3.670463e+00    5.100638e-01   7.599698e-03
  3.672673e+00    5.216902e-01   7.701077e-03
  3.674884e+00    5.356499e-01   7.818921e-03
  3.677094e+00    5.477535e-01   7.922543e-03
  3.679305e+00    5.326270e-01   7.827957e-03
  3.681515e+00    5.195771e-01   7.746963e-03
  3.683726e+00    5.095615e-01   7.687381e-03
  3.685936e+00    5.292464e-01   7.850219e-03
  3.688146e+00    4.982099e-01   7.631840e-03
  3.690357e+00    5.252238e-01   7.851934e-03
  3.692567e+00    5.402048e-01   7.979450e-03
  3.694778e+00    5.152394e-01   7.808818e-03
  3.696988e+00    4.966723e-01   7.682296e-03
  3.699199e+00    5.309709e-01   7.959456e-03
  3.701409e+00    5.081758e-01   7.802869e-03
  3.703620e+00    5.196784e-01   7.906871e-03
  3.705830e+00    5.102398e-01   7.850952e-03
  3.708041e+00    5.177090e-01   7.924660e-03
  3.710251e+00    5.254773e-01   8.000682e-03
  3.712461e+00    4.925133e-01   7.761921e-03
  3.714672e+00    5.004368e-01   7.840459e-03
  3.716882e+00    5.072560e-01   7.910218e-03
  3.719093e+00    5.088833e-01   7.939799e-03
  3.721303e+00    5.195981e-01   8.039949e-03
  3.723514e+00    5.046667e-01   7.940623e-03
  3.725724e+00    4.882903e-01   7.827353e-03
  3.727935e+00    5.043985e-01   7.972636e-03
  3.730145e+00    5.064274e-01   8.005807e-03
  3.732356e+00    4.902306e-01   7.893859e-03
  3.734566e+00    5.063148e-01   8.039654e-03
  3.736776e+00    4.968247e-01   7.981421e-03
  3.738987e+00    4.899288e-01   7.943163e-03
  3.741197e+00    5.103818e-01   8.125180e-03
  3.743408e+00    5.237795e-01   8.249397e-03
  3.745618e+00    4.857787e-01   7.962354e-03
  3.747829e+00    5.022258e-01   8.113916e-03
  3.750039e+00    5.250118e-01   8.314543e-03
  3.752250e+00    5.131733e-01   8.238825e-03
  3.754460e+00    5.257210e-01   8.357748e-03
  3.756671e+00    4.897638e-01   8.085328e-03
  3.758881e+00    5.035747e-01   8.217032e-03
  3.761091e+00    4.897473e-01   8.122212e-03
  3.763302e+00    5.244889e-01   8.424777e-03
  3.765512e+00    4.886357e-01   8.150622e-03
  3.767723e+00    4.895849e-01   8.177542e-03
  3.769933e+00    4.931708e-01   8.226485e-03
  3.772144e+00    4.875893e-01   8.199054e-03
  3.774354e+00    4.948729e-01   8.279654e-03
  3.776565e+00    4.861497e-01   8.225900e-03
  3.778775e+00    4.872473e-01   8.254737e-03
  3.780986e+00    5.055935e-01   8.429048e-03
  3.783196e+00    5.107071e-01   8.491972e-03
  3.785407e+00    5.119237e-01   8.522660e-03
  3.787617e+00    5.271642e-01   8.669881e-03
  3.789827e+00    5.126967e-01   8.570818e-03
  3.792038e+00    4.996663e-01   8.482011e-03
  3.794248e+00    4.900134e-01   8.420577e-03
  3.796459e+00    4.734585e-01   8.297859e-03
  3.798669e+00    4.873489e-01   8.439803e-03
  3.800880e+00    4.805359e-01   8.401592e-03
  3.803090e+00    5.218053e-01   8.777238e-03
  3.805301e+00    4.886773e-01   8.515885e-03
  3.807511e+00    4.972529e-01   8.612226e-03
  3.809722e+00    4.900318e-01   8.571514e-03
  3.811932e+00    4.761015e-01   8.470437e-03
  3.814142e+00    4.961714e-01   8.669945e-03
  3.816353e+00    5.020933e-01   8.744442e-03
  3.818563e+00    4.940764e-01   8.697388e-03
  3.820774e+00    4.852050e-01   8.641759e-03
  3.822984e+00    4.913623e-01   8.719689e-03
  3.825195e+00    4.619623e-01   8.477593e-03
  3.827405e+00    5.008283e-01   8.851009e-03
  3.829616e+00    4.879798e-01   8.760565e-03
  3.831826e+00    4.884328e-01   8.788573e-03
  3.834037e+00    4.757129e-01   8.697357e-03
  3.836247e+00    4.997976e-01   8.939586e-03
  3.838457e+00    4.819287e-01   8.802973e-03
  3.840668e+00    4.960758e-01   8.956427e-03
  3.842878e+00    5.049965e-01   9.062309e-03
  3.845089e+00    5.197392e-01   9.219888e-03
  3.847299e+00    4.741988e-01   8.831902e-03
  3.849510e+00    4.947893e-01   9.047444e-03
  3.851720e+00    5.039688e-01   9.152597e-03
  3.853931e+00    4.985162e-01   9.122089e-03
  3.856141e+00    4.713482e-01   8.888475e-03
  3.858352e+00    4.905588e-01   9.087083e-03
  3.860562e+00    4.746811e-01   8.957688e-03
  3.862772e+00    4.833573e-01   9.058547e-03
  3.864983e+00    4.757543e-01   9.006351e-03
  3.867193e+00    5.036923e-01   9.286968e-03
  3.869404e+00    4.894102e-01   9.174125e-03
  3.871614e+00    4.617429e-01   8.930392e-03
  3.873825e+00    4.736807e-01   9.064934e-03
  3.876035e+00    4.670530e-01   9.021359e-03
  3.878246e+00    4.808291e-01   9.178898e-03
  3.880456e+00    4.869020e-01   9.265443e-03
  3.882667e+00    4.991003e-01   9.410418e-03
  3.884877e+00    4.826696e-01   9.283681e-03
  3.887087e+00    4.723481e-01   9.213225e-03
  3.889298e+00    4.624545e-01   9.145675e-03
  3.891508e+00    4.978085e-01   9.519540e-03
  3.893719e+00    5.023834e-01   9.594573e-03
  3.895929e+00    4.837593e-01   9.446298e-03
  3.898140e+00    4.707321e-01   9.349258e-03
  3.900350e+00    4.887860e-01   9.558904e-03
  3.902561e+00    4.731291e-01   9.436375e-03
  3.904771e+00    4.606966e-01   9.343409e-03
  3.906982e+00    4.891740e-01   9.660988e-03
  3.909192e+00    5.072536e-01   9.871974e-03
  3.911403e+00    4.920015e-01   9.756579e-03
  3.913613e+00    4.733128e-01   9.603179e-03
  3.915823e+00    5.035962e-01   9.941012e-03
  3.918034e+00    4.953409e-01   9.894683e-03
  3.920244e+00    4.913764e-01   9.890841e-03
  3.922455e+00    4.710976e-01   9.720070e-03
  3.924665e+00    4.517862e-01   9.553812e-03
  3.926876e+00    4.746002e-01   9.828603e-03
  3.929086e+00    4.781871e-01   9.902712e-03
  3.931297e+00    4.988661e-01   1.014974e-02
  3.933507e+00    4.849991e-01   1.003661e-02
  3.935718e+00    4.688737e-01   9.896508e-03
  3.937928e+00    4.798124e-01   1.004047e-02
  3.940138e+00    4.765844e-01   1.003567e-02
  3.942349e+00    4.954067e-01   1.026206e-02
  3.944559e+00    4.654776e-01   9.976626e-03
  3.946770e+00    4.864585e-01   1.022903e-02
  3.948980e+00    4.828041e-01   1.022126e-02
  3.951191e+00    4.866053e-01   1.029216e-02
  3.953401e+00    4.831439e-01   1.028684e-02
  3.955612e+00    4.631566e-01   1.010268e-02
  3.957822e+00    4.305132e-01   9.769950e-03
  3.960033e+00    4.547644e-01   1.007290e-02
  3.962243e+00    4.712278e-01   1.028596e-02
  3.964453e+00    4.770240e-01   1.038180e-02
  3.966664e+00    4.822963e-01   1.047237e-02
  3.968874e+00    4.857160e-01   1.053782e-02
  3.971085e+00    4.882997e-01   1.058776e-02
  3.973295e+00    4.919745e-01   1.064919e-02
  3.975506e+00    5.024022e-01   1.078339e-02
  3.977716e+00    5.038652e-01   1.082151e-02
  3.979927e+00    4.848790e-01   1.063782e-02
  3.982137e+00    4.727937e-01   1.052640e-02
  3.984348e+00    4.535645e-01   1.033186e-02
  3.986558e+00    4.852942e-01   1.070956e-02
  3.988768e+00    4.656371e-01   1.051293e-02
  3.990979e+00    4.686984e-01   1.056976e-02
  3.993189e+00    4.696120e-01   1.060273e-02
  3.995400e+00    5.097927e-01   1.107116e-02
  3.997610e+00    4.931359e-01   1.091893e-02
  3.999821e+00    4.806455e-01   1.081706e-02
  4.002031e+00    4.701316e-01   1.073595e-02
  4.004242e+00    4.524020e-01   1.056873e-02
  4.006452e+00    4.887980e-01   1.102508e-02
  4.008663e+00    4.979933e-01   1.116903e-02
  4.010873e+00    4.672873e-01   1.085831e-02
  4.013084e+00    4.929318e-01   1.119362e-02
  4.015294e+00    4.917164e-01   1.122113e-02
  4.017504e+00    4.930812e-01   1.127892e-02
  4.019715e+00    4.750676e-01   1.111293e-02
  4.021925e+00    5.000108e-01   1.144492e-02
  4.024136e+00    4.470229e-01   1.086340e-02
  4.026346e+00    4.803608e-01   1.130499e-02
  4.028557e+00    4.959488e-01   1.153199e-02
  4.030767e+00    4.970000e-01   1.159035e-02
  4.032978e+00    4.965035e-01   1.163163e-02
  4.035188e+00    4.617456e-01   1.126218e-02
  4.037399e+00    4.668501e-01   1.137101e-02
  4.039609e+00    4.513744e-01   1.122692e-02
  4.041819e+00    5.111018e-01   1.199693e-02
  4.044030e+00    4.441283e-01   1.123122e-02
  4.046240e+00    4.666001e-01   1.156072e-02
  4.048451e+00    4.886059e-01   1.188145e-02
  4.050661e+00    4.601982e-01   1.158115e-02
  4.052872e+00    4.278186e-01   1.121597e-02
  4.055082e+00    4.651275e-01   1.174721e-02
  4.057293e+00    4.433657e-01   1.152079e-02
  4.059503e+00    4.622973e-01   1.181746e-02
  4.061714e+00    4.432168e-01   1.162548e-02
  4.063924e+00    4.551627e-01   1.183593e-02
  4.066134e+00    4.697042e-01   1.208029e-02
  4.068345e+00    4.387655e-01   1.173189e-02
  4.070555e+00    4.721116e-01   1.222820e-02
  4.072766e+00    4.725673e-01   1.229454e-02
  4.074976e+00    4.691707e-01   1.231114e-02
  4.077187e+00    4.882680e-01   1.262171e-02
  4.079397e+00    4.959012e-01   1.278489e-02
  4.081608e+00    4.911866e-01   1.279038e-02
  4.083818e+00    4.721618e-01   1.260525e-02
  4.086029e+00    4.989481e-01   1.302619e-02
  4.088239e+00    4.981281e-01   1.308570e-02
  4.090449e+00    4.677520e-01   1.274911e-02
  4.092660e+00    4.873140e-01   1.308451e-02
  4.094870e+00    4.876613e-01   1.316212e-02
  4.097081e+00    4.246286e-01   1.234924e-02
  4.099291e+00    4.989391e-01   1.344164e-02
  4.101502e+00    4.818580e-01   1.325888e-02
  4.103712e+00    4.762965e-01   1.323117e-02
  4.105923e+00    5.210432e-01   1.389238e-02
  4.108133e+00    4.873133e-01   1.348702e-02
  4.110344e+00    4.774248e-01   1.340061e-02
  4.112554e+00    4.347843e-01   1.283865e-02
  4.114764e+00    4.774667e-01   1.350806e-02
  4.116975e+00    4.911603e-01   1.375445e-02
  4.119185e+00    5.267273e-01   1.430153e-02
  4.121396e+00    5.043004e-01   1.405174e-02
  4.123606e+00    4.724317e-01   1.365621e-02
  4.125817e+00    4.365569e-01   1.318253e-02
  4.128027e+00    4.346602e-01   1.320918e-02
  4.130238e+00    4.541047e-01   1.355922e-02
  4.132448e+00    4.775504e-01   1.396526e-02
  4.134659e+00    4.802641e-01   1.406511e-02
  4.136869e+00    5.037543e-01   1.446932e-02
  4.139080e+00    5.009099e-01   1.449341e-02
  4.141290e+00    4.559126e-01   1.388843e-02
  4.143500e+00    4.519610e-01   1.389176e-02
  4.145711e+00    4.597052e-01   1.407583e-02
  4.147921e+00    4.270661e-01   1.362914e-02
  4.150132e+00    4.916257e-01   1.469258e-02
  4.152342e+00    5.076174e-01   1.500225e-02
  4.154553e+00    4.811340e-01   1.467516e-02
  4.156763e+00    4.893504e-01   1.487306e-02
  4.158974e+00    5.359215e-01   1.564293e-02
  4.161184e+00    5.066693e-01   1.528561e-02
  4.163395e+00    4.855893e-01   1.504060e-02
  4.165605e+00    4.571012e-01   1.466853e-02
  4.167815e+00    4.431850e-01   1.451889e-02
  4.170026e+00    4.875475e-01   1.530853e-02
  4.172236e+00    4.681809e-01   1.508260e-02
  4.174447e+00    4.584436e-01   1.500583e-02
  4.176657e+00    4.767216e-01   1.538586e-02
  4.178868e+00    4.867948e-01   1.563557e-02
  4.181078e+00    5.421536e-01   1.659364e-02
  4.183289e+00    4.592392e-01   1.535960e-02
  4.185499e+00    4.710911e-01   1.564834e-02
  4.187710e+00    4.505508e-01   1.539298e-02
  4.189920e+00    4.511914e-01   1.549675e-02
  4.192130e+00    4.808478e-01   1.609568e-02
  4.194341e+00    4.759752e-01   1.611191e-02
  4.196551e+00    5.040210e-01   1.668501e-02
  4.198762e+00    5.259234e-01   1.715181e-02
  4.200972e+00    4.828532e-01   1.654085e-02
  4.203183e+00    4.741355e-01   1.649899e-02
  4.205393e+00    4.763134e-01   1.664685e-02
  4.207604e+00    4.406759e-01   1.612129e-02
  4.209814e+00    4.985642e-01   1.726492e-02
  4.212025e+00    4.075486e-01   1.572048e-02
  4.214235e+00    4.654713e-01   1.691929e-02
  4.216445e+00    4.515237e-01   1.678482e-02
  4.218656e+00    4.173783e-01   1.625834e-02
  4.220866e+00    4.295192e-01   1.661532e-02
  4.223077e+00    4.889398e-01   1.786374e-02
  4.225287e+00    4.258003e-01   1.680168e-02
  4.227498e+00    4.674037e-01   1.774113e-02
  4.229708e+00    5.259126e-01   1.897191e-02
  4.231919e+00    4.821157e-01   1.831541e-02
  4.234129e+00    4.474657e-01   1.779252e-02
  4.236340e+00    4.633265e-01   1.826037e-02
  4.238550e+00    4.450150e-01   1.805407e-02
  4.240761e+00    4.070328e-01   1.741858e-02
  4.242971e+00    4.995484e-01   1.947335e-02
  4.245181e+00    4.773242e-01   1.921450e-02
  4.247392e+00    4.884529e-01   1.961879e-02
  4.249602e+00    4.735332e-01   1.950867e-02
  4.251813e+00    4.717211e-01   1.966332e-02
  4.254023e+00    4.277007e-01   1.891195e-02
  4.256234e+00    4.935326e-01   2.053246e-02
  4.258444e+00    4.609968e-01   2.005184e-02
  4.260655e+00    4.767033e-01   2.061469e-02
  4.262865e+00    4.120241e-01   1.938253e-02
  4.265076e+00    4.297985e-01   2.002136e-02
  4.267286e+00    4.796189e-01   2.140067e-02
  4.269496e+00    4.531733e-01   2.105618e-02
  4.271707e+00    5.264617e-01   2.297556e-02
  4.273917e+00    5.125811e-01   2.296361e-02
  4.276128e+00    4.601856e-01   2.204769e-02
  4.278338e+00    5.396117e-01   2.419276e-02
  4.280549e+00    5.622137e-01   2.504949e-02
  4.282759e+00    4.429330e-01   2.255276e-02
  4.284970e+00    4.455366e-01   2.295384e-02
  4.287180e+00    5.002888e-01   2.461526e-02
  4.289391e+00    4.133644e-01   2.254223e-02
  4.291601e+00    5.359917e-01   2.587425e-02
  4.293811e+00    4.745548e-01   2.453700e-02
  4.296022e+00    5.202106e-01   2.589598e-02
  4.298232e+00    4.419768e-01   2.407007e-02
  4.300443e+00    4.367815e-01   2.412541e-02
  4.302653e+00    4.500256e-01   2.470049e-02
  4.304864e+00    4.162683e-01   2.396155e-02
  4.307074e+00    4.528762e-01   2.521746e-02
  4.309285e+00    4.668473e-01   2.583633e-02
  4.311495e+00    4.119266e-01   2.449593e-02
  4.313706e+00    5.075004e-01   2.744452e-02
  4.315916e+00    4.817452e-01   2.700412e-02
  4.318126e+00    4.051110e-01   2.500660e-02
  4.320337e+00    3.885268e-01   2.473755e-02
  4.322547e+00    4.082941e-01   2.562779e-02
  4.324758e+00    5.732780e-01   3.068335e-02
  4.326968e+00    4.093633e-01   2.622057e-02
  4.329179e+00    4.586521e-01   2.805987e-02
  4.331389e+00    5.312214e-01   3.054668e-02
  4.333600e+00    4.773137e-01   2.930031e-02
  4.335810e+00    4.495008e-01   2.877332e-02
  4.338021e+00    4.987454e-01   3.069521e-02
  4.340231e+00    4.300441e-01   2.886103e-02
  4.342442e+00    3.858333e-01   2.770392e-02
  4.344652e+00    4.682414e-01   3.093347e-02
  4.346862e+00    4.798491e-01   3.175390e-02
  4.349073e+00    4.314333e-01   3.054725e-02
  4.351283e+00    4.237032e-01   3.072389e-02
  4.353494e+00    4.833930e-01   3.332451e-02
  4.355704e+00    4.107482e-01   3.121397e-02
  4.357915e+00    3.306095e-01   2.846833e-02
  4.360125e+00    4.513037e-01   3.382976e-02
  4.362336e+00    4.667953e-01   3.503203e-02
  4.364546e+00    4.150103e-01   3.363442e-02
  4.366757e+00    4.196930e-01   3.449612e-02
  4.368967e+00    3.845654e-01   3.367947e-02
  4.371177e+00    3.826090e-01   3.430683e-02
  4.373388e+00    4.352317e-01   3.740918e-02
  4.375598e+00    3.761275e-01   3.557036e-02
  4.377809e+00    2.971070e-01   3.241357e-02
  4.380019e+00    4.146545e-01   3.925435e-02
  4.382230e+00    3.702292e-01   3.812746e-02
  4.384440e+00    2.501613e-01   3.224424e-02
  4.386651e+00    4.424594e-01   4.420160e-02
  4.388861e+00    3.066857e-01   3.803870e-02
  4.391072e+00    2.810042e-01   3.768693e-02
  4.393282e+00    5.231336e-01   5.341139e-02
  4.395492e+00    3.358933e-01   4.457463e-02
  4.397703e+00    4.151256e-01   5.182216e-02
  4.399913e+00    2.656194e-01   4.355099e-02
  4.402124e+00    3.463680e-01   5.254763e-02
  4.404334e+00    5.642827e-01   7.129776e-02
  4.406545e+00    4.731667e-01   7.014929e-02
  4.408755e+00    5.277436e-01   8.034743e-02
  4.410966e+00    6.376399e-01   9.773794e-02
  4.413176e+00    4.682393e-01   9.481798e-02
  4.415387e+00   -7.836424e-01            nan
  4.417597e+00   -1.753263e+00            nan
  4.419807e+00   -1.824666e-01            nan
