# == pyFAI calibration ==
# Distance Sample to Detector: 0.216 m
# PONI: 1.166e-01, 1.308e-01 m
# Rotations: 0.000000 0.000000 0.000000 rad
# 
# == Fit2d calibration ==
# Distance Sample-beamCenter: 216.000 mm
# Center: x=1744.293, y=1555.000 pix
# Tilt: 0.000 deg  TiltPlanRot: 0.000 deg
# 
# Detector Eiger 9M	 PixelSize= 7.500e-05, 7.500e-05 m
#    Detector has a mask: True 
#    Detector has a dark current: False 
#    detector has a flat field: False 
# 
# Wavelength: 9.8e-11 m
# Mask applied: from detector
# Dark current applied: False
# Flat field applied: False
# Polarization factor: None
# Normalization factor: 1.0
# 
# Headers of the input frame:
# {
# "_array_data.header_convention": "SLS_1.0",
# "_array_data.header_contents": "# Detector: Dectris Eiger 9M, S/N E-18-0102\r\n# Pixel_size 75e-6 m x 75e-6 m\r\n# Silicon sensor, thickness 0.000450 m\r\n# Exposure_time 0.024997 s\r\n# Exposure_period 0.025000 s\r\n# Count_cutoff 62318 counts\r\n# Wavelength 0.980106 A\r\n# Detector_distance 0.215992 m\r\n# Beam_xy (1555, 1744) pixels\r\n# Start_angle 0.000000 deg.\r\n# Angle_increment 0.000000 deg.",
# "Content-Type": "application/octet-stream;",
# "conversions": "x-CBF_BYTE_OFFSET",
# "Content-Transfer-Encoding": "BINARY",
# "X-Binary-Size": "10166608",
# "X-Binary-ID": "1",
# "X-Binary-Element-Type": "signed 32-bit integer",
# "X-Binary-Element-Byte-Order": "LITTLE_ENDIAN",
# "Content-MD5": "HTP2CZGjAipQ8JvWQxcRAg==",
# "X-Binary-Number-of-Elements": "10166590",
# "X-Binary-Size-Fastest-Dimension": "3110",
# "X-Binary-Size-Second-Dimension": "3269",
# "X-Binary-Size-Padding": "4095"
# }
# --> H:/Proxima2a_2019-04-05/RAW_DATA/C5_gel17_position5/C5_mesh_1_data.cbf/C5_mesh_1_data.cbf000159.dat
#        q_A^-1              I           sigma 
  1.105228e-03    7.846463e-01   4.793182e-01
  3.315685e-03    1.793546e+00   4.405566e-01
  5.526141e-03    1.697263e+00   3.313955e-01
  7.736597e-03    1.548903e+00   2.674437e-01
  9.947054e-03    1.439418e+00   2.272846e-01
  1.215751e-02    1.275242e+00   1.934483e-01
  1.436797e-02    1.590579e+00   1.987254e-01
  1.657842e-02    1.291988e+00   1.667146e-01
  1.878888e-02    1.402741e+00   1.631745e-01
  2.099934e-02    1.247537e+00   1.455891e-01
  2.320979e-02    1.280202e+00   1.402724e-01
  2.542025e-02    1.515455e+00   1.458414e-01
  2.763070e-02    1.535052e+00   1.407835e-01
  2.984116e-02    1.586624e+00   1.377252e-01
  3.205162e-02    1.565408e+00   1.320079e-01
  3.426207e-02    1.484779e+00   1.243386e-01
  3.647253e-02    1.453002e+00   1.192128e-01
  3.868299e-02    1.411384e+00   1.140954e-01
  4.089344e-02    1.418875e+00   1.112635e-01
  4.310390e-02    1.452187e+00   1.096315e-01
  4.531436e-02    1.370947e+00   1.038906e-01
  4.752481e-02    1.420082e+00   1.032466e-01
  4.973527e-02    1.508254e+00   1.040133e-01
  5.194572e-02    1.444093e+00   9.958652e-02
  5.415618e-02    1.439882e+00   9.738730e-02
  5.636664e-02    1.412638e+00   9.455416e-02
  5.857709e-02    1.496678e+00   9.547260e-02
  6.078755e-02    1.382519e+00   9.007265e-02
  6.299801e-02    1.341588e+00   8.715774e-02
  6.520846e-02    1.366980e+00   8.647525e-02
  6.741892e-02    1.479689e+00   8.847794e-02
  6.962938e-02    1.542043e+00   8.888215e-02
  7.183983e-02    1.491618e+00   8.605994e-02
  7.405029e-02    1.316692e+00   7.963854e-02
  7.626074e-02    1.477746e+00   8.313619e-02
  7.847120e-02    1.475497e+00   8.189232e-02
  8.068166e-02    1.565875e+00   8.319876e-02
  8.289211e-02    1.544191e+00   8.151120e-02
  8.510257e-02    1.558305e+00   8.081195e-02
  8.731303e-02    1.503844e+00   7.837296e-02
  8.952348e-02    1.445208e+00   7.587746e-02
  9.173394e-02    1.455006e+00   7.520840e-02
  9.394439e-02    1.443608e+00   7.402424e-02
  9.615485e-02    1.504617e+00   7.469691e-02
  9.836531e-02    1.565865e+00   7.533896e-02
  1.005758e-01    1.498500e+00   7.288660e-02
  1.027862e-01    1.543415e+00   7.316935e-02
  1.049967e-01    1.479088e+00   7.086910e-02
  1.072071e-01    1.547619e+00   7.174024e-02
  1.094176e-01    1.455857e+00   6.887344e-02
  1.116280e-01    1.437099e+00   6.774589e-02
  1.138385e-01    1.520933e+00   6.901259e-02
  1.160490e-01    1.535400e+00   6.867564e-02
  1.182594e-01    1.607859e+00   6.961603e-02
  1.204699e-01    1.608086e+00   6.897873e-02
  1.226803e-01    1.558118e+00   6.728135e-02
  1.248908e-01    1.541405e+00   6.632387e-02
  1.271012e-01    1.616968e+00   6.733547e-02
  1.293117e-01    1.669941e+00   6.784134e-02
  1.315222e-01    1.599848e+00   6.584043e-02
  1.337326e-01    1.577123e+00   6.482738e-02
  1.359431e-01    1.530836e+00   6.390636e-02
  1.381535e-01    1.588988e+00   6.598281e-02
  1.403640e-01    1.661815e+00   6.776930e-02
  1.425744e-01    1.601920e+00   6.664313e-02
  1.447849e-01    1.568975e+00   6.596947e-02
  1.469953e-01    1.654123e+00   6.769346e-02
  1.492058e-01    1.611763e+00   6.674342e-02
  1.514163e-01    1.647026e+00   6.735756e-02
  1.536267e-01    1.531530e+00   6.482615e-02
  1.558372e-01    1.560118e+00   6.528390e-02
  1.580476e-01    1.676623e+00   6.751342e-02
  1.602581e-01    1.698744e+00   6.778475e-02
  1.624685e-01    1.746162e+00   6.853613e-02
  1.646790e-01    1.702992e+00   6.748927e-02
  1.668895e-01    1.667831e+00   6.659605e-02
  1.690999e-01    1.692454e+00   6.688436e-02
  1.713104e-01    1.712333e+00   6.706726e-02
  1.735208e-01    1.741340e+00   6.742262e-02
  1.757313e-01    1.799651e+00   6.832737e-02
  1.779417e-01    1.835065e+00   6.877134e-02
  1.801522e-01    1.844367e+00   6.872586e-02
  1.823626e-01    1.824857e+00   6.813381e-02
  1.845731e-01    1.906925e+00   6.942341e-02
  1.867836e-01    1.997453e+00   7.081240e-02
  1.889940e-01    1.955282e+00   6.983198e-02
  1.912045e-01    1.978455e+00   7.000995e-02
  1.934149e-01    2.014353e+00   7.040584e-02
  1.956254e-01    2.055298e+00   7.088324e-02
  1.978358e-01    2.026686e+00   7.014692e-02
  2.000463e-01    2.050293e+00   7.032046e-02
  2.022568e-01    1.975042e+00   6.879140e-02
  2.044672e-01    1.930377e+00   6.777611e-02
  2.066777e-01    1.976985e+00   6.836179e-02
  2.088881e-01    2.062790e+00   6.960108e-02
  2.110986e-01    2.031897e+00   6.884107e-02
  2.133090e-01    1.949745e+00   6.721581e-02
  2.155195e-01    1.976273e+00   6.744707e-02
  2.177300e-01    2.003571e+00   6.737776e-02
  2.199404e-01    1.977536e+00   6.517477e-02
  2.221509e-01    1.901695e+00   6.286328e-02
  2.243613e-01    1.985192e+00   6.341429e-02
  2.265718e-01    1.980902e+00   6.264751e-02
  2.287822e-01    2.046741e+00   6.304982e-02
  2.309927e-01    1.988343e+00   6.157773e-02
  2.332031e-01    2.003160e+00   6.127771e-02
  2.354136e-01    2.138877e+00   6.280634e-02
  2.376241e-01    2.102095e+00   6.178070e-02
  2.398345e-01    2.043665e+00   6.046516e-02
  2.420450e-01    2.219909e+00   6.256811e-02
  2.442554e-01    2.201817e+00   6.188336e-02
  2.464659e-01    2.179554e+00   6.115635e-02
  2.486763e-01    2.093051e+00   5.953652e-02
  2.508868e-01    2.132269e+00   5.971260e-02
  2.530973e-01    2.121766e+00   5.919609e-02
  2.553077e-01    2.105330e+00   5.860869e-02
  2.575182e-01    2.074822e+00   5.783825e-02
  2.597286e-01    2.060033e+00   5.729673e-02
  2.619391e-01    2.069910e+00   5.710327e-02
  2.641495e-01    2.047321e+00   5.647650e-02
  2.663600e-01    2.081662e+00   5.663504e-02
  2.685704e-01    2.014383e+00   5.541029e-02
  2.707809e-01    1.970793e+00   5.451658e-02
  2.729914e-01    2.007980e+00   5.474174e-02
  2.752018e-01    2.073783e+00   5.534192e-02
  2.774123e-01    2.050246e+00   5.474589e-02
  2.796227e-01    1.970120e+00   5.340000e-02
  2.818332e-01    1.968878e+00   5.311685e-02
  2.840436e-01    1.986654e+00   5.309747e-02
  2.862541e-01    1.984402e+00   5.281225e-02
  2.884646e-01    1.985285e+00   5.257335e-02
  2.906750e-01    1.889564e+00   5.104704e-02
  2.928855e-01    1.945032e+00   5.155089e-02
  2.950959e-01    1.926291e+00   5.106628e-02
  2.973064e-01    2.027462e+00   5.215468e-02
  2.995168e-01    2.008043e+00   5.166924e-02
  3.017273e-01    1.969780e+00   5.094899e-02
  3.039377e-01    1.968840e+00   5.071377e-02
  3.061482e-01    2.016136e+00   5.109730e-02
  3.083587e-01    1.960099e+00   5.016411e-02
  3.105691e-01    1.894951e+00   4.911273e-02
  3.127796e-01    1.946438e+00   4.956621e-02
  3.149900e-01    1.928304e+00   4.912923e-02
  3.172005e-01    1.900473e+00   4.857396e-02
  3.194109e-01    1.861598e+00   4.787614e-02
  3.216214e-01    1.867625e+00   4.775790e-02
  3.238319e-01    1.900899e+00   4.799055e-02
  3.260423e-01    1.884145e+00   4.758831e-02
  3.282528e-01    1.836143e+00   4.679115e-02
  3.304632e-01    1.922735e+00   4.769628e-02
  3.326737e-01    1.871188e+00   4.686901e-02
  3.348841e-01    1.895460e+00   4.698908e-02
  3.370946e-01    1.876924e+00   4.658283e-02
  3.393050e-01    1.849081e+00   4.606090e-02
  3.415155e-01    1.835857e+00   4.572333e-02
  3.437260e-01    1.837491e+00   4.557412e-02
  3.459364e-01    1.863058e+00   4.572033e-02
  3.481469e-01    1.877286e+00   4.572706e-02
  3.503573e-01    1.800443e+00   4.461827e-02
  3.525678e-01    1.826144e+00   4.477548e-02
  3.547782e-01    1.797763e+00   4.426559e-02
  3.569887e-01    1.853455e+00   4.478675e-02
  3.591992e-01    1.851018e+00   4.459894e-02
  3.614096e-01    1.784174e+00   4.363444e-02
  3.636201e-01    1.782485e+00   4.346051e-02
  3.658305e-01    1.764841e+00   4.309736e-02
  3.680410e-01    1.819289e+00   4.360662e-02
  3.702514e-01    1.807990e+00   4.332481e-02
  3.724619e-01    1.774617e+00   4.277693e-02
  3.746724e-01    1.745556e+00   4.228367e-02
  3.768828e-01    1.796100e+00   4.274715e-02
  3.790933e-01    1.766378e+00   4.225385e-02
  3.813037e-01    1.800219e+00   4.251711e-02
  3.835142e-01    1.825236e+00   4.267092e-02
  3.857246e-01    1.766940e+00   4.184809e-02
  3.879351e-01    1.755625e+00   4.157887e-02
  3.901455e-01    1.766483e+00   4.157444e-02
  3.923560e-01    1.775018e+00   4.154233e-02
  3.945665e-01    1.822561e+00   4.196148e-02
  3.967769e-01    1.826212e+00   4.187197e-02
  3.989874e-01    1.769673e+00   4.109000e-02
  4.011978e-01    1.771746e+00   4.098761e-02
  4.034083e-01    1.769355e+00   4.083420e-02
  4.056187e-01    1.765038e+00   4.065873e-02
  4.078292e-01    1.804926e+00   4.099115e-02
  4.100397e-01    1.785974e+00   4.065088e-02
  4.122501e-01    1.778921e+00   4.044915e-02
  4.144606e-01    1.788881e+00   4.044195e-02
  4.166710e-01    1.798333e+00   4.042808e-02
  4.188815e-01    1.799085e+00   4.031710e-02
  4.210919e-01    1.787607e+00   4.007049e-02
  4.233024e-01    1.824474e+00   4.036251e-02
  4.255128e-01    1.791135e+00   3.987645e-02
  4.277233e-01    1.790962e+00   3.975993e-02
  4.299338e-01    1.768506e+00   3.939622e-02
  4.321442e-01    1.795639e+00   3.958366e-02
  4.343547e-01    1.803284e+00   3.955570e-02
  4.365651e-01    1.781159e+00   3.920058e-02
  4.387756e-01    1.773836e+00   3.901038e-02
  4.409860e-01    1.756965e+00   3.871685e-02
  4.431965e-01    1.744289e+00   3.847028e-02
  4.454070e-01    1.727887e+00   3.818245e-02
  4.476174e-01    1.720906e+00   3.800062e-02
  4.498279e-01    1.692969e+00   3.758836e-02
  4.520383e-01    1.707022e+00   3.764044e-02
  4.542488e-01    1.751621e+00   3.802618e-02
  4.564592e-01    1.723119e+00   3.761436e-02
  4.586697e-01    1.696239e+00   3.722076e-02
  4.608801e-01    1.766805e+00   3.788534e-02
  4.630906e-01    1.757094e+00   3.768106e-02
  4.653011e-01    1.741606e+00   3.741595e-02
  4.675115e-01    1.741415e+00   3.731536e-02
  4.697220e-01    1.699954e+00   3.677196e-02
  4.719324e-01    1.664855e+00   3.629622e-02
  4.741429e-01    1.695920e+00   3.653889e-02
  4.763533e-01    1.711593e+00   3.661324e-02
  4.785638e-01    1.689195e+00   3.627893e-02
  4.807743e-01    1.648528e+00   3.574842e-02
  4.829847e-01    1.639604e+00   3.556146e-02
  4.851952e-01    1.695787e+00   3.607409e-02
  4.874056e-01    1.700804e+00   3.603632e-02
  4.896161e-01    1.683267e+00   3.576117e-02
  4.918265e-01    1.667605e+00   3.550600e-02
  4.940370e-01    1.690860e+00   3.566444e-02
  4.962475e-01    1.684792e+00   3.551247e-02
  4.984579e-01    1.657593e+00   3.513784e-02
  5.006684e-01    1.740108e+00   3.591401e-02
  5.028788e-01    1.715801e+00   3.557592e-02
  5.050893e-01    1.666865e+00   3.497961e-02
  5.072997e-01    1.710249e+00   3.534633e-02
  5.095102e-01    1.645847e+00   3.459140e-02
  5.117206e-01    1.663331e+00   3.469194e-02
  5.139311e-01    1.631410e+00   3.427614e-02
  5.161416e-01    1.656035e+00   3.445223e-02
  5.183520e-01    1.691673e+00   3.473824e-02
  5.205625e-01    1.635467e+00   3.407625e-02
  5.227729e-01    1.685594e+00   3.451382e-02
  5.249834e-01    1.678536e+00   3.436156e-02
  5.271938e-01    1.689331e+00   3.439141e-02
  5.294043e-01    1.749937e+00   3.492211e-02
  5.316148e-01    1.803077e+00   3.536720e-02
  5.338252e-01    1.816405e+00   3.541655e-02
  5.360357e-01    1.778824e+00   3.496848e-02
  5.382461e-01    1.730649e+00   3.441373e-02
  5.404566e-01    1.753367e+00   3.456005e-02
  5.426670e-01    1.733754e+00   3.428876e-02
  5.448775e-01    1.752212e+00   3.439379e-02
  5.470879e-01    1.774833e+00   3.453790e-02
  5.492984e-01    1.794883e+00   3.465521e-02
  5.515089e-01    1.754873e+00   3.419078e-02
  5.537193e-01    1.770841e+00   3.427031e-02
  5.559298e-01    1.774966e+00   3.423496e-02
  5.581402e-01    1.813918e+00   3.453292e-02
  5.603507e-01    1.813071e+00   3.444974e-02
  5.625611e-01    1.782487e+00   3.408380e-02
  5.647716e-01    1.824274e+00   3.440615e-02
  5.669821e-01    1.820557e+00   3.429698e-02
  5.691925e-01    1.809161e+00   3.411609e-02
  5.714030e-01    1.767334e+00   3.364751e-02
  5.736134e-01    1.792160e+00   3.381094e-02
  5.758239e-01    1.770498e+00   3.353427e-02
  5.780343e-01    1.710739e+00   3.289373e-02
  5.802448e-01    1.717184e+00   3.288665e-02
  5.824552e-01    1.670742e+00   3.237084e-02
  5.846657e-01    1.622713e+00   3.183564e-02
  5.868762e-01    1.640849e+00   3.194640e-02
  5.890866e-01    1.581353e+00   3.129682e-02
  5.912971e-01    1.616838e+00   3.158049e-02
  5.935075e-01    1.637955e+00   3.172034e-02
  5.957180e-01    1.689202e+00   3.214666e-02
  5.979284e-01    1.718191e+00   3.235516e-02
  6.001389e-01    1.646398e+00   3.160748e-02
  6.023494e-01    1.643884e+00   3.151920e-02
  6.045598e-01    1.658600e+00   3.159551e-02
  6.067703e-01    1.654240e+00   3.149050e-02
  6.089807e-01    1.724092e+00   3.208385e-02
  6.111912e-01    1.697295e+00   3.176999e-02
  6.134016e-01    1.674622e+00   3.149414e-02
  6.156121e-01    1.706330e+00   3.172770e-02
  6.178226e-01    1.674150e+00   3.136489e-02
  6.200330e-01    1.703104e+00   3.157252e-02
  6.222435e-01    1.726765e+00   3.172812e-02
  6.244539e-01    1.692672e+00   3.135185e-02
  6.266644e-01    1.675385e+00   3.113046e-02
  6.288748e-01    1.762519e+00   3.186760e-02
  6.310853e-01    1.718175e+00   3.140309e-02
  6.332957e-01    1.674097e+00   3.093778e-02
  6.355062e-01    1.697896e+00   3.109641e-02
  6.377167e-01    1.688843e+00   3.095388e-02
  6.399271e-01    1.728993e+00   3.125964e-02
  6.421376e-01    1.718725e+00   3.110721e-02
  6.443480e-01    1.691753e+00   3.080344e-02
  6.465585e-01    1.679492e+00   3.063347e-02
  6.487689e-01    1.729017e+00   3.102315e-02
  6.509794e-01    1.751503e+00   3.116536e-02
  6.531899e-01    1.675942e+00   3.042838e-02
  6.554003e-01    1.648392e+00   3.012049e-02
  6.576108e-01    1.660121e+00   3.017119e-02
  6.598212e-01    1.604506e+00   2.960640e-02
  6.620317e-01    1.631868e+00   2.980240e-02
  6.642421e-01    1.649882e+00   2.991103e-02
  6.664526e-01    1.598282e+00   2.938534e-02
  6.686630e-01    1.593378e+00   2.928597e-02
  6.708735e-01    1.622031e+00   2.949391e-02
  6.730840e-01    1.609091e+00   2.932248e-02
  6.752944e-01    1.582378e+00   2.902518e-02
  6.775049e-01    1.607514e+00   2.920168e-02
  6.797153e-01    1.610311e+00   2.917415e-02
  6.819258e-01    1.623622e+00   2.924166e-02
  6.841362e-01    1.615448e+00   2.911550e-02
  6.863467e-01    1.634630e+00   2.923540e-02
  6.885572e-01    1.607252e+00   2.893760e-02
  6.907676e-01    1.578157e+00   2.862308e-02
  6.929781e-01    1.609729e+00   2.885660e-02
  6.951885e-01    1.623286e+00   2.892653e-02
  6.973990e-01    1.622623e+00   2.886950e-02
  6.996094e-01    1.588727e+00   2.851610e-02
  7.018199e-01    1.635817e+00   2.888484e-02
  7.040303e-01    1.614185e+00   2.864284e-02
  7.062408e-01    1.564190e+00   2.814637e-02
  7.084513e-01    1.596071e+00   2.838232e-02
  7.106617e-01    1.583184e+00   2.821836e-02
  7.128722e-01    1.627792e+00   2.856367e-02
  7.150826e-01    1.560665e+00   2.792032e-02
  7.172931e-01    1.528458e+00   2.758306e-02
  7.195035e-01    1.572554e+00   2.793001e-02
  7.217140e-01    1.613598e+00   2.834223e-02
  7.239245e-01    1.610925e+00   2.854807e-02
  7.261349e-01    1.599789e+00   2.855871e-02
  7.283454e-01    1.581171e+00   2.846460e-02
  7.305558e-01    1.546709e+00   2.820621e-02
  7.327663e-01    1.555226e+00   2.832598e-02
  7.349767e-01    1.576598e+00   2.853633e-02
  7.371872e-01    1.601834e+00   2.875253e-02
  7.393976e-01    1.567338e+00   2.842704e-02
  7.416081e-01    1.572125e+00   2.845424e-02
  7.438186e-01    1.617397e+00   2.871475e-02
  7.460290e-01    1.574802e+00   2.803990e-02
  7.482395e-01    1.562162e+00   2.775662e-02
  7.504499e-01    1.587731e+00   2.784605e-02
  7.526604e-01    1.562922e+00   2.751151e-02
  7.548708e-01    1.601505e+00   2.775882e-02
  7.570813e-01    1.615765e+00   2.783052e-02
  7.592918e-01    1.569941e+00   2.739792e-02
  7.615022e-01    1.591724e+00   2.755334e-02
  7.637127e-01    1.563019e+00   2.727112e-02
  7.659231e-01    1.562456e+00   2.723431e-02
  7.681336e-01    1.606830e+00   2.758642e-02
  7.703440e-01    1.619622e+00   2.766435e-02
  7.725545e-01    1.588758e+00   2.736846e-02
  7.747650e-01    1.656027e+00   2.790267e-02
  7.769754e-01    1.618841e+00   2.753423e-02
  7.791859e-01    1.541454e+00   2.681512e-02
  7.813963e-01    1.555737e+00   2.688685e-02
  7.836068e-01    1.566825e+00   2.693080e-02
  7.858172e-01    1.616470e+00   2.730297e-02
  7.880277e-01    1.649490e+00   2.752796e-02
  7.902381e-01    1.652069e+00   2.749942e-02
  7.924486e-01    1.690380e+00   2.776491e-02
  7.946591e-01    1.716079e+00   2.792517e-02
  7.968695e-01    1.669036e+00   2.749050e-02
  7.990800e-01    1.670217e+00   2.745106e-02
  8.012904e-01    1.654984e+00   2.727833e-02
  8.035009e-01    1.613262e+00   2.688437e-02
  8.057113e-01    1.625912e+00   2.694288e-02
  8.079218e-01    1.654222e+00   2.712954e-02
  8.101323e-01    1.679744e+00   2.729160e-02
  8.123427e-01    1.705174e+00   2.745053e-02
  8.145532e-01    1.678803e+00   2.719085e-02
  8.167636e-01    1.680007e+00   2.715484e-02
  8.189741e-01    1.658760e+00   2.693762e-02
  8.211845e-01    1.643879e+00   2.677156e-02
  8.233950e-01    1.662015e+00   2.687505e-02
  8.256054e-01    1.683367e+00   2.700230e-02
  8.278159e-01    1.741723e+00   2.742103e-02
  8.300264e-01    1.713575e+00   2.715450e-02
  8.322368e-01    1.678810e+00   2.683397e-02
  8.344473e-01    1.686056e+00   2.684782e-02
  8.366577e-01    1.632612e+00   2.637641e-02
  8.388682e-01    1.654139e+00   2.650724e-02
  8.410786e-01    1.732355e+00   2.708350e-02
  8.432891e-01    1.736263e+00   2.707096e-02
  8.454996e-01    1.668359e+00   2.649434e-02
  8.477100e-01    1.651637e+00   2.631937e-02
  8.499205e-01    1.627243e+00   2.608326e-02
  8.521309e-01    1.658950e+00   2.629507e-02
  8.543414e-01    1.680951e+00   2.642758e-02
  8.565518e-01    1.668031e+00   2.628484e-02
  8.587623e-01    1.669371e+00   2.625445e-02
  8.609727e-01    1.660022e+00   2.614024e-02
  8.631832e-01    1.671578e+00   2.619061e-02
  8.653937e-01    1.665411e+00   2.610208e-02
  8.676041e-01    1.652017e+00   2.595769e-02
  8.698146e-01    1.615817e+00   2.563247e-02
  8.720250e-01    1.614326e+00   2.558161e-02
  8.742355e-01    1.582626e+00   2.529062e-02
  8.764459e-01    1.598595e+00   2.537911e-02
  8.786564e-01    1.610588e+00   2.543617e-02
  8.808669e-01    1.625809e+00   2.551733e-02
  8.830773e-01    1.633179e+00   2.553659e-02
  8.852878e-01    1.639401e+00   2.554685e-02
  8.874982e-01    1.592656e+00   2.514345e-02
  8.897087e-01    1.603699e+00   2.519276e-02
  8.919191e-01    1.577510e+00   2.494873e-02
  8.941296e-01    1.603397e+00   2.511525e-02
  8.963401e-01    1.603994e+00   2.508349e-02
  8.985505e-01    1.583056e+00   2.488245e-02
  9.007610e-01    1.597377e+00   2.495804e-02
  9.029714e-01    1.606464e+00   2.499301e-02
  9.051819e-01    1.598879e+00   2.489674e-02
  9.073923e-01    1.583526e+00   2.474053e-02
  9.096028e-01    1.594198e+00   2.478891e-02
  9.118132e-01    1.594949e+00   2.475858e-02
  9.140237e-01    1.592618e+00   2.470395e-02
  9.162342e-01    1.574271e+00   2.452696e-02
  9.184446e-01    1.592477e+00   2.463268e-02
  9.206551e-01    1.635435e+00   2.492675e-02
  9.228655e-01    1.617417e+00   2.475363e-02
  9.250760e-01    1.600711e+00   2.459012e-02
  9.272864e-01    1.605808e+00   2.459493e-02
  9.294969e-01    1.619379e+00   2.466265e-02
  9.317074e-01    1.631936e+00   2.472309e-02
  9.339178e-01    1.619027e+00   2.459150e-02
  9.361283e-01    1.611671e+00   2.449939e-02
  9.383387e-01    1.643044e+00   2.470304e-02
  9.405492e-01    1.677235e+00   2.492389e-02
  9.427596e-01    1.682334e+00   2.492584e-02
  9.449701e-01    1.660160e+00   2.472737e-02
  9.471805e-01    1.682080e+00   2.485482e-02
  9.493910e-01    1.696586e+00   2.492751e-02
  9.516015e-01    1.692224e+00   2.486069e-02
  9.538119e-01    1.717972e+00   2.501476e-02
  9.560224e-01    1.795385e+00   2.553615e-02
  9.582328e-01    1.795066e+00   2.549965e-02
  9.604433e-01    1.768583e+00   2.527500e-02
  9.626537e-01    1.801396e+00   2.547409e-02
  9.648642e-01    1.783272e+00   2.531091e-02
  9.670747e-01    1.806521e+00   2.544023e-02
  9.692851e-01    1.820361e+00   2.550356e-02
  9.714956e-01    1.812221e+00   2.541059e-02
  9.737060e-01    1.850682e+00   2.564508e-02
  9.759165e-01    1.875233e+00   2.577822e-02
  9.781269e-01    1.892156e+00   2.586040e-02
  9.803374e-01    1.858882e+00   2.559659e-02
  9.825478e-01    1.831066e+00   2.537082e-02
  9.847583e-01    1.839594e+00   2.539531e-02
  9.869688e-01    1.812181e+00   2.517164e-02
  9.891792e-01    1.796635e+00   2.503013e-02
  9.913897e-01    1.775079e+00   2.484594e-02
  9.936001e-01    1.839550e+00   2.526000e-02
  9.958106e-01    1.997542e+00   2.628660e-02
  9.980210e-01    1.855368e+00   2.530109e-02
  1.000231e+00    1.736015e+00   2.460778e-02
  1.002442e+00    1.643661e+00   2.407154e-02
  1.004652e+00    1.647235e+00   2.416487e-02
  1.006863e+00    1.642865e+00   2.418290e-02
  1.009073e+00    1.583006e+00   2.377457e-02
  1.011284e+00    1.595737e+00   2.390190e-02
  1.013494e+00    1.591061e+00   2.389052e-02
  1.015705e+00    1.581229e+00   2.383910e-02
  1.017915e+00    1.598656e+00   2.398661e-02
  1.020126e+00    1.585875e+00   2.390671e-02
  1.022336e+00    1.547527e+00   2.362751e-02
  1.024547e+00    1.567314e+00   2.378936e-02
  1.026757e+00    1.534759e+00   2.354935e-02
  1.028967e+00    1.546986e+00   2.365063e-02
  1.031178e+00    1.556886e+00   2.373243e-02
  1.033388e+00    1.517102e+00   2.343226e-02
  1.035599e+00    1.517377e+00   2.343779e-02
  1.037809e+00    1.513649e+00   2.341222e-02
  1.040020e+00    1.545410e+00   2.365785e-02
  1.042230e+00    1.557072e+00   2.374892e-02
  1.044441e+00    1.505394e+00   2.335128e-02
  1.046651e+00    1.514131e+00   2.341909e-02
  1.048862e+00    1.513071e+00   2.341012e-02
  1.051072e+00    1.531415e+00   2.354919e-02
  1.053282e+00    1.576842e+00   2.389496e-02
  1.055493e+00    1.574495e+00   2.387275e-02
  1.057703e+00    1.601674e+00   2.407635e-02
  1.059914e+00    1.729354e+00   2.501294e-02
  1.062124e+00    1.963227e+00   2.664600e-02
  1.064335e+00    2.079134e+00   2.741734e-02
  1.066545e+00    1.887994e+00   2.611995e-02
  1.068756e+00    1.751420e+00   2.515337e-02
  1.070966e+00    1.791600e+00   2.543306e-02
  1.073177e+00    1.697749e+00   2.475150e-02
  1.075387e+00    1.555734e+00   2.368828e-02
  1.077597e+00    1.524525e+00   2.344206e-02
  1.079808e+00    1.500757e+00   2.312422e-02
  1.082018e+00    1.491036e+00   2.285834e-02
  1.084229e+00    1.449454e+00   2.242770e-02
  1.086439e+00    1.470451e+00   2.250166e-02
  1.088650e+00    1.514651e+00   2.276013e-02
  1.090860e+00    1.496641e+00   2.255583e-02
  1.093071e+00    1.418487e+00   2.189751e-02
  1.095281e+00    1.397654e+00   2.167982e-02
  1.097492e+00    1.388722e+00   2.155660e-02
  1.099702e+00    1.396987e+00   2.157004e-02
  1.101912e+00    1.399210e+00   2.153905e-02
  1.104123e+00    1.395377e+00   2.146196e-02
  1.106333e+00    1.411292e+00   2.153993e-02
  1.108544e+00    1.388607e+00   2.132251e-02
  1.110754e+00    1.376691e+00   2.118855e-02
  1.112965e+00    1.396038e+00   2.129677e-02
  1.115175e+00    1.393142e+00   2.123386e-02
  1.117386e+00    1.424129e+00   2.142932e-02
  1.119596e+00    1.406862e+00   2.126123e-02
  1.121807e+00    1.400701e+00   2.117592e-02
  1.124017e+00    1.381012e+00   2.099027e-02
  1.126228e+00    1.401896e+00   2.111264e-02
  1.128438e+00    1.411067e+00   2.114472e-02
  1.130648e+00    1.370450e+00   2.080420e-02
  1.132859e+00    1.363978e+00   2.072104e-02
  1.135069e+00    1.392728e+00   2.090358e-02
  1.137280e+00    1.391278e+00   2.085966e-02
  1.139490e+00    1.413781e+00   2.099431e-02
  1.141701e+00    1.394639e+00   2.081847e-02
  1.143911e+00    1.336387e+00   2.034774e-02
  1.146122e+00    1.344938e+00   2.038112e-02
  1.148332e+00    1.385808e+00   2.065653e-02
  1.150543e+00    1.356646e+00   2.040745e-02
  1.152753e+00    1.363165e+00   2.042572e-02
  1.154963e+00    1.348758e+00   2.028671e-02
  1.157174e+00    1.430504e+00   2.086166e-02
  1.159384e+00    1.434903e+00   2.086321e-02
  1.161595e+00    1.423843e+00   2.075222e-02
  1.163805e+00    1.459429e+00   2.097971e-02
  1.166016e+00    1.496217e+00   2.121173e-02
  1.168226e+00    1.487691e+00   2.112100e-02
  1.170437e+00    1.434018e+00   2.070718e-02
  1.172647e+00    1.416122e+00   2.054812e-02
  1.174858e+00    1.419817e+00   2.054625e-02
  1.177068e+00    1.399818e+00   2.037242e-02
  1.179278e+00    1.383615e+00   2.022533e-02
  1.181489e+00    1.378485e+00   2.016062e-02
  1.183699e+00    1.380004e+00   2.014393e-02
  1.185910e+00    1.364752e+00   2.000448e-02
  1.188120e+00    1.361936e+00   1.995707e-02
  1.190331e+00    1.389649e+00   2.013200e-02
  1.192541e+00    1.371095e+00   1.996962e-02
  1.194752e+00    1.356662e+00   1.983714e-02
  1.196962e+00    1.337530e+00   1.967116e-02
  1.199173e+00    1.345013e+00   1.969965e-02
  1.201383e+00    1.369073e+00   1.984772e-02
  1.203593e+00    1.368248e+00   1.981675e-02
  1.205804e+00    1.364959e+00   1.976686e-02
  1.208014e+00    1.369481e+00   1.977254e-02
  1.210225e+00    1.352923e+00   1.962728e-02
  1.212435e+00    1.358373e+00   1.964191e-02
  1.214646e+00    1.340821e+00   1.948859e-02
  1.216856e+00    1.347705e+00   1.951309e-02
  1.219067e+00    1.358229e+00   1.956458e-02
  1.221277e+00    1.372469e+00   1.964165e-02
  1.223488e+00    1.363613e+00   1.955230e-02
  1.225698e+00    1.352406e+00   1.944487e-02
  1.227909e+00    1.337664e+00   1.930855e-02
  1.230119e+00    1.370735e+00   1.951369e-02
  1.232329e+00    1.382870e+00   1.956879e-02
  1.234540e+00    1.359154e+00   1.936987e-02
  1.236750e+00    1.361359e+00   1.935518e-02
  1.238961e+00    1.347830e+00   1.923181e-02
  1.241171e+00    1.347088e+00   1.920237e-02
  1.243382e+00    1.342103e+00   1.914334e-02
  1.245592e+00    1.387143e+00   1.943751e-02
  1.247803e+00    1.330432e+00   1.901255e-02
  1.250013e+00    1.336680e+00   1.903369e-02
  1.252224e+00    1.389312e+00   1.938122e-02
  1.254434e+00    1.385525e+00   1.933075e-02
  1.256644e+00    1.359202e+00   1.912296e-02
  1.258855e+00    1.341449e+00   1.897445e-02
  1.261065e+00    1.359845e+00   1.908066e-02
  1.263276e+00    1.317507e+00   1.875862e-02
  1.265486e+00    1.337610e+00   1.887840e-02
  1.267697e+00    1.344473e+00   1.890381e-02
  1.269907e+00    1.324884e+00   1.874311e-02
  1.272118e+00    1.353123e+00   1.891920e-02
  1.274328e+00    1.351512e+00   1.888518e-02
  1.276539e+00    1.425366e+00   1.937088e-02
  1.278749e+00    1.409622e+00   1.924088e-02
  1.280959e+00    1.384967e+00   1.904901e-02
  1.283170e+00    1.377733e+00   1.897657e-02
  1.285380e+00    1.342750e+00   1.871169e-02
  1.287591e+00    1.344338e+00   1.870077e-02
  1.289801e+00    1.343372e+00   1.867287e-02
  1.292012e+00    1.329007e+00   1.855581e-02
  1.294222e+00    1.327200e+00   1.852707e-02
  1.296433e+00    1.377292e+00   1.885771e-02
  1.298643e+00    1.347604e+00   1.863692e-02
  1.300854e+00    1.351994e+00   1.865082e-02
  1.303064e+00    1.349522e+00   1.861455e-02
  1.305274e+00    1.319755e+00   1.838691e-02
  1.307485e+00    1.323444e+00   1.839123e-02
  1.309695e+00    1.343711e+00   1.850935e-02
  1.311906e+00    1.369381e+00   1.866344e-02
  1.314116e+00    1.382058e+00   1.872860e-02
  1.316327e+00    1.359743e+00   1.855502e-02
  1.318537e+00    1.375026e+00   1.863692e-02
  1.320748e+00    1.343496e+00   1.840050e-02
  1.322958e+00    1.360999e+00   1.849937e-02
  1.325169e+00    1.379642e+00   1.860437e-02
  1.327379e+00    1.426605e+00   1.889596e-02
  1.329589e+00    1.479766e+00   1.922275e-02
  1.331800e+00    1.463035e+00   1.909226e-02
  1.334010e+00    1.415930e+00   1.876123e-02
  1.336221e+00    1.365159e+00   1.839992e-02
  1.338431e+00    1.364788e+00   1.837643e-02
  1.340642e+00    1.362229e+00   1.842364e-02
  1.342852e+00    1.391024e+00   1.871953e-02
  1.345063e+00    1.382104e+00   1.870950e-02
  1.347273e+00    1.358648e+00   1.858541e-02
  1.349484e+00    1.347097e+00   1.853390e-02
  1.351694e+00    1.336803e+00   1.848552e-02
  1.353905e+00    1.339504e+00   1.852214e-02
  1.356115e+00    1.306870e+00   1.830990e-02
  1.358325e+00    1.335302e+00   1.852125e-02
  1.360536e+00    1.333554e+00   1.852069e-02
  1.362746e+00    1.331861e+00   1.851841e-02
  1.364957e+00    1.320366e+00   1.844593e-02
  1.367167e+00    1.327904e+00   1.850560e-02
  1.369378e+00    1.314380e+00   1.841706e-02
  1.371588e+00    1.325571e+00   1.850041e-02
  1.373799e+00    1.311303e+00   1.840420e-02
  1.376009e+00    1.342075e+00   1.862228e-02
  1.378220e+00    1.337000e+00   1.858959e-02
  1.380430e+00    1.319893e+00   1.847296e-02
  1.382640e+00    1.336994e+00   1.859316e-02
  1.384851e+00    1.301754e+00   1.834738e-02
  1.387061e+00    1.281824e+00   1.820664e-02
  1.389272e+00    1.306841e+00   1.838367e-02
  1.391482e+00    1.292196e+00   1.827972e-02
  1.393693e+00    1.268103e+00   1.810762e-02
  1.395903e+00    1.302472e+00   1.834985e-02
  1.398114e+00    1.296149e+00   1.830388e-02
  1.400324e+00    1.288438e+00   1.824723e-02
  1.402535e+00    1.246233e+00   1.794358e-02
  1.404745e+00    1.261500e+00   1.805079e-02
  1.406955e+00    1.261011e+00   1.804463e-02
  1.409166e+00    1.262824e+00   1.805429e-02
  1.411376e+00    1.281664e+00   1.818533e-02
  1.413587e+00    1.273014e+00   1.812007e-02
  1.415797e+00    1.272720e+00   1.811441e-02
  1.418008e+00    1.259058e+00   1.797525e-02
  1.420218e+00    1.243967e+00   1.771901e-02
  1.422429e+00    1.270649e+00   1.782267e-02
  1.424639e+00    1.287835e+00   1.787767e-02
  1.426850e+00    1.285182e+00   1.780423e-02
  1.429060e+00    1.285536e+00   1.775739e-02
  1.431270e+00    1.290457e+00   1.774667e-02
  1.433481e+00    1.270600e+00   1.756866e-02
  1.435691e+00    1.278438e+00   1.758418e-02
  1.437902e+00    1.296873e+00   1.767366e-02
  1.440112e+00    1.369101e+00   1.812246e-02
  1.442323e+00    1.324267e+00   1.778954e-02
  1.444533e+00    1.271138e+00   1.739647e-02
  1.446744e+00    1.263721e+00   1.731457e-02
  1.448954e+00    1.264156e+00   1.728743e-02
  1.451165e+00    1.273135e+00   1.731892e-02
  1.453375e+00    1.266322e+00   1.724452e-02
  1.455586e+00    1.250227e+00   1.710663e-02
  1.457796e+00    1.259203e+00   1.714053e-02
  1.460006e+00    1.236758e+00   1.696020e-02
  1.462217e+00    1.246468e+00   1.700065e-02
  1.464427e+00    1.264746e+00   1.709929e-02
  1.466638e+00    1.304998e+00   1.734360e-02
  1.468848e+00    1.276272e+00   1.712625e-02
  1.471059e+00    1.264562e+00   1.702246e-02
  1.473269e+00    1.260466e+00   1.697055e-02
  1.475480e+00    1.240813e+00   1.681425e-02
  1.477690e+00    1.265687e+00   1.695811e-02
  1.479901e+00    1.285393e+00   1.706563e-02
  1.482111e+00    1.263353e+00   1.689540e-02
  1.484321e+00    1.264336e+00   1.687888e-02
  1.486532e+00    1.276978e+00   1.694064e-02
  1.488742e+00    1.242541e+00   1.668819e-02
  1.490953e+00    1.260184e+00   1.678370e-02
  1.493163e+00    1.230727e+00   1.656439e-02
  1.495374e+00    1.238629e+00   1.659617e-02
  1.497584e+00    1.257403e+00   1.669989e-02
  1.499795e+00    1.245574e+00   1.659961e-02
  1.502005e+00    1.282813e+00   1.682403e-02
  1.504216e+00    1.295279e+00   1.688427e-02
  1.506426e+00    1.282109e+00   1.677719e-02
  1.508636e+00    1.266096e+00   1.665160e-02
  1.510847e+00    1.253570e+00   1.654720e-02
  1.513057e+00    1.262152e+00   1.657861e-02
  1.515268e+00    1.240838e+00   1.641246e-02
  1.517478e+00    1.248392e+00   1.643723e-02
  1.519689e+00    1.272761e+00   1.657175e-02
  1.521899e+00    1.267933e+00   1.651705e-02
  1.524110e+00    1.285858e+00   1.661279e-02
  1.526320e+00    1.276936e+00   1.653528e-02
  1.528531e+00    1.274553e+00   1.649989e-02
  1.530741e+00    1.292692e+00   1.659742e-02
  1.532951e+00    1.289799e+00   1.655895e-02
  1.535162e+00    1.275575e+00   1.655487e-02
  1.537372e+00    1.265816e+00   1.655879e-02
  1.539583e+00    1.245322e+00   1.645839e-02
  1.541793e+00    1.238214e+00   1.641825e-02
  1.544004e+00    1.270703e+00   1.663253e-02
  1.546214e+00    1.230535e+00   1.636604e-02
  1.548425e+00    1.254349e+00   1.652388e-02
  1.550635e+00    1.266222e+00   1.661169e-02
  1.552846e+00    1.250685e+00   1.651912e-02
  1.555056e+00    1.240817e+00   1.641242e-02
  1.557266e+00    1.265087e+00   1.646078e-02
  1.559477e+00    1.235325e+00   1.620711e-02
  1.561687e+00    1.244224e+00   1.623470e-02
  1.563898e+00    1.257749e+00   1.630546e-02
  1.566108e+00    1.277786e+00   1.641865e-02
  1.568319e+00    1.287352e+00   1.646411e-02
  1.570529e+00    1.305071e+00   1.655129e-02
  1.572740e+00    1.270478e+00   1.630258e-02
  1.574950e+00    1.268950e+00   1.626617e-02
  1.577161e+00    1.266452e+00   1.622448e-02
  1.579371e+00    1.256369e+00   1.613595e-02
  1.581582e+00    1.256902e+00   1.611954e-02
  1.583792e+00    1.238629e+00   1.598394e-02
  1.586002e+00    1.238453e+00   1.596523e-02
  1.588213e+00    1.253317e+00   1.604344e-02
  1.590423e+00    1.257331e+00   1.604895e-02
  1.592634e+00    1.241111e+00   1.592349e-02
  1.594844e+00    1.252570e+00   1.597535e-02
  1.597055e+00    1.234239e+00   1.583761e-02
  1.599265e+00    1.237837e+00   1.583997e-02
  1.601476e+00    1.237524e+00   1.581769e-02
  1.603686e+00    1.260105e+00   1.594143e-02
  1.605897e+00    1.234936e+00   1.576129e-02
  1.608107e+00    1.238172e+00   1.576238e-02
  1.610317e+00    1.241214e+00   1.576238e-02
  1.612528e+00    1.235178e+00   1.570483e-02
  1.614738e+00    1.222113e+00   1.560268e-02
  1.616949e+00    1.217209e+00   1.555245e-02
  1.619159e+00    1.181002e+00   1.530099e-02
  1.621370e+00    1.192831e+00   1.535913e-02
  1.623580e+00    1.195721e+00   1.535958e-02
  1.625791e+00    1.172880e+00   1.519416e-02
  1.628001e+00    1.167458e+00   1.514101e-02
  1.630212e+00    1.189592e+00   1.526613e-02
  1.632422e+00    1.176295e+00   1.516276e-02
  1.634632e+00    1.178546e+00   1.515997e-02
  1.636843e+00    1.163803e+00   1.504743e-02
  1.639053e+00    1.151549e+00   1.495086e-02
  1.641264e+00    1.165966e+00   1.502710e-02
  1.643474e+00    1.139672e+00   1.483947e-02
  1.645685e+00    1.133060e+00   1.477987e-02
  1.647895e+00    1.138836e+00   1.480102e-02
  1.650106e+00    1.149623e+00   1.485396e-02
  1.652316e+00    1.149842e+00   1.483889e-02
  1.654527e+00    1.121273e+00   1.463686e-02
  1.656737e+00    1.121816e+00   1.462396e-02
  1.658947e+00    1.135571e+00   1.469702e-02
  1.661158e+00    1.125407e+00   1.461487e-02
  1.663368e+00    1.077698e+00   1.428603e-02
  1.665579e+00    1.118754e+00   1.453944e-02
  1.667789e+00    1.123093e+00   1.455135e-02
  1.670000e+00    1.096532e+00   1.436287e-02
  1.672210e+00    1.103149e+00   1.439030e-02
  1.674421e+00    1.078664e+00   1.421457e-02
  1.676631e+00    1.090662e+00   1.427759e-02
  1.678842e+00    1.084868e+00   1.422398e-02
  1.681052e+00    1.077317e+00   1.415909e-02
  1.683263e+00    1.058939e+00   1.402290e-02
  1.685473e+00    1.073658e+00   1.410493e-02
  1.687683e+00    1.067937e+00   1.405201e-02
  1.689894e+00    1.038267e+00   1.383997e-02
  1.692104e+00    1.037149e+00   1.381786e-02
  1.694315e+00    1.054434e+00   1.391815e-02
  1.696525e+00    1.039235e+00   1.380255e-02
  1.698736e+00    1.033266e+00   1.374824e-02
  1.700946e+00    1.020982e+00   1.365144e-02
  1.703157e+00    1.015785e+00   1.360228e-02
  1.705367e+00    1.020161e+00   1.361729e-02
  1.707578e+00    1.015633e+00   1.357270e-02
  1.709788e+00    1.010668e+00   1.352560e-02
  1.711998e+00    1.011657e+00   1.351742e-02
  1.714209e+00    1.002931e+00   1.344483e-02
  1.716419e+00    1.015336e+00   1.351356e-02
  1.718630e+00    1.024404e+00   1.355958e-02
  1.720840e+00    1.007759e+00   1.343492e-02
  1.723051e+00    1.001787e+00   1.338135e-02
  1.725261e+00    9.866248e-01   1.326526e-02
  1.727472e+00    9.904881e-01   1.327723e-02
  1.729682e+00    9.870536e-01   1.324092e-02
  1.731893e+00    9.944767e-01   1.327682e-02
  1.734103e+00    1.012055e+00   1.337983e-02
  1.736313e+00    1.015739e+00   1.339010e-02
  1.738524e+00    1.008603e+00   1.332909e-02
  1.740734e+00    1.030705e+00   1.346044e-02
  1.742945e+00    1.025070e+00   1.340996e-02
  1.745155e+00    1.014065e+00   1.332417e-02
  1.747366e+00    1.016139e+00   1.332379e-02
  1.749576e+00    1.028187e+00   1.338858e-02
  1.751787e+00    1.038441e+00   1.344146e-02
  1.753997e+00    1.029590e+00   1.337035e-02
  1.756208e+00    9.819834e-01   1.304434e-02
  1.758418e+00    9.651952e-01   1.291928e-02
  1.760628e+00    9.502227e-01   1.280545e-02
  1.762839e+00    9.557417e-01   1.282944e-02
  1.765049e+00    9.587252e-01   1.283635e-02
  1.767260e+00    9.406484e-01   1.270208e-02
  1.769470e+00    9.513755e-01   1.276133e-02
  1.771681e+00    9.359715e-01   1.264459e-02
  1.773891e+00    9.387712e-01   1.265050e-02
  1.776102e+00    9.246558e-01   1.254233e-02
  1.778312e+00    9.042330e-01   1.239058e-02
  1.780523e+00    9.244123e-01   1.251544e-02
  1.782733e+00    9.519261e-01   1.268757e-02
  1.784944e+00    9.495445e-01   1.265871e-02
  1.787154e+00    9.362001e-01   1.255689e-02
  1.789364e+00    9.278626e-01   1.248839e-02
  1.791575e+00    9.079243e-01   1.234108e-02
  1.793785e+00    9.083584e-01   1.233170e-02
  1.795996e+00    9.167609e-01   1.237614e-02
  1.798206e+00    9.148110e-01   1.235046e-02
  1.800417e+00    9.413850e-01   1.251571e-02
  1.802627e+00    9.550651e-01   1.259413e-02
  1.804838e+00    9.469127e-01   1.252792e-02
  1.807048e+00    1.018518e+00   1.297935e-02
  1.809259e+00    1.084213e+00   1.337655e-02
  1.811469e+00    1.059852e+00   1.320927e-02
  1.813679e+00    9.362822e-01   1.240009e-02
  1.815890e+00    8.849784e-01   1.204093e-02
  1.818100e+00    8.711351e-01   1.193148e-02
  1.820311e+00    8.773674e-01   1.195944e-02
  1.822521e+00    8.795536e-01   1.195959e-02
  1.824732e+00    8.665018e-01   1.185590e-02
  1.826942e+00    9.049162e-01   1.210338e-02
  1.829153e+00    9.292192e-01   1.225287e-02
  1.831363e+00    9.431740e-01   1.233209e-02
  1.833574e+00    9.685858e-01   1.248488e-02
  1.835784e+00    9.179801e-01   1.214272e-02
  1.837994e+00    8.874622e-01   1.192736e-02
  1.840205e+00    8.894636e-01   1.192954e-02
  1.842415e+00    8.741469e-01   1.181460e-02
  1.844626e+00    9.193318e-01   1.210421e-02
  1.846836e+00    8.873357e-01   1.188019e-02
  1.849047e+00    8.734564e-01   1.177522e-02
  1.851257e+00    8.750562e-01   1.177638e-02
  1.853468e+00    8.769363e-01   1.178014e-02
  1.855678e+00    8.757118e-01   1.176296e-02
  1.857889e+00    8.618731e-01   1.166114e-02
  1.860099e+00    8.534319e-01   1.159527e-02
  1.862309e+00    8.480866e-01   1.155044e-02
  1.864520e+00    8.380684e-01   1.147352e-02
  1.866730e+00    8.541451e-01   1.157366e-02
  1.868941e+00    8.473014e-01   1.151631e-02
  1.871151e+00    8.348984e-01   1.142042e-02
  1.873362e+00    8.599926e-01   1.157937e-02
  1.875572e+00    8.548102e-01   1.153345e-02
  1.877783e+00    8.506631e-01   1.149400e-02
  1.879993e+00    8.471695e-01   1.145922e-02
  1.882204e+00    8.458521e-01   1.143939e-02
  1.884414e+00    8.690063e-01   1.158366e-02
  1.886624e+00    8.612188e-01   1.152049e-02
  1.888835e+00    8.596028e-01   1.149856e-02
  1.891045e+00    8.569143e-01   1.146957e-02
  1.893256e+00    8.501491e-01   1.141306e-02
  1.895466e+00    8.182603e-01   1.118591e-02
  1.897677e+00    8.287259e-01   1.124633e-02
  1.899887e+00    8.361134e-01   1.128536e-02
  1.902098e+00    8.266605e-01   1.121057e-02
  1.904308e+00    8.422956e-01   1.130543e-02
  1.906519e+00    8.444145e-01   1.130871e-02
  1.908729e+00    8.633612e-01   1.142406e-02
  1.910940e+00    8.693326e-01   1.145209e-02
  1.913150e+00    8.344774e-01   1.120954e-02
  1.915360e+00    8.236051e-01   1.112564e-02
  1.917571e+00    8.380507e-01   1.121180e-02
  1.919781e+00    8.450252e-01   1.124753e-02
  1.921992e+00    8.439698e-01   1.122974e-02
  1.924202e+00    8.342918e-01   1.115429e-02
  1.926413e+00    8.129323e-01   1.100030e-02
  1.928623e+00    8.026192e-01   1.091983e-02
  1.930834e+00    8.044134e-01   1.092167e-02
  1.933044e+00    7.964712e-01   1.085702e-02
  1.935255e+00    8.074806e-01   1.092151e-02
  1.937465e+00    8.197825e-01   1.099391e-02
  1.939675e+00    8.116007e-01   1.092805e-02
  1.941886e+00    7.866139e-01   1.074833e-02
  1.944096e+00    7.921430e-01   1.077594e-02
  1.946307e+00    7.919886e-01   1.076461e-02
  1.948517e+00    7.900369e-01   1.074095e-02
  1.950728e+00    7.985886e-01   1.078868e-02
  1.952938e+00    7.962207e-01   1.076261e-02
  1.955149e+00    7.885923e-01   1.070073e-02
  1.957359e+00    7.958184e-01   1.073960e-02
  1.959570e+00    8.067273e-01   1.080200e-02
  1.961780e+00    8.245155e-01   1.091035e-02
  1.963990e+00    8.049260e-01   1.076977e-02
  1.966201e+00    7.985010e-01   1.071657e-02
  1.968411e+00    8.123852e-01   1.079905e-02
  1.970622e+00    7.922403e-01   1.065421e-02
  1.972832e+00    7.729488e-01   1.051380e-02
  1.975043e+00    7.743700e-01   1.051349e-02
  1.977253e+00    7.827575e-01   1.056034e-02
  1.979464e+00    7.736908e-01   1.048903e-02
  1.981674e+00    7.754940e-01   1.049104e-02
  1.983885e+00    7.691750e-01   1.043826e-02
  1.986095e+00    8.050165e-01   1.066882e-02
  1.988305e+00    8.199113e-01   1.075695e-02
  1.990516e+00    7.977062e-01   1.060024e-02
  1.992726e+00    7.740337e-01   1.043213e-02
  1.994937e+00    7.821767e-01   1.047669e-02
  1.997147e+00    7.830462e-01   1.047273e-02
  1.999358e+00    7.674482e-01   1.035811e-02
  2.001568e+00    7.743743e-01   1.039390e-02
  2.003779e+00    7.813277e-01   1.042850e-02
  2.005989e+00    7.658848e-01   1.031295e-02
  2.008200e+00    7.788010e-01   1.038795e-02
  2.010410e+00    7.823364e-01   1.039966e-02
  2.012621e+00    7.966616e-01   1.048251e-02
  2.014831e+00    7.950037e-01   1.045994e-02
  2.017041e+00    7.761471e-01   1.032469e-02
  2.019252e+00    7.829213e-01   1.035959e-02
  2.021462e+00    7.555106e-01   1.016716e-02
  2.023673e+00    7.716553e-01   1.026579e-02
  2.025883e+00    7.764379e-01   1.028796e-02
  2.028094e+00    7.768164e-01   1.028073e-02
  2.030304e+00    7.819203e-01   1.030478e-02
  2.032515e+00    8.003234e-01   1.041580e-02
  2.034725e+00    7.857673e-01   1.031106e-02
  2.036936e+00    7.804167e-01   1.026640e-02
  2.039146e+00    7.589419e-01   1.011460e-02
  2.041356e+00    7.499322e-01   1.004476e-02
  2.043567e+00    7.617064e-01   1.011398e-02
  2.045777e+00    7.408961e-01   9.965708e-03
  2.047988e+00    7.498362e-01   1.001630e-02
  2.050198e+00    7.649466e-01   1.010823e-02
  2.052409e+00    7.705083e-01   1.013715e-02
  2.054619e+00    7.821636e-01   1.020605e-02
  2.056830e+00    7.615234e-01   1.006324e-02
  2.059040e+00    7.603014e-01   1.004761e-02
  2.061251e+00    7.480114e-01   9.958827e-03
  2.063461e+00    7.430391e-01   9.918103e-03
  2.065671e+00    7.577774e-01   1.000721e-02
  2.067882e+00    7.761135e-01   1.011839e-02
  2.070092e+00    7.901558e-01   1.020006e-02
  2.072303e+00    7.904732e-01   1.019272e-02
  2.074513e+00    7.848327e-01   1.014672e-02
  2.076724e+00    7.681932e-01   1.002899e-02
  2.078934e+00    7.456720e-01   9.871847e-03
  2.081145e+00    7.410455e-01   9.832111e-03
  2.083355e+00    7.516147e-01   9.892724e-03
  2.085566e+00    7.764380e-01   1.004565e-02
  2.087776e+00    8.052320e-01   1.022029e-02
  2.089986e+00    8.260433e-01   1.034224e-02
  2.092197e+00    8.156469e-01   1.026756e-02
  2.094407e+00    7.730889e-01   9.986653e-03
  2.096618e+00    7.507685e-01   9.832429e-03
  2.098828e+00    7.267315e-01   9.664472e-03
  2.101039e+00    7.541576e-01   9.836032e-03
  2.103249e+00    7.410747e-01   9.741643e-03
  2.105460e+00    7.342798e-01   9.687813e-03
  2.107670e+00    7.314741e-01   9.660553e-03
  2.109881e+00    7.300745e-01   9.642106e-03
  2.112091e+00    7.368169e-01   9.677476e-03
  2.114301e+00    7.491740e-01   9.749364e-03
  2.116512e+00    7.353092e-01   9.649860e-03
  2.118722e+00    7.324652e-01   9.622289e-03
  2.120933e+00    7.312142e-01   9.605153e-03
  2.123143e+00    7.182852e-01   9.510944e-03
  2.125354e+00    7.122626e-01   9.462492e-03
  2.127564e+00    7.194926e-01   9.501638e-03
  2.129775e+00    7.193598e-01   9.492027e-03
  2.131985e+00    7.136500e-01   9.445217e-03
  2.134196e+00    7.139814e-01   9.438824e-03
  2.136406e+00    7.219847e-01   9.482767e-03
  2.138617e+00    6.974815e-01   9.312105e-03
  2.140827e+00    7.065147e-01   9.388208e-03
  2.143037e+00    7.245437e-01   9.553291e-03
  2.145248e+00    7.115928e-01   9.489620e-03
  2.147458e+00    7.035188e-01   9.450773e-03
  2.149669e+00    6.816969e-01   9.314694e-03
  2.151879e+00    7.052643e-01   9.483582e-03
  2.154090e+00    6.984064e-01   9.444671e-03
  2.156300e+00    7.053796e-01   9.498327e-03
  2.158511e+00    7.014918e-01   9.477429e-03
  2.160721e+00    6.870342e-01   9.384047e-03
  2.162932e+00    6.768391e-01   9.317820e-03
  2.165142e+00    6.851030e-01   9.377535e-03
  2.167352e+00    6.896265e-01   9.411340e-03
  2.169563e+00    6.866459e-01   9.392920e-03
  2.171773e+00    6.972076e-01   9.467335e-03
  2.173984e+00    7.044578e-01   9.517868e-03
  2.176194e+00    6.975240e-01   9.472103e-03
  2.178405e+00    7.003257e-01   9.491815e-03
  2.180615e+00    6.972634e-01   9.471717e-03
  2.182826e+00    6.989446e-01   9.483823e-03
  2.185036e+00    6.915079e-01   9.433281e-03
  2.187247e+00    6.843063e-01   9.383983e-03
  2.189457e+00    6.870664e-01   9.402475e-03
  2.191667e+00    6.949638e-01   9.456183e-03
  2.193878e+00    6.813486e-01   9.362545e-03
  2.196088e+00    6.819578e-01   9.366035e-03
  2.198299e+00    6.942129e-01   9.448720e-03
  2.200509e+00    6.763377e-01   9.325234e-03
  2.202720e+00    6.771066e-01   9.329381e-03
  2.204930e+00    6.809879e-01   9.354840e-03
  2.207141e+00    6.791598e-01   9.341159e-03
  2.209351e+00    6.915253e-01   9.423913e-03
  2.211562e+00    6.897504e-01   9.410189e-03
  2.213772e+00    6.769012e-01   9.266644e-03
  2.215982e+00    6.796432e-01   9.241049e-03
  2.218193e+00    6.803128e-01   9.215880e-03
  2.220403e+00    6.652706e-01   9.089015e-03
  2.222614e+00    6.622502e-01   9.047567e-03
  2.224824e+00    6.718482e-01   9.093567e-03
  2.227035e+00    6.630392e-01   9.016411e-03
  2.229245e+00    6.764278e-01   9.089969e-03
  2.231456e+00    6.827484e-01   9.116596e-03
  2.233666e+00    6.707120e-01   9.020789e-03
  2.235877e+00    6.723286e-01   9.017364e-03
  2.238087e+00    6.666974e-01   8.966086e-03
  2.240298e+00    6.744789e-01   9.004418e-03
  2.242508e+00    6.797725e-01   9.024439e-03
  2.244718e+00    6.699250e-01   8.943025e-03
  2.246929e+00    6.704771e-01   8.932247e-03
  2.249139e+00    6.737011e-01   8.941267e-03
  2.251350e+00    6.684763e-01   8.894810e-03
  2.253560e+00    6.687977e-01   8.885357e-03
  2.255771e+00    6.666667e-01   8.859769e-03
  2.257981e+00    6.818075e-01   8.948497e-03
  2.260192e+00    6.798885e-01   8.924654e-03
  2.262402e+00    6.903975e-01   8.982309e-03
  2.264613e+00    6.758873e-01   8.876488e-03
  2.266823e+00    6.828025e-01   8.911206e-03
  2.269033e+00    6.816329e-01   8.893074e-03
  2.271244e+00    6.806632e-01   8.876182e-03
  2.273454e+00    7.074166e-01   9.038347e-03
  2.275665e+00    7.172054e-01   9.089952e-03
  2.277875e+00    6.940091e-01   8.931573e-03
  2.280086e+00    6.799782e-01   8.830637e-03
  2.282296e+00    6.797249e-01   8.819431e-03
  2.284507e+00    6.726388e-01   8.763117e-03
  2.286717e+00    6.799191e-01   8.800772e-03
  2.288928e+00    6.626083e-01   8.678124e-03
  2.291138e+00    6.598283e-01   8.650454e-03
  2.293348e+00    6.516119e-01   8.586904e-03
  2.295559e+00    6.601011e-01   8.633309e-03
  2.297769e+00    6.680338e-01   8.675694e-03
  2.299980e+00    6.600336e-01   8.614210e-03
  2.302190e+00    6.533761e-01   8.561529e-03
  2.304401e+00    6.571375e-01   8.576774e-03
  2.306611e+00    6.705087e-01   8.654268e-03
  2.308822e+00    6.519881e-01   8.525532e-03
  2.311032e+00    6.490484e-01   8.499827e-03
  2.313243e+00    6.588485e-01   8.557447e-03
  2.315453e+00    6.483682e-01   8.481550e-03
  2.317663e+00    6.433308e-01   8.439432e-03
  2.319874e+00    6.514793e-01   8.483954e-03
  2.322084e+00    6.410655e-01   8.406946e-03
  2.324295e+00    6.471450e-01   8.438468e-03
  2.326505e+00    6.511227e-01   8.455272e-03
  2.328716e+00    6.380894e-01   8.361705e-03
  2.330926e+00    6.316445e-01   8.310652e-03
  2.333137e+00    6.462173e-01   8.397568e-03
  2.335347e+00    6.549560e-01   8.445194e-03
  2.337558e+00    6.428730e-01   8.358696e-03
  2.339768e+00    6.366187e-01   8.309375e-03
  2.341979e+00    6.312394e-01   8.265883e-03
  2.344189e+00    6.274858e-01   8.232939e-03
  2.346399e+00    6.409273e-01   8.312116e-03
  2.348610e+00    6.403945e-01   8.300187e-03
  2.350820e+00    6.348453e-01   8.255959e-03
  2.353031e+00    6.313612e-01   8.225016e-03
  2.355241e+00    6.163399e-01   8.118619e-03
  2.357452e+00    6.418484e-01   8.276436e-03
  2.359662e+00    6.379552e-01   8.243041e-03
  2.361873e+00    6.490275e-01   8.305912e-03
  2.364083e+00    6.278725e-01   8.161460e-03
  2.366294e+00    6.184553e-01   8.091950e-03
  2.368504e+00    6.301880e-01   8.160266e-03
  2.370714e+00    6.230549e-01   8.105901e-03
  2.372925e+00    6.161024e-01   8.052569e-03
  2.375135e+00    6.120213e-01   8.017852e-03
  2.377346e+00    6.239345e-01   8.087588e-03
  2.379556e+00    6.261290e-01   8.093863e-03
  2.381767e+00    6.324484e-01   8.126681e-03
  2.383977e+00    6.268988e-01   8.082976e-03
  2.386188e+00    6.212451e-01   8.038523e-03
  2.388398e+00    6.227089e-01   8.039996e-03
  2.390609e+00    6.300057e-01   8.079153e-03
  2.392819e+00    6.295238e-01   8.068226e-03
  2.395029e+00    6.190645e-01   7.993225e-03
  2.397240e+00    6.074669e-01   7.910178e-03
  2.399450e+00    6.136758e-01   7.942688e-03
  2.401661e+00    6.087531e-01   7.903110e-03
  2.403871e+00    6.134080e-01   7.925493e-03
  2.406082e+00    6.122361e-01   7.910469e-03
  2.408292e+00    6.143436e-01   7.916253e-03
  2.410503e+00    6.217256e-01   7.956093e-03
  2.412713e+00    6.166129e-01   7.915474e-03
  2.414924e+00    5.995277e-01   7.797587e-03
  2.417134e+00    6.102888e-01   7.859589e-03
  2.419344e+00    6.003550e-01   7.787969e-03
  2.421555e+00    6.059470e-01   7.816614e-03
  2.423765e+00    6.127804e-01   7.853088e-03
  2.425976e+00    5.992094e-01   7.757852e-03
  2.428186e+00    5.932658e-01   7.712076e-03
  2.430397e+00    6.086856e-01   7.804117e-03
  2.432607e+00    6.001240e-01   7.741732e-03
  2.434818e+00    5.811566e-01   7.610968e-03
  2.437028e+00    5.888669e-01   7.654155e-03
  2.439239e+00    5.848210e-01   7.620216e-03
  2.441449e+00    6.093894e-01   7.771324e-03
  2.443659e+00    6.015443e-01   7.713747e-03
  2.445870e+00    5.825118e-01   7.602910e-03
  2.448080e+00    5.676403e-01   7.539568e-03
  2.450291e+00    5.737833e-01   7.596809e-03
  2.452501e+00    5.780266e-01   7.636033e-03
  2.454712e+00    5.601222e-01   7.525170e-03
  2.456922e+00    5.542562e-01   7.492180e-03
  2.459133e+00    5.642485e-01   7.564836e-03
  2.461343e+00    5.703831e-01   7.610209e-03
  2.463554e+00    5.657050e-01   7.582413e-03
  2.465764e+00    5.698169e-01   7.613078e-03
  2.467975e+00    5.544250e-01   7.511826e-03
  2.470185e+00    5.627026e-01   7.569952e-03
  2.472395e+00    5.516616e-01   7.496543e-03
  2.474606e+00    5.470585e-01   7.466755e-03
  2.476816e+00    5.312614e-01   7.358870e-03
  2.479027e+00    5.524358e-01   7.504934e-03
  2.481237e+00    5.480240e-01   7.475199e-03
  2.483448e+00    5.421405e-01   7.435261e-03
  2.485658e+00    5.381521e-01   7.407723e-03
  2.487869e+00    5.329118e-01   7.371593e-03
  2.490079e+00    5.438306e-01   7.446217e-03
  2.492290e+00    5.212926e-01   7.289863e-03
  2.494500e+00    5.292372e-01   7.344472e-03
  2.496710e+00    5.332190e-01   7.371356e-03
  2.498921e+00    5.355529e-01   7.386465e-03
  2.501131e+00    5.383731e-01   7.404950e-03
  2.503342e+00    5.369315e-01   7.393765e-03
  2.505552e+00    5.215610e-01   7.286043e-03
  2.507763e+00    5.267627e-01   7.320870e-03
  2.509973e+00    5.211239e-01   7.280207e-03
  2.512184e+00    5.075048e-01   7.182853e-03
  2.514394e+00    5.066060e-01   7.167306e-03
  2.516605e+00    5.267211e-01   7.261144e-03
  2.518815e+00    5.217953e-01   7.198896e-03
  2.521025e+00    5.311779e-01   7.242259e-03
  2.523236e+00    5.321409e-01   7.230734e-03
  2.525446e+00    5.408980e-01   7.274136e-03
  2.527657e+00    5.344644e-01   7.216037e-03
  2.529867e+00    5.446995e-01   7.270343e-03
  2.532078e+00    5.488733e-01   7.282783e-03
  2.534288e+00    5.321510e-01   7.157004e-03
  2.536499e+00    5.279386e-01   7.116646e-03
  2.538709e+00    5.180164e-01   7.038509e-03
  2.540920e+00    5.180215e-01   7.027979e-03
  2.543130e+00    5.125749e-01   6.980667e-03
  2.545340e+00    5.250874e-01   7.055290e-03
  2.547551e+00    5.126042e-01   6.961075e-03
  2.549761e+00    5.170244e-01   6.981486e-03
  2.551972e+00    5.071193e-01   6.905075e-03
  2.554182e+00    5.053731e-01   6.884126e-03
  2.556393e+00    5.071583e-01   6.887318e-03
  2.558603e+00    5.056622e-01   6.868195e-03
  2.560814e+00    5.138142e-01   6.914682e-03
  2.563024e+00    5.177247e-01   6.932383e-03
  2.565235e+00    5.137503e-01   6.896267e-03
  2.567445e+00    5.222686e-01   6.943629e-03
  2.569656e+00    5.101658e-01   6.853018e-03
  2.571866e+00    5.235989e-01   6.933249e-03
  2.574076e+00    5.149882e-01   6.866752e-03
  2.576287e+00    5.110068e-01   6.831885e-03
  2.578497e+00    5.073784e-01   6.799798e-03
  2.580708e+00    5.122184e-01   6.824088e-03
  2.582918e+00    5.195673e-01   6.865070e-03
  2.585129e+00    5.173064e-01   6.842357e-03
  2.587339e+00    5.038312e-01   6.745053e-03
  2.589550e+00    5.026697e-01   6.729770e-03
  2.591760e+00    5.089552e-01   6.764031e-03
  2.593971e+00    5.025534e-01   6.713891e-03
  2.596181e+00    5.017871e-01   6.702597e-03
  2.598391e+00    5.041999e-01   6.713532e-03
  2.600602e+00    5.192075e-01   6.806752e-03
  2.602812e+00    5.035982e-01   6.696182e-03
  2.605023e+00    4.825122e-01   6.547485e-03
  2.607233e+00    5.092009e-01   6.718981e-03
  2.609444e+00    5.096125e-01   6.714459e-03
  2.611654e+00    5.104114e-01   6.712375e-03
  2.613865e+00    5.116739e-01   6.713592e-03
  2.616075e+00    5.116978e-01   6.706574e-03
  2.618286e+00    5.072262e-01   6.670193e-03
  2.620496e+00    5.098193e-01   6.680500e-03
  2.622706e+00    5.057744e-01   6.648204e-03
  2.624917e+00    4.966502e-01   6.582144e-03
  2.627127e+00    5.092574e-01   6.659396e-03
  2.629338e+00    5.041818e-01   6.620154e-03
  2.631548e+00    5.060755e-01   6.626396e-03
  2.633759e+00    4.935536e-01   6.536807e-03
  2.635969e+00    4.959938e-01   6.546301e-03
  2.638180e+00    4.841876e-01   6.461056e-03
  2.640390e+00    5.105098e-01   6.627676e-03
  2.642601e+00    5.169270e-01   6.662456e-03
  2.644811e+00    5.080335e-01   6.597769e-03
  2.647021e+00    4.950276e-01   6.506216e-03
  2.649232e+00    4.983436e-01   6.521279e-03
  2.651442e+00    4.905493e-01   6.463625e-03
  2.653653e+00    4.956584e-01   6.490417e-03
  2.655863e+00    4.966569e-01   6.490301e-03
  2.658074e+00    4.885916e-01   6.430824e-03
  2.660284e+00    4.879189e-01   6.420100e-03
  2.662495e+00    4.917957e-01   6.438847e-03
  2.664705e+00    5.064070e-01   6.527147e-03
  2.666916e+00    5.239383e-01   6.632541e-03
  2.669126e+00    4.976714e-01   6.457692e-03
  2.671337e+00    5.108392e-01   6.535864e-03
  2.673547e+00    4.954143e-01   6.430064e-03
  2.675757e+00    4.868589e-01   6.367906e-03
  2.677968e+00    4.869076e-01   6.361734e-03
  2.680178e+00    4.990127e-01   6.433892e-03
  2.682389e+00    4.911410e-01   6.376580e-03
  2.684599e+00    4.860783e-01   6.337476e-03
  2.686810e+00    4.941801e-01   6.383449e-03
  2.689020e+00    4.904936e-01   6.353323e-03
  2.691231e+00    4.879825e-01   6.330759e-03
  2.693441e+00    4.829125e-01   6.291697e-03
  2.695652e+00    4.893793e-01   6.327173e-03
  2.697862e+00    4.778655e-01   6.246038e-03
  2.700072e+00    4.631271e-01   6.143044e-03
  2.702283e+00    4.779802e-01   6.234619e-03
  2.704493e+00    4.847610e-01   6.272433e-03
  2.706704e+00    4.870570e-01   6.280877e-03
  2.708914e+00    4.776476e-01   6.214014e-03
  2.711125e+00    4.694781e-01   6.154515e-03
  2.713335e+00    4.791158e-01   6.211307e-03
  2.715546e+00    4.939058e-01   6.299959e-03
  2.717756e+00    4.803250e-01   6.206890e-03
  2.719967e+00    4.818575e-01   6.210607e-03
  2.722177e+00    4.719012e-01   6.140059e-03
  2.724387e+00    4.808730e-01   6.192070e-03
  2.726598e+00    4.842927e-01   6.208013e-03
  2.728808e+00    4.866202e-01   6.216747e-03
  2.731019e+00    4.809537e-01   6.174336e-03
  2.733229e+00    4.950815e-01   6.258520e-03
  2.735440e+00    4.710299e-01   6.098410e-03
  2.737650e+00    4.717551e-01   6.097154e-03
  2.739861e+00    4.786789e-01   6.135693e-03
  2.742071e+00    4.779255e-01   6.125155e-03
  2.744282e+00    4.854358e-01   6.166818e-03
  2.746492e+00    4.883603e-01   6.179300e-03
  2.748702e+00    4.833718e-01   6.141756e-03
  2.750913e+00    4.801143e-01   6.115231e-03
  2.753123e+00    4.804817e-01   6.111459e-03
  2.755334e+00    4.739825e-01   6.063962e-03
  2.757544e+00    4.777639e-01   6.082376e-03
  2.759755e+00    4.767056e-01   6.069779e-03
  2.761965e+00    4.773754e-01   6.068069e-03
  2.764176e+00    4.726813e-01   6.032231e-03
  2.766386e+00    4.645827e-01   5.974638e-03
  2.768597e+00    4.743439e-01   6.031217e-03
  2.770807e+00    4.809449e-01   6.067180e-03
  2.773017e+00    4.770959e-01   6.036889e-03
  2.775228e+00    4.710817e-01   5.992965e-03
  2.777438e+00    4.793181e-01   6.039340e-03
  2.779649e+00    4.699866e-01   5.974402e-03
  2.781859e+00    4.819397e-01   6.044114e-03
  2.784070e+00    4.879236e-01   6.075601e-03
  2.786280e+00    4.765714e-01   5.998754e-03
  2.788491e+00    4.659359e-01   5.925655e-03
  2.790701e+00    4.679123e-01   5.932615e-03
  2.792912e+00    4.832650e-01   6.023139e-03
  2.795122e+00    4.841742e-01   6.023044e-03
  2.797333e+00    4.818293e-01   6.002819e-03
  2.799543e+00    4.824327e-01   6.000708e-03
  2.801753e+00    4.691496e-01   5.911683e-03
  2.803964e+00    4.728415e-01   5.929240e-03
  2.806174e+00    4.718476e-01   5.916898e-03
  2.808385e+00    4.662462e-01   5.874936e-03
  2.810595e+00    4.731663e-01   5.911500e-03
  2.812806e+00    4.811566e-01   5.954574e-03
  2.815016e+00    4.777534e-01   5.928692e-03
  2.817227e+00    4.858106e-01   6.004741e-03
  2.819437e+00    4.837296e-01   6.003065e-03
  2.821648e+00    4.738698e-01   5.943854e-03
  2.823858e+00    4.753360e-01   5.958389e-03
  2.826068e+00    4.658496e-01   5.903589e-03
  2.828279e+00    4.625148e-01   5.886406e-03
  2.830489e+00    4.634369e-01   5.895577e-03
  2.832700e+00    4.619091e-01   5.888379e-03
  2.834910e+00    4.656302e-01   5.914102e-03
  2.837121e+00    4.727437e-01   5.960811e-03
  2.839331e+00    4.766901e-01   5.986887e-03
  2.841542e+00    4.751724e-01   5.978369e-03
  2.843752e+00    4.659944e-01   5.921132e-03
  2.845963e+00    4.697777e-01   5.945510e-03
  2.848173e+00    4.734309e-01   5.968680e-03
  2.850383e+00    4.752667e-01   5.980530e-03
  2.852594e+00    4.763503e-01   5.987267e-03
  2.854804e+00    4.706352e-01   5.950735e-03
  2.857015e+00    4.639625e-01   5.907969e-03
  2.859225e+00    4.633579e-01   5.903875e-03
  2.861436e+00    4.658845e-01   5.919282e-03
  2.863646e+00    4.713835e-01   5.954154e-03
  2.865857e+00    4.659216e-01   5.919908e-03
  2.868067e+00    4.663938e-01   5.923123e-03
  2.870278e+00    4.635769e-01   5.904856e-03
  2.872488e+00    4.732105e-01   5.964717e-03
  2.874698e+00    4.622626e-01   5.894294e-03
  2.876909e+00    4.474859e-01   5.798004e-03
  2.879119e+00    4.528345e-01   5.830918e-03
  2.881330e+00    4.803835e-01   6.004204e-03
  2.883540e+00    4.540533e-01   5.835962e-03
  2.885751e+00    4.586344e-01   5.863665e-03
  2.887961e+00    4.640987e-01   5.896617e-03
  2.890172e+00    4.811137e-01   6.002101e-03
  2.892382e+00    4.653158e-01   5.900929e-03
  2.894593e+00    4.545902e-01   5.830723e-03
  2.896803e+00    4.518272e-01   5.810997e-03
  2.899014e+00    4.565541e-01   5.839416e-03
  2.901224e+00    4.698894e-01   5.922062e-03
  2.903434e+00    4.721104e-01   5.934098e-03
  2.905645e+00    4.665401e-01   5.896729e-03
  2.907855e+00    4.621342e-01   5.866709e-03
  2.910066e+00    4.694433e-01   5.910831e-03
  2.912276e+00    4.558339e-01   5.822404e-03
  2.914487e+00    4.582819e-01   5.835564e-03
  2.916697e+00    4.574860e-01   5.828273e-03
  2.918908e+00    4.615386e-01   5.852021e-03
  2.921118e+00    4.506939e-01   5.780172e-03
  2.923329e+00    4.741823e-01   5.926534e-03
  2.925539e+00    4.574002e-01   5.818444e-03
  2.927749e+00    4.581795e-01   5.821060e-03
  2.929960e+00    4.644013e-01   5.857674e-03
  2.932170e+00    4.608973e-01   5.833185e-03
  2.934381e+00    4.584094e-01   5.814978e-03
  2.936591e+00    4.646299e-01   5.851691e-03
  2.938802e+00    4.560340e-01   5.794610e-03
  2.941012e+00    4.613576e-01   5.825980e-03
  2.943223e+00    4.631751e-01   5.834720e-03
  2.945433e+00    4.657951e-01   5.847435e-03
  2.947644e+00    4.643158e-01   5.833950e-03
  2.949854e+00    4.622646e-01   5.816768e-03
  2.952064e+00    4.587187e-01   5.790160e-03
  2.954275e+00    4.758984e-01   5.893083e-03
  2.956485e+00    4.620767e-01   5.802657e-03
  2.958696e+00    4.668491e-01   5.828104e-03
  2.960906e+00    4.662946e-01   5.820429e-03
  2.963117e+00    4.599104e-01   5.775919e-03
  2.965327e+00    4.618060e-01   5.783892e-03
  2.967538e+00    4.589947e-01   5.763318e-03
  2.969748e+00    4.441639e-01   5.666680e-03
  2.971959e+00    4.477574e-01   5.686410e-03
  2.974169e+00    4.586898e-01   5.752836e-03
  2.976379e+00    4.697452e-01   5.818764e-03
  2.978590e+00    4.778301e-01   5.865434e-03
  2.980800e+00    4.561654e-01   5.728110e-03
  2.983011e+00    4.711939e-01   5.818855e-03
  2.985221e+00    4.561134e-01   5.721815e-03
  2.987432e+00    4.695280e-01   5.802189e-03
  2.989642e+00    4.615362e-01   5.749955e-03
  2.991853e+00    4.499897e-01   5.674302e-03
  2.994063e+00    4.530360e-01   5.690573e-03
  2.996274e+00    4.516887e-01   5.678928e-03
  2.998484e+00    4.617106e-01   5.738861e-03
  3.000694e+00    4.555310e-01   5.696866e-03
  3.002905e+00    4.560509e-01   5.697163e-03
  3.005115e+00    4.615881e-01   5.728657e-03
  3.007326e+00    4.575807e-01   5.700547e-03
  3.009536e+00    4.531926e-01   5.669915e-03
  3.011747e+00    4.509262e-01   5.652793e-03
  3.013957e+00    4.436259e-01   5.603711e-03
  3.016168e+00    4.415437e-01   5.587316e-03
  3.018378e+00    4.698619e-01   5.760610e-03
  3.020589e+00    4.589573e-01   5.690146e-03
  3.022799e+00    4.595567e-01   5.690661e-03
  3.025010e+00    4.559462e-01   5.665023e-03
  3.027220e+00    4.525374e-01   5.640687e-03
  3.029430e+00    4.508894e-01   5.627176e-03
  3.031641e+00    4.404540e-01   5.558577e-03
  3.033851e+00    4.376241e-01   5.537221e-03
  3.036062e+00    4.545795e-01   5.640664e-03
  3.038272e+00    4.718527e-01   5.743207e-03
  3.040483e+00    4.567137e-01   5.647079e-03
  3.042693e+00    4.511408e-01   5.609248e-03
  3.044904e+00    4.563557e-01   5.637536e-03
  3.047114e+00    4.581990e-01   5.644044e-03
  3.049325e+00    4.657150e-01   5.685701e-03
  3.051535e+00    4.467465e-01   5.564338e-03
  3.053745e+00    4.559761e-01   5.616726e-03
  3.055956e+00    4.673828e-01   5.681898e-03
  3.058166e+00    4.562534e-01   5.609557e-03
  3.060377e+00    4.548775e-01   5.596291e-03
  3.062587e+00    4.450966e-01   5.531204e-03
  3.064798e+00    4.558418e-01   5.593272e-03
  3.067008e+00    4.416546e-01   5.500882e-03
  3.069219e+00    4.426966e-01   5.502871e-03
  3.071429e+00    4.512317e-01   5.552146e-03
  3.073640e+00    4.486494e-01   5.532915e-03
  3.075850e+00    4.520108e-01   5.549999e-03
  3.078060e+00    4.451804e-01   5.504823e-03
  3.080271e+00    4.521837e-01   5.544466e-03
  3.082481e+00    4.517733e-01   5.538485e-03
  3.084692e+00    4.585157e-01   5.576250e-03
  3.086902e+00    4.499767e-01   5.520841e-03
  3.089113e+00    4.482648e-01   5.506740e-03
  3.091323e+00    4.562025e-01   5.551889e-03
  3.093534e+00    4.507977e-01   5.515510e-03
  3.095744e+00    4.474193e-01   5.491449e-03
  3.097955e+00    4.364458e-01   5.420170e-03
  3.100165e+00    4.359107e-01   5.413558e-03
  3.102375e+00    4.460453e-01   5.472702e-03
  3.104586e+00    4.563762e-01   5.532189e-03
  3.106796e+00    4.528329e-01   5.507136e-03
  3.109007e+00    4.526358e-01   5.502701e-03
  3.111217e+00    4.464196e-01   5.461073e-03
  3.113428e+00    4.612159e-01   5.547374e-03
  3.115638e+00    4.558767e-01   5.511907e-03
  3.117849e+00    4.422450e-01   5.425159e-03
  3.120059e+00    4.418427e-01   5.419225e-03
  3.122270e+00    4.547797e-01   5.494708e-03
  3.124480e+00    4.532748e-01   5.481894e-03
  3.126691e+00    4.441341e-01   5.422774e-03
  3.128901e+00    4.522874e-01   5.469166e-03
  3.131111e+00    4.451977e-01   5.422289e-03
  3.133322e+00    4.540650e-01   5.472543e-03
  3.135532e+00    4.523394e-01   5.458704e-03
  3.137743e+00    4.529389e-01   5.458805e-03
  3.139953e+00    4.470835e-01   5.419709e-03
  3.142164e+00    4.514686e-01   5.458343e-03
  3.144374e+00    4.481253e-01   5.466697e-03
  3.146585e+00    4.501110e-01   5.493474e-03
  3.148795e+00    4.450681e-01   5.473434e-03
  3.151006e+00    4.438708e-01   5.474627e-03
  3.153216e+00    4.408203e-01   5.462911e-03
  3.155426e+00    4.363645e-01   5.441503e-03
  3.157637e+00    4.404204e-01   5.472260e-03
  3.159847e+00    4.302146e-01   5.413305e-03
  3.162058e+00    4.399371e-01   5.478551e-03
  3.164268e+00    4.435248e-01   5.504936e-03
  3.166479e+00    4.452163e-01   5.519078e-03
  3.168689e+00    4.412181e-01   5.497650e-03
  3.170900e+00    4.357531e-01   5.466628e-03
  3.173110e+00    4.392372e-01   5.491313e-03
  3.175321e+00    4.457764e-01   5.534570e-03
  3.177531e+00    4.325538e-01   5.454565e-03
  3.179741e+00    4.487022e-01   5.557569e-03
  3.181952e+00    4.341201e-01   5.468619e-03
  3.184162e+00    4.352528e-01   5.477927e-03
  3.186373e+00    4.294339e-01   5.442775e-03
  3.188583e+00    4.292737e-01   5.443522e-03
  3.190794e+00    4.356264e-01   5.485416e-03
  3.193004e+00    4.263765e-01   5.428097e-03
  3.195215e+00    4.343763e-01   5.480264e-03
  3.197425e+00    4.459723e-01   5.554175e-03
  3.199636e+00    4.468557e-01   5.558890e-03
  3.201846e+00    4.412315e-01   5.523180e-03
  3.204056e+00    4.465523e-01   5.557292e-03
  3.206267e+00    4.461749e-01   5.555794e-03
  3.208477e+00    4.417892e-01   5.529370e-03
  3.210688e+00    4.458449e-01   5.555537e-03
  3.212898e+00    4.418506e-01   5.531188e-03
  3.215109e+00    4.339358e-01   5.482164e-03
  3.217319e+00    4.253054e-01   5.428022e-03
  3.219530e+00    4.280424e-01   5.445836e-03
  3.221740e+00    4.254684e-01   5.429998e-03
  3.223951e+00    4.284159e-01   5.449245e-03
  3.226161e+00    4.163783e-01   5.372338e-03
  3.228372e+00    4.218274e-01   5.407868e-03
  3.230582e+00    4.350093e-01   5.491890e-03
  3.232792e+00    4.256786e-01   5.432892e-03
  3.235003e+00    4.162075e-01   5.372342e-03
  3.237213e+00    4.199608e-01   5.396614e-03
  3.239424e+00    4.260266e-01   5.435451e-03
  3.241634e+00    4.105947e-01   5.336222e-03
  3.243845e+00    4.227604e-01   5.414765e-03
  3.246055e+00    4.273304e-01   5.443678e-03
  3.248266e+00    4.460719e-01   5.561971e-03
  3.250476e+00    4.438387e-01   5.547729e-03
  3.252687e+00    4.345414e-01   5.489260e-03
  3.254897e+00    4.340777e-01   5.486172e-03
  3.257107e+00    4.321885e-01   5.473926e-03
  3.259318e+00    4.321007e-01   5.473123e-03
  3.261528e+00    4.274337e-01   5.443360e-03
  3.263739e+00    4.364259e-01   5.499735e-03
  3.265949e+00    4.466710e-01   5.563796e-03
  3.268160e+00    4.384305e-01   5.511827e-03
  3.270370e+00    4.256103e-01   5.430128e-03
  3.272581e+00    4.203663e-01   5.396289e-03
  3.274791e+00    4.294727e-01   5.453889e-03
  3.277002e+00    4.226150e-01   5.409615e-03
  3.279212e+00    4.364583e-01   5.497117e-03
  3.281422e+00    4.286357e-01   5.447062e-03
  3.283633e+00    4.249390e-01   5.422836e-03
  3.285843e+00    4.170205e-01   5.371735e-03
  3.288054e+00    4.244136e-01   5.418187e-03
  3.290264e+00    4.276664e-01   5.438613e-03
  3.292475e+00    4.433526e-01   5.536601e-03
  3.294685e+00    4.294375e-01   5.448389e-03
  3.296896e+00    4.255545e-01   5.422935e-03
  3.299106e+00    4.239422e-01   5.412102e-03
  3.301317e+00    4.233678e-01   5.407406e-03
  3.303527e+00    4.215436e-01   5.395274e-03
  3.305737e+00    4.279653e-01   5.435162e-03
  3.307948e+00    4.321003e-01   5.460677e-03
  3.310158e+00    4.305932e-01   5.450292e-03
  3.312369e+00    4.359877e-01   5.483441e-03
  3.314579e+00    4.296351e-01   5.442405e-03
  3.316790e+00    4.309400e-01   5.449974e-03
  3.319000e+00    4.242443e-01   5.406274e-03
  3.321211e+00    4.148761e-01   5.345658e-03
  3.323421e+00    4.159701e-01   5.351479e-03
  3.325632e+00    4.343170e-01   5.467338e-03
  3.327842e+00    4.197713e-01   5.374095e-03
  3.330052e+00    4.273903e-01   5.421569e-03
  3.332263e+00    4.151338e-01   5.342264e-03
  3.334473e+00    4.179577e-01   5.359480e-03
  3.336684e+00    4.124083e-01   5.322535e-03
  3.338894e+00    4.357277e-01   5.470090e-03
  3.341105e+00    4.229720e-01   5.388209e-03
  3.343315e+00    4.419431e-01   5.506559e-03
  3.345526e+00    4.310609e-01   5.437443e-03
  3.347736e+00    4.194560e-01   5.362328e-03
  3.349947e+00    4.355307e-01   5.463163e-03
  3.352157e+00    4.205934e-01   5.367492e-03
  3.354368e+00    4.228554e-01   5.380598e-03
  3.356578e+00    4.356865e-01   5.460590e-03
  3.358788e+00    4.315932e-01   5.433528e-03
  3.360999e+00    4.172045e-01   5.340938e-03
  3.363209e+00    4.226636e-01   5.374759e-03
  3.365420e+00    4.116179e-01   5.302548e-03
  3.367630e+00    4.062909e-01   5.267121e-03
  3.369841e+00    4.274568e-01   5.401139e-03
  3.372051e+00    4.224562e-01   5.367446e-03
  3.374262e+00    4.227019e-01   5.366580e-03
  3.376472e+00    4.176119e-01   5.331697e-03
  3.378683e+00    4.205650e-01   5.348006e-03
  3.380893e+00    4.149656e-01   5.309957e-03
  3.383103e+00    4.211359e-01   5.346549e-03
  3.385314e+00    4.031292e-01   5.228826e-03
  3.387524e+00    4.183258e-01   5.323687e-03
  3.389735e+00    4.254811e-01   5.366394e-03
  3.391945e+00    4.051361e-01   5.232873e-03
  3.394156e+00    4.058411e-01   5.233232e-03
  3.396366e+00    4.149933e-01   5.288505e-03
  3.398577e+00    4.075733e-01   5.237964e-03
  3.400787e+00    4.018066e-01   5.212571e-03
  3.402998e+00    4.015171e-01   5.248346e-03
  3.405208e+00    4.106070e-01   5.328213e-03
  3.407418e+00    4.118916e-01   5.352551e-03
  3.409629e+00    4.046512e-01   5.319307e-03
  3.411839e+00    3.979991e-01   5.287184e-03
  3.414050e+00    3.909293e-01   5.250910e-03
  3.416260e+00    3.870479e-01   5.234323e-03
  3.418471e+00    3.915408e-01   5.274017e-03
  3.420681e+00    3.853186e-01   5.240349e-03
  3.422892e+00    3.781988e-01   5.199596e-03
  3.425102e+00    3.710723e-01   5.157978e-03
  3.427313e+00    3.867135e-01   5.272728e-03
  3.429523e+00    3.961592e-01   5.343906e-03
  3.431733e+00    3.920583e-01   5.322872e-03
  3.433944e+00    3.971032e-01   5.363618e-03
  3.436154e+00    3.889361e-01   5.314467e-03
  3.438365e+00    3.849286e-01   5.292950e-03
  3.440575e+00    3.867680e-01   5.311576e-03
  3.442786e+00    3.907910e-01   5.344813e-03
  3.444996e+00    3.743960e-01   5.236990e-03
  3.447207e+00    3.576477e-01   5.123684e-03
  3.449417e+00    3.625439e-01   5.198931e-03
  3.451628e+00    3.598911e-01   5.208970e-03
  3.453838e+00    3.568775e-01   5.207962e-03
  3.456049e+00    3.761171e-01   5.370683e-03
  3.458259e+00    3.675070e-01   5.330843e-03
  3.460469e+00    3.678757e-01   5.353336e-03
  3.462680e+00    3.817705e-01   5.472944e-03
  3.464890e+00    3.749939e-01   5.442182e-03
  3.467101e+00    3.772933e-01   5.476503e-03
  3.469311e+00    3.918874e-01   5.598476e-03
  3.471522e+00    3.894681e-01   5.597861e-03
  3.473732e+00    4.011102e-01   5.697323e-03
  3.475943e+00    4.085646e-01   5.766265e-03
  3.478153e+00    3.935104e-01   5.674582e-03
  3.480364e+00    4.129635e-01   5.828646e-03
  3.482574e+00    4.175011e-01   5.876200e-03
  3.484784e+00    4.242024e-01   5.938288e-03
  3.486995e+00    4.430276e-01   6.084185e-03
  3.489205e+00    4.470979e-01   6.127180e-03
  3.491416e+00    4.433725e-01   6.116775e-03
  3.493626e+00    4.347317e-01   6.071501e-03
  3.495837e+00    4.308007e-01   6.058534e-03
  3.498047e+00    4.641807e-01   6.303680e-03
  3.500258e+00    4.597345e-01   6.288141e-03
  3.502468e+00    4.744908e-01   6.403002e-03
  3.504679e+00    4.613786e-01   6.328407e-03
  3.506889e+00    4.727158e-01   6.420226e-03
  3.509099e+00    4.793801e-01   6.479804e-03
  3.511310e+00    4.944196e-01   6.595421e-03
  3.513520e+00    4.800117e-01   6.512986e-03
  3.515731e+00    4.929803e-01   6.614856e-03
  3.517941e+00    5.099429e-01   6.742348e-03
  3.520152e+00    5.205337e-01   6.826688e-03
  3.522362e+00    5.235955e-01   6.861559e-03
  3.524573e+00    5.178918e-01   6.838532e-03
  3.526783e+00    5.141389e-01   6.827100e-03
  3.528994e+00    5.213230e-01   6.886925e-03
  3.531204e+00    5.211236e-01   6.898067e-03
  3.533414e+00    5.226222e-01   6.920008e-03
  3.535625e+00    5.289401e-01   6.974107e-03
  3.537835e+00    5.468745e-01   7.103621e-03
  3.540046e+00    5.395655e-01   7.064944e-03
  3.542256e+00    5.537707e-01   7.165013e-03
  3.544467e+00    5.514830e-01   7.157930e-03
  3.546677e+00    5.468446e-01   7.135428e-03
  3.548888e+00    5.455295e-01   7.134407e-03
  3.551098e+00    5.425057e-01   7.121930e-03
  3.553309e+00    5.413141e-01   7.122324e-03
  3.555519e+00    5.454743e-01   7.161008e-03
  3.557729e+00    5.373434e-01   7.119189e-03
  3.559940e+00    5.422280e-01   7.163086e-03
  3.562150e+00    5.593034e-01   7.286944e-03
  3.564361e+00    5.481824e-01   7.227621e-03
  3.566571e+00    5.544684e-01   7.283039e-03
  3.568782e+00    5.520564e-01   7.281459e-03
  3.570992e+00    5.344402e-01   7.178109e-03
  3.573203e+00    5.343077e-01   7.191324e-03
  3.575413e+00    5.397877e-01   7.241956e-03
  3.577624e+00    5.404583e-01   7.260589e-03
  3.579834e+00    5.347969e-01   7.236368e-03
  3.582045e+00    5.340415e-01   7.245233e-03
  3.584255e+00    5.383477e-01   7.288490e-03
  3.586465e+00    5.447454e-01   7.345707e-03
  3.588676e+00    5.461494e-01   7.369490e-03
  3.590886e+00    5.455781e-01   7.379487e-03
  3.593097e+00    5.496904e-01   7.421900e-03
  3.595307e+00    5.486521e-01   7.429001e-03
  3.597518e+00    5.471214e-01   7.433001e-03
  3.599728e+00    5.468913e-01   7.445696e-03
  3.601939e+00    5.391569e-01   7.406951e-03
  3.604149e+00    5.375685e-01   7.410479e-03
  3.606360e+00    5.226175e-01   7.320664e-03
  3.608570e+00    5.439033e-01   7.482525e-03
  3.610780e+00    5.502651e-01   7.537371e-03
  3.612991e+00    5.201694e-01   7.338264e-03
  3.615201e+00    5.193602e-01   7.342192e-03
  3.617412e+00    5.292523e-01   7.418977e-03
  3.619622e+00    5.310522e-01   7.437569e-03
  3.621833e+00    5.342621e-01   7.466701e-03
  3.624043e+00    5.378731e-01   7.501426e-03
  3.626254e+00    5.365337e-01   7.501823e-03
  3.628464e+00    5.226863e-01   7.415208e-03
  3.630675e+00    5.461719e-01   7.594280e-03
  3.632885e+00    5.264823e-01   7.470470e-03
  3.635095e+00    5.343784e-01   7.540712e-03
  3.637306e+00    5.195668e-01   7.449622e-03
  3.639516e+00    5.203748e-01   7.469769e-03
  3.641727e+00    5.319580e-01   7.566982e-03
  3.643937e+00    5.420190e-01   7.652906e-03
  3.646148e+00    5.358392e-01   7.623777e-03
  3.648358e+00    5.542414e-01   7.768741e-03
  3.650569e+00    5.524403e-01   7.771114e-03
  3.652779e+00    5.468268e-01   7.746501e-03
  3.654990e+00    5.330808e-01   7.663443e-03
  3.657200e+00    5.278649e-01   7.640636e-03
  3.659410e+00    5.300398e-01   7.671316e-03
  3.661621e+00    5.227739e-01   7.633556e-03
  3.663831e+00    5.245953e-01   7.661811e-03
  3.666042e+00    5.567572e-01   7.908700e-03
  3.668252e+00    5.378287e-01   7.788476e-03
  3.670463e+00    5.498849e-01   7.890783e-03
  3.672673e+00    5.355100e-01   7.802434e-03
  3.674884e+00    5.294262e-01   7.773356e-03
  3.677094e+00    5.284066e-01   7.781386e-03
  3.679305e+00    5.352189e-01   7.846979e-03
  3.681515e+00    5.483211e-01   7.958329e-03
  3.683726e+00    5.554079e-01   8.025762e-03
  3.685936e+00    5.444109e-01   7.961896e-03
  3.688146e+00    5.308001e-01   7.877517e-03
  3.690357e+00    5.267367e-01   7.863255e-03
  3.692567e+00    5.423052e-01   7.994911e-03
  3.694778e+00    5.490793e-01   8.061136e-03
  3.696988e+00    5.472892e-01   8.064274e-03
  3.699199e+00    5.385023e-01   8.015738e-03
  3.701409e+00    5.226789e-01   7.913453e-03
  3.703620e+00    5.293692e-01   7.980227e-03
  3.705830e+00    5.294269e-01   7.997202e-03
  3.708041e+00    5.219179e-01   7.956849e-03
  3.710251e+00    5.118374e-01   7.896136e-03
  3.712461e+00    5.292679e-01   8.046279e-03
  3.714672e+00    5.294061e-01   8.064257e-03
  3.716882e+00    5.056725e-01   7.897830e-03
  3.719093e+00    5.155348e-01   7.991577e-03
  3.721303e+00    5.168564e-01   8.018703e-03
  3.723514e+00    5.036314e-01   7.932450e-03
  3.725724e+00    5.134172e-01   8.026202e-03
  3.727935e+00    5.279911e-01   8.156987e-03
  3.730145e+00    5.222778e-01   8.130096e-03
  3.732356e+00    5.395846e-01   8.281684e-03
  3.734566e+00    5.346869e-01   8.261870e-03
  3.736776e+00    5.149929e-01   8.126054e-03
  3.738987e+00    5.200217e-01   8.183443e-03
  3.741197e+00    5.205895e-01   8.206053e-03
  3.743408e+00    5.292383e-01   8.292289e-03
  3.745618e+00    5.230064e-01   8.261766e-03
  3.747829e+00    5.411204e-01   8.422269e-03
  3.750039e+00    5.146788e-01   8.232360e-03
  3.752250e+00    5.143003e-01   8.247841e-03
  3.754460e+00    5.012481e-01   8.160919e-03
  3.756671e+00    5.044325e-01   8.205452e-03
  3.758881e+00    5.139191e-01   8.301034e-03
  3.761091e+00    4.887508e-01   8.113953e-03
  3.763302e+00    4.984379e-01   8.212878e-03
  3.765512e+00    5.108168e-01   8.333569e-03
  3.767723e+00    5.159678e-01   8.394945e-03
  3.769933e+00    5.147219e-01   8.404367e-03
  3.772144e+00    5.053264e-01   8.346829e-03
  3.774354e+00    5.217954e-01   8.501907e-03
  3.776565e+00    5.361590e-01   8.638619e-03
  3.778775e+00    5.060998e-01   8.412907e-03
  3.780986e+00    5.327710e-01   8.652636e-03
  3.783196e+00    5.234805e-01   8.597551e-03
  3.785407e+00    4.975896e-01   8.402519e-03
  3.787617e+00    4.943566e-01   8.395720e-03
  3.789827e+00    5.081571e-01   8.532811e-03
  3.792038e+00    5.297673e-01   8.733680e-03
  3.794248e+00    5.100653e-01   8.591210e-03
  3.796459e+00    4.940152e-01   8.476044e-03
  3.798669e+00    5.057629e-01   8.597781e-03
  3.800880e+00    5.092370e-01   8.648890e-03
  3.803090e+00    4.943095e-01   8.542860e-03
  3.805301e+00    5.077592e-01   8.680539e-03
  3.807511e+00    5.082368e-01   8.706797e-03
  3.809722e+00    5.249787e-01   8.871891e-03
  3.811932e+00    5.305551e-01   8.941732e-03
  3.814142e+00    5.074629e-01   8.768085e-03
  3.816353e+00    5.087468e-01   8.802176e-03
  3.818563e+00    5.188591e-01   8.912842e-03
  3.820774e+00    4.957661e-01   8.735321e-03
  3.822984e+00    4.979467e-01   8.777875e-03
  3.825195e+00    4.928807e-01   8.756738e-03
  3.827405e+00    4.986159e-01   8.831411e-03
  3.829616e+00    4.901293e-01   8.779843e-03
  3.831826e+00    4.889667e-01   8.793381e-03
  3.834037e+00    5.384278e-01   9.252899e-03
  3.836247e+00    5.169133e-01   9.091354e-03
  3.838457e+00    4.976470e-01   8.945384e-03
  3.840668e+00    4.948495e-01   8.945390e-03
  3.842878e+00    5.008233e-01   9.024789e-03
  3.845089e+00    4.886370e-01   8.939748e-03
  3.847299e+00    4.972294e-01   9.043835e-03
  3.849510e+00    4.818688e-01   8.928571e-03
  3.851720e+00    4.972990e-01   9.091783e-03
  3.853931e+00    5.348511e-01   9.448638e-03
  3.856141e+00    5.021272e-01   9.174158e-03
  3.858352e+00    5.004638e-01   9.178320e-03
  3.860562e+00    4.940628e-01   9.138746e-03
  3.862772e+00    5.148361e-01   9.348817e-03
  3.864983e+00    5.141404e-01   9.362680e-03
  3.867193e+00    4.898628e-01   9.158614e-03
  3.869404e+00    5.102224e-01   9.367170e-03
  3.871614e+00    4.677028e-01   8.987775e-03
  3.873825e+00    5.027474e-01   9.338928e-03
  3.876035e+00    4.956115e-01   9.293080e-03
  3.878246e+00    5.095310e-01   9.448852e-03
  3.880456e+00    4.918478e-01   9.312507e-03
  3.882667e+00    4.632632e-01   9.066266e-03
  3.884877e+00    5.009399e-01   9.457675e-03
  3.887087e+00    5.115473e-01   9.587904e-03
  3.889298e+00    5.014102e-01   9.523087e-03
  3.891508e+00    5.078972e-01   9.615527e-03
  3.893719e+00    5.205426e-01   9.766497e-03
  3.895929e+00    4.919517e-01   9.525869e-03
  3.898140e+00    4.937687e-01   9.575352e-03
  3.900350e+00    4.755779e-01   9.428866e-03
  3.902561e+00    4.885797e-01   9.589202e-03
  3.904771e+00    4.791821e-01   9.529124e-03
  3.906982e+00    4.910524e-01   9.679420e-03
  3.909192e+00    5.029697e-01   9.830222e-03
  3.911403e+00    5.187324e-01   1.001809e-02
  3.913613e+00    5.043764e-01   9.913350e-03
  3.915823e+00    4.875119e-01   9.780968e-03
  3.918034e+00    5.166168e-01   1.010494e-02
  3.920244e+00    5.103758e-01   1.008023e-02
  3.922455e+00    4.906193e-01   9.919504e-03
  3.924665e+00    4.825601e-01   9.873758e-03
  3.926876e+00    5.007445e-01   1.009572e-02
  3.929086e+00    5.009583e-01   1.013577e-02
  3.931297e+00    4.949377e-01   1.010975e-02
  3.933507e+00    5.015808e-01   1.020663e-02
  3.935718e+00    5.011039e-01   1.023105e-02
  3.937928e+00    4.836076e-01   1.008016e-02
  3.940138e+00    4.922096e-01   1.019880e-02
  3.942349e+00    5.042441e-01   1.035319e-02
  3.944559e+00    4.889349e-01   1.022485e-02
  3.946770e+00    4.992034e-01   1.036223e-02
  3.948980e+00    4.975527e-01   1.037614e-02
  3.951191e+00    4.870646e-01   1.029707e-02
  3.953401e+00    4.972821e-01   1.043625e-02
  3.955612e+00    4.827502e-01   1.031412e-02
  3.957822e+00    5.011227e-01   1.054073e-02
  3.960033e+00    5.052294e-01   1.061714e-02
  3.962243e+00    5.141060e-01   1.074370e-02
  3.964453e+00    5.091477e-01   1.072577e-02
  3.966664e+00    4.749289e-01   1.039203e-02
  3.968874e+00    5.163373e-01   1.086482e-02
  3.971085e+00    5.220954e-01   1.094810e-02
  3.973295e+00    4.981256e-01   1.071555e-02
  3.975506e+00    5.157831e-01   1.092603e-02
  3.977716e+00    5.052476e-01   1.083636e-02
  3.979927e+00    4.929322e-01   1.072580e-02
  3.982137e+00    4.772068e-01   1.057541e-02
  3.984348e+00    4.956808e-01   1.080094e-02
  3.986558e+00    5.031300e-01   1.090449e-02
  3.988768e+00    5.077515e-01   1.097805e-02
  3.990979e+00    4.992146e-01   1.090840e-02
  3.993189e+00    4.716213e-01   1.062552e-02
  3.995400e+00    4.545014e-01   1.045350e-02
  3.997610e+00    5.071669e-01   1.107309e-02
  3.999821e+00    5.033873e-01   1.107010e-02
  4.002031e+00    5.020686e-01   1.109460e-02
  4.004242e+00    4.938941e-01   1.104268e-02
  4.006452e+00    5.051227e-01   1.120776e-02
  4.008663e+00    4.904539e-01   1.108414e-02
  4.010873e+00    4.677292e-01   1.086351e-02
  4.013084e+00    4.545076e-01   1.074852e-02
  4.015294e+00    4.829766e-01   1.112093e-02
  4.017504e+00    4.818013e-01   1.114909e-02
  4.019715e+00    4.701708e-01   1.105570e-02
  4.021925e+00    4.737078e-01   1.113966e-02
  4.024136e+00    4.962986e-01   1.144644e-02
  4.026346e+00    4.935048e-01   1.145876e-02
  4.028557e+00    4.635254e-01   1.114864e-02
  4.030767e+00    5.036821e-01   1.166801e-02
  4.032978e+00    5.027080e-01   1.170404e-02
  4.035188e+00    4.533801e-01   1.115976e-02
  4.037399e+00    4.841827e-01   1.158005e-02
  4.039609e+00    4.802372e-01   1.158049e-02
  4.041819e+00    4.628531e-01   1.141655e-02
  4.044030e+00    5.007766e-01   1.192593e-02
  4.046240e+00    5.025374e-01   1.199770e-02
  4.048451e+00    4.871752e-01   1.186399e-02
  4.050661e+00    4.770373e-01   1.179124e-02
  4.052872e+00    4.484406e-01   1.148303e-02
  4.055082e+00    4.690561e-01   1.179678e-02
  4.057293e+00    4.597820e-01   1.173205e-02
  4.059503e+00    4.800404e-01   1.204220e-02
  4.061714e+00    4.802960e-01   1.210182e-02
  4.063924e+00    4.508899e-01   1.178043e-02
  4.066134e+00    4.579732e-01   1.192852e-02
  4.068345e+00    4.239588e-01   1.153214e-02
  4.070555e+00    4.825262e-01   1.236247e-02
  4.072766e+00    4.907621e-01   1.252881e-02
  4.074976e+00    4.458476e-01   1.200139e-02
  4.077187e+00    4.789121e-01   1.250015e-02
  4.079397e+00    4.616565e-01   1.233566e-02
  4.081608e+00    4.744876e-01   1.257087e-02
  4.083818e+00    4.757807e-01   1.265350e-02
  4.086029e+00    4.671707e-01   1.260455e-02
  4.088239e+00    4.880328e-01   1.295244e-02
  4.090449e+00    4.822523e-01   1.294523e-02
  4.092660e+00    4.733656e-01   1.289587e-02
  4.094870e+00    4.972470e-01   1.329080e-02
  4.097081e+00    4.856733e-01   1.320719e-02
  4.099291e+00    4.749033e-01   1.311378e-02
  4.101502e+00    4.537451e-01   1.286637e-02
  4.103712e+00    4.931273e-01   1.346291e-02
  4.105923e+00    4.952026e-01   1.354347e-02
  4.108133e+00    5.026335e-01   1.369735e-02
  4.110344e+00    4.838353e-01   1.349034e-02
  4.112554e+00    4.375671e-01   1.287966e-02
  4.114764e+00    4.458459e-01   1.305300e-02
  4.116975e+00    4.780370e-01   1.356959e-02
  4.119185e+00    4.684846e-01   1.348774e-02
  4.121396e+00    4.993012e-01   1.398170e-02
  4.123606e+00    4.781074e-01   1.373797e-02
  4.125817e+00    4.736224e-01   1.373061e-02
  4.128027e+00    5.345707e-01   1.464898e-02
  4.130238e+00    4.713771e-01   1.381489e-02
  4.132448e+00    4.488486e-01   1.353902e-02
  4.134659e+00    4.781723e-01   1.403448e-02
  4.136869e+00    4.514165e-01   1.369711e-02
  4.139080e+00    4.428371e-01   1.362737e-02
  4.141290e+00    4.806127e-01   1.425957e-02
  4.143500e+00    4.973687e-01   1.457286e-02
  4.145711e+00    5.330837e-01   1.515761e-02
  4.147921e+00    4.763446e-01   1.439404e-02
  4.150132e+00    4.643323e-01   1.427914e-02
  4.152342e+00    4.809990e-01   1.460342e-02
  4.154553e+00    4.706599e-01   1.451469e-02
  4.156763e+00    4.730268e-01   1.462271e-02
  4.158974e+00    4.988422e-01   1.509210e-02
  4.161184e+00    5.236617e-01   1.553975e-02
  4.163395e+00    5.139571e-01   1.547355e-02
  4.165605e+00    5.315054e-01   1.581749e-02
  4.167815e+00    4.711854e-01   1.497040e-02
  4.170026e+00    5.308156e-01   1.597346e-02
  4.172236e+00    4.494585e-01   1.477792e-02
  4.174447e+00    4.704006e-01   1.520039e-02
  4.176657e+00    4.977729e-01   1.572188e-02
  4.178868e+00    4.755781e-01   1.545438e-02
  4.181078e+00    4.723996e-01   1.548938e-02
  4.183289e+00    5.307803e-01   1.651257e-02
  4.185499e+00    5.063815e-01   1.622386e-02
  4.187710e+00    4.949005e-01   1.613272e-02
  4.189920e+00    4.586262e-01   1.562406e-02
  4.192130e+00    4.915930e-01   1.627433e-02
  4.194341e+00    5.016176e-01   1.654030e-02
  4.196551e+00    4.899811e-01   1.645113e-02
  4.198762e+00    4.233741e-01   1.538908e-02
  4.200972e+00    4.193281e-01   1.541431e-02
  4.203183e+00    4.336922e-01   1.577969e-02
  4.205393e+00    4.442360e-01   1.607656e-02
  4.207604e+00    4.247201e-01   1.582658e-02
  4.209814e+00    4.470666e-01   1.634910e-02
  4.212025e+00    4.552150e-01   1.661417e-02
  4.214235e+00    4.515824e-01   1.666534e-02
  4.216445e+00    4.537615e-01   1.682592e-02
  4.218656e+00    4.811747e-01   1.745696e-02
  4.220866e+00    4.435660e-01   1.688473e-02
  4.223077e+00    4.922697e-01   1.792450e-02
  4.225287e+00    4.409932e-01   1.709844e-02
  4.227498e+00    5.623136e-01   1.945947e-02
  4.229708e+00    5.078429e-01   1.864343e-02
  4.231919e+00    4.212038e-01   1.711898e-02
  4.234129e+00    5.218819e-01   1.921507e-02
  4.236340e+00    5.033119e-01   1.903224e-02
  4.238550e+00    4.702751e-01   1.855910e-02
  4.240761e+00    4.739698e-01   1.879618e-02
  4.242971e+00    4.366199e-01   1.820622e-02
  4.245181e+00    4.530933e-01   1.872019e-02
  4.247392e+00    4.782841e-01   1.941352e-02
  4.249602e+00    4.728141e-01   1.949399e-02
  4.251813e+00    4.851197e-01   1.994030e-02
  4.254023e+00    4.363908e-01   1.910351e-02
  4.256234e+00    4.989791e-01   2.064525e-02
  4.258444e+00    4.421202e-01   1.963696e-02
  4.260655e+00    4.832463e-01   2.075561e-02
  4.262865e+00    4.707586e-01   2.071818e-02
  4.265076e+00    4.605139e-01   2.072443e-02
  4.267286e+00    4.842017e-01   2.150265e-02
  4.269496e+00    4.951858e-01   2.201070e-02
  4.271707e+00    4.683712e-01   2.167084e-02
  4.273917e+00    5.089771e-01   2.288268e-02
  4.276128e+00    5.181845e-01   2.339573e-02
  4.278338e+00    5.751992e-01   2.497783e-02
  4.280549e+00    5.168390e-01   2.401745e-02
  4.282759e+00    5.525012e-01   2.518832e-02
  4.284970e+00    4.733256e-01   2.365886e-02
  4.287180e+00    4.372732e-01   2.301267e-02
  4.289391e+00    5.407858e-01   2.578347e-02
  4.291601e+00    5.476226e-01   2.615402e-02
  4.293811e+00    4.487867e-01   2.386120e-02
  4.296022e+00    5.285882e-01   2.610352e-02
  4.298232e+00    5.244289e-01   2.621919e-02
  4.300443e+00    4.815322e-01   2.533110e-02
  4.302653e+00    5.334487e-01   2.689228e-02
  4.304864e+00    4.979505e-01   2.620761e-02
  4.307074e+00    5.204219e-01   2.703249e-02
  4.309285e+00    4.860277e-01   2.636210e-02
  4.311495e+00    4.520507e-01   2.566153e-02
  4.313706e+00    4.467645e-01   2.575042e-02
  4.315916e+00    4.619361e-01   2.644192e-02
  4.318126e+00    4.403774e-01   2.607246e-02
  4.320337e+00    5.837426e-01   3.032187e-02
  4.322547e+00    4.831349e-01   2.787843e-02
  4.324758e+00    4.093085e-01   2.592701e-02
  4.326968e+00    4.561480e-01   2.767741e-02
  4.329179e+00    4.982793e-01   2.924737e-02
  4.331389e+00    5.072607e-01   2.984961e-02
  4.333600e+00    4.574203e-01   2.868334e-02
  4.335810e+00    4.261117e-01   2.801491e-02
  4.338021e+00    4.607303e-01   2.950197e-02
  4.340231e+00    4.678104e-01   3.010148e-02
  4.342442e+00    4.432104e-01   2.969251e-02
  4.344652e+00    5.105191e-01   3.229908e-02
  4.346862e+00    4.653651e-01   3.127170e-02
  4.349073e+00    4.955534e-01   3.273730e-02
  4.351283e+00    4.732233e-01   3.247065e-02
  4.353494e+00    4.637029e-01   3.263898e-02
  4.355704e+00    4.036442e-01   3.094206e-02
  4.357915e+00    3.981400e-01   3.124159e-02
  4.360125e+00    4.677612e-01   3.444077e-02
  4.362336e+00    4.223429e-01   3.332188e-02
  4.364546e+00    4.892555e-01   3.651898e-02
  4.366757e+00    4.827709e-01   3.699809e-02
  4.368967e+00    5.065122e-01   3.865265e-02
  4.371177e+00    2.724488e-01   2.895106e-02
  4.373388e+00    4.260206e-01   3.701007e-02
  4.375598e+00    4.966288e-01   4.087272e-02
  4.377809e+00    4.813289e-01   4.125650e-02
  4.380019e+00    2.776516e-01   3.212273e-02
  4.382230e+00    4.164789e-01   4.043842e-02
  4.384440e+00    3.622304e-01   3.879842e-02
  4.386651e+00    4.898864e-01   4.651295e-02
  4.388861e+00    2.289967e-01   3.286917e-02
  4.391072e+00    3.024505e-01   3.909860e-02
  4.393282e+00    3.864592e-01   4.590662e-02
  4.395492e+00    5.851728e-01   5.883409e-02
  4.397703e+00    5.403033e-01   5.912457e-02
  4.399913e+00    2.266214e-01   4.022652e-02
  4.402124e+00    5.002426e-01   6.314625e-02
  4.404334e+00    6.871248e-01   7.868150e-02
  4.406545e+00    5.013292e-01   7.220425e-02
  4.408755e+00    7.059256e-01   9.292703e-02
  4.410966e+00    5.836528e-01   9.351823e-02
  4.413176e+00    2.163070e-02   2.041617e-02
  4.415387e+00   -8.221054e-01            nan
  4.417597e+00   -2.044852e+00            nan
  4.419807e+00   -3.766224e-01            nan
