# == pyFAI calibration ==
# Distance Sample to Detector: 0.216 m
# PONI: 1.166e-01, 1.308e-01 m
# Rotations: 0.000000 0.000000 0.000000 rad
# 
# == Fit2d calibration ==
# Distance Sample-beamCenter: 216.000 mm
# Center: x=1744.293, y=1555.000 pix
# Tilt: 0.000 deg  TiltPlanRot: 0.000 deg
# 
# Detector Eiger 9M	 PixelSize= 7.500e-05, 7.500e-05 m
#    Detector has a mask: True 
#    Detector has a dark current: False 
#    detector has a flat field: False 
# 
# Wavelength: 9.8e-11 m
# Mask applied: from detector
# Dark current applied: False
# Flat field applied: False
# Polarization factor: None
# Normalization factor: 1.0
# 
# Headers of the input frame:
# {
# "_array_data.header_convention": "SLS_1.0",
# "_array_data.header_contents": "# Detector: Dectris Eiger 9M, S/N E-18-0102\r\n# Pixel_size 75e-6 m x 75e-6 m\r\n# Silicon sensor, thickness 0.000450 m\r\n# Exposure_time 0.024997 s\r\n# Exposure_period 0.025000 s\r\n# Count_cutoff 62318 counts\r\n# Wavelength 0.980106 A\r\n# Detector_distance 0.215992 m\r\n# Beam_xy (1555, 1744) pixels\r\n# Start_angle 0.000000 deg.\r\n# Angle_increment 0.000000 deg.",
# "Content-Type": "application/octet-stream;",
# "conversions": "x-CBF_BYTE_OFFSET",
# "Content-Transfer-Encoding": "BINARY",
# "X-Binary-Size": "10166634",
# "X-Binary-ID": "1",
# "X-Binary-Element-Type": "signed 32-bit integer",
# "X-Binary-Element-Byte-Order": "LITTLE_ENDIAN",
# "Content-MD5": "qHfIOq2hF10hhlzTAvwK0A==",
# "X-Binary-Number-of-Elements": "10166590",
# "X-Binary-Size-Fastest-Dimension": "3110",
# "X-Binary-Size-Second-Dimension": "3269",
# "X-Binary-Size-Padding": "4095"
# }
# --> H:/Proxima2a_2019-04-05/RAW_DATA/C5_gel17_position5/C5_mesh_1_data.cbf/C5_mesh_1_data.cbf000149.dat
#        q_A^-1              I           sigma 
  1.105228e-03    1.000000e+00   5.411118e-01
  3.315685e-03    1.292930e+00   3.740529e-01
  5.526141e-03    1.234713e+00   2.826540e-01
  7.736597e-03    1.034924e+00   2.186122e-01
  9.947054e-03    1.365668e+00   2.213854e-01
  1.215751e-02    1.270503e+00   1.930885e-01
  1.436797e-02    1.643132e+00   2.019817e-01
  1.657842e-02    1.679631e+00   1.900865e-01
  1.878888e-02    1.778775e+00   1.837486e-01
  2.099934e-02    1.451852e+00   1.570592e-01
  2.320979e-02    1.385663e+00   1.459357e-01
  2.542025e-02    1.374918e+00   1.389146e-01
  2.763070e-02    1.442259e+00   1.364621e-01
  2.984116e-02    1.299477e+00   1.246410e-01
  3.205162e-02    1.322278e+00   1.213243e-01
  3.426207e-02    1.432582e+00   1.221334e-01
  3.647253e-02    1.605006e+00   1.252934e-01
  3.868299e-02    1.450710e+00   1.156740e-01
  4.089344e-02    1.506326e+00   1.146410e-01
  4.310390e-02    1.414425e+00   1.081967e-01
  4.531436e-02    1.448606e+00   1.067925e-01
  4.752481e-02    1.562027e+00   1.082837e-01
  4.973527e-02    1.508700e+00   1.040287e-01
  5.194572e-02    1.447554e+00   9.970576e-02
  5.415618e-02    1.451204e+00   9.776940e-02
  5.636664e-02    1.551242e+00   9.908430e-02
  5.857709e-02    1.712771e+00   1.021326e-01
  6.078755e-02    1.536841e+00   9.496681e-02
  6.299801e-02    1.504864e+00   9.230923e-02
  6.520846e-02    1.538073e+00   9.172742e-02
  6.741892e-02    1.526956e+00   8.988000e-02
  6.962938e-02    1.498035e+00   8.760469e-02
  7.183983e-02    1.483639e+00   8.582943e-02
  7.405029e-02    1.496148e+00   8.489233e-02
  7.626074e-02    1.570869e+00   8.571570e-02
  7.847120e-02    1.474496e+00   8.186454e-02
  8.068166e-02    1.461359e+00   8.037420e-02
  8.289211e-02    1.555189e+00   8.180094e-02
  8.510257e-02    1.611966e+00   8.219160e-02
  8.731303e-02    1.519850e+00   7.878890e-02
  8.952348e-02    1.505148e+00   7.743499e-02
  9.173394e-02    1.571543e+00   7.816224e-02
  9.394439e-02    1.560457e+00   7.696179e-02
  9.615485e-02    1.555131e+00   7.594045e-02
  9.836531e-02    1.562741e+00   7.526376e-02
  1.005758e-01    1.509444e+00   7.315230e-02
  1.027862e-01    1.445395e+00   7.080781e-02
  1.049967e-01    1.509298e+00   7.158918e-02
  1.072071e-01    1.564711e+00   7.213531e-02
  1.094176e-01    1.539352e+00   7.082088e-02
  1.116280e-01    1.511957e+00   6.948794e-02
  1.138385e-01    1.544469e+00   6.954450e-02
  1.160490e-01    1.632285e+00   7.080924e-02
  1.182594e-01    1.651954e+00   7.056420e-02
  1.204699e-01    1.530815e+00   6.730108e-02
  1.226803e-01    1.521086e+00   6.647698e-02
  1.248908e-01    1.472841e+00   6.483201e-02
  1.271012e-01    1.473570e+00   6.428040e-02
  1.293117e-01    1.658779e+00   6.761422e-02
  1.315222e-01    1.724213e+00   6.835158e-02
  1.337326e-01    1.739156e+00   6.807615e-02
  1.359431e-01    1.661107e+00   6.657001e-02
  1.381535e-01    1.680613e+00   6.785852e-02
  1.403640e-01    1.708468e+00   6.871400e-02
  1.425744e-01    1.584321e+00   6.627603e-02
  1.447849e-01    1.577205e+00   6.614225e-02
  1.469953e-01    1.716110e+00   6.895018e-02
  1.492058e-01    1.681222e+00   6.816642e-02
  1.514163e-01    1.570484e+00   6.577379e-02
  1.536267e-01    1.653453e+00   6.735708e-02
  1.558372e-01    1.696335e+00   6.807432e-02
  1.580476e-01    1.623165e+00   6.642841e-02
  1.602581e-01    1.604384e+00   6.587520e-02
  1.624685e-01    1.786613e+00   6.932542e-02
  1.646790e-01    1.713172e+00   6.769070e-02
  1.668895e-01    1.701816e+00   6.727113e-02
  1.690999e-01    1.699051e+00   6.701460e-02
  1.713104e-01    1.761553e+00   6.802432e-02
  1.735208e-01    1.807343e+00   6.868852e-02
  1.757313e-01    1.792719e+00   6.819563e-02
  1.779417e-01    1.807985e+00   6.826205e-02
  1.801522e-01    1.861362e+00   6.904176e-02
  1.823626e-01    1.919394e+00   6.987635e-02
  1.845731e-01    1.969119e+00   7.054646e-02
  1.867836e-01    1.976054e+00   7.043207e-02
  1.889940e-01    2.026764e+00   7.109699e-02
  1.912045e-01    1.923975e+00   6.903933e-02
  1.934149e-01    2.032320e+00   7.071912e-02
  1.956254e-01    2.047951e+00   7.075644e-02
  1.978358e-01    2.049000e+00   7.053199e-02
  2.000463e-01    2.068641e+00   7.063443e-02
  2.022568e-01    1.953661e+00   6.841801e-02
  2.044672e-01    2.009905e+00   6.915815e-02
  2.066777e-01    2.033262e+00   6.932796e-02
  2.088881e-01    2.052094e+00   6.942042e-02
  2.110986e-01    1.889125e+00   6.637847e-02
  2.133090e-01    1.901126e+00   6.637246e-02
  2.155195e-01    1.958023e+00   6.713492e-02
  2.177300e-01    1.944908e+00   6.638407e-02
  2.199404e-01    2.009726e+00   6.570305e-02
  2.221509e-01    2.009842e+00   6.462606e-02
  2.243613e-01    1.982390e+00   6.336951e-02
  2.265718e-01    2.028400e+00   6.339414e-02
  2.287822e-01    2.108819e+00   6.399883e-02
  2.309927e-01    2.160051e+00   6.418151e-02
  2.332031e-01    2.155514e+00   6.356532e-02
  2.354136e-01    2.172986e+00   6.330514e-02
  2.376241e-01    2.207322e+00   6.330813e-02
  2.398345e-01    2.173007e+00   6.234923e-02
  2.420450e-01    2.093236e+00   6.075677e-02
  2.442554e-01    2.189359e+00   6.170803e-02
  2.464659e-01    2.142151e+00   6.062932e-02
  2.486763e-01    2.212831e+00   6.121637e-02
  2.508868e-01    2.180755e+00   6.038773e-02
  2.530973e-01    2.140500e+00   5.945684e-02
  2.553077e-01    2.172165e+00   5.953169e-02
  2.575182e-01    2.163361e+00   5.905944e-02
  2.597286e-01    2.135934e+00   5.834272e-02
  2.619391e-01    2.124960e+00   5.785763e-02
  2.641495e-01    2.145912e+00   5.782038e-02
  2.663600e-01    2.090278e+00   5.675211e-02
  2.685704e-01    2.065613e+00   5.611049e-02
  2.707809e-01    2.022440e+00   5.522629e-02
  2.729914e-01    2.061093e+00   5.546101e-02
  2.752018e-01    2.037609e+00   5.485714e-02
  2.774123e-01    1.960787e+00   5.353818e-02
  2.796227e-01    2.040323e+00   5.434310e-02
  2.818332e-01    2.058969e+00   5.431851e-02
  2.840436e-01    2.037894e+00   5.377785e-02
  2.862541e-01    2.038441e+00   5.352652e-02
  2.884646e-01    1.999393e+00   5.275978e-02
  2.906750e-01    2.071880e+00   5.345299e-02
  2.928855e-01    2.042532e+00   5.282718e-02
  2.950959e-01    1.986413e+00   5.185707e-02
  2.973064e-01    1.990103e+00   5.167193e-02
  2.995168e-01    1.966558e+00   5.113274e-02
  3.017273e-01    1.929373e+00   5.042369e-02
  3.039377e-01    1.993833e+00   5.103465e-02
  3.061482e-01    1.973755e+00   5.055738e-02
  3.083587e-01    1.885161e+00   4.919584e-02
  3.105691e-01    1.926532e+00   4.952027e-02
  3.127796e-01    1.974423e+00   4.992125e-02
  3.149900e-01    1.914684e+00   4.895541e-02
  3.172005e-01    1.905540e+00   4.863868e-02
  3.194109e-01    1.908686e+00   4.847784e-02
  3.216214e-01    1.873165e+00   4.782869e-02
  3.238319e-01    1.963997e+00   4.878053e-02
  3.260423e-01    1.927343e+00   4.813076e-02
  3.282528e-01    1.826559e+00   4.666888e-02
  3.304632e-01    1.902828e+00   4.744874e-02
  3.326737e-01    1.920399e+00   4.748131e-02
  3.348841e-01    1.948705e+00   4.764451e-02
  3.370946e-01    1.870187e+00   4.649916e-02
  3.393050e-01    1.881996e+00   4.646906e-02
  3.415155e-01    1.913250e+00   4.667712e-02
  3.437260e-01    1.917166e+00   4.655172e-02
  3.459364e-01    1.857295e+00   4.564957e-02
  3.481469e-01    1.832078e+00   4.517312e-02
  3.503573e-01    1.832055e+00   4.500828e-02
  3.525678e-01    1.851438e+00   4.508449e-02
  3.547782e-01    1.875645e+00   4.521426e-02
  3.569887e-01    1.860313e+00   4.486953e-02
  3.591992e-01    1.806001e+00   4.405326e-02
  3.614096e-01    1.868463e+00   4.465323e-02
  3.636201e-01    1.823758e+00   4.396080e-02
  3.658305e-01    1.852370e+00   4.415315e-02
  3.680410e-01    1.851970e+00   4.399655e-02
  3.702514e-01    1.830181e+00   4.358988e-02
  3.724619e-01    1.875007e+00   4.397021e-02
  3.746724e-01    1.814710e+00   4.311312e-02
  3.768828e-01    1.850405e+00   4.338856e-02
  3.790933e-01    1.831051e+00   4.302044e-02
  3.813037e-01    1.851748e+00   4.312131e-02
  3.835142e-01    1.836842e+00   4.280638e-02
  3.857246e-01    1.851151e+00   4.283369e-02
  3.879351e-01    1.849214e+00   4.267272e-02
  3.901455e-01    1.812504e+00   4.211254e-02
  3.923560e-01    1.823643e+00   4.210747e-02
  3.945665e-01    1.851739e+00   4.229605e-02
  3.967769e-01    1.832914e+00   4.194871e-02
  3.989874e-01    1.844370e+00   4.194824e-02
  4.011978e-01    1.791676e+00   4.121751e-02
  4.034083e-01    1.789910e+00   4.107070e-02
  4.056187e-01    1.793200e+00   4.098181e-02
  4.078292e-01    1.791491e+00   4.083830e-02
  4.100397e-01    1.776267e+00   4.054026e-02
  4.122501e-01    1.777284e+00   4.043053e-02
  4.144606e-01    1.807365e+00   4.065036e-02
  4.166710e-01    1.755757e+00   3.994665e-02
  4.188815e-01    1.789472e+00   4.020921e-02
  4.210919e-01    1.837964e+00   4.063097e-02
  4.233024e-01    1.873208e+00   4.089803e-02
  4.255128e-01    1.803563e+00   4.001455e-02
  4.277233e-01    1.798478e+00   3.984327e-02
  4.299338e-01    1.825957e+00   4.003099e-02
  4.321442e-01    1.848305e+00   4.015997e-02
  4.343547e-01    1.807312e+00   3.959984e-02
  4.365651e-01    1.815937e+00   3.958142e-02
  4.387756e-01    1.836239e+00   3.969065e-02
  4.409860e-01    1.797906e+00   3.916534e-02
  4.431965e-01    1.863247e+00   3.976044e-02
  4.454070e-01    1.831457e+00   3.931013e-02
  4.476174e-01    1.771181e+00   3.855169e-02
  4.498279e-01    1.760445e+00   3.833010e-02
  4.520383e-01    1.780599e+00   3.844309e-02
  4.542488e-01    1.785542e+00   3.839261e-02
  4.564592e-01    1.797042e+00   3.841273e-02
  4.586697e-01    1.765545e+00   3.797354e-02
  4.608801e-01    1.801501e+00   3.825552e-02
  4.630906e-01    1.771414e+00   3.783428e-02
  4.653011e-01    1.778523e+00   3.781043e-02
  4.675115e-01    1.780589e+00   3.773273e-02
  4.697220e-01    1.729057e+00   3.708540e-02
  4.719324e-01    1.722539e+00   3.691965e-02
  4.741429e-01    1.773685e+00   3.736722e-02
  4.763533e-01    1.737231e+00   3.688645e-02
  4.785638e-01    1.721414e+00   3.662327e-02
  4.807743e-01    1.719728e+00   3.651225e-02
  4.829847e-01    1.729829e+00   3.652680e-02
  4.851952e-01    1.741521e+00   3.655731e-02
  4.874056e-01    1.738136e+00   3.642966e-02
  4.896161e-01    1.744442e+00   3.640518e-02
  4.918265e-01    1.762231e+00   3.649947e-02
  4.940370e-01    1.723423e+00   3.600623e-02
  4.962475e-01    1.730103e+00   3.598683e-02
  4.984579e-01    1.728458e+00   3.588110e-02
  5.006684e-01    1.681440e+00   3.530342e-02
  5.028788e-01    1.665932e+00   3.505508e-02
  5.050893e-01    1.675757e+00   3.507279e-02
  5.072997e-01    1.724677e+00   3.549509e-02
  5.095102e-01    1.734969e+00   3.551561e-02
  5.117206e-01    1.707070e+00   3.514511e-02
  5.139311e-01    1.694700e+00   3.493468e-02
  5.161416e-01    1.674635e+00   3.464518e-02
  5.183520e-01    1.672342e+00   3.453919e-02
  5.205625e-01    1.664553e+00   3.437792e-02
  5.227729e-01    1.697338e+00   3.463386e-02
  5.249834e-01    1.719895e+00   3.478230e-02
  5.271938e-01    1.689159e+00   3.438969e-02
  5.294043e-01    1.702881e+00   3.444937e-02
  5.316148e-01    1.803247e+00   3.536887e-02
  5.338252e-01    1.808590e+00   3.534029e-02
  5.360357e-01    1.800374e+00   3.517963e-02
  5.382461e-01    1.821964e+00   3.530996e-02
  5.404566e-01    1.803337e+00   3.504905e-02
  5.426670e-01    1.796604e+00   3.490473e-02
  5.448775e-01    1.796441e+00   3.482518e-02
  5.470879e-01    1.803398e+00   3.481472e-02
  5.492984e-01    1.844897e+00   3.513473e-02
  5.515089e-01    1.790506e+00   3.453616e-02
  5.537193e-01    1.786451e+00   3.442103e-02
  5.559298e-01    1.834298e+00   3.480242e-02
  5.581402e-01    1.862832e+00   3.499545e-02
  5.603507e-01    1.823459e+00   3.454829e-02
  5.625611e-01    1.795955e+00   3.421233e-02
  5.647716e-01    1.822245e+00   3.438700e-02
  5.669821e-01    1.833981e+00   3.442320e-02
  5.691925e-01    1.769374e+00   3.373887e-02
  5.714030e-01    1.757755e+00   3.355620e-02
  5.736134e-01    1.782561e+00   3.372027e-02
  5.758239e-01    1.799682e+00   3.380951e-02
  5.780343e-01    1.717659e+00   3.296020e-02
  5.802448e-01    1.694954e+00   3.267308e-02
  5.824552e-01    1.685822e+00   3.251659e-02
  5.846657e-01    1.677453e+00   3.236815e-02
  5.868762e-01    1.682014e+00   3.234467e-02
  5.890866e-01    1.646039e+00   3.193051e-02
  5.912971e-01    1.633437e+00   3.174219e-02
  5.935075e-01    1.643848e+00   3.177737e-02
  5.957180e-01    1.671032e+00   3.197331e-02
  5.979284e-01    1.696575e+00   3.215097e-02
  6.001389e-01    1.705136e+00   3.216635e-02
  6.023494e-01    1.696275e+00   3.201755e-02
  6.045598e-01    1.628730e+00   3.130973e-02
  6.067703e-01    1.644653e+00   3.139911e-02
  6.089807e-01    1.696342e+00   3.182460e-02
  6.111912e-01    1.712795e+00   3.191471e-02
  6.134016e-01    1.713902e+00   3.186135e-02
  6.156121e-01    1.695334e+00   3.162531e-02
  6.178226e-01    1.690054e+00   3.151350e-02
  6.200330e-01    1.728043e+00   3.180286e-02
  6.222435e-01    1.719522e+00   3.166150e-02
  6.244539e-01    1.694170e+00   3.136571e-02
  6.266644e-01    1.688340e+00   3.125060e-02
  6.288748e-01    1.733320e+00   3.160252e-02
  6.310853e-01    1.774136e+00   3.191037e-02
  6.332957e-01    1.766168e+00   3.177716e-02
  6.355062e-01    1.730892e+00   3.139711e-02
  6.377167e-01    1.718055e+00   3.122045e-02
  6.399271e-01    1.729359e+00   3.126295e-02
  6.421376e-01    1.758703e+00   3.146689e-02
  6.443480e-01    1.783407e+00   3.162686e-02
  6.465585e-01    1.729470e+00   3.108594e-02
  6.487689e-01    1.720237e+00   3.094428e-02
  6.509794e-01    1.715005e+00   3.083894e-02
  6.531899e-01    1.677113e+00   3.043899e-02
  6.554003e-01    1.662417e+00   3.024837e-02
  6.576108e-01    1.605874e+00   2.967414e-02
  6.598212e-01    1.622543e+00   2.977232e-02
  6.620317e-01    1.642000e+00   2.989480e-02
  6.642421e-01    1.632215e+00   2.975044e-02
  6.664526e-01    1.627095e+00   2.964902e-02
  6.686630e-01    1.632024e+00   2.963899e-02
  6.708735e-01    1.659542e+00   2.983300e-02
  6.730840e-01    1.616530e+00   2.939018e-02
  6.752944e-01    1.599905e+00   2.918548e-02
  6.775049e-01    1.621332e+00   2.932692e-02
  6.797153e-01    1.613017e+00   2.919867e-02
  6.819258e-01    1.611373e+00   2.913114e-02
  6.841362e-01    1.614238e+00   2.910460e-02
  6.863467e-01    1.609579e+00   2.901051e-02
  6.885572e-01    1.652808e+00   2.934482e-02
  6.907676e-01    1.612825e+00   2.893578e-02
  6.929781e-01    1.598769e+00   2.875820e-02
  6.951885e-01    1.581608e+00   2.855279e-02
  6.973990e-01    1.557368e+00   2.828302e-02
  6.996094e-01    1.601415e+00   2.862976e-02
  7.018199e-01    1.574518e+00   2.833848e-02
  7.040303e-01    1.586020e+00   2.839183e-02
  7.062408e-01    1.622977e+00   2.867040e-02
  7.084513e-01    1.677576e+00   2.909798e-02
  7.106617e-01    1.638378e+00   2.870606e-02
  7.128722e-01    1.574910e+00   2.809586e-02
  7.150826e-01    1.614732e+00   2.839979e-02
  7.172931e-01    1.626958e+00   2.845798e-02
  7.195035e-01    1.631815e+00   2.845142e-02
  7.217140e-01    1.626341e+00   2.845393e-02
  7.239245e-01    1.585637e+00   2.832312e-02
  7.261349e-01    1.568031e+00   2.827383e-02
  7.283454e-01    1.580100e+00   2.845495e-02
  7.305558e-01    1.606788e+00   2.874879e-02
  7.327663e-01    1.614985e+00   2.886507e-02
  7.349767e-01    1.595380e+00   2.870581e-02
  7.371872e-01    1.614470e+00   2.886572e-02
  7.393976e-01    1.572120e+00   2.847035e-02
  7.416081e-01    1.634203e+00   2.901060e-02
  7.438186e-01    1.594711e+00   2.851268e-02
  7.460290e-01    1.588303e+00   2.815982e-02
  7.482395e-01    1.567823e+00   2.780689e-02
  7.504499e-01    1.583630e+00   2.781003e-02
  7.526604e-01    1.597000e+00   2.780981e-02
  7.548708e-01    1.610211e+00   2.783419e-02
  7.570813e-01    1.581010e+00   2.752959e-02
  7.592918e-01    1.584243e+00   2.752241e-02
  7.615022e-01    1.565932e+00   2.732921e-02
  7.637127e-01    1.587611e+00   2.748478e-02
  7.659231e-01    1.606990e+00   2.761974e-02
  7.681336e-01    1.551121e+00   2.710399e-02
  7.703440e-01    1.574333e+00   2.727482e-02
  7.725545e-01    1.583315e+00   2.732154e-02
  7.747650e-01    1.635491e+00   2.772913e-02
  7.769754e-01    1.610765e+00   2.746545e-02
  7.791859e-01    1.610920e+00   2.741268e-02
  7.813963e-01    1.609192e+00   2.734488e-02
  7.836068e-01    1.568163e+00   2.694230e-02
  7.858172e-01    1.590459e+00   2.708241e-02
  7.880277e-01    1.616132e+00   2.724820e-02
  7.902381e-01    1.654466e+00   2.751935e-02
  7.924486e-01    1.634872e+00   2.730526e-02
  7.946591e-01    1.629817e+00   2.721426e-02
  7.968695e-01    1.611729e+00   2.701441e-02
  7.990800e-01    1.666053e+00   2.741681e-02
  8.012904e-01    1.650443e+00   2.724088e-02
  8.035009e-01    1.654624e+00   2.722683e-02
  8.057113e-01    1.635807e+00   2.702474e-02
  8.079218e-01    1.655082e+00   2.713660e-02
  8.101323e-01    1.646477e+00   2.701999e-02
  8.123427e-01    1.671374e+00   2.717712e-02
  8.145532e-01    1.655594e+00   2.700223e-02
  8.167636e-01    1.680224e+00   2.715660e-02
  8.189741e-01    1.669680e+00   2.702614e-02
  8.211845e-01    1.659231e+00   2.689628e-02
  8.233950e-01    1.655191e+00   2.681983e-02
  8.256054e-01    1.680171e+00   2.697667e-02
  8.278159e-01    1.652274e+00   2.670763e-02
  8.300264e-01    1.647445e+00   2.662535e-02
  8.322368e-01    1.661592e+00   2.669601e-02
  8.344473e-01    1.670550e+00   2.672408e-02
  8.366577e-01    1.661063e+00   2.660523e-02
  8.388682e-01    1.641717e+00   2.640756e-02
  8.410786e-01    1.689219e+00   2.674417e-02
  8.432891e-01    1.683232e+00   2.665434e-02
  8.454996e-01    1.692070e+00   2.668192e-02
  8.477100e-01    1.680405e+00   2.654759e-02
  8.499205e-01    1.694901e+00   2.661998e-02
  8.521309e-01    1.714311e+00   2.673022e-02
  8.543414e-01    1.716923e+00   2.670886e-02
  8.565518e-01    1.669104e+00   2.629330e-02
  8.587623e-01    1.658347e+00   2.616762e-02
  8.609727e-01    1.636750e+00   2.595636e-02
  8.631832e-01    1.630538e+00   2.586710e-02
  8.653937e-01    1.645855e+00   2.594838e-02
  8.676041e-01    1.650919e+00   2.594905e-02
  8.698146e-01    1.655705e+00   2.594693e-02
  8.720250e-01    1.602918e+00   2.549105e-02
  8.742355e-01    1.619082e+00   2.558025e-02
  8.764459e-01    1.618451e+00   2.553625e-02
  8.786564e-01    1.627763e+00   2.557142e-02
  8.808669e-01    1.634944e+00   2.558893e-02
  8.830773e-01    1.593327e+00   2.522312e-02
  8.852878e-01    1.599890e+00   2.523711e-02
  8.874982e-01    1.622702e+00   2.537950e-02
  8.897087e-01    1.605212e+00   2.520465e-02
  8.919191e-01    1.594079e+00   2.507939e-02
  8.941296e-01    1.611345e+00   2.517744e-02
  8.963401e-01    1.579203e+00   2.488889e-02
  8.985505e-01    1.590722e+00   2.494261e-02
  9.007610e-01    1.597523e+00   2.495919e-02
  9.029714e-01    1.595625e+00   2.490855e-02
  9.051819e-01    1.596126e+00   2.487529e-02
  9.073923e-01    1.600276e+00   2.487104e-02
  9.096028e-01    1.615994e+00   2.495777e-02
  9.118132e-01    1.620970e+00   2.495975e-02
  9.140237e-01    1.567916e+00   2.451161e-02
  9.162342e-01    1.579153e+00   2.456496e-02
  9.184446e-01    1.574554e+00   2.449368e-02
  9.206551e-01    1.613003e+00   2.475520e-02
  9.228655e-01    1.609074e+00   2.468971e-02
  9.250760e-01    1.600815e+00   2.459090e-02
  9.272864e-01    1.633778e+00   2.480821e-02
  9.294969e-01    1.611066e+00   2.459927e-02
  9.317074e-01    1.589665e+00   2.440081e-02
  9.339178e-01    1.614245e+00   2.455513e-02
  9.361283e-01    1.658317e+00   2.485140e-02
  9.383387e-01    1.629765e+00   2.460302e-02
  9.405492e-01    1.657702e+00   2.477834e-02
  9.427596e-01    1.679113e+00   2.490195e-02
  9.449701e-01    1.716541e+00   2.514374e-02
  9.471805e-01    1.703651e+00   2.501369e-02
  9.493910e-01    1.717629e+00   2.508162e-02
  9.516015e-01    1.719098e+00   2.505730e-02
  9.538119e-01    1.730154e+00   2.510331e-02
  9.560224e-01    1.725339e+00   2.503307e-02
  9.582328e-01    1.782109e+00   2.540742e-02
  9.604433e-01    1.807439e+00   2.555116e-02
  9.626537e-01    1.795812e+00   2.543458e-02
  9.648642e-01    1.815617e+00   2.553939e-02
  9.670747e-01    1.907301e+00   2.614020e-02
  9.692851e-01    1.973244e+00   2.655290e-02
  9.714956e-01    1.988399e+00   2.661712e-02
  9.737060e-01    1.937219e+00   2.623782e-02
  9.759165e-01    1.901710e+00   2.595958e-02
  9.781269e-01    1.855506e+00   2.560875e-02
  9.803374e-01    1.803738e+00   2.521404e-02
  9.825478e-01    1.835555e+00   2.540190e-02
  9.847583e-01    1.830843e+00   2.533483e-02
  9.869688e-01    1.840642e+00   2.536852e-02
  9.891792e-01    1.852976e+00   2.541956e-02
  9.913897e-01    1.807901e+00   2.507461e-02
  9.936001e-01    1.773503e+00   2.480241e-02
  9.958106e-01    1.718682e+00   2.438287e-02
  9.980210e-01    1.710170e+00   2.429086e-02
  1.000231e+00    1.650837e+00   2.399651e-02
  1.002442e+00    1.632093e+00   2.398664e-02
  1.004652e+00    1.635062e+00   2.407544e-02
  1.006863e+00    1.594777e+00   2.382634e-02
  1.009073e+00    1.580833e+00   2.375825e-02
  1.011284e+00    1.566687e+00   2.368333e-02
  1.013494e+00    1.587496e+00   2.386374e-02
  1.015705e+00    1.580288e+00   2.383201e-02
  1.017915e+00    1.533757e+00   2.349469e-02
  1.020126e+00    1.551623e+00   2.364712e-02
  1.022336e+00    1.557058e+00   2.370016e-02
  1.024547e+00    1.524204e+00   2.345991e-02
  1.026757e+00    1.537524e+00   2.357054e-02
  1.028967e+00    1.543088e+00   2.362083e-02
  1.031178e+00    1.504953e+00   2.333323e-02
  1.033388e+00    1.503810e+00   2.332938e-02
  1.035599e+00    1.519684e+00   2.345560e-02
  1.037809e+00    1.500212e+00   2.330809e-02
  1.040020e+00    1.505187e+00   2.334794e-02
  1.042230e+00    1.533519e+00   2.356861e-02
  1.044441e+00    1.509120e+00   2.338016e-02
  1.046651e+00    1.484970e+00   2.319250e-02
  1.048862e+00    1.484438e+00   2.318755e-02
  1.051072e+00    1.487300e+00   2.320755e-02
  1.053282e+00    1.477477e+00   2.312984e-02
  1.055493e+00    1.512156e+00   2.339537e-02
  1.057703e+00    1.499909e+00   2.329894e-02
  1.059914e+00    1.472304e+00   2.307931e-02
  1.062124e+00    1.447385e+00   2.287916e-02
  1.064335e+00    1.435362e+00   2.278056e-02
  1.066545e+00    1.464167e+00   2.300203e-02
  1.068756e+00    1.475436e+00   2.308666e-02
  1.070966e+00    1.480405e+00   2.311897e-02
  1.073177e+00    1.468198e+00   2.301741e-02
  1.075387e+00    1.457002e+00   2.292426e-02
  1.077597e+00    1.481060e+00   2.310546e-02
  1.079808e+00    1.539335e+00   2.341951e-02
  1.082018e+00    1.652837e+00   2.406659e-02
  1.084229e+00    2.024169e+00   2.650349e-02
  1.086439e+00    2.797784e+00   3.103809e-02
  1.088650e+00    2.576454e+00   2.968466e-02
  1.090860e+00    2.055705e+00   2.643516e-02
  1.093071e+00    1.679121e+00   2.382453e-02
  1.095281e+00    1.532438e+00   2.270111e-02
  1.097492e+00    1.499947e+00   2.240324e-02
  1.099702e+00    1.487536e+00   2.225811e-02
  1.101912e+00    1.496317e+00   2.227391e-02
  1.104123e+00    1.517486e+00   2.238133e-02
  1.106333e+00    1.553051e+00   2.259584e-02
  1.108544e+00    1.572565e+00   2.269097e-02
  1.110754e+00    1.517721e+00   2.224741e-02
  1.112965e+00    1.473916e+00   2.188273e-02
  1.115175e+00    1.469685e+00   2.180939e-02
  1.117386e+00    1.458854e+00   2.168903e-02
  1.119596e+00    1.447375e+00   2.156517e-02
  1.121807e+00    1.438293e+00   2.145823e-02
  1.124017e+00    1.402507e+00   2.115298e-02
  1.126228e+00    1.412262e+00   2.119056e-02
  1.128438e+00    1.424307e+00   2.124367e-02
  1.130648e+00    1.397607e+00   2.100932e-02
  1.132859e+00    1.409886e+00   2.106687e-02
  1.135069e+00    1.395077e+00   2.092120e-02
  1.137280e+00    1.380706e+00   2.078027e-02
  1.139490e+00    1.391381e+00   2.082733e-02
  1.141701e+00    1.397871e+00   2.084257e-02
  1.143911e+00    1.400585e+00   2.083074e-02
  1.146122e+00    1.381547e+00   2.065666e-02
  1.148332e+00    1.355155e+00   2.042681e-02
  1.150543e+00    1.353286e+00   2.038215e-02
  1.152753e+00    1.367793e+00   2.046036e-02
  1.154963e+00    1.375732e+00   2.048858e-02
  1.157174e+00    1.353896e+00   2.029539e-02
  1.159384e+00    1.367753e+00   2.036918e-02
  1.161595e+00    1.351687e+00   2.021955e-02
  1.163805e+00    1.370948e+00   2.033383e-02
  1.166016e+00    1.366106e+00   2.026847e-02
  1.168226e+00    1.366275e+00   2.024077e-02
  1.170437e+00    1.354075e+00   2.012169e-02
  1.172647e+00    1.366835e+00   2.018737e-02
  1.174858e+00    1.349274e+00   2.002933e-02
  1.177068e+00    1.371989e+00   2.016887e-02
  1.179278e+00    1.368714e+00   2.011614e-02
  1.181489e+00    1.384452e+00   2.020419e-02
  1.183699e+00    1.386251e+00   2.018949e-02
  1.185910e+00    1.349992e+00   1.989600e-02
  1.188120e+00    1.347164e+00   1.984855e-02
  1.190331e+00    1.386848e+00   2.011169e-02
  1.192541e+00    1.361938e+00   1.990282e-02
  1.194752e+00    1.382106e+00   2.002229e-02
  1.196962e+00    1.363646e+00   1.986229e-02
  1.199173e+00    1.348856e+00   1.972776e-02
  1.201383e+00    1.369973e+00   1.985424e-02
  1.203593e+00    1.380894e+00   1.990812e-02
  1.205804e+00    1.359351e+00   1.972622e-02
  1.208014e+00    1.364973e+00   1.973996e-02
  1.210225e+00    1.358874e+00   1.967041e-02
  1.212435e+00    1.341522e+00   1.951970e-02
  1.214646e+00    1.350243e+00   1.955693e-02
  1.216856e+00    1.371746e+00   1.968636e-02
  1.219067e+00    1.357831e+00   1.956174e-02
  1.221277e+00    1.339882e+00   1.940704e-02
  1.223488e+00    1.376231e+00   1.964256e-02
  1.225698e+00    1.367921e+00   1.955608e-02
  1.227909e+00    1.384079e+00   1.964069e-02
  1.230119e+00    1.372994e+00   1.952977e-02
  1.232329e+00    1.336416e+00   1.923728e-02
  1.234540e+00    1.415694e+00   1.976861e-02
  1.236750e+00    1.690514e+00   2.156839e-02
  1.238961e+00    1.998347e+00   2.341732e-02
  1.241171e+00    1.909315e+00   2.286113e-02
  1.243382e+00    1.585329e+00   2.080589e-02
  1.245592e+00    1.435418e+00   1.977288e-02
  1.247803e+00    1.368357e+00   1.928162e-02
  1.250013e+00    1.367204e+00   1.924979e-02
  1.252224e+00    1.376319e+00   1.929039e-02
  1.254434e+00    1.359598e+00   1.914902e-02
  1.256644e+00    1.389214e+00   1.933291e-02
  1.258855e+00    1.372844e+00   1.919522e-02
  1.261065e+00    1.321147e+00   1.880721e-02
  1.263276e+00    1.337749e+00   1.890215e-02
  1.265486e+00    1.342537e+00   1.891315e-02
  1.267697e+00    1.345735e+00   1.891267e-02
  1.269907e+00    1.379869e+00   1.912808e-02
  1.272118e+00    1.343114e+00   1.884912e-02
  1.274328e+00    1.342089e+00   1.881923e-02
  1.276539e+00    1.369941e+00   1.899055e-02
  1.278749e+00    1.340566e+00   1.876366e-02
  1.280959e+00    1.331773e+00   1.867961e-02
  1.283170e+00    1.369101e+00   1.891701e-02
  1.285380e+00    1.362118e+00   1.884616e-02
  1.287591e+00    1.363484e+00   1.883344e-02
  1.289801e+00    1.386781e+00   1.897218e-02
  1.292012e+00    1.353407e+00   1.872536e-02
  1.294222e+00    1.373186e+00   1.884532e-02
  1.296433e+00    1.351144e+00   1.867786e-02
  1.298643e+00    1.344278e+00   1.861390e-02
  1.300854e+00    1.378624e+00   1.883359e-02
  1.303064e+00    1.380968e+00   1.883017e-02
  1.305274e+00    1.392921e+00   1.888971e-02
  1.307485e+00    1.346515e+00   1.855087e-02
  1.309695e+00    1.350185e+00   1.855387e-02
  1.311906e+00    1.377666e+00   1.871982e-02
  1.314116e+00    1.365700e+00   1.861744e-02
  1.316327e+00    1.364442e+00   1.858705e-02
  1.318537e+00    1.388813e+00   1.873011e-02
  1.320748e+00    1.388556e+00   1.870654e-02
  1.322958e+00    1.395313e+00   1.873111e-02
  1.325169e+00    1.376452e+00   1.858288e-02
  1.327379e+00    1.336820e+00   1.829169e-02
  1.329589e+00    1.387374e+00   1.861297e-02
  1.331800e+00    1.397413e+00   1.865915e-02
  1.334010e+00    1.407703e+00   1.870663e-02
  1.336221e+00    1.406733e+00   1.867799e-02
  1.338431e+00    1.389001e+00   1.853873e-02
  1.340642e+00    1.375063e+00   1.851023e-02
  1.342852e+00    1.370068e+00   1.857800e-02
  1.345063e+00    1.368347e+00   1.861615e-02
  1.347273e+00    1.341863e+00   1.847025e-02
  1.349484e+00    1.339913e+00   1.848439e-02
  1.351694e+00    1.368451e+00   1.870306e-02
  1.353905e+00    1.352911e+00   1.861459e-02
  1.356115e+00    1.374385e+00   1.877690e-02
  1.358325e+00    1.358589e+00   1.868207e-02
  1.360536e+00    1.331841e+00   1.850878e-02
  1.362746e+00    1.329648e+00   1.850304e-02
  1.364957e+00    1.342538e+00   1.860014e-02
  1.367167e+00    1.330872e+00   1.852628e-02
  1.369378e+00    1.318021e+00   1.844256e-02
  1.371588e+00    1.314951e+00   1.842615e-02
  1.373799e+00    1.299208e+00   1.831912e-02
  1.376009e+00    1.305107e+00   1.836402e-02
  1.378220e+00    1.323080e+00   1.849254e-02
  1.380430e+00    1.317926e+00   1.845922e-02
  1.382640e+00    1.275842e+00   1.816297e-02
  1.384851e+00    1.278066e+00   1.817966e-02
  1.387061e+00    1.278718e+00   1.818459e-02
  1.389272e+00    1.273635e+00   1.814860e-02
  1.391482e+00    1.303408e+00   1.835882e-02
  1.393693e+00    1.320423e+00   1.847740e-02
  1.395903e+00    1.296563e+00   1.830818e-02
  1.398114e+00    1.311496e+00   1.841192e-02
  1.400324e+00    1.285085e+00   1.822347e-02
  1.402535e+00    1.270778e+00   1.811941e-02
  1.404745e+00    1.286140e+00   1.822624e-02
  1.406955e+00    1.300868e+00   1.832757e-02
  1.409166e+00    1.284053e+00   1.820542e-02
  1.411376e+00    1.278099e+00   1.816003e-02
  1.413587e+00    1.279012e+00   1.816269e-02
  1.415797e+00    1.260361e+00   1.802626e-02
  1.418008e+00    1.264331e+00   1.801284e-02
  1.420218e+00    1.250415e+00   1.776486e-02
  1.422429e+00    1.266980e+00   1.779695e-02
  1.424639e+00    1.255783e+00   1.765379e-02
  1.426850e+00    1.284306e+00   1.779815e-02
  1.429060e+00    1.295376e+00   1.782523e-02
  1.431270e+00    1.277851e+00   1.765980e-02
  1.433481e+00    1.251163e+00   1.743376e-02
  1.435691e+00    1.251182e+00   1.739573e-02
  1.437902e+00    1.284425e+00   1.758865e-02
  1.440112e+00    1.270763e+00   1.745951e-02
  1.442323e+00    1.277722e+00   1.747409e-02
  1.444533e+00    1.281549e+00   1.746754e-02
  1.446744e+00    1.301412e+00   1.757089e-02
  1.448954e+00    1.272798e+00   1.734642e-02
  1.451165e+00    1.288102e+00   1.742042e-02
  1.453375e+00    1.291704e+00   1.741649e-02
  1.455586e+00    1.270782e+00   1.724669e-02
  1.457796e+00    1.277260e+00   1.726299e-02
  1.460006e+00    1.273848e+00   1.721263e-02
  1.462217e+00    1.291788e+00   1.730696e-02
  1.464427e+00    1.312030e+00   1.741600e-02
  1.466638e+00    1.308286e+00   1.736543e-02
  1.468848e+00    1.290169e+00   1.721924e-02
  1.471059e+00    1.272900e+00   1.707848e-02
  1.473269e+00    1.286642e+00   1.714586e-02
  1.475480e+00    1.268728e+00   1.700234e-02
  1.477690e+00    1.249632e+00   1.685022e-02
  1.479901e+00    1.255801e+00   1.686804e-02
  1.482111e+00    1.285015e+00   1.703962e-02
  1.484321e+00    1.281353e+00   1.699210e-02
  1.486532e+00    1.256539e+00   1.680451e-02
  1.488742e+00    1.287854e+00   1.698976e-02
  1.490953e+00    1.261980e+00   1.679566e-02
  1.493163e+00    1.262454e+00   1.677652e-02
  1.495374e+00    1.281536e+00   1.688119e-02
  1.497584e+00    1.268098e+00   1.677075e-02
  1.499795e+00    1.265466e+00   1.673165e-02
  1.502005e+00    1.242356e+00   1.655664e-02
  1.504216e+00    1.254041e+00   1.661331e-02
  1.506426e+00    1.273892e+00   1.672334e-02
  1.508636e+00    1.267274e+00   1.665932e-02
  1.510847e+00    1.258451e+00   1.657940e-02
  1.513057e+00    1.257450e+00   1.654770e-02
  1.515268e+00    1.255669e+00   1.651024e-02
  1.517478e+00    1.262136e+00   1.652748e-02
  1.519689e+00    1.264315e+00   1.651666e-02
  1.521899e+00    1.293440e+00   1.668235e-02
  1.524110e+00    1.294296e+00   1.666722e-02
  1.526320e+00    1.277724e+00   1.654038e-02
  1.528531e+00    1.269608e+00   1.646786e-02
  1.530741e+00    1.253541e+00   1.634415e-02
  1.532951e+00    1.267787e+00   1.641703e-02
  1.535162e+00    1.268228e+00   1.650713e-02
  1.537372e+00    1.230262e+00   1.632460e-02
  1.539583e+00    1.200060e+00   1.615651e-02
  1.541793e+00    1.226205e+00   1.633844e-02
  1.544004e+00    1.237078e+00   1.641097e-02
  1.546214e+00    1.275668e+00   1.666346e-02
  1.548425e+00    1.275646e+00   1.666360e-02
  1.550635e+00    1.220071e+00   1.630615e-02
  1.552846e+00    1.237326e+00   1.643066e-02
  1.555056e+00    1.233295e+00   1.636259e-02
  1.557266e+00    1.246173e+00   1.633727e-02
  1.559477e+00    1.262121e+00   1.638194e-02
  1.561687e+00    1.263249e+00   1.635836e-02
  1.563898e+00    1.266240e+00   1.636041e-02
  1.566108e+00    1.267528e+00   1.635262e-02
  1.568319e+00    1.266040e+00   1.632727e-02
  1.570529e+00    1.263037e+00   1.628255e-02
  1.572740e+00    1.285906e+00   1.640126e-02
  1.574950e+00    1.245947e+00   1.611808e-02
  1.577161e+00    1.259507e+00   1.617992e-02
  1.579371e+00    1.245971e+00   1.606906e-02
  1.581582e+00    1.235913e+00   1.598437e-02
  1.583792e+00    1.249142e+00   1.605162e-02
  1.586002e+00    1.257896e+00   1.609007e-02
  1.588213e+00    1.245584e+00   1.599387e-02
  1.590423e+00    1.273306e+00   1.615058e-02
  1.592634e+00    1.244437e+00   1.594482e-02
  1.594844e+00    1.255488e+00   1.599394e-02
  1.597055e+00    1.252666e+00   1.595540e-02
  1.599265e+00    1.225808e+00   1.576282e-02
  1.601476e+00    1.247233e+00   1.587960e-02
  1.603686e+00    1.241129e+00   1.582095e-02
  1.605897e+00    1.225615e+00   1.570169e-02
  1.608107e+00    1.247277e+00   1.582021e-02
  1.610317e+00    1.233812e+00   1.571532e-02
  1.612528e+00    1.231491e+00   1.568137e-02
  1.614738e+00    1.218101e+00   1.557705e-02
  1.616949e+00    1.229721e+00   1.563216e-02
  1.619159e+00    1.187949e+00   1.534592e-02
  1.621370e+00    1.205259e+00   1.543895e-02
  1.623580e+00    1.208438e+00   1.544103e-02
  1.625791e+00    1.200915e+00   1.537468e-02
  1.628001e+00    1.175049e+00   1.519017e-02
  1.630212e+00    1.168559e+00   1.513057e-02
  1.632422e+00    1.164981e+00   1.508967e-02
  1.634632e+00    1.160674e+00   1.504458e-02
  1.636843e+00    1.175360e+00   1.512194e-02
  1.639053e+00    1.176647e+00   1.511291e-02
  1.641264e+00    1.172464e+00   1.506890e-02
  1.643474e+00    1.169889e+00   1.503492e-02
  1.645685e+00    1.164379e+00   1.498274e-02
  1.647895e+00    1.145976e+00   1.484736e-02
  1.650106e+00    1.130109e+00   1.472735e-02
  1.652316e+00    1.149743e+00   1.483825e-02
  1.654527e+00    1.139659e+00   1.475639e-02
  1.656737e+00    1.123531e+00   1.463513e-02
  1.658947e+00    1.125450e+00   1.463140e-02
  1.661158e+00    1.116607e+00   1.455760e-02
  1.663368e+00    1.097706e+00   1.441804e-02
  1.665579e+00    1.097520e+00   1.440081e-02
  1.667789e+00    1.097225e+00   1.438279e-02
  1.670000e+00    1.093016e+00   1.433982e-02
  1.672210e+00    1.102042e+00   1.438307e-02
  1.674421e+00    1.132994e+00   1.456813e-02
  1.676631e+00    1.124810e+00   1.449941e-02
  1.678842e+00    1.081746e+00   1.420348e-02
  1.681052e+00    1.062657e+00   1.406243e-02
  1.683263e+00    1.077484e+00   1.414514e-02
  1.685473e+00    1.083809e+00   1.417146e-02
  1.687683e+00    1.104146e+00   1.428824e-02
  1.689894e+00    1.082237e+00   1.412999e-02
  1.692104e+00    1.163093e+00   1.463277e-02
  1.694315e+00    1.178428e+00   1.471375e-02
  1.696525e+00    1.119619e+00   1.432643e-02
  1.698736e+00    1.083901e+00   1.408108e-02
  1.700946e+00    1.074040e+00   1.400166e-02
  1.703157e+00    1.071339e+00   1.396929e-02
  1.705367e+00    1.069596e+00   1.394332e-02
  1.707578e+00    1.055186e+00   1.383446e-02
  1.709788e+00    1.045845e+00   1.375897e-02
  1.711998e+00    1.022421e+00   1.358916e-02
  1.714209e+00    1.029247e+00   1.362006e-02
  1.716419e+00    1.036763e+00   1.365542e-02
  1.718630e+00    1.029918e+00   1.359603e-02
  1.720840e+00    1.024570e+00   1.354649e-02
  1.723051e+00    1.030968e+00   1.357484e-02
  1.725261e+00    1.011997e+00   1.343476e-02
  1.727472e+00    9.990499e-01   1.333449e-02
  1.729682e+00    9.886961e-01   1.325193e-02
  1.731893e+00    1.004326e+00   1.334240e-02
  1.734103e+00    1.009618e+00   1.336372e-02
  1.736313e+00    1.005528e+00   1.332262e-02
  1.738524e+00    1.016187e+00   1.337911e-02
  1.740734e+00    1.002958e+00   1.327803e-02
  1.742945e+00    9.842951e-01   1.314054e-02
  1.745155e+00    9.785982e-01   1.308908e-02
  1.747366e+00    9.866186e-01   1.312884e-02
  1.749576e+00    9.771438e-01   1.305202e-02
  1.751787e+00    9.815735e-01   1.306824e-02
  1.753997e+00    9.710596e-01   1.298473e-02
  1.756208e+00    1.007587e+00   1.321329e-02
  1.758418e+00    9.782920e-01   1.300663e-02
  1.760628e+00    9.867691e-01   1.304938e-02
  1.762839e+00    9.867256e-01   1.303574e-02
  1.765049e+00    9.584486e-01   1.283450e-02
  1.767260e+00    9.813157e-01   1.297374e-02
  1.769470e+00    1.040313e+00   1.334448e-02
  1.771681e+00    1.074831e+00   1.355012e-02
  1.773891e+00    1.014968e+00   1.315392e-02
  1.776102e+00    9.615355e-01   1.279000e-02
  1.778312e+00    9.817035e-01   1.291043e-02
  1.780523e+00    1.029758e+00   1.320934e-02
  1.782733e+00    1.026843e+00   1.317740e-02
  1.784944e+00    9.707551e-01   1.279932e-02
  1.787154e+00    9.547476e-01   1.268066e-02
  1.789364e+00    9.392406e-01   1.256473e-02
  1.791575e+00    9.320676e-01   1.250408e-02
  1.793785e+00    9.148273e-01   1.237556e-02
  1.795996e+00    9.129498e-01   1.235037e-02
  1.798206e+00    9.185675e-01   1.237581e-02
  1.800417e+00    8.934696e-01   1.219304e-02
  1.802627e+00    9.136233e-01   1.231786e-02
  1.804838e+00    8.897353e-01   1.214381e-02
  1.807048e+00    8.956290e-01   1.217120e-02
  1.809259e+00    8.922802e-01   1.213495e-02
  1.811469e+00    8.999667e-01   1.217217e-02
  1.813679e+00    9.008394e-01   1.216310e-02
  1.815890e+00    9.011538e-01   1.215047e-02
  1.818100e+00    8.933609e-01   1.208272e-02
  1.820311e+00    8.999296e-01   1.211225e-02
  1.822521e+00    8.865741e-01   1.200721e-02
  1.824732e+00    9.137886e-01   1.217509e-02
  1.826942e+00    9.163944e-01   1.217993e-02
  1.829153e+00    8.829474e-01   1.194391e-02
  1.831363e+00    8.716142e-01   1.185505e-02
  1.833574e+00    8.802987e-01   1.190230e-02
  1.835784e+00    8.652117e-01   1.178852e-02
  1.837994e+00    8.760146e-01   1.185019e-02
  1.840205e+00    8.759218e-01   1.183837e-02
  1.842415e+00    8.775848e-01   1.183781e-02
  1.844626e+00    8.788701e-01   1.183486e-02
  1.846836e+00    8.898297e-01   1.189685e-02
  1.849047e+00    8.610016e-01   1.169099e-02
  1.851257e+00    8.561589e-01   1.164852e-02
  1.853468e+00    8.545985e-01   1.162913e-02
  1.855678e+00    8.815120e-01   1.180184e-02
  1.857889e+00    8.570484e-01   1.162845e-02
  1.860099e+00    8.499330e-01   1.157147e-02
  1.862309e+00    8.556444e-01   1.160178e-02
  1.864520e+00    8.536740e-01   1.157986e-02
  1.866730e+00    8.472505e-01   1.152686e-02
  1.868941e+00    8.489609e-01   1.152758e-02
  1.871151e+00    8.522308e-01   1.153836e-02
  1.873362e+00    8.298099e-01   1.137435e-02
  1.875572e+00    8.522068e-01   1.151588e-02
  1.877783e+00    8.352171e-01   1.138918e-02
  1.879993e+00    8.329993e-01   1.136296e-02
  1.882204e+00    8.399870e-01   1.139967e-02
  1.884414e+00    8.331573e-01   1.134223e-02
  1.886624e+00    8.316446e-01   1.132093e-02
  1.888835e+00    8.347010e-01   1.133080e-02
  1.891045e+00    8.359414e-01   1.132834e-02
  1.893256e+00    8.357930e-01   1.131628e-02
  1.895466e+00    8.298652e-01   1.126495e-02
  1.897677e+00    8.356342e-01   1.129312e-02
  1.899887e+00    8.201842e-01   1.117735e-02
  1.902098e+00    8.302074e-01   1.123459e-02
  1.904308e+00    8.477043e-01   1.134168e-02
  1.906519e+00    8.385645e-01   1.126949e-02
  1.908729e+00    8.264422e-01   1.117713e-02
  1.910940e+00    8.266228e-01   1.116723e-02
  1.913150e+00    8.134727e-01   1.106756e-02
  1.915360e+00    8.258897e-01   1.114104e-02
  1.917571e+00    8.422780e-01   1.124007e-02
  1.919781e+00    8.196426e-01   1.107732e-02
  1.921992e+00    8.165806e-01   1.104601e-02
  1.924202e+00    8.192005e-01   1.105295e-02
  1.926413e+00    8.142189e-01   1.100899e-02
  1.928623e+00    8.109104e-01   1.097609e-02
  1.930834e+00    8.182455e-01   1.101516e-02
  1.933044e+00    7.937538e-01   1.083850e-02
  1.935255e+00    8.122335e-01   1.095359e-02
  1.937465e+00    8.155105e-01   1.096523e-02
  1.939675e+00    8.205235e-01   1.098795e-02
  1.941886e+00    8.119127e-01   1.091981e-02
  1.944096e+00    7.896884e-01   1.075923e-02
  1.946307e+00    7.982988e-01   1.080740e-02
  1.948517e+00    8.176281e-01   1.092690e-02
  1.950728e+00    8.031206e-01   1.081926e-02
  1.952938e+00    7.943965e-01   1.075027e-02
  1.955149e+00    7.913765e-01   1.071961e-02
  1.957359e+00    7.844198e-01   1.066242e-02
  1.959570e+00    7.791722e-01   1.061592e-02
  1.961780e+00    8.012505e-01   1.075532e-02
  1.963990e+00    8.019269e-01   1.074967e-02
  1.966201e+00    7.880142e-01   1.064599e-02
  1.968411e+00    7.715442e-01   1.052410e-02
  1.970622e+00    7.716395e-01   1.051476e-02
  1.972832e+00    7.827387e-01   1.058017e-02
  1.975043e+00    7.703922e-01   1.048645e-02
  1.977253e+00    7.838262e-01   1.056755e-02
  1.979464e+00    8.007513e-01   1.067087e-02
  1.981674e+00    7.972536e-01   1.063721e-02
  1.983885e+00    7.866700e-01   1.055630e-02
  1.986095e+00    7.940427e-01   1.059587e-02
  1.988305e+00    7.924106e-01   1.057501e-02
  1.990516e+00    7.995467e-01   1.061246e-02
  1.992726e+00    7.970201e-01   1.058588e-02
  1.994937e+00    7.896941e-01   1.052693e-02
  1.997147e+00    7.935857e-01   1.054297e-02
  1.999358e+00    8.072402e-01   1.062324e-02
  2.001568e+00    8.005818e-01   1.056834e-02
  2.003779e+00    7.913596e-01   1.049524e-02
  2.005989e+00    7.871932e-01   1.045542e-02
  2.008200e+00    7.946891e-01   1.049337e-02
  2.010410e+00    8.090163e-01   1.057550e-02
  2.012621e+00    7.991170e-01   1.049867e-02
  2.014831e+00    7.966782e-01   1.047094e-02
  2.017041e+00    7.829561e-01   1.036990e-02
  2.019252e+00    7.761769e-01   1.031486e-02
  2.021462e+00    7.717416e-01   1.027580e-02
  2.023673e+00    7.712871e-01   1.026335e-02
  2.025883e+00    7.612644e-01   1.018693e-02
  2.028094e+00    7.710505e-01   1.024251e-02
  2.030304e+00    7.699786e-01   1.022578e-02
  2.032515e+00    7.752643e-01   1.025145e-02
  2.034725e+00    7.719542e-01   1.022002e-02
  2.036936e+00    7.626028e-01   1.014856e-02
  2.039146e+00    7.641628e-01   1.014932e-02
  2.041356e+00    7.693834e-01   1.017421e-02
  2.043567e+00    7.553260e-01   1.007153e-02
  2.045777e+00    7.604455e-01   1.009631e-02
  2.047988e+00    7.710848e-01   1.015724e-02
  2.050198e+00    7.651230e-01   1.010941e-02
  2.052409e+00    7.607555e-01   1.007279e-02
  2.054619e+00    7.755892e-01   1.016305e-02
  2.056830e+00    7.544537e-01   1.001643e-02
  2.059040e+00    7.546499e-01   1.001019e-02
  2.061251e+00    7.535024e-01   9.995309e-03
  2.063461e+00    7.494237e-01   9.960640e-03
  2.065671e+00    7.502782e-01   9.957561e-03
  2.067882e+00    7.553498e-01   9.982137e-03
  2.070092e+00    7.461983e-01   9.912288e-03
  2.072303e+00    7.652079e-01   1.002849e-02
  2.074513e+00    7.642902e-01   1.001306e-02
  2.076724e+00    7.517299e-01   9.920927e-03
  2.078934e+00    7.422588e-01   9.849229e-03
  2.081145e+00    7.367314e-01   9.803438e-03
  2.083355e+00    7.667925e-01   9.992111e-03
  2.085566e+00    7.525620e-01   9.890011e-03
  2.087776e+00    7.333269e-01   9.753314e-03
  2.089986e+00    7.317896e-01   9.734342e-03
  2.092197e+00    7.390850e-01   9.773780e-03
  2.094407e+00    7.349429e-01   9.737129e-03
  2.096618e+00    7.370144e-01   9.741933e-03
  2.098828e+00    7.700459e-01   9.948298e-03
  2.101039e+00    7.696702e-01   9.936707e-03
  2.103249e+00    7.315724e-01   9.678980e-03
  2.105460e+00    7.268173e-01   9.638470e-03
  2.107670e+00    7.310937e-01   9.658021e-03
  2.109881e+00    7.423861e-01   9.723072e-03
  2.112091e+00    7.311835e-01   9.640421e-03
  2.114301e+00    7.356440e-01   9.660918e-03
  2.116512e+00    7.323002e-01   9.630104e-03
  2.118722e+00    7.201443e-01   9.541018e-03
  2.120933e+00    7.254503e-01   9.567211e-03
  2.123143e+00    7.235310e-01   9.545609e-03
  2.125354e+00    7.351037e-01   9.613005e-03
  2.127564e+00    7.353863e-01   9.606033e-03
  2.129775e+00    7.077830e-01   9.415333e-03
  2.131985e+00    7.059322e-01   9.394013e-03
  2.134196e+00    7.005323e-01   9.349496e-03
  2.136406e+00    7.065603e-01   9.380924e-03
  2.138617e+00    7.186495e-01   9.452343e-03
  2.140827e+00    7.206439e-01   9.481631e-03
  2.143037e+00    7.100016e-01   9.456943e-03
  2.145248e+00    7.162669e-01   9.520733e-03
  2.147458e+00    7.061744e-01   9.468589e-03
  2.149669e+00    7.081150e-01   9.493459e-03
  2.151879e+00    7.216998e-01   9.593452e-03
  2.154090e+00    7.095541e-01   9.519759e-03
  2.156300e+00    7.014176e-01   9.471612e-03
  2.158511e+00    6.926606e-01   9.417590e-03
  2.160721e+00    7.057310e-01   9.510846e-03
  2.162932e+00    7.084311e-01   9.532815e-03
  2.165142e+00    7.019624e-01   9.492221e-03
  2.167352e+00    6.875198e-01   9.396954e-03
  2.169563e+00    7.032740e-01   9.505969e-03
  2.171773e+00    7.137001e-01   9.578650e-03
  2.173984e+00    7.154179e-01   9.591624e-03
  2.176194e+00    6.982114e-01   9.476782e-03
  2.178405e+00    6.808332e-01   9.358792e-03
  2.180615e+00    6.828269e-01   9.373139e-03
  2.182826e+00    6.983705e-01   9.479932e-03
  2.185036e+00    6.888093e-01   9.414856e-03
  2.187247e+00    6.946377e-01   9.454546e-03
  2.189457e+00    6.781231e-01   9.341089e-03
  2.191667e+00    6.809285e-01   9.360213e-03
  2.193878e+00    6.873106e-01   9.403396e-03
  2.196088e+00    6.862048e-01   9.395160e-03
  2.198299e+00    6.964029e-01   9.463616e-03
  2.200509e+00    6.775310e-01   9.333465e-03
  2.202720e+00    6.833307e-01   9.372151e-03
  2.204930e+00    6.838574e-01   9.374535e-03
  2.207141e+00    6.877669e-01   9.400165e-03
  2.209351e+00    6.918878e-01   9.426381e-03
  2.211562e+00    7.048041e-01   9.512306e-03
  2.213772e+00    6.999639e-01   9.423194e-03
  2.215982e+00    6.901178e-01   9.311989e-03
  2.218193e+00    6.812563e-01   9.222272e-03
  2.220403e+00    6.861933e-01   9.230819e-03
  2.222614e+00    6.806450e-01   9.172381e-03
  2.224824e+00    6.820646e-01   9.162422e-03
  2.227035e+00    6.962056e-01   9.239171e-03
  2.229245e+00    6.915004e-01   9.190704e-03
  2.231456e+00    6.684000e-01   9.020284e-03
  2.233666e+00    6.704723e-01   9.019181e-03
  2.235877e+00    6.590196e-01   8.927668e-03
  2.238087e+00    6.782039e-01   9.043106e-03
  2.240298e+00    6.736755e-01   8.999068e-03
  2.242508e+00    6.784558e-01   9.015695e-03
  2.244718e+00    6.805341e-01   9.013539e-03
  2.246929e+00    6.881285e-01   9.049078e-03
  2.249139e+00    6.593514e-01   8.845535e-03
  2.251350e+00    6.626145e-01   8.855714e-03
  2.253560e+00    6.710118e-01   8.900047e-03
  2.255771e+00    6.725948e-01   8.899079e-03
  2.257981e+00    6.754128e-01   8.906437e-03
  2.260192e+00    6.762378e-01   8.900664e-03
  2.262402e+00    6.628005e-01   8.800962e-03
  2.264613e+00    6.537450e-01   8.729871e-03
  2.266823e+00    6.543967e-01   8.723892e-03
  2.269033e+00    6.605288e-01   8.754306e-03
  2.271244e+00    6.554844e-01   8.710473e-03
  2.273454e+00    6.661606e-01   8.770837e-03
  2.275665e+00    6.647551e-01   8.751259e-03
  2.277875e+00    6.632668e-01   8.731509e-03
  2.280086e+00    6.541302e-01   8.661176e-03
  2.282296e+00    6.400426e-01   8.558122e-03
  2.284507e+00    6.471781e-01   8.595653e-03
  2.286717e+00    6.548644e-01   8.637102e-03
  2.288928e+00    6.519027e-01   8.607727e-03
  2.291138e+00    6.579621e-01   8.638200e-03
  2.293348e+00    6.575512e-01   8.625957e-03
  2.295559e+00    6.566195e-01   8.610513e-03
  2.297769e+00    6.579579e-01   8.610024e-03
  2.299980e+00    6.600999e-01   8.614630e-03
  2.302190e+00    6.510285e-01   8.546144e-03
  2.304401e+00    6.615077e-01   8.605237e-03
  2.306611e+00    6.574714e-01   8.569728e-03
  2.308822e+00    6.366590e-01   8.424704e-03
  2.311032e+00    6.507739e-01   8.511123e-03
  2.313243e+00    6.513273e-01   8.508449e-03
  2.315453e+00    6.631011e-01   8.577378e-03
  2.317663e+00    6.670480e-01   8.593583e-03
  2.319874e+00    6.593394e-01   8.534989e-03
  2.322084e+00    6.546906e-01   8.495806e-03
  2.324295e+00    6.665212e-01   8.563869e-03
  2.326505e+00    6.547983e-01   8.479104e-03
  2.328716e+00    6.572571e-01   8.486367e-03
  2.330926e+00    6.477824e-01   8.416157e-03
  2.333137e+00    6.452371e-01   8.391191e-03
  2.335347e+00    6.527482e-01   8.430948e-03
  2.337558e+00    6.576410e-01   8.454152e-03
  2.339768e+00    6.398910e-01   8.330709e-03
  2.341979e+00    6.570684e-01   8.433285e-03
  2.344189e+00    6.430569e-01   8.334474e-03
  2.346399e+00    6.493028e-01   8.366250e-03
  2.348610e+00    6.418786e-01   8.309801e-03
  2.350820e+00    6.489246e-01   8.346998e-03
  2.353031e+00    6.317401e-01   8.227491e-03
  2.355241e+00    6.333570e-01   8.229928e-03
  2.357452e+00    6.250154e-01   8.167215e-03
  2.359662e+00    6.396276e-01   8.253819e-03
  2.361873e+00    6.327952e-01   8.201402e-03
  2.364083e+00    6.383262e-01   8.229092e-03
  2.366294e+00    6.368733e-01   8.211589e-03
  2.368504e+00    6.132488e-01   8.049838e-03
  2.370714e+00    6.185904e-01   8.076798e-03
  2.372925e+00    6.286557e-01   8.134190e-03
  2.375135e+00    6.258173e-01   8.107722e-03
  2.377346e+00    6.278117e-01   8.112680e-03
  2.379556e+00    6.127560e-01   8.006965e-03
  2.381767e+00    6.268035e-01   8.090335e-03
  2.383977e+00    6.146863e-01   8.003857e-03
  2.386188e+00    6.119354e-01   7.978065e-03
  2.388398e+00    6.220576e-01   8.035773e-03
  2.390609e+00    6.328028e-01   8.097085e-03
  2.392819e+00    6.200758e-01   8.007444e-03
  2.395029e+00    6.154237e-01   7.969686e-03
  2.397240e+00    6.235116e-01   8.013953e-03
  2.399450e+00    6.147851e-01   7.949876e-03
  2.401661e+00    6.072895e-01   7.893603e-03
  2.403871e+00    5.986199e-01   7.829376e-03
  2.406082e+00    6.005638e-01   7.834707e-03
  2.408292e+00    6.156020e-01   7.924341e-03
  2.410503e+00    6.119946e-01   7.893604e-03
  2.412713e+00    6.043953e-01   7.836658e-03
  2.414924e+00    5.982344e-01   7.789174e-03
  2.417134e+00    6.012350e-01   7.801065e-03
  2.419344e+00    6.004513e-01   7.788599e-03
  2.421555e+00    5.915771e-01   7.723377e-03
  2.423765e+00    5.924755e-01   7.721885e-03
  2.425976e+00    5.981933e-01   7.751252e-03
  2.428186e+00    6.086380e-01   7.811356e-03
  2.430397e+00    6.006278e-01   7.752296e-03
  2.432607e+00    5.979201e-01   7.727500e-03
  2.434818e+00    5.984525e-01   7.723382e-03
  2.437028e+00    5.853583e-01   7.631329e-03
  2.439239e+00    5.981078e-01   7.706292e-03
  2.441449e+00    5.834536e-01   7.604185e-03
  2.443659e+00    5.750902e-01   7.542201e-03
  2.445870e+00    5.894682e-01   7.648172e-03
  2.448080e+00    5.685157e-01   7.545379e-03
  2.450291e+00    5.834458e-01   7.660497e-03
  2.452501e+00    5.759174e-01   7.622103e-03
  2.454712e+00    5.622878e-01   7.539694e-03
  2.456922e+00    5.754296e-01   7.633944e-03
  2.459133e+00    5.788663e-01   7.662199e-03
  2.461343e+00    5.794795e-01   7.670657e-03
  2.463554e+00    5.748463e-01   7.643431e-03
  2.465764e+00    5.720000e-01   7.627646e-03
  2.467975e+00    5.704674e-01   7.619734e-03
  2.470185e+00    5.564724e-01   7.527929e-03
  2.472395e+00    5.573688e-01   7.535218e-03
  2.474606e+00    5.557792e-01   7.526023e-03
  2.476816e+00    5.559730e-01   7.528079e-03
  2.479027e+00    5.462245e-01   7.462633e-03
  2.481237e+00    5.514998e-01   7.498863e-03
  2.483448e+00    5.450497e-01   7.455188e-03
  2.485658e+00    5.418903e-01   7.433392e-03
  2.487869e+00    5.449575e-01   7.454443e-03
  2.490079e+00    5.575525e-01   7.539571e-03
  2.492290e+00    5.334463e-01   7.374365e-03
  2.494500e+00    5.327485e-01   7.368783e-03
  2.496710e+00    5.338633e-01   7.375816e-03
  2.498921e+00    5.299174e-01   7.347516e-03
  2.501131e+00    5.347850e-01   7.380213e-03
  2.503342e+00    5.433263e-01   7.437663e-03
  2.505552e+00    5.466897e-01   7.459490e-03
  2.507763e+00    5.260643e-01   7.316030e-03
  2.509973e+00    5.275736e-01   7.325110e-03
  2.512184e+00    5.190002e-01   7.263754e-03
  2.514394e+00    5.448132e-01   7.432653e-03
  2.516605e+00    5.377318e-01   7.336656e-03
  2.518815e+00    5.232026e-01   7.208616e-03
  2.521025e+00    5.239479e-01   7.192794e-03
  2.523236e+00    5.226277e-01   7.165811e-03
  2.525446e+00    5.184911e-01   7.121889e-03
  2.527657e+00    5.150039e-01   7.083442e-03
  2.529867e+00    5.263460e-01   7.146804e-03
  2.532078e+00    5.328403e-01   7.175621e-03
  2.534288e+00    5.311558e-01   7.150304e-03
  2.536499e+00    5.444275e-01   7.226914e-03
  2.538709e+00    5.304753e-01   7.122659e-03
  2.540920e+00    5.310379e-01   7.115718e-03
  2.543130e+00    5.263819e-01   7.074066e-03
  2.545340e+00    5.402278e-01   7.156279e-03
  2.547551e+00    5.249943e-01   7.044706e-03
  2.549761e+00    5.229867e-01   7.021629e-03
  2.551972e+00    5.136960e-01   6.949700e-03
  2.554182e+00    5.218943e-01   6.995747e-03
  2.556393e+00    5.201480e-01   6.974956e-03
  2.558603e+00    5.381262e-01   7.085225e-03
  2.560814e+00    5.432878e-01   7.110253e-03
  2.563024e+00    5.322222e-01   7.028784e-03
  2.565235e+00    5.172589e-01   6.919779e-03
  2.567445e+00    5.254290e-01   6.964594e-03
  2.569656e+00    5.103650e-01   6.854373e-03
  2.571866e+00    5.105093e-01   6.846032e-03
  2.574076e+00    5.202864e-01   6.901987e-03
  2.576287e+00    5.207031e-01   6.896385e-03
  2.578497e+00    5.118896e-01   6.829970e-03
  2.580708e+00    5.075756e-01   6.793090e-03
  2.582918e+00    5.111526e-01   6.809262e-03
  2.585129e+00    5.020117e-01   6.740443e-03
  2.587339e+00    5.094904e-01   6.782805e-03
  2.589550e+00    5.166160e-01   6.822512e-03
  2.591760e+00    5.158466e-01   6.809646e-03
  2.593971e+00    5.194436e-01   6.825790e-03
  2.596181e+00    5.136459e-01   6.781328e-03
  2.598391e+00    5.128090e-01   6.770628e-03
  2.600602e+00    4.995650e-01   6.676754e-03
  2.602812e+00    5.062388e-01   6.713695e-03
  2.605023e+00    5.090082e-01   6.724855e-03
  2.607233e+00    4.958065e-01   6.630038e-03
  2.609444e+00    5.064000e-01   6.693252e-03
  2.611654e+00    5.107564e-01   6.714638e-03
  2.613865e+00    5.060038e-01   6.676293e-03
  2.616075e+00    5.098954e-01   6.694755e-03
  2.618286e+00    4.921611e-01   6.570401e-03
  2.620496e+00    5.048515e-01   6.647861e-03
  2.622706e+00    5.163335e-01   6.717236e-03
  2.624917e+00    4.989214e-01   6.597192e-03
  2.627127e+00    4.992092e-01   6.593378e-03
  2.629338e+00    4.912765e-01   6.534874e-03
  2.631548e+00    5.118871e-01   6.664320e-03
  2.633759e+00    5.161633e-01   6.684853e-03
  2.635969e+00    5.173619e-01   6.685829e-03
  2.638180e+00    5.148329e-01   6.662394e-03
  2.640390e+00    4.955813e-01   6.530075e-03
  2.642601e+00    5.185010e-01   6.672573e-03
  2.644811e+00    4.951684e-01   6.513704e-03
  2.647021e+00    4.942976e-01   6.501412e-03
  2.649232e+00    5.027487e-01   6.550024e-03
  2.651442e+00    5.093052e-01   6.586032e-03
  2.653653e+00    4.995491e-01   6.515866e-03
  2.655863e+00    4.921178e-01   6.460553e-03
  2.658074e+00    5.047475e-01   6.536285e-03
  2.660284e+00    5.007753e-01   6.504132e-03
  2.662495e+00    5.058271e-01   6.530047e-03
  2.664705e+00    5.003716e-01   6.488160e-03
  2.666916e+00    4.916074e-01   6.424643e-03
  2.669126e+00    4.922485e-01   6.422400e-03
  2.671337e+00    4.928042e-01   6.419464e-03
  2.673547e+00    4.922239e-01   6.409306e-03
  2.675757e+00    5.106130e-01   6.521399e-03
  2.677968e+00    5.007717e-01   6.451679e-03
  2.680178e+00    4.898636e-01   6.374643e-03
  2.682389e+00    4.944227e-01   6.397845e-03
  2.684599e+00    4.856514e-01   6.334692e-03
  2.686810e+00    4.963602e-01   6.397516e-03
  2.689020e+00    4.949755e-01   6.382274e-03
  2.691231e+00    4.939030e-01   6.369066e-03
  2.693441e+00    4.858859e-01   6.311029e-03
  2.695652e+00    4.887259e-01   6.322938e-03
  2.697862e+00    4.911418e-01   6.332205e-03
  2.700072e+00    4.946277e-01   6.348520e-03
  2.702283e+00    4.830727e-01   6.267759e-03
  2.704493e+00    4.924604e-01   6.322042e-03
  2.706704e+00    5.001515e-01   6.364741e-03
  2.708914e+00    4.899828e-01   6.293748e-03
  2.711125e+00    4.844240e-01   6.251710e-03
  2.713335e+00    4.872673e-01   6.263938e-03
  2.715546e+00    4.897698e-01   6.273516e-03
  2.717756e+00    4.889700e-01   6.262501e-03
  2.719967e+00    4.974186e-01   6.310079e-03
  2.722177e+00    4.904310e-01   6.259466e-03
  2.724387e+00    4.806021e-01   6.190333e-03
  2.726598e+00    4.903448e-01   6.246672e-03
  2.728808e+00    4.863152e-01   6.214801e-03
  2.731019e+00    4.936470e-01   6.255293e-03
  2.733229e+00    4.863043e-01   6.202779e-03
  2.735440e+00    4.955554e-01   6.255153e-03
  2.737650e+00    5.021234e-01   6.290334e-03
  2.739861e+00    4.911281e-01   6.214985e-03
  2.742071e+00    4.862915e-01   6.178535e-03
  2.744282e+00    4.844926e-01   6.160824e-03
  2.746492e+00    4.924972e-01   6.205426e-03
  2.748702e+00    4.786214e-01   6.111502e-03
  2.750913e+00    4.769235e-01   6.094876e-03
  2.753123e+00    4.800481e-01   6.108706e-03
  2.755334e+00    4.920748e-01   6.178603e-03
  2.757544e+00    4.876826e-01   6.145192e-03
  2.759755e+00    4.775234e-01   6.074988e-03
  2.761965e+00    4.868960e-01   6.128279e-03
  2.764176e+00    4.778153e-01   6.064899e-03
  2.766386e+00    4.838912e-01   6.097511e-03
  2.768597e+00    4.962411e-01   6.168884e-03
  2.770807e+00    4.847092e-01   6.090866e-03
  2.773017e+00    4.770859e-01   6.036826e-03
  2.775228e+00    4.801792e-01   6.050559e-03
  2.777438e+00    4.861650e-01   6.082319e-03
  2.779649e+00    4.718926e-01   5.986521e-03
  2.781859e+00    4.716571e-01   5.979286e-03
  2.784070e+00    4.810293e-01   6.032515e-03
  2.786280e+00    4.851344e-01   6.052392e-03
  2.788491e+00    4.881446e-01   6.065242e-03
  2.790701e+00    4.847457e-01   6.038392e-03
  2.792912e+00    4.753916e-01   5.973885e-03
  2.795122e+00    4.712501e-01   5.942105e-03
  2.797333e+00    4.811428e-01   5.998552e-03
  2.799543e+00    4.795576e-01   5.982786e-03
  2.801753e+00    4.838823e-01   6.003782e-03
  2.803964e+00    4.781190e-01   5.962250e-03
  2.806174e+00    4.804050e-01   5.970301e-03
  2.808385e+00    4.769381e-01   5.941920e-03
  2.810595e+00    4.690087e-01   5.885479e-03
  2.812806e+00    4.874988e-01   5.993675e-03
  2.815016e+00    4.728819e-01   5.898411e-03
  2.817227e+00    4.602151e-01   5.844420e-03
  2.819437e+00    4.689059e-01   5.910358e-03
  2.821648e+00    4.648992e-01   5.887318e-03
  2.823858e+00    4.755992e-01   5.960043e-03
  2.826068e+00    4.755659e-01   5.964833e-03
  2.828279e+00    4.607260e-01   5.875012e-03
  2.830489e+00    4.591672e-01   5.868356e-03
  2.832700e+00    4.680028e-01   5.927089e-03
  2.834910e+00    4.758582e-01   5.978703e-03
  2.837121e+00    4.660159e-01   5.918262e-03
  2.839331e+00    4.767683e-01   5.987364e-03
  2.841542e+00    4.805152e-01   6.011889e-03
  2.843752e+00    4.669174e-01   5.926982e-03
  2.845963e+00    4.889633e-01   6.065704e-03
  2.848173e+00    4.816452e-01   6.020248e-03
  2.850383e+00    4.694114e-01   5.943572e-03
  2.852594e+00    4.783293e-01   5.999698e-03
  2.854804e+00    4.604152e-01   5.885771e-03
  2.857015e+00    4.697869e-01   5.944929e-03
  2.859225e+00    4.779353e-01   5.996013e-03
  2.861436e+00    4.706403e-01   5.949432e-03
  2.863646e+00    4.654967e-01   5.916862e-03
  2.865857e+00    4.626740e-01   5.899239e-03
  2.868067e+00    4.496697e-01   5.815964e-03
  2.870278e+00    4.604621e-01   5.884971e-03
  2.872488e+00    4.729241e-01   5.962913e-03
  2.874698e+00    4.737512e-01   5.967091e-03
  2.876909e+00    4.641155e-01   5.904749e-03
  2.879119e+00    4.469488e-01   5.792922e-03
  2.881330e+00    4.530790e-01   5.831067e-03
  2.883540e+00    4.618866e-01   5.886068e-03
  2.885751e+00    4.685409e-01   5.926666e-03
  2.887961e+00    4.687680e-01   5.926214e-03
  2.890172e+00    4.583698e-01   5.858510e-03
  2.892382e+00    4.612787e-01   5.875268e-03
  2.894593e+00    4.637262e-01   5.889013e-03
  2.896803e+00    4.554250e-01   5.834096e-03
  2.899014e+00    4.619987e-01   5.874143e-03
  2.901224e+00    4.535174e-01   5.817992e-03
  2.903434e+00    4.574076e-01   5.840946e-03
  2.905645e+00    4.534105e-01   5.813159e-03
  2.907855e+00    4.669770e-01   5.897371e-03
  2.910066e+00    4.676905e-01   5.899787e-03
  2.912276e+00    4.586527e-01   5.840370e-03
  2.914487e+00    4.542345e-01   5.809744e-03
  2.916697e+00    4.616745e-01   5.854886e-03
  2.918908e+00    4.494377e-01   5.774802e-03
  2.921118e+00    4.594008e-01   5.835742e-03
  2.923329e+00    4.566815e-01   5.816141e-03
  2.925539e+00    4.574123e-01   5.818512e-03
  2.927749e+00    4.601923e-01   5.833841e-03
  2.929960e+00    4.681250e-01   5.881101e-03
  2.932170e+00    4.609568e-01   5.833565e-03
  2.934381e+00    4.555094e-01   5.796561e-03
  2.936591e+00    4.588829e-01   5.815385e-03
  2.938802e+00    4.684384e-01   5.872869e-03
  2.941012e+00    4.875467e-01   5.989056e-03
  2.943223e+00    4.723201e-01   5.892045e-03
  2.945433e+00    4.726650e-01   5.890398e-03
  2.947644e+00    4.583314e-01   5.796248e-03
  2.949854e+00    4.583198e-01   5.791890e-03
  2.952064e+00    4.581441e-01   5.786525e-03
  2.954275e+00    4.556242e-01   5.766204e-03
  2.956485e+00    4.587897e-01   5.781973e-03
  2.958696e+00    4.604570e-01   5.788079e-03
  2.960906e+00    4.573623e-01   5.764402e-03
  2.963117e+00    4.555292e-01   5.748344e-03
  2.965327e+00    4.641625e-01   5.798623e-03
  2.967538e+00    4.604478e-01   5.772430e-03
  2.969748e+00    4.722534e-01   5.843108e-03
  2.971959e+00    4.633680e-01   5.784697e-03
  2.974169e+00    4.703415e-01   5.825441e-03
  2.976379e+00    4.602135e-01   5.759454e-03
  2.978590e+00    4.560724e-01   5.730322e-03
  2.980800e+00    4.630878e-01   5.771406e-03
  2.983011e+00    4.805772e-01   5.876491e-03
  2.985221e+00    4.721679e-01   5.821661e-03
  2.987432e+00    4.562195e-01   5.719372e-03
  2.989642e+00    4.604064e-01   5.742898e-03
  2.991853e+00    4.572174e-01   5.719697e-03
  2.994063e+00    4.592536e-01   5.729493e-03
  2.996274e+00    4.626551e-01   5.747438e-03
  2.998484e+00    4.636980e-01   5.751214e-03
  3.000694e+00    4.493393e-01   5.658022e-03
  3.002905e+00    4.635413e-01   5.743743e-03
  3.005115e+00    4.632399e-01   5.738901e-03
  3.007326e+00    4.516765e-01   5.663662e-03
  3.009536e+00    4.420321e-01   5.599657e-03
  3.011747e+00    4.573921e-01   5.693159e-03
  3.013957e+00    4.653510e-01   5.739292e-03
  3.016168e+00    4.561958e-01   5.679269e-03
  3.018378e+00    4.686587e-01   5.753229e-03
  3.020589e+00    4.632187e-01   5.716494e-03
  3.022799e+00    4.538133e-01   5.655004e-03
  3.025010e+00    4.540911e-01   5.653472e-03
  3.027220e+00    4.530858e-01   5.644105e-03
  3.029430e+00    4.610799e-01   5.690402e-03
  3.031641e+00    4.590096e-01   5.674466e-03
  3.033851e+00    4.461029e-01   5.590593e-03
  3.036062e+00    4.626285e-01   5.690407e-03
  3.038272e+00    4.589278e-01   5.663998e-03
  3.040483e+00    4.475012e-01   5.589826e-03
  3.042693e+00    4.613422e-01   5.672310e-03
  3.044904e+00    4.560638e-01   5.635733e-03
  3.047114e+00    4.588084e-01   5.647803e-03
  3.049325e+00    4.600581e-01   5.651066e-03
  3.051535e+00    4.545397e-01   5.612656e-03
  3.053745e+00    4.512418e-01   5.587489e-03
  3.055956e+00    4.685679e-01   5.689104e-03
  3.058166e+00    4.533897e-01   5.591922e-03
  3.060377e+00    4.618709e-01   5.639139e-03
  3.062587e+00    4.532382e-01   5.581565e-03
  3.064798e+00    4.561518e-01   5.595174e-03
  3.067008e+00    4.619310e-01   5.625736e-03
  3.069219e+00    4.538082e-01   5.571497e-03
  3.071429e+00    4.648054e-01   5.635041e-03
  3.073640e+00    4.561448e-01   5.578948e-03
  3.075850e+00    4.577017e-01   5.584828e-03
  3.078060e+00    4.536700e-01   5.557069e-03
  3.080271e+00    4.546869e-01   5.559790e-03
  3.082481e+00    4.536636e-01   5.550061e-03
  3.084692e+00    4.540782e-01   5.549206e-03
  3.086902e+00    4.475670e-01   5.506031e-03
  3.089113e+00    4.594317e-01   5.574915e-03
  3.091323e+00    4.592843e-01   5.570601e-03
  3.093534e+00    4.528716e-01   5.528198e-03
  3.095744e+00    4.617317e-01   5.578572e-03
  3.097955e+00    4.423824e-01   5.456920e-03
  3.100165e+00    4.377006e-01   5.424659e-03
  3.102375e+00    4.435312e-01   5.457263e-03
  3.104586e+00    4.362457e-01   5.408812e-03
  3.106796e+00    4.458204e-01   5.464318e-03
  3.109007e+00    4.482052e-01   5.475696e-03
  3.111217e+00    4.520234e-01   5.495249e-03
  3.113428e+00    4.428241e-01   5.435645e-03
  3.115638e+00    4.434640e-01   5.436349e-03
  3.117849e+00    4.364037e-01   5.389196e-03
  3.120059e+00    4.559386e-01   5.505002e-03
  3.122270e+00    4.451697e-01   5.436340e-03
  3.124480e+00    4.521718e-01   5.475217e-03
  3.126691e+00    4.485312e-01   5.449546e-03
  3.128901e+00    4.457768e-01   5.429666e-03
  3.131111e+00    4.480298e-01   5.439511e-03
  3.133322e+00    4.610334e-01   5.514375e-03
  3.135532e+00    4.473558e-01   5.428553e-03
  3.137743e+00    4.549733e-01   5.471049e-03
  3.139953e+00    4.417305e-01   5.387164e-03
  3.142164e+00    4.465815e-01   5.428727e-03
  3.144374e+00    4.627113e-01   5.554932e-03
  3.146585e+00    4.562716e-01   5.530952e-03
  3.148795e+00    4.488878e-01   5.496864e-03
  3.151006e+00    4.500909e-01   5.512857e-03
  3.153216e+00    4.568166e-01   5.561134e-03
  3.155426e+00    4.528796e-01   5.543536e-03
  3.157637e+00    4.390752e-01   5.463900e-03
  3.159847e+00    4.369156e-01   5.455300e-03
  3.162058e+00    4.332849e-01   5.436984e-03
  3.164268e+00    4.238351e-01   5.381345e-03
  3.166479e+00    4.434336e-01   5.508028e-03
  3.168689e+00    4.484748e-01   5.542651e-03
  3.170900e+00    4.529412e-01   5.573398e-03
  3.173110e+00    4.542245e-01   5.584221e-03
  3.175321e+00    4.373673e-01   5.482126e-03
  3.177531e+00    4.425344e-01   5.517134e-03
  3.179741e+00    4.549602e-01   5.596179e-03
  3.181952e+00    4.414170e-01   5.514392e-03
  3.184162e+00    4.466345e-01   5.549090e-03
  3.186373e+00    4.363149e-01   5.486200e-03
  3.188583e+00    4.543011e-01   5.599970e-03
  3.190794e+00    4.476376e-01   5.560512e-03
  3.193004e+00    4.479860e-01   5.563954e-03
  3.195215e+00    4.394045e-01   5.511903e-03
  3.197425e+00    4.363649e-01   5.494017e-03
  3.199636e+00    4.365698e-01   5.494535e-03
  3.201846e+00    4.323267e-01   5.467184e-03
  3.204056e+00    4.449464e-01   5.547281e-03
  3.206267e+00    4.452791e-01   5.550216e-03
  3.208477e+00    4.223757e-01   5.406532e-03
  3.210688e+00    4.270596e-01   5.437218e-03
  3.212898e+00    4.444706e-01   5.547548e-03
  3.215109e+00    4.333030e-01   5.478182e-03
  3.217319e+00    4.370957e-01   5.502728e-03
  3.219530e+00    4.409606e-01   5.527406e-03
  3.221740e+00    4.376417e-01   5.507130e-03
  3.223951e+00    4.309878e-01   5.465595e-03
  3.226161e+00    4.293928e-01   5.455622e-03
  3.228372e+00    4.350524e-01   5.492030e-03
  3.230582e+00    4.238454e-01   5.420938e-03
  3.232792e+00    4.333997e-01   5.481934e-03
  3.235003e+00    4.359785e-01   5.498459e-03
  3.237213e+00    4.317900e-01   5.472099e-03
  3.239424e+00    4.454513e-01   5.557979e-03
  3.241634e+00    4.288412e-01   5.453506e-03
  3.243845e+00    4.224987e-01   5.413091e-03
  3.246055e+00    4.362039e-01   5.499901e-03
  3.248266e+00    4.314717e-01   5.470215e-03
  3.250476e+00    4.275696e-01   5.445100e-03
  3.252687e+00    4.323463e-01   5.475343e-03
  3.254897e+00    4.304057e-01   5.462951e-03
  3.257107e+00    4.306151e-01   5.463940e-03
  3.259318e+00    4.260391e-01   5.434617e-03
  3.261528e+00    4.271452e-01   5.441500e-03
  3.263739e+00    4.273325e-01   5.442157e-03
  3.265949e+00    4.175298e-01   5.379251e-03
  3.268160e+00    4.208486e-01   5.400152e-03
  3.270370e+00    4.358822e-01   5.495261e-03
  3.272581e+00    4.362921e-01   5.497551e-03
  3.274791e+00    4.433030e-01   5.541016e-03
  3.277002e+00    4.242341e-01   5.419992e-03
  3.279212e+00    4.301294e-01   5.457111e-03
  3.281422e+00    4.174560e-01   5.375540e-03
  3.283633e+00    4.394282e-01   5.514498e-03
  3.285843e+00    4.344807e-01   5.483060e-03
  3.288054e+00    4.189608e-01   5.383271e-03
  3.290264e+00    4.276343e-01   5.438403e-03
  3.292475e+00    4.328325e-01   5.470524e-03
  3.294685e+00    4.233476e-01   5.409602e-03
  3.296896e+00    4.392714e-01   5.509649e-03
  3.299106e+00    4.229063e-01   5.405490e-03
  3.301317e+00    4.284935e-01   5.440034e-03
  3.303527e+00    4.321528e-01   5.462737e-03
  3.305737e+00    4.329101e-01   5.466475e-03
  3.307948e+00    4.474995e-01   5.557137e-03
  3.310158e+00    4.376305e-01   5.494659e-03
  3.312369e+00    4.341868e-01   5.472079e-03
  3.314579e+00    4.216014e-01   5.391309e-03
  3.316790e+00    4.270011e-01   5.425000e-03
  3.319000e+00    4.248149e-01   5.409903e-03
  3.321211e+00    4.303011e-01   5.444112e-03
  3.323421e+00    4.291751e-01   5.435771e-03
  3.325632e+00    4.315732e-01   5.450041e-03
  3.327842e+00    4.403359e-01   5.504146e-03
  3.330052e+00    4.351648e-01   5.470658e-03
  3.332263e+00    4.252125e-01   5.406725e-03
  3.334473e+00    4.337240e-01   5.459635e-03
  3.336684e+00    4.227218e-01   5.388688e-03
  3.338894e+00    4.154197e-01   5.341103e-03
  3.341105e+00    4.117062e-01   5.315971e-03
  3.343315e+00    4.074015e-01   5.286986e-03
  3.345526e+00    4.223531e-01   5.382227e-03
  3.347736e+00    4.193666e-01   5.361750e-03
  3.349947e+00    4.295456e-01   5.425516e-03
  3.352157e+00    4.179547e-01   5.350613e-03
  3.354368e+00    4.200230e-01   5.362562e-03
  3.356578e+00    4.230350e-01   5.380726e-03
  3.358788e+00    4.196553e-01   5.357846e-03
  3.360999e+00    4.246792e-01   5.388567e-03
  3.363209e+00    4.372663e-01   5.466803e-03
  3.365420e+00    4.260083e-01   5.394457e-03
  3.367630e+00    4.308435e-01   5.423934e-03
  3.369841e+00    4.168704e-01   5.333841e-03
  3.372051e+00    4.307827e-01   5.420086e-03
  3.374262e+00    4.239982e-01   5.374795e-03
  3.376472e+00    4.325551e-01   5.426256e-03
  3.378683e+00    4.169136e-01   5.324747e-03
  3.380893e+00    4.197009e-01   5.340169e-03
  3.383103e+00    3.972026e-01   5.192405e-03
  3.385314e+00    4.256749e-01   5.373030e-03
  3.387524e+00    4.116112e-01   5.280824e-03
  3.389735e+00    4.137731e-01   5.292029e-03
  3.391945e+00    4.191601e-01   5.322657e-03
  3.394156e+00    4.249527e-01   5.355041e-03
  3.396366e+00    4.035146e-01   5.214849e-03
  3.398577e+00    4.104378e-01   5.256340e-03
  3.400787e+00    4.123525e-01   5.280529e-03
  3.402998e+00    4.029280e-01   5.257564e-03
  3.405208e+00    4.003563e-01   5.261293e-03
  3.407418e+00    4.029462e-01   5.294096e-03
  3.409629e+00    4.032815e-01   5.310308e-03
  3.411839e+00    3.969517e-01   5.280226e-03
  3.414050e+00    3.880599e-01   5.231600e-03
  3.416260e+00    3.876938e-01   5.238694e-03
  3.418471e+00    3.940056e-01   5.290573e-03
  3.420681e+00    3.815575e-01   5.214726e-03
  3.422892e+00    3.891582e-01   5.274371e-03
  3.425102e+00    3.928505e-01   5.307200e-03
  3.427313e+00    3.920339e-01   5.308893e-03
  3.429523e+00    3.721373e-01   5.179364e-03
  3.431733e+00    3.671355e-01   5.150913e-03
  3.433944e+00    3.821628e-01   5.261721e-03
  3.436154e+00    3.993160e-01   5.384912e-03
  3.438365e+00    3.995760e-01   5.392722e-03
  3.440575e+00    3.870466e-01   5.313500e-03
  3.442786e+00    3.853474e-01   5.307455e-03
  3.444996e+00    3.795545e-01   5.272945e-03
  3.447207e+00    3.566603e-01   5.116605e-03
  3.449417e+00    3.697698e-01   5.250481e-03
  3.451628e+00    3.584725e-01   5.198699e-03
  3.453838e+00    3.708498e-01   5.308904e-03
  3.456049e+00    3.829172e-01   5.419042e-03
  3.458259e+00    3.730914e-01   5.371187e-03
  3.460469e+00    3.722259e-01   5.384898e-03
  3.462680e+00    3.677188e-01   5.371291e-03
  3.464890e+00    3.755917e-01   5.446490e-03
  3.467101e+00    3.797279e-01   5.494174e-03
  3.469311e+00    3.785870e-01   5.502645e-03
  3.471522e+00    3.796942e-01   5.527178e-03
  3.473732e+00    4.067371e-01   5.737138e-03
  3.475943e+00    3.974944e-01   5.687612e-03
  3.478153e+00    4.031886e-01   5.743915e-03
  3.480364e+00    4.195557e-01   5.875016e-03
  3.482574e+00    4.156953e-01   5.863471e-03
  3.484784e+00    4.246479e-01   5.941393e-03
  3.486995e+00    4.315293e-01   6.004739e-03
  3.489205e+00    4.228385e-01   5.958640e-03
  3.491416e+00    4.277203e-01   6.007813e-03
  3.493626e+00    4.379189e-01   6.093691e-03
  3.495837e+00    4.601928e-01   6.261812e-03
  3.498047e+00    4.578010e-01   6.260217e-03
  3.500258e+00    4.700774e-01   6.358481e-03
  3.502468e+00    4.779229e-01   6.426128e-03
  3.504679e+00    4.610217e-01   6.325962e-03
  3.506889e+00    4.607051e-01   6.338139e-03
  3.509099e+00    4.761705e-01   6.458073e-03
  3.511310e+00    4.876069e-01   6.549830e-03
  3.513520e+00    4.693499e-01   6.440243e-03
  3.515731e+00    4.893375e-01   6.590368e-03
  3.517941e+00    4.977742e-01   6.661419e-03
  3.520152e+00    4.985168e-01   6.680768e-03
  3.522362e+00    5.070328e-01   6.752161e-03
  3.524573e+00    5.036752e-01   6.743993e-03
  3.526783e+00    5.200627e-01   6.866313e-03
  3.528994e+00    5.378601e-01   6.995301e-03
  3.531204e+00    5.295856e-01   6.953835e-03
  3.533414e+00    5.444500e-01   7.063061e-03
  3.535625e+00    5.352619e-01   7.015680e-03
  3.537835e+00    5.363027e-01   7.034604e-03
  3.540046e+00    5.445626e-01   7.097595e-03
  3.542256e+00    5.559334e-01   7.178987e-03
  3.544467e+00    5.523438e-01   7.163542e-03
  3.546677e+00    5.367821e-01   7.069462e-03
  3.548888e+00    5.332372e-01   7.053551e-03
  3.551098e+00    5.529988e-01   7.190463e-03
  3.553309e+00    5.580972e-01   7.231884e-03
  3.555519e+00    5.505743e-01   7.194419e-03
  3.557729e+00    5.594262e-01   7.264002e-03
  3.559940e+00    5.422715e-01   7.163406e-03
  3.562150e+00    5.279538e-01   7.079775e-03
  3.564361e+00    5.286916e-01   7.097982e-03
  3.566571e+00    5.464199e-01   7.229937e-03
  3.568782e+00    5.437817e-01   7.226711e-03
  3.570992e+00    5.392499e-01   7.210314e-03
  3.573203e+00    5.470759e-01   7.276752e-03
  3.575413e+00    5.445526e-01   7.273839e-03
  3.577624e+00    5.356786e-01   7.228431e-03
  3.579834e+00    5.475747e-01   7.322280e-03
  3.582045e+00    5.404234e-01   7.288420e-03
  3.584255e+00    5.323385e-01   7.247686e-03
  3.586465e+00    5.423987e-01   7.329870e-03
  3.588676e+00    5.567824e-01   7.440875e-03
  3.590886e+00    5.396734e-01   7.339447e-03
  3.593097e+00    5.489671e-01   7.417018e-03
  3.595307e+00    5.521711e-01   7.452786e-03
  3.597518e+00    5.426755e-01   7.402763e-03
  3.599728e+00    5.449129e-01   7.432171e-03
  3.601939e+00    5.452600e-01   7.448773e-03
  3.604149e+00    5.502882e-01   7.497629e-03
  3.606360e+00    5.360876e-01   7.414420e-03
  3.608570e+00    5.561005e-01   7.565921e-03
  3.610780e+00    5.592291e-01   7.598566e-03
  3.612991e+00    5.678606e-01   7.667251e-03
  3.615201e+00    5.691102e-01   7.685789e-03
  3.617412e+00    5.578022e-01   7.616513e-03
  3.619622e+00    5.582385e-01   7.625555e-03
  3.621833e+00    5.331841e-01   7.459167e-03
  3.624043e+00    5.427529e-01   7.535367e-03
  3.626254e+00    5.593760e-01   7.659844e-03
  3.628464e+00    5.309646e-01   7.473741e-03
  3.630675e+00    5.343103e-01   7.511340e-03
  3.632885e+00    5.267003e-01   7.472026e-03
  3.635095e+00    5.380244e-01   7.566349e-03
  3.637306e+00    5.642495e-01   7.763360e-03
  3.639516e+00    5.520072e-01   7.693471e-03
  3.641727e+00    5.515960e-01   7.705400e-03
  3.643937e+00    5.366440e-01   7.614848e-03
  3.646148e+00    5.635170e-01   7.818211e-03
  3.648358e+00    5.536090e-01   7.764316e-03
  3.650569e+00    5.301984e-01   7.613099e-03
  3.652779e+00    5.407643e-01   7.703420e-03
  3.654990e+00    5.521930e-01   7.799564e-03
  3.657200e+00    5.597313e-01   7.867892e-03
  3.659410e+00    5.446404e-01   7.776284e-03
  3.661621e+00    5.398825e-01   7.757445e-03
  3.663831e+00    5.302341e-01   7.702908e-03
  3.666042e+00    5.389050e-01   7.780879e-03
  3.668252e+00    5.460788e-01   7.847946e-03
  3.670463e+00    5.508394e-01   7.897640e-03
  3.672673e+00    5.479960e-01   7.892855e-03
  3.674884e+00    5.358465e-01   7.820367e-03
  3.677094e+00    5.406117e-01   7.870703e-03
  3.679305e+00    5.481266e-01   7.941073e-03
  3.681515e+00    5.282494e-01   7.811310e-03
  3.683726e+00    5.292481e-01   7.834491e-03
  3.685936e+00    5.489866e-01   7.995240e-03
  3.688146e+00    5.335839e-01   7.898166e-03
  3.690357e+00    5.133785e-01   7.762922e-03
  3.692567e+00    5.229555e-01   7.851019e-03
  3.694778e+00    5.208077e-01   7.850848e-03
  3.696988e+00    5.173080e-01   7.840306e-03
  3.699199e+00    4.996512e-01   7.721127e-03
  3.701409e+00    5.223315e-01   7.910771e-03
  3.703620e+00    5.349984e-01   8.022574e-03
  3.705830e+00    5.395623e-01   8.073371e-03
  3.708041e+00    5.174468e-01   7.922719e-03
  3.710251e+00    5.165710e-01   7.932548e-03
  3.712461e+00    5.226111e-01   7.995566e-03
  3.714672e+00    5.113853e-01   7.925787e-03
  3.716882e+00    5.351669e-01   8.124878e-03
  3.719093e+00    5.319487e-01   8.117793e-03
  3.721303e+00    5.092714e-01   7.959658e-03
  3.723514e+00    5.140349e-01   8.013980e-03
  3.725724e+00    5.127907e-01   8.021284e-03
  3.727935e+00    5.134776e-01   8.044093e-03
  3.730145e+00    5.022804e-01   7.972978e-03
  3.732356e+00    5.155109e-01   8.094814e-03
  3.734566e+00    5.140982e-01   8.101214e-03
  3.736776e+00    5.284744e-01   8.231725e-03
  3.738987e+00    5.088345e-01   8.094954e-03
  3.741197e+00    5.143560e-01   8.156787e-03
  3.743408e+00    5.223643e-01   8.238243e-03
  3.745618e+00    5.141279e-01   8.191357e-03
  3.747829e+00    5.254028e-01   8.299052e-03
  3.750039e+00    5.004862e-01   8.118059e-03
  3.752250e+00    5.070051e-01   8.189117e-03
  3.754460e+00    4.997151e-01   8.148418e-03
  3.756671e+00    5.192319e-01   8.324969e-03
  3.758881e+00    5.101042e-01   8.270161e-03
  3.761091e+00    4.969227e-01   8.181508e-03
  3.763302e+00    5.023590e-01   8.245127e-03
  3.765512e+00    5.230101e-01   8.432422e-03
  3.767723e+00    5.278671e-01   8.491182e-03
  3.769933e+00    5.299005e-01   8.527394e-03
  3.772144e+00    5.317863e-01   8.562557e-03
  3.774354e+00    5.203536e-01   8.490182e-03
  3.776565e+00    5.158659e-01   8.473547e-03
  3.778775e+00    5.206648e-01   8.533090e-03
  3.780986e+00    5.301965e-01   8.631755e-03
  3.783196e+00    5.110108e-01   8.494472e-03
  3.785407e+00    5.130139e-01   8.531741e-03
  3.787617e+00    5.388436e-01   8.765408e-03
  3.789827e+00    5.045803e-01   8.502694e-03
  3.792038e+00    5.237948e-01   8.684373e-03
  3.794248e+00    5.154139e-01   8.636074e-03
  3.796459e+00    4.996958e-01   8.524686e-03
  3.798669e+00    5.229454e-01   8.742583e-03
  3.800880e+00    5.066963e-01   8.627277e-03
  3.803090e+00    4.996085e-01   8.588551e-03
  3.805301e+00    4.893245e-01   8.521502e-03
  3.807511e+00    5.161187e-01   8.774076e-03
  3.809722e+00    5.114301e-01   8.756618e-03
  3.811932e+00    5.153866e-01   8.812984e-03
  3.814142e+00    5.064203e-01   8.759082e-03
  3.816353e+00    5.075637e-01   8.791939e-03
  3.818563e+00    5.298833e-01   9.006971e-03
  3.820774e+00    5.409108e-01   9.124382e-03
  3.822984e+00    4.995022e-01   8.791653e-03
  3.825195e+00    5.112417e-01   8.918321e-03
  3.827405e+00    5.022134e-01   8.863243e-03
  3.829616e+00    4.928466e-01   8.804123e-03
  3.831826e+00    4.875425e-01   8.780545e-03
  3.834037e+00    5.111592e-01   9.015573e-03
  3.836247e+00    4.843332e-01   8.800196e-03
  3.838457e+00    4.803064e-01   8.788124e-03
  3.840668e+00    5.051528e-01   9.038011e-03
  3.842878e+00    5.016416e-01   9.032172e-03
  3.845089e+00    5.253162e-01   9.269169e-03
  3.847299e+00    5.370582e-01   9.399091e-03
  3.849510e+00    5.459087e-01   9.503310e-03
  3.851720e+00    5.305645e-01   9.391023e-03
  3.853931e+00    5.087343e-01   9.215024e-03
  3.856141e+00    5.144603e-01   9.286186e-03
  3.858352e+00    5.071307e-01   9.239261e-03
  3.860562e+00    5.082894e-01   9.269351e-03
  3.862772e+00    5.095546e-01   9.300814e-03
  3.864983e+00    4.942476e-01   9.179714e-03
  3.867193e+00    5.135248e-01   9.377207e-03
  3.869404e+00    4.927036e-01   9.204948e-03
  3.871614e+00    4.935527e-01   9.232820e-03
  3.873825e+00    4.979074e-01   9.293883e-03
  3.876035e+00    5.381088e-01   9.683289e-03
  3.878246e+00    5.105820e-01   9.458617e-03
  3.880456e+00    4.963814e-01   9.355331e-03
  3.882667e+00    4.681980e-01   9.114407e-03
  3.884877e+00    4.816695e-01   9.273994e-03
  3.887087e+00    5.205278e-01   9.671678e-03
  3.889298e+00    4.901539e-01   9.415620e-03
  3.891508e+00    5.010560e-01   9.550529e-03
  3.893719e+00    5.077736e-01   9.645957e-03
  3.895929e+00    4.729482e-01   9.340122e-03
  3.898140e+00    4.943638e-01   9.581046e-03
  3.900350e+00    5.027986e-01   9.694947e-03
  3.902561e+00    4.861737e-01   9.565642e-03
  3.904771e+00    5.114346e-01   9.844426e-03
  3.906982e+00    5.190938e-01   9.952054e-03
  3.909192e+00    5.224857e-01   1.001906e-02
  3.911403e+00    5.162044e-01   9.993743e-03
  3.913613e+00    4.804448e-01   9.675284e-03
  3.915823e+00    4.958400e-01   9.864108e-03
  3.918034e+00    4.772134e-01   9.711962e-03
  3.920244e+00    4.846439e-01   9.822838e-03
  3.922455e+00    4.838120e-01   9.850413e-03
  3.924665e+00    4.786672e-01   9.833852e-03
  3.926876e+00    4.819052e-01   9.903993e-03
  3.929086e+00    4.992959e-01   1.011893e-02
  3.931297e+00    5.142267e-01   1.030482e-02
  3.933507e+00    4.956481e-01   1.014619e-02
  3.935718e+00    4.977719e-01   1.019691e-02
  3.937928e+00    4.850434e-01   1.009512e-02
  3.940138e+00    4.870841e-01   1.014557e-02
  3.942349e+00    4.836667e-01   1.013976e-02
  3.944559e+00    4.916760e-01   1.025351e-02
  3.946770e+00    4.797440e-01   1.015821e-02
  3.948980e+00    5.037917e-01   1.044102e-02
  3.951191e+00    4.803220e-01   1.022556e-02
  3.953401e+00    4.822026e-01   1.027672e-02
  3.955612e+00    5.004901e-01   1.050196e-02
  3.957822e+00    4.902622e-01   1.042594e-02
  3.960033e+00    4.804223e-01   1.035311e-02
  3.962243e+00    5.071728e-01   1.067106e-02
  3.964453e+00    4.736397e-01   1.034503e-02
  3.966664e+00    4.880078e-01   1.053413e-02
  3.968874e+00    4.663019e-01   1.032513e-02
  3.971085e+00    4.701703e-01   1.038930e-02
  3.973295e+00    4.979862e-01   1.071403e-02
  3.975506e+00    4.940021e-01   1.069287e-02
  3.977716e+00    5.146085e-01   1.093622e-02
  3.979927e+00    4.839155e-01   1.062726e-02
  3.982137e+00    4.871844e-01   1.068538e-02
  3.984348e+00    4.749919e-01   1.057309e-02
  3.986558e+00    4.921947e-01   1.078542e-02
  3.988768e+00    4.892431e-01   1.077615e-02
  3.990979e+00    4.761477e-01   1.065335e-02
  3.993189e+00    4.986329e-01   1.092549e-02
  3.995400e+00    4.955488e-01   1.091544e-02
  3.997610e+00    4.878389e-01   1.086006e-02
  3.999821e+00    5.168727e-01   1.121727e-02
  4.002031e+00    4.975919e-01   1.104508e-02
  4.004242e+00    5.027049e-01   1.114085e-02
  4.006452e+00    4.956020e-01   1.110152e-02
  4.008663e+00    5.140958e-01   1.134809e-02
  4.010873e+00    5.187641e-01   1.144087e-02
  4.013084e+00    5.186963e-01   1.148244e-02
  4.015294e+00    4.859751e-01   1.115546e-02
  4.017504e+00    4.949078e-01   1.129973e-02
  4.019715e+00    4.726183e-01   1.108437e-02
  4.021925e+00    5.188811e-01   1.165872e-02
  4.024136e+00    4.645803e-01   1.107469e-02
  4.026346e+00    4.610297e-01   1.107528e-02
  4.028557e+00    4.642011e-01   1.115676e-02
  4.030767e+00    4.904261e-01   1.151347e-02
  4.032978e+00    4.877726e-01   1.152887e-02
  4.035188e+00    4.729764e-01   1.139827e-02
  4.037399e+00    4.877462e-01   1.162264e-02
  4.039609e+00    5.118536e-01   1.195563e-02
  4.041819e+00    4.822167e-01   1.165293e-02
  4.044030e+00    5.027286e-01   1.194910e-02
  4.046240e+00    4.722994e-01   1.163118e-02
  4.048451e+00    4.690455e-01   1.164122e-02
  4.050661e+00    4.561117e-01   1.152963e-02
  4.052872e+00    4.514979e-01   1.152214e-02
  4.055082e+00    4.643611e-01   1.173755e-02
  4.057293e+00    5.129125e-01   1.239129e-02
  4.059503e+00    4.831187e-01   1.208091e-02
  4.061714e+00    4.622174e-01   1.187188e-02
  4.063924e+00    4.606713e-01   1.190750e-02
  4.066134e+00    4.753309e-01   1.215233e-02
  4.068345e+00    4.841545e-01   1.232381e-02
  4.070555e+00    5.065193e-01   1.266604e-02
  4.072766e+00    4.693654e-01   1.225267e-02
  4.074976e+00    4.589257e-01   1.217604e-02
  4.077187e+00    4.831655e-01   1.255560e-02
  4.079397e+00    4.786509e-01   1.256064e-02
  4.081608e+00    5.002149e-01   1.290715e-02
  4.083818e+00    4.411302e-01   1.218423e-02
  4.086029e+00    4.656474e-01   1.258384e-02
  4.088239e+00    4.575770e-01   1.254188e-02
  4.090449e+00    4.689263e-01   1.276493e-02
  4.092660e+00    5.077701e-01   1.335640e-02
  4.094870e+00    5.073245e-01   1.342475e-02
  4.097081e+00    4.801842e-01   1.313227e-02
  4.099291e+00    5.100330e-01   1.359021e-02
  4.101502e+00    4.670322e-01   1.305345e-02
  4.103712e+00    4.915683e-01   1.344165e-02
  4.105923e+00    4.835077e-01   1.338266e-02
  4.108133e+00    4.820946e-01   1.341459e-02
  4.110344e+00    5.037827e-01   1.376547e-02
  4.112554e+00    4.794416e-01   1.348201e-02
  4.114764e+00    4.369366e-01   1.292195e-02
  4.116975e+00    5.141302e-01   1.407238e-02
  4.119185e+00    4.857717e-01   1.373446e-02
  4.121396e+00    4.815443e-01   1.373091e-02
  4.123606e+00    4.951281e-01   1.398023e-02
  4.125817e+00    4.590775e-01   1.351824e-02
  4.128027e+00    5.095022e-01   1.430114e-02
  4.130238e+00    5.093123e-01   1.436003e-02
  4.132448e+00    4.821307e-01   1.403210e-02
  4.134659e+00    4.735342e-01   1.396636e-02
  4.136869e+00    4.889073e-01   1.425428e-02
  4.139080e+00    5.269378e-01   1.486516e-02
  4.141290e+00    4.901632e-01   1.440076e-02
  4.143500e+00    4.901647e-01   1.446689e-02
  4.145711e+00    4.733879e-01   1.428385e-02
  4.147921e+00    4.761250e-01   1.439060e-02
  4.150132e+00    4.728732e-01   1.440994e-02
  4.152342e+00    4.785543e-01   1.456624e-02
  4.154553e+00    4.775875e-01   1.462096e-02
  4.156763e+00    5.078611e-01   1.515171e-02
  4.158974e+00    4.821070e-01   1.483690e-02
  4.161184e+00    5.080075e-01   1.530559e-02
  4.163395e+00    4.984251e-01   1.523803e-02
  4.165605e+00    4.984030e-01   1.531687e-02
  4.167815e+00    5.357036e-01   1.596262e-02
  4.170026e+00    5.074044e-01   1.561718e-02
  4.172236e+00    5.209219e-01   1.590932e-02
  4.174447e+00    5.110997e-01   1.584430e-02
  4.176657e+00    4.948632e-01   1.567590e-02
  4.178868e+00    5.065459e-01   1.594978e-02
  4.181078e+00    4.985833e-01   1.591269e-02
  4.183289e+00    5.162110e-01   1.628440e-02
  4.185499e+00    5.072070e-01   1.623703e-02
  4.187710e+00    5.121350e-01   1.641137e-02
  4.189920e+00    4.527771e-01   1.552397e-02
  4.192130e+00    4.654565e-01   1.583578e-02
  4.194341e+00    4.612557e-01   1.586099e-02
  4.196551e+00    4.660276e-01   1.604363e-02
  4.198762e+00    5.197256e-01   1.705065e-02
  4.200972e+00    4.984410e-01   1.680566e-02
  4.203183e+00    4.471629e-01   1.602279e-02
  4.205393e+00    4.495377e-01   1.617213e-02
  4.207604e+00    4.722720e-01   1.668915e-02
  4.209814e+00    4.609062e-01   1.660028e-02
  4.212025e+00    5.074591e-01   1.754181e-02
  4.214235e+00    4.490698e-01   1.661863e-02
  4.216445e+00    4.757073e-01   1.722821e-02
  4.218656e+00    4.082077e-01   1.607890e-02
  4.220866e+00    4.961276e-01   1.785724e-02
  4.223077e+00    5.069782e-01   1.819022e-02
  4.225287e+00    4.463964e-01   1.720316e-02
  4.227498e+00    4.677860e-01   1.774852e-02
  4.229708e+00    4.710693e-01   1.795547e-02
  4.231919e+00    4.741763e-01   1.816375e-02
  4.234129e+00    5.308453e-01   1.937974e-02
  4.236340e+00    4.761704e-01   1.851148e-02
  4.238550e+00    4.800531e-01   1.875109e-02
  4.240761e+00    5.025980e-01   1.935557e-02
  4.242971e+00    5.017979e-01   1.951775e-02
  4.245181e+00    4.935451e-01   1.953812e-02
  4.247392e+00    4.877360e-01   1.960420e-02
  4.249602e+00    5.070089e-01   2.018644e-02
  4.251813e+00    4.905436e-01   2.005201e-02
  4.254023e+00    4.279850e-01   1.891814e-02
  4.256234e+00    5.178784e-01   2.103262e-02
  4.258444e+00    4.731051e-01   2.031351e-02
  4.260655e+00    4.485128e-01   1.999611e-02
  4.262865e+00    4.629753e-01   2.054575e-02
  4.265076e+00    4.755168e-01   2.105942e-02
  4.267286e+00    4.614610e-01   2.099177e-02
  4.269496e+00    4.570895e-01   2.114719e-02
  4.271707e+00    4.483342e-01   2.120207e-02
  4.273917e+00    4.931814e-01   2.252473e-02
  4.276128e+00    5.259106e-01   2.356966e-02
  4.278338e+00    4.349190e-01   2.172005e-02
  4.280549e+00    4.461150e-01   2.231335e-02
  4.282759e+00    4.564126e-01   2.289305e-02
  4.284970e+00    4.767011e-01   2.374319e-02
  4.287180e+00    5.198712e-01   2.509190e-02
  4.289391e+00    5.260620e-01   2.543059e-02
  4.291601e+00    4.968702e-01   2.491193e-02
  4.293811e+00    4.532596e-01   2.398033e-02
  4.296022e+00    4.235720e-01   2.336699e-02
  4.298232e+00    4.790983e-01   2.506049e-02
  4.300443e+00    4.579529e-01   2.470309e-02
  4.302653e+00    4.448641e-01   2.455852e-02
  4.304864e+00    4.381045e-01   2.458185e-02
  4.307074e+00    4.447646e-01   2.499112e-02
  4.309285e+00    3.973684e-01   2.383609e-02
  4.311495e+00    4.386255e-01   2.527700e-02
  4.313706e+00    4.929090e-01   2.704802e-02
  4.315916e+00    5.062952e-01   2.768175e-02
  4.318126e+00    5.241212e-01   2.844467e-02
  4.320337e+00    4.620364e-01   2.697649e-02
  4.322547e+00    3.941866e-01   2.518162e-02
  4.324758e+00    4.264888e-01   2.646540e-02
  4.326968e+00    4.416597e-01   2.723459e-02
  4.329179e+00    5.370802e-01   3.036422e-02
  4.331389e+00    4.489530e-01   2.808203e-02
  4.333600e+00    5.105943e-01   3.030486e-02
  4.335810e+00    4.172433e-01   2.772131e-02
  4.338021e+00    3.721348e-01   2.651458e-02
  4.340231e+00    4.737938e-01   3.029290e-02
  4.342442e+00    5.050277e-01   3.169589e-02
  4.344652e+00    4.240401e-01   2.943807e-02
  4.346862e+00    4.075822e-01   2.926442e-02
  4.349073e+00    5.003307e-01   3.289592e-02
  4.351283e+00    3.774124e-01   2.899795e-02
  4.353494e+00    3.698250e-01   2.914764e-02
  4.355704e+00    3.821730e-01   3.010870e-02
  4.357915e+00    3.664069e-01   2.996909e-02
  4.360125e+00    5.639496e-01   3.781695e-02
  4.362336e+00    5.216113e-01   3.703261e-02
  4.364546e+00    4.722165e-01   3.587798e-02
  4.366757e+00    3.780001e-01   3.273698e-02
  4.368967e+00    3.973982e-01   3.423676e-02
  4.371177e+00    5.407776e-01   4.078685e-02
  4.373388e+00    5.969826e-01   4.381205e-02
  4.375598e+00    5.002411e-01   4.102257e-02
  4.377809e+00    3.327288e-01   3.430037e-02
  4.380019e+00    4.952264e-01   4.290073e-02
  4.382230e+00    3.541089e-01   3.728897e-02
  4.384440e+00    2.693053e-01   3.345399e-02
  4.386651e+00    4.278445e-01   4.346679e-02
  4.388861e+00    3.439267e-01   4.028156e-02
  4.391072e+00    2.745491e-01   3.725079e-02
  4.393282e+00    4.126570e-01   4.743532e-02
  4.395492e+00    4.389860e-01   5.096230e-02
  4.397703e+00    5.754446e-01   6.101048e-02
  4.399913e+00    4.504964e-01   5.671817e-02
  4.402124e+00    4.557650e-01   6.028339e-02
  4.404334e+00    2.855416e-01   5.071773e-02
  4.406545e+00    3.320801e-01   5.876142e-02
  4.408755e+00    6.202350e-01   8.710321e-02
  4.410966e+00    3.051633e-01   6.762332e-02
  4.413176e+00    3.150154e-01   7.777383e-02
  4.415387e+00   -8.193960e-01            nan
  4.417597e+00   -2.044852e+00            nan
  4.419807e+00   -3.766224e-01            nan
