# == pyFAI calibration ==
# Distance Sample to Detector: 0.216 m
# PONI: 1.166e-01, 1.308e-01 m
# Rotations: 0.000000 0.000000 0.000000 rad
# 
# == Fit2d calibration ==
# Distance Sample-beamCenter: 216.000 mm
# Center: x=1744.293, y=1555.000 pix
# Tilt: 0.000 deg  TiltPlanRot: 0.000 deg
# 
# Detector Eiger 9M	 PixelSize= 7.500e-05, 7.500e-05 m
#    Detector has a mask: True 
#    Detector has a dark current: False 
#    detector has a flat field: False 
# 
# Wavelength: 9.8e-11 m
# Mask applied: from detector
# Dark current applied: False
# Flat field applied: False
# Polarization factor: None
# Normalization factor: 1.0
# 
# Headers of the input frame:
# {
# "_array_data.header_convention": "SLS_1.0",
# "_array_data.header_contents": "# Detector: Dectris Eiger 9M, S/N E-18-0102\r\n# Pixel_size 75e-6 m x 75e-6 m\r\n# Silicon sensor, thickness 0.000450 m\r\n# Exposure_time 0.024997 s\r\n# Exposure_period 0.025000 s\r\n# Count_cutoff 62318 counts\r\n# Wavelength 0.980106 A\r\n# Detector_distance 0.215992 m\r\n# Beam_xy (1555, 1744) pixels\r\n# Start_angle 0.000000 deg.\r\n# Angle_increment 0.000000 deg.",
# "Content-Type": "application/octet-stream;",
# "conversions": "x-CBF_BYTE_OFFSET",
# "Content-Transfer-Encoding": "BINARY",
# "X-Binary-Size": "10166600",
# "X-Binary-ID": "1",
# "X-Binary-Element-Type": "signed 32-bit integer",
# "X-Binary-Element-Byte-Order": "LITTLE_ENDIAN",
# "Content-MD5": "MuY0ZfCoGYcNlESVptOvAg==",
# "X-Binary-Number-of-Elements": "10166590",
# "X-Binary-Size-Fastest-Dimension": "3110",
# "X-Binary-Size-Second-Dimension": "3269",
# "X-Binary-Size-Padding": "4095"
# }
# --> H:/Proxima2a_2019-04-05/RAW_DATA/C5_gel17_position5/C5_mesh_1_data.cbf/C5_mesh_1_data.cbf000112.dat
#        q_A^-1              I           sigma 
  1.105228e-03    1.460360e+00   6.539084e-01
  3.315685e-03    1.248727e+00   3.676032e-01
  5.526141e-03    1.104802e+00   2.673711e-01
  7.736597e-03    1.365194e+00   2.510830e-01
  9.947054e-03    1.339044e+00   2.192169e-01
  1.215751e-02    1.352780e+00   1.992426e-01
  1.436797e-02    1.408396e+00   1.869986e-01
  1.657842e-02    1.583610e+00   1.845732e-01
  1.878888e-02    1.485060e+00   1.678942e-01
  2.099934e-02    1.506330e+00   1.599787e-01
  2.320979e-02    1.466753e+00   1.501452e-01
  2.542025e-02    1.395477e+00   1.399494e-01
  2.763070e-02    1.330299e+00   1.310584e-01
  2.984116e-02    1.497082e+00   1.337825e-01
  3.205162e-02    1.419473e+00   1.257042e-01
  3.426207e-02    1.457782e+00   1.232030e-01
  3.647253e-02    1.401440e+00   1.170785e-01
  3.868299e-02    1.450439e+00   1.156632e-01
  4.089344e-02    1.403895e+00   1.106746e-01
  4.310390e-02    1.472859e+00   1.104090e-01
  4.531436e-02    1.391538e+00   1.046678e-01
  4.752481e-02    1.351141e+00   1.007093e-01
  4.973527e-02    1.333495e+00   9.780194e-02
  5.194572e-02    1.483515e+00   1.009367e-01
  5.415618e-02    1.437755e+00   9.731533e-02
  5.636664e-02    1.383517e+00   9.357448e-02
  5.857709e-02    1.343319e+00   9.044908e-02
  6.078755e-02    1.386603e+00   9.020557e-02
  6.299801e-02    1.562222e+00   9.405196e-02
  6.520846e-02    1.410450e+00   8.783942e-02
  6.741892e-02    1.407182e+00   8.628298e-02
  6.962938e-02    1.431847e+00   8.564749e-02
  7.183983e-02    1.387961e+00   8.301581e-02
  7.405029e-02    1.448357e+00   8.352547e-02
  7.626074e-02    1.494962e+00   8.361908e-02
  7.847120e-02    1.402645e+00   7.984503e-02
  8.068166e-02    1.429387e+00   7.949013e-02
  8.289211e-02    1.460864e+00   7.928146e-02
  8.510257e-02    1.455694e+00   7.810602e-02
  8.731303e-02    1.389971e+00   7.534729e-02
  8.952348e-02    1.404382e+00   7.479801e-02
  9.173394e-02    1.493679e+00   7.620133e-02
  9.394439e-02    1.501205e+00   7.548652e-02
  9.615485e-02    1.497875e+00   7.452939e-02
  9.836531e-02    1.415597e+00   7.163286e-02
  1.005758e-01    1.506879e+00   7.309010e-02
  1.027862e-01    1.562470e+00   7.361964e-02
  1.049967e-01    1.548504e+00   7.251306e-02
  1.072071e-01    1.451923e+00   6.948684e-02
  1.094176e-01    1.470228e+00   6.921252e-02
  1.116280e-01    1.567078e+00   7.074324e-02
  1.138385e-01    1.549121e+00   6.964917e-02
  1.160490e-01    1.497978e+00   6.783359e-02
  1.182594e-01    1.534065e+00   6.799971e-02
  1.204699e-01    1.556407e+00   6.786131e-02
  1.226803e-01    1.581645e+00   6.778737e-02
  1.248908e-01    1.581619e+00   6.718349e-02
  1.271012e-01    1.595610e+00   6.688930e-02
  1.293117e-01    1.535689e+00   6.505722e-02
  1.315222e-01    1.505845e+00   6.387682e-02
  1.337326e-01    1.528387e+00   6.381786e-02
  1.359431e-01    1.605474e+00   6.544574e-02
  1.381535e-01    1.641052e+00   6.705510e-02
  1.403640e-01    1.603120e+00   6.656174e-02
  1.425744e-01    1.629328e+00   6.721082e-02
  1.447849e-01    1.523297e+00   6.500208e-02
  1.469953e-01    1.542714e+00   6.537408e-02
  1.492058e-01    1.585493e+00   6.619726e-02
  1.514163e-01    1.633233e+00   6.707493e-02
  1.536267e-01    1.658151e+00   6.745272e-02
  1.558372e-01    1.582670e+00   6.575406e-02
  1.580476e-01    1.536864e+00   6.463835e-02
  1.602581e-01    1.477860e+00   6.322438e-02
  1.624685e-01    1.618828e+00   6.598991e-02
  1.646790e-01    1.643626e+00   6.630251e-02
  1.668895e-01    1.723927e+00   6.770672e-02
  1.690999e-01    1.764328e+00   6.828983e-02
  1.713104e-01    1.662363e+00   6.608143e-02
  1.735208e-01    1.684098e+00   6.630516e-02
  1.757313e-01    1.737803e+00   6.714302e-02
  1.779417e-01    1.769406e+00   6.752982e-02
  1.801522e-01    1.826649e+00   6.839494e-02
  1.823626e-01    1.839295e+00   6.840283e-02
  1.845731e-01    1.911940e+00   6.951463e-02
  1.867836e-01    1.953104e+00   7.002189e-02
  1.889940e-01    1.894013e+00   6.872915e-02
  1.912045e-01    1.939903e+00   6.932453e-02
  1.934149e-01    1.912987e+00   6.861150e-02
  1.956254e-01    2.052494e+00   7.083488e-02
  1.978358e-01    1.936900e+00   6.857551e-02
  2.000463e-01    1.873714e+00   6.722417e-02
  2.022568e-01    1.953508e+00   6.841533e-02
  2.044672e-01    1.994666e+00   6.889547e-02
  2.066777e-01    1.947471e+00   6.784960e-02
  2.088881e-01    1.958076e+00   6.781147e-02
  2.110986e-01    2.013766e+00   6.853323e-02
  2.133090e-01    1.964676e+00   6.747269e-02
  2.155195e-01    1.909536e+00   6.629848e-02
  2.177300e-01    1.806082e+00   6.397098e-02
  2.199404e-01    1.901558e+00   6.391047e-02
  2.221509e-01    1.879915e+00   6.250225e-02
  2.243613e-01    1.954801e+00   6.292701e-02
  2.265718e-01    2.091671e+00   6.437525e-02
  2.287822e-01    2.010131e+00   6.248342e-02
  2.309927e-01    1.986133e+00   6.154348e-02
  2.332031e-01    2.058533e+00   6.211888e-02
  2.354136e-01    2.111340e+00   6.240075e-02
  2.376241e-01    2.055747e+00   6.109579e-02
  2.398345e-01    2.161341e+00   6.218163e-02
  2.420450e-01    2.166860e+00   6.181600e-02
  2.442554e-01    2.108563e+00   6.055872e-02
  2.464659e-01    2.140739e+00   6.060932e-02
  2.486763e-01    2.128769e+00   6.004236e-02
  2.508868e-01    2.159057e+00   6.008654e-02
  2.530973e-01    2.181586e+00   6.002474e-02
  2.553077e-01    2.207105e+00   6.000860e-02
  2.575182e-01    2.045290e+00   5.742516e-02
  2.597286e-01    2.050869e+00   5.716915e-02
  2.619391e-01    2.106935e+00   5.761172e-02
  2.641495e-01    2.047571e+00   5.647997e-02
  2.663600e-01    2.015026e+00   5.572119e-02
  2.685704e-01    1.972100e+00   5.482566e-02
  2.707809e-01    2.074489e+00   5.593240e-02
  2.729914e-01    2.087236e+00   5.581165e-02
  2.752018e-01    2.026680e+00   5.470980e-02
  2.774123e-01    2.075263e+00   5.507888e-02
  2.796227e-01    1.990472e+00   5.367512e-02
  2.818332e-01    1.926348e+00   5.254003e-02
  2.840436e-01    1.987631e+00   5.311052e-02
  2.862541e-01    1.968161e+00   5.259569e-02
  2.884646e-01    1.985368e+00   5.257442e-02
  2.906750e-01    1.883575e+00   5.096610e-02
  2.928855e-01    1.940832e+00   5.149519e-02
  2.950959e-01    1.977205e+00   5.173676e-02
  2.973064e-01    1.917509e+00   5.072076e-02
  2.995168e-01    1.932820e+00   5.069222e-02
  3.017273e-01    1.882144e+00   4.980273e-02
  3.039377e-01    1.868224e+00   4.940093e-02
  3.061482e-01    1.898477e+00   4.958391e-02
  3.083587e-01    1.863428e+00   4.891142e-02
  3.105691e-01    1.887739e+00   4.901918e-02
  3.127796e-01    1.955839e+00   4.968576e-02
  3.149900e-01    1.913164e+00   4.893598e-02
  3.172005e-01    1.868175e+00   4.815944e-02
  3.194109e-01    1.804897e+00   4.714139e-02
  3.216214e-01    1.874510e+00   4.784581e-02
  3.238319e-01    1.948963e+00   4.859350e-02
  3.260423e-01    1.835906e+00   4.697517e-02
  3.282528e-01    1.838278e+00   4.681836e-02
  3.304632e-01    1.879111e+00   4.715212e-02
  3.326737e-01    1.835306e+00   4.641746e-02
  3.348841e-01    1.837424e+00   4.626413e-02
  3.370946e-01    1.844089e+00   4.617358e-02
  3.393050e-01    1.793211e+00   4.535970e-02
  3.415155e-01    1.872070e+00   4.617206e-02
  3.437260e-01    1.871429e+00   4.599309e-02
  3.459364e-01    1.837834e+00   4.540977e-02
  3.481469e-01    1.809854e+00   4.489831e-02
  3.503573e-01    1.802849e+00   4.464808e-02
  3.525678e-01    1.814337e+00   4.463048e-02
  3.547782e-01    1.829511e+00   4.465474e-02
  3.569887e-01    1.790302e+00   4.401713e-02
  3.591992e-01    1.791901e+00   4.388097e-02
  3.614096e-01    1.793256e+00   4.374534e-02
  3.636201e-01    1.818190e+00   4.389363e-02
  3.658305e-01    1.794895e+00   4.346276e-02
  3.680410e-01    1.804188e+00   4.342528e-02
  3.702514e-01    1.756103e+00   4.269860e-02
  3.724619e-01    1.744583e+00   4.241340e-02
  3.746724e-01    1.773454e+00   4.262021e-02
  3.768828e-01    1.785076e+00   4.261577e-02
  3.790933e-01    1.806520e+00   4.273126e-02
  3.813037e-01    1.778060e+00   4.225466e-02
  3.835142e-01    1.741577e+00   4.168154e-02
  3.857246e-01    1.769782e+00   4.188172e-02
  3.879351e-01    1.772873e+00   4.178261e-02
  3.901455e-01    1.780398e+00   4.173788e-02
  3.923560e-01    1.760826e+00   4.137592e-02
  3.945665e-01    1.728000e+00   4.085844e-02
  3.967769e-01    1.738994e+00   4.085983e-02
  3.989874e-01    1.775431e+00   4.115678e-02
  4.011978e-01    1.822387e+00   4.156925e-02
  4.034083e-01    1.765767e+00   4.079280e-02
  4.056187e-01    1.750032e+00   4.048551e-02
  4.078292e-01    1.786184e+00   4.077776e-02
  4.100397e-01    1.859513e+00   4.147936e-02
  4.122501e-01    1.763870e+00   4.027769e-02
  4.144606e-01    1.752241e+00   4.002564e-02
  4.166710e-01    1.753269e+00   3.991835e-02
  4.188815e-01    1.746849e+00   3.972746e-02
  4.210919e-01    1.797134e+00   4.017713e-02
  4.233024e-01    1.759934e+00   3.964218e-02
  4.255128e-01    1.795085e+00   3.992037e-02
  4.277233e-01    1.774980e+00   3.958214e-02
  4.299338e-01    1.756764e+00   3.926521e-02
  4.321442e-01    1.747803e+00   3.905286e-02
  4.343547e-01    1.746600e+00   3.892903e-02
  4.365651e-01    1.765655e+00   3.902961e-02
  4.387756e-01    1.730056e+00   3.852597e-02
  4.409860e-01    1.784618e+00   3.902034e-02
  4.431965e-01    1.744554e+00   3.847320e-02
  4.454070e-01    1.767184e+00   3.861417e-02
  4.476174e-01    1.734083e+00   3.814583e-02
  4.498279e-01    1.738997e+00   3.809588e-02
  4.520383e-01    1.747950e+00   3.808903e-02
  4.542488e-01    1.720737e+00   3.768944e-02
  4.564592e-01    1.774141e+00   3.816718e-02
  4.586697e-01    1.716544e+00   3.744288e-02
  4.608801e-01    1.770001e+00   3.791958e-02
  4.630906e-01    1.727147e+00   3.735855e-02
  4.653011e-01    1.714431e+00   3.712291e-02
  4.675115e-01    1.760531e+00   3.751960e-02
  4.697220e-01    1.754945e+00   3.736198e-02
  4.719324e-01    1.721032e+00   3.690352e-02
  4.741429e-01    1.711686e+00   3.670833e-02
  4.763533e-01    1.732447e+00   3.683560e-02
  4.785638e-01    1.676749e+00   3.614504e-02
  4.807743e-01    1.641928e+00   3.567678e-02
  4.829847e-01    1.701384e+00   3.622524e-02
  4.851952e-01    1.690540e+00   3.601825e-02
  4.874056e-01    1.693674e+00   3.596072e-02
  4.896161e-01    1.706778e+00   3.601004e-02
  4.918265e-01    1.651848e+00   3.533787e-02
  4.940370e-01    1.678881e+00   3.553788e-02
  4.962475e-01    1.716714e+00   3.584732e-02
  4.984579e-01    1.691061e+00   3.549081e-02
  5.006684e-01    1.664888e+00   3.512924e-02
  5.028788e-01    1.619052e+00   3.455832e-02
  5.050893e-01    1.638050e+00   3.467595e-02
  5.072997e-01    1.661002e+00   3.483369e-02
  5.095102e-01    1.673337e+00   3.487907e-02
  5.117206e-01    1.673961e+00   3.480261e-02
  5.139311e-01    1.691172e+00   3.489830e-02
  5.161416e-01    1.629525e+00   3.417538e-02
  5.183520e-01    1.656829e+00   3.437860e-02
  5.205625e-01    1.668174e+00   3.441529e-02
  5.227729e-01    1.691260e+00   3.457179e-02
  5.249834e-01    1.673232e+00   3.430722e-02
  5.271938e-01    1.652152e+00   3.401088e-02
  5.294043e-01    1.721397e+00   3.463616e-02
  5.316148e-01    1.751863e+00   3.486131e-02
  5.338252e-01    1.769204e+00   3.495335e-02
  5.360357e-01    1.762829e+00   3.481090e-02
  5.382461e-01    1.749590e+00   3.460154e-02
  5.404566e-01    1.756068e+00   3.458664e-02
  5.426670e-01    1.737726e+00   3.432803e-02
  5.448775e-01    1.724750e+00   3.412321e-02
  5.470879e-01    1.769401e+00   3.448500e-02
  5.492984e-01    1.773467e+00   3.444783e-02
  5.515089e-01    1.784500e+00   3.447819e-02
  5.537193e-01    1.806217e+00   3.461093e-02
  5.559298e-01    1.776180e+00   3.424666e-02
  5.581402e-01    1.736444e+00   3.378743e-02
  5.603507e-01    1.753541e+00   3.387946e-02
  5.625611e-01    1.767493e+00   3.394015e-02
  5.647716e-01    1.777980e+00   3.396678e-02
  5.669821e-01    1.743216e+00   3.356057e-02
  5.691925e-01    1.748773e+00   3.354186e-02
  5.714030e-01    1.753630e+00   3.351680e-02
  5.736134e-01    1.731985e+00   3.323847e-02
  5.758239e-01    1.685034e+00   3.271488e-02
  5.780343e-01    1.676538e+00   3.256326e-02
  5.802448e-01    1.728139e+00   3.299138e-02
  5.824552e-01    1.696784e+00   3.262214e-02
  5.846657e-01    1.642043e+00   3.202470e-02
  5.868762e-01    1.643292e+00   3.197017e-02
  5.890866e-01    1.623331e+00   3.170949e-02
  5.912971e-01    1.662342e+00   3.202180e-02
  5.935075e-01    1.627064e+00   3.161473e-02
  5.957180e-01    1.621564e+00   3.149649e-02
  5.979284e-01    1.590784e+00   3.113245e-02
  6.001389e-01    1.638947e+00   3.153586e-02
  6.023494e-01    1.625579e+00   3.134325e-02
  6.045598e-01    1.613364e+00   3.116166e-02
  6.067703e-01    1.594525e+00   3.091691e-02
  6.089807e-01    1.658808e+00   3.147054e-02
  6.111912e-01    1.695904e+00   3.175696e-02
  6.134016e-01    1.689457e+00   3.163332e-02
  6.156121e-01    1.688288e+00   3.155952e-02
  6.178226e-01    1.699654e+00   3.160288e-02
  6.200330e-01    1.685864e+00   3.141232e-02
  6.222435e-01    1.725786e+00   3.171912e-02
  6.244539e-01    1.738389e+00   3.177240e-02
  6.266644e-01    1.723935e+00   3.157830e-02
  6.288748e-01    1.764025e+00   3.188120e-02
  6.310853e-01    1.755381e+00   3.174127e-02
  6.332957e-01    1.705570e+00   3.122726e-02
  6.355062e-01    1.684102e+00   3.096982e-02
  6.377167e-01    1.706633e+00   3.111649e-02
  6.399271e-01    1.746184e+00   3.141464e-02
  6.421376e-01    1.742863e+00   3.132490e-02
  6.443480e-01    1.702103e+00   3.089753e-02
  6.465585e-01    1.674649e+00   3.058928e-02
  6.487689e-01    1.674371e+00   3.052899e-02
  6.509794e-01    1.645371e+00   3.020637e-02
  6.531899e-01    1.666762e+00   3.034492e-02
  6.554003e-01    1.638242e+00   3.002763e-02
  6.576108e-01    1.623250e+00   2.983425e-02
  6.598212e-01    1.606294e+00   2.962289e-02
  6.620317e-01    1.585508e+00   2.937604e-02
  6.642421e-01    1.579939e+00   2.927014e-02
  6.664526e-01    1.615213e+00   2.954055e-02
  6.686630e-01    1.624188e+00   2.956776e-02
  6.708735e-01    1.608948e+00   2.937472e-02
  6.730840e-01    1.610160e+00   2.933221e-02
  6.752944e-01    1.603880e+00   2.922173e-02
  6.775049e-01    1.527337e+00   2.846414e-02
  6.797153e-01    1.571938e+00   2.882444e-02
  6.819258e-01    1.577121e+00   2.881987e-02
  6.841362e-01    1.576867e+00   2.876572e-02
  6.863467e-01    1.559302e+00   2.855383e-02
  6.885572e-01    1.562349e+00   2.853049e-02
  6.907676e-01    1.596999e+00   2.879345e-02
  6.929781e-01    1.580889e+00   2.859692e-02
  6.951885e-01    1.659490e+00   2.924733e-02
  6.973990e-01    1.615873e+00   2.880940e-02
  6.996094e-01    1.591713e+00   2.854289e-02
  7.018199e-01    1.601075e+00   2.857647e-02
  7.040303e-01    1.564771e+00   2.820100e-02
  7.062408e-01    1.601766e+00   2.848244e-02
  7.084513e-01    1.601966e+00   2.843468e-02
  7.106617e-01    1.585206e+00   2.823640e-02
  7.128722e-01    1.593029e+00   2.825702e-02
  7.150826e-01    1.571581e+00   2.801777e-02
  7.172931e-01    1.585049e+00   2.808906e-02
  7.195035e-01    1.589818e+00   2.808292e-02
  7.217140e-01    1.571376e+00   2.796897e-02
  7.239245e-01    1.596241e+00   2.841765e-02
  7.261349e-01    1.616868e+00   2.871075e-02
  7.283454e-01    1.579024e+00   2.844528e-02
  7.305558e-01    1.572933e+00   2.844430e-02
  7.327663e-01    1.534992e+00   2.814114e-02
  7.349767e-01    1.518012e+00   2.800111e-02
  7.371872e-01    1.526415e+00   2.806748e-02
  7.393976e-01    1.592331e+00   2.865278e-02
  7.416081e-01    1.569757e+00   2.843281e-02
  7.438186e-01    1.552797e+00   2.813549e-02
  7.460290e-01    1.530159e+00   2.763958e-02
  7.482395e-01    1.547026e+00   2.762184e-02
  7.504499e-01    1.509482e+00   2.715120e-02
  7.526604e-01    1.526861e+00   2.719225e-02
  7.548708e-01    1.545290e+00   2.726730e-02
  7.570813e-01    1.531183e+00   2.709230e-02
  7.592918e-01    1.536446e+00   2.710405e-02
  7.615022e-01    1.585860e+00   2.750255e-02
  7.637127e-01    1.551279e+00   2.716850e-02
  7.659231e-01    1.536473e+00   2.700693e-02
  7.681336e-01    1.531900e+00   2.693552e-02
  7.703440e-01    1.572237e+00   2.725666e-02
  7.725545e-01    1.594123e+00   2.741461e-02
  7.747650e-01    1.609801e+00   2.751052e-02
  7.769754e-01    1.586974e+00   2.726184e-02
  7.791859e-01    1.566653e+00   2.703341e-02
  7.813963e-01    1.584307e+00   2.713262e-02
  7.836068e-01    1.539035e+00   2.669092e-02
  7.858172e-01    1.547892e+00   2.671753e-02
  7.880277e-01    1.576715e+00   2.691385e-02
  7.902381e-01    1.598292e+00   2.704814e-02
  7.924486e-01    1.609308e+00   2.709094e-02
  7.946591e-01    1.604936e+00   2.700573e-02
  7.968695e-01    1.624658e+00   2.712255e-02
  7.990800e-01    1.611062e+00   2.696055e-02
  8.012904e-01    1.619373e+00   2.698326e-02
  8.035009e-01    1.617253e+00   2.691758e-02
  8.057113e-01    1.656205e+00   2.719272e-02
  8.079218e-01    1.673233e+00   2.728499e-02
  8.101323e-01    1.638419e+00   2.695381e-02
  8.123427e-01    1.643156e+00   2.694671e-02
  8.145532e-01    1.650759e+00   2.696278e-02
  8.167636e-01    1.633991e+00   2.678038e-02
  8.189741e-01    1.635020e+00   2.674416e-02
  8.211845e-01    1.636975e+00   2.671527e-02
  8.233950e-01    1.671806e+00   2.695411e-02
  8.256054e-01    1.665705e+00   2.686029e-02
  8.278159e-01    1.659884e+00   2.676906e-02
  8.300264e-01    1.632248e+00   2.650226e-02
  8.322368e-01    1.654534e+00   2.663924e-02
  8.344473e-01    1.643349e+00   2.650562e-02
  8.366577e-01    1.619987e+00   2.627420e-02
  8.388682e-01    1.650423e+00   2.647747e-02
  8.410786e-01    1.657266e+00   2.649003e-02
  8.432891e-01    1.646336e+00   2.636059e-02
  8.454996e-01    1.654602e+00   2.638486e-02
  8.477100e-01    1.647992e+00   2.629033e-02
  8.499205e-01    1.599612e+00   2.586087e-02
  8.521309e-01    1.604983e+00   2.586385e-02
  8.543414e-01    1.615465e+00   2.590768e-02
  8.565518e-01    1.632342e+00   2.600213e-02
  8.587623e-01    1.610783e+00   2.578961e-02
  8.609727e-01    1.653259e+00   2.608693e-02
  8.631832e-01    1.640211e+00   2.594373e-02
  8.653937e-01    1.606621e+00   2.563723e-02
  8.676041e-01    1.603173e+00   2.557108e-02
  8.698146e-01    1.598591e+00   2.549547e-02
  8.720250e-01    1.593554e+00   2.541647e-02
  8.742355e-01    1.618898e+00   2.557880e-02
  8.764459e-01    1.572759e+00   2.517321e-02
  8.786564e-01    1.581105e+00   2.520227e-02
  8.808669e-01    1.638445e+00   2.561630e-02
  8.830773e-01    1.654201e+00   2.570042e-02
  8.852878e-01    1.681403e+00   2.587203e-02
  8.874982e-01    1.640305e+00   2.551680e-02
  8.897087e-01    1.586018e+00   2.505351e-02
  8.919191e-01    1.585179e+00   2.500929e-02
  8.941296e-01    1.582671e+00   2.495242e-02
  8.963401e-01    1.580361e+00   2.489799e-02
  8.985505e-01    1.585141e+00   2.489885e-02
  9.007610e-01    1.541129e+00   2.451469e-02
  9.029714e-01    1.575717e+00   2.475267e-02
  9.051819e-01    1.575745e+00   2.471599e-02
  9.073923e-01    1.568560e+00   2.462332e-02
  9.096028e-01    1.593831e+00   2.478606e-02
  9.118132e-01    1.568259e+00   2.455056e-02
  9.140237e-01    1.561418e+00   2.446077e-02
  9.162342e-01    1.547627e+00   2.431851e-02
  9.184446e-01    1.561671e+00   2.439328e-02
  9.206551e-01    1.576430e+00   2.447296e-02
  9.228655e-01    1.563881e+00   2.434049e-02
  9.250760e-01    1.620612e+00   2.474248e-02
  9.272864e-01    1.621317e+00   2.471342e-02
  9.294969e-01    1.606098e+00   2.456131e-02
  9.317074e-01    1.576598e+00   2.430032e-02
  9.339178e-01    1.599723e+00   2.444443e-02
  9.361283e-01    1.624755e+00   2.459863e-02
  9.383387e-01    1.621637e+00   2.454160e-02
  9.405492e-01    1.637248e+00   2.462498e-02
  9.427596e-01    1.660626e+00   2.476450e-02
  9.449701e-01    1.665451e+00   2.476673e-02
  9.471805e-01    1.667171e+00   2.474444e-02
  9.493910e-01    1.661979e+00   2.467195e-02
  9.516015e-01    1.695885e+00   2.488758e-02
  9.538119e-01    1.680148e+00   2.473787e-02
  9.560224e-01    1.691826e+00   2.478875e-02
  9.582328e-01    1.714560e+00   2.492126e-02
  9.604433e-01    1.741900e+00   2.508360e-02
  9.626537e-01    1.777687e+00   2.530590e-02
  9.648642e-01    1.804641e+00   2.546210e-02
  9.670747e-01    1.812831e+00   2.548461e-02
  9.692851e-01    1.801182e+00   2.536886e-02
  9.714956e-01    1.785566e+00   2.522301e-02
  9.737060e-01    1.839540e+00   2.556776e-02
  9.759165e-01    1.842960e+00   2.555544e-02
  9.781269e-01    1.806179e+00   2.526606e-02
  9.803374e-01    1.786215e+00   2.509127e-02
  9.825478e-01    1.794212e+00   2.511420e-02
  9.847583e-01    1.780309e+00   2.498275e-02
  9.869688e-01    1.759621e+00   2.480392e-02
  9.891792e-01    1.752672e+00   2.472199e-02
  9.913897e-01    1.762588e+00   2.475837e-02
  9.936001e-01    1.734362e+00   2.452719e-02
  9.958106e-01    1.710097e+00   2.432190e-02
  9.980210e-01    1.682819e+00   2.409583e-02
  1.000231e+00    1.634641e+00   2.387850e-02
  1.002442e+00    1.639092e+00   2.403801e-02
  1.004652e+00    1.637819e+00   2.409574e-02
  1.006863e+00    1.585605e+00   2.375773e-02
  1.009073e+00    1.549232e+00   2.351959e-02
  1.011284e+00    1.551798e+00   2.357052e-02
  1.013494e+00    1.559443e+00   2.365195e-02
  1.015705e+00    1.553007e+00   2.362539e-02
  1.017915e+00    1.558812e+00   2.368582e-02
  1.020126e+00    1.565598e+00   2.375336e-02
  1.022336e+00    1.548493e+00   2.363490e-02
  1.024547e+00    1.516048e+00   2.339707e-02
  1.026757e+00    1.505887e+00   2.332678e-02
  1.028967e+00    1.505975e+00   2.333505e-02
  1.031178e+00    1.462488e+00   2.300169e-02
  1.033388e+00    1.480830e+00   2.315043e-02
  1.035599e+00    1.518366e+00   2.344542e-02
  1.037809e+00    1.518325e+00   2.344836e-02
  1.040020e+00    1.507543e+00   2.336623e-02
  1.042230e+00    1.518313e+00   2.345147e-02
  1.044441e+00    1.487588e+00   2.321279e-02
  1.046651e+00    1.459327e+00   2.299136e-02
  1.048862e+00    1.470859e+00   2.308125e-02
  1.051072e+00    1.468269e+00   2.305859e-02
  1.053282e+00    1.492193e+00   2.324473e-02
  1.055493e+00    1.498395e+00   2.328870e-02
  1.057703e+00    1.467628e+00   2.304686e-02
  1.059914e+00    1.468953e+00   2.305301e-02
  1.062124e+00    1.475610e+00   2.310117e-02
  1.064335e+00    1.455646e+00   2.294096e-02
  1.066545e+00    1.473018e+00   2.307146e-02
  1.068756e+00    1.450940e+00   2.289423e-02
  1.070966e+00    1.428994e+00   2.271399e-02
  1.073177e+00    1.432390e+00   2.273498e-02
  1.075387e+00    1.436890e+00   2.276550e-02
  1.077597e+00    1.436375e+00   2.275425e-02
  1.079808e+00    1.415101e+00   2.245461e-02
  1.082018e+00    1.406481e+00   2.220074e-02
  1.084229e+00    1.392024e+00   2.197891e-02
  1.086439e+00    1.388876e+00   2.186859e-02
  1.088650e+00    1.446870e+00   2.224505e-02
  1.090860e+00    1.384027e+00   2.169063e-02
  1.093071e+00    1.383559e+00   2.162622e-02
  1.095281e+00    1.409854e+00   2.177422e-02
  1.097492e+00    1.375470e+00   2.145351e-02
  1.099702e+00    1.399945e+00   2.159285e-02
  1.101912e+00    1.407845e+00   2.160540e-02
  1.104123e+00    1.390286e+00   2.142279e-02
  1.106333e+00    1.386998e+00   2.135372e-02
  1.108544e+00    1.399401e+00   2.140522e-02
  1.110754e+00    1.387163e+00   2.126899e-02
  1.112965e+00    1.387393e+00   2.123071e-02
  1.115175e+00    1.401451e+00   2.129710e-02
  1.117386e+00    1.379253e+00   2.108900e-02
  1.119596e+00    1.383363e+00   2.108291e-02
  1.121807e+00    1.370233e+00   2.094435e-02
  1.124017e+00    1.383403e+00   2.100841e-02
  1.126228e+00    1.429008e+00   2.131582e-02
  1.128438e+00    1.412869e+00   2.115821e-02
  1.130648e+00    1.412669e+00   2.112220e-02
  1.132859e+00    1.569867e+00   2.222994e-02
  1.135069e+00    1.635867e+00   2.265489e-02
  1.137280e+00    1.483403e+00   2.153927e-02
  1.139490e+00    1.429688e+00   2.111209e-02
  1.141701e+00    1.403411e+00   2.088384e-02
  1.143911e+00    1.363830e+00   2.055560e-02
  1.146122e+00    1.385538e+00   2.068646e-02
  1.148332e+00    1.434624e+00   2.101719e-02
  1.150543e+00    1.392359e+00   2.067432e-02
  1.152753e+00    1.375997e+00   2.052163e-02
  1.154963e+00    1.371089e+00   2.045398e-02
  1.157174e+00    1.347562e+00   2.024787e-02
  1.159384e+00    1.351157e+00   2.024522e-02
  1.161595e+00    1.366552e+00   2.033043e-02
  1.163805e+00    1.383380e+00   2.042580e-02
  1.166016e+00    1.380705e+00   2.037648e-02
  1.168226e+00    1.393678e+00   2.044274e-02
  1.170437e+00    1.408878e+00   2.052483e-02
  1.172647e+00    1.455738e+00   2.083356e-02
  1.174858e+00    1.380571e+00   2.026032e-02
  1.177068e+00    1.343329e+00   1.995710e-02
  1.179278e+00    1.352462e+00   1.999636e-02
  1.181489e+00    1.338511e+00   1.986615e-02
  1.183699e+00    1.358645e+00   1.998744e-02
  1.185910e+00    1.354393e+00   1.992840e-02
  1.188120e+00    1.374216e+00   2.004685e-02
  1.190331e+00    1.354893e+00   1.987864e-02
  1.192541e+00    1.352710e+00   1.983527e-02
  1.194752e+00    1.330577e+00   1.964551e-02
  1.196962e+00    1.353650e+00   1.978933e-02
  1.199173e+00    1.345763e+00   1.970517e-02
  1.201383e+00    1.330490e+00   1.956605e-02
  1.203593e+00    1.328830e+00   1.952922e-02
  1.205804e+00    1.340933e+00   1.959211e-02
  1.208014e+00    1.343267e+00   1.958238e-02
  1.210225e+00    1.327131e+00   1.943931e-02
  1.212435e+00    1.326201e+00   1.940790e-02
  1.214646e+00    1.342628e+00   1.950173e-02
  1.216856e+00    1.307173e+00   1.921743e-02
  1.219067e+00    1.340920e+00   1.943951e-02
  1.221277e+00    1.361447e+00   1.956262e-02
  1.223488e+00    1.356618e+00   1.950210e-02
  1.225698e+00    1.342875e+00   1.937622e-02
  1.227909e+00    1.328402e+00   1.924160e-02
  1.230119e+00    1.324452e+00   1.918141e-02
  1.232329e+00    1.344674e+00   1.929664e-02
  1.234540e+00    1.335126e+00   1.919788e-02
  1.236750e+00    1.338635e+00   1.919297e-02
  1.238961e+00    1.327445e+00   1.908584e-02
  1.241171e+00    1.325272e+00   1.904624e-02
  1.243382e+00    1.318547e+00   1.897462e-02
  1.245592e+00    1.349894e+00   1.917475e-02
  1.247803e+00    1.334847e+00   1.904407e-02
  1.250013e+00    1.315531e+00   1.888252e-02
  1.252224e+00    1.339007e+00   1.902711e-02
  1.254434e+00    1.334065e+00   1.896836e-02
  1.256644e+00    1.335426e+00   1.895495e-02
  1.258855e+00    1.342184e+00   1.897964e-02
  1.261065e+00    1.367443e+00   1.913389e-02
  1.263276e+00    1.331649e+00   1.885904e-02
  1.265486e+00    1.338487e+00   1.888458e-02
  1.267697e+00    1.354780e+00   1.897614e-02
  1.269907e+00    1.352804e+00   1.893957e-02
  1.272118e+00    1.367827e+00   1.902172e-02
  1.274328e+00    1.350122e+00   1.887547e-02
  1.276539e+00    1.360166e+00   1.892269e-02
  1.278749e+00    1.357267e+00   1.888015e-02
  1.280959e+00    1.374985e+00   1.898025e-02
  1.283170e+00    1.366941e+00   1.890209e-02
  1.285380e+00    1.325441e+00   1.859069e-02
  1.287591e+00    1.325024e+00   1.856594e-02
  1.289801e+00    1.320010e+00   1.850978e-02
  1.292012e+00    1.338297e+00   1.862055e-02
  1.294222e+00    1.326785e+00   1.852419e-02
  1.296433e+00    1.348479e+00   1.865942e-02
  1.298643e+00    1.350274e+00   1.865537e-02
  1.300854e+00    1.354348e+00   1.866704e-02
  1.303064e+00    1.362074e+00   1.870091e-02
  1.305274e+00    1.348696e+00   1.858742e-02
  1.307485e+00    1.347165e+00   1.855535e-02
  1.309695e+00    1.337236e+00   1.846469e-02
  1.311906e+00    1.363354e+00   1.862233e-02
  1.314116e+00    1.360151e+00   1.857958e-02
  1.316327e+00    1.375384e+00   1.866143e-02
  1.318537e+00    1.362891e+00   1.855450e-02
  1.320748e+00    1.371505e+00   1.859131e-02
  1.322958e+00    1.370611e+00   1.856459e-02
  1.325169e+00    1.369281e+00   1.853439e-02
  1.327379e+00    1.401154e+00   1.872665e-02
  1.329589e+00    1.366762e+00   1.847421e-02
  1.331800e+00    1.391216e+00   1.861772e-02
  1.334010e+00    1.361797e+00   1.839910e-02
  1.336221e+00    1.356777e+00   1.834334e-02
  1.338431e+00    1.341510e+00   1.821904e-02
  1.340642e+00    1.371109e+00   1.848359e-02
  1.342852e+00    1.338367e+00   1.836182e-02
  1.345063e+00    1.391400e+00   1.877229e-02
  1.347273e+00    1.363733e+00   1.862017e-02
  1.349484e+00    1.340510e+00   1.848852e-02
  1.351694e+00    1.348964e+00   1.856942e-02
  1.353905e+00    1.333700e+00   1.848196e-02
  1.356115e+00    1.323025e+00   1.842272e-02
  1.358325e+00    1.364595e+00   1.872330e-02
  1.360536e+00    1.371624e+00   1.878318e-02
  1.362746e+00    1.364015e+00   1.874064e-02
  1.364957e+00    1.341279e+00   1.859143e-02
  1.367167e+00    1.342894e+00   1.860975e-02
  1.369378e+00    1.329427e+00   1.852219e-02
  1.371588e+00    1.347052e+00   1.864970e-02
  1.373799e+00    1.328799e+00   1.852658e-02
  1.376009e+00    1.317387e+00   1.845021e-02
  1.378220e+00    1.316271e+00   1.844490e-02
  1.380430e+00    1.310048e+00   1.840395e-02
  1.382640e+00    1.294569e+00   1.829578e-02
  1.384851e+00    1.304163e+00   1.836433e-02
  1.387061e+00    1.299846e+00   1.833421e-02
  1.389272e+00    1.291898e+00   1.827827e-02
  1.391482e+00    1.286309e+00   1.823802e-02
  1.393693e+00    1.295260e+00   1.830047e-02
  1.395903e+00    1.305452e+00   1.837084e-02
  1.398114e+00    1.316534e+00   1.844725e-02
  1.400324e+00    1.303390e+00   1.835279e-02
  1.402535e+00    1.281681e+00   1.819700e-02
  1.404745e+00    1.271779e+00   1.812419e-02
  1.406955e+00    1.281764e+00   1.819250e-02
  1.409166e+00    1.279318e+00   1.817182e-02
  1.411376e+00    1.277883e+00   1.815851e-02
  1.413587e+00    1.272610e+00   1.811717e-02
  1.415797e+00    1.249365e+00   1.794747e-02
  1.418008e+00    1.250696e+00   1.791544e-02
  1.420218e+00    1.259653e+00   1.783037e-02
  1.422429e+00    1.248655e+00   1.766777e-02
  1.424639e+00    1.242451e+00   1.755984e-02
  1.426850e+00    1.262849e+00   1.764884e-02
  1.429060e+00    1.265120e+00   1.761583e-02
  1.431270e+00    1.264561e+00   1.756769e-02
  1.433481e+00    1.280761e+00   1.763876e-02
  1.435691e+00    1.279381e+00   1.759067e-02
  1.437902e+00    1.274156e+00   1.751820e-02
  1.440112e+00    1.255430e+00   1.735386e-02
  1.442323e+00    1.274635e+00   1.745297e-02
  1.444533e+00    1.280537e+00   1.746066e-02
  1.446744e+00    1.260127e+00   1.728994e-02
  1.448954e+00    1.266353e+00   1.730244e-02
  1.451165e+00    1.251324e+00   1.716993e-02
  1.453375e+00    1.248592e+00   1.712337e-02
  1.455586e+00    1.285038e+00   1.734314e-02
  1.457796e+00    1.262095e+00   1.716024e-02
  1.460006e+00    1.237198e+00   1.696319e-02
  1.462217e+00    1.289962e+00   1.729473e-02
  1.464427e+00    1.262043e+00   1.708103e-02
  1.466638e+00    1.283951e+00   1.720315e-02
  1.468848e+00    1.279853e+00   1.715027e-02
  1.471059e+00    1.277060e+00   1.710635e-02
  1.473269e+00    1.273534e+00   1.705832e-02
  1.475480e+00    1.284913e+00   1.711042e-02
  1.477690e+00    1.292606e+00   1.713751e-02
  1.479901e+00    1.295482e+00   1.713247e-02
  1.482111e+00    1.277281e+00   1.698828e-02
  1.484321e+00    1.305039e+00   1.714841e-02
  1.486532e+00    1.283232e+00   1.698206e-02
  1.488742e+00    1.338706e+00   1.732193e-02
  1.490953e+00    1.303708e+00   1.707109e-02
  1.493163e+00    1.270085e+00   1.682715e-02
  1.495374e+00    1.293491e+00   1.695975e-02
  1.497584e+00    1.272605e+00   1.680053e-02
  1.499795e+00    1.260664e+00   1.669987e-02
  1.502005e+00    1.258045e+00   1.666085e-02
  1.504216e+00    1.267641e+00   1.670315e-02
  1.506426e+00    1.227840e+00   1.641830e-02
  1.508636e+00    1.231906e+00   1.642519e-02
  1.510847e+00    1.243128e+00   1.647815e-02
  1.513057e+00    1.249776e+00   1.649712e-02
  1.515268e+00    1.261485e+00   1.654844e-02
  1.517478e+00    1.259066e+00   1.650736e-02
  1.519689e+00    1.265658e+00   1.652545e-02
  1.521899e+00    1.271202e+00   1.653832e-02
  1.524110e+00    1.279895e+00   1.657423e-02
  1.526320e+00    1.271031e+00   1.649702e-02
  1.528531e+00    1.264841e+00   1.643691e-02
  1.530741e+00    1.236321e+00   1.623151e-02
  1.532951e+00    1.253736e+00   1.632580e-02
  1.535162e+00    1.265496e+00   1.648934e-02
  1.537372e+00    1.250396e+00   1.645761e-02
  1.539583e+00    1.242593e+00   1.644034e-02
  1.541793e+00    1.243215e+00   1.645138e-02
  1.544004e+00    1.243458e+00   1.645325e-02
  1.546214e+00    1.247165e+00   1.647625e-02
  1.548425e+00    1.249771e+00   1.649373e-02
  1.550635e+00    1.222510e+00   1.632244e-02
  1.552846e+00    1.204232e+00   1.620945e-02
  1.555056e+00    1.220203e+00   1.627551e-02
  1.557266e+00    1.232805e+00   1.624940e-02
  1.559477e+00    1.213163e+00   1.606108e-02
  1.561687e+00    1.241598e+00   1.621755e-02
  1.563898e+00    1.263775e+00   1.634447e-02
  1.566108e+00    1.271348e+00   1.637725e-02
  1.568319e+00    1.253505e+00   1.624623e-02
  1.570529e+00    1.244512e+00   1.616274e-02
  1.572740e+00    1.243814e+00   1.613057e-02
  1.574950e+00    1.250580e+00   1.614802e-02
  1.577161e+00    1.232111e+00   1.600298e-02
  1.579371e+00    1.246719e+00   1.607388e-02
  1.581582e+00    1.233559e+00   1.596914e-02
  1.583792e+00    1.237926e+00   1.597940e-02
  1.586002e+00    1.240381e+00   1.597765e-02
  1.588213e+00    1.243989e+00   1.598364e-02
  1.590423e+00    1.252228e+00   1.601634e-02
  1.592634e+00    1.227498e+00   1.583593e-02
  1.594844e+00    1.228378e+00   1.582031e-02
  1.597055e+00    1.237424e+00   1.585803e-02
  1.599265e+00    1.248436e+00   1.590763e-02
  1.601476e+00    1.242971e+00   1.585247e-02
  1.603686e+00    1.220579e+00   1.568943e-02
  1.605897e+00    1.221934e+00   1.567809e-02
  1.608107e+00    1.253867e+00   1.586196e-02
  1.610317e+00    1.213555e+00   1.558577e-02
  1.612528e+00    1.216329e+00   1.558455e-02
  1.614738e+00    1.191264e+00   1.540449e-02
  1.616949e+00    1.204697e+00   1.547228e-02
  1.619159e+00    1.224237e+00   1.557854e-02
  1.621370e+00    1.208162e+00   1.545755e-02
  1.623580e+00    1.189874e+00   1.532196e-02
  1.625791e+00    1.192882e+00   1.532317e-02
  1.628001e+00    1.186042e+00   1.526105e-02
  1.630212e+00    1.171486e+00   1.514952e-02
  1.632422e+00    1.165985e+00   1.509617e-02
  1.634632e+00    1.154738e+00   1.500607e-02
  1.636843e+00    1.164932e+00   1.505471e-02
  1.639053e+00    1.135118e+00   1.484382e-02
  1.641264e+00    1.146795e+00   1.490304e-02
  1.643474e+00    1.159534e+00   1.496822e-02
  1.645685e+00    1.138537e+00   1.481557e-02
  1.647895e+00    1.134501e+00   1.477280e-02
  1.650106e+00    1.141413e+00   1.480085e-02
  1.652316e+00    1.133905e+00   1.473569e-02
  1.654527e+00    1.123352e+00   1.465045e-02
  1.656737e+00    1.117837e+00   1.459799e-02
  1.658947e+00    1.122141e+00   1.460988e-02
  1.661158e+00    1.098129e+00   1.443665e-02
  1.663368e+00    1.086473e+00   1.434408e-02
  1.665579e+00    1.076019e+00   1.425904e-02
  1.667789e+00    1.089869e+00   1.433448e-02
  1.670000e+00    1.079409e+00   1.425030e-02
  1.672210e+00    1.067356e+00   1.415490e-02
  1.674421e+00    1.096908e+00   1.433426e-02
  1.676631e+00    1.085043e+00   1.424078e-02
  1.678842e+00    1.074867e+00   1.415825e-02
  1.681052e+00    1.066181e+00   1.408572e-02
  1.683263e+00    1.059825e+00   1.402875e-02
  1.685473e+00    1.073351e+00   1.410292e-02
  1.687683e+00    1.068529e+00   1.405590e-02
  1.689894e+00    1.038139e+00   1.383912e-02
  1.692104e+00    1.038811e+00   1.382893e-02
  1.694315e+00    1.045788e+00   1.386097e-02
  1.696525e+00    1.025895e+00   1.371367e-02
  1.698736e+00    1.053096e+00   1.387954e-02
  1.700946e+00    1.049977e+00   1.384391e-02
  1.703157e+00    1.058868e+00   1.388775e-02
  1.705367e+00    1.039068e+00   1.374291e-02
  1.707578e+00    1.035836e+00   1.370700e-02
  1.709788e+00    1.080572e+00   1.398553e-02
  1.711998e+00    1.054788e+00   1.380257e-02
  1.714209e+00    1.035685e+00   1.366261e-02
  1.716419e+00    1.016584e+00   1.352189e-02
  1.718630e+00    1.030590e+00   1.360044e-02
  1.720840e+00    1.031180e+00   1.359014e-02
  1.723051e+00    1.024655e+00   1.353320e-02
  1.725261e+00    1.037136e+00   1.360059e-02
  1.727472e+00    1.025404e+00   1.350922e-02
  1.729682e+00    1.007383e+00   1.337659e-02
  1.731893e+00    9.954550e-01   1.328335e-02
  1.734103e+00    9.646935e-01   1.306304e-02
  1.736313e+00    9.814695e-01   1.316225e-02
  1.738524e+00    1.002291e+00   1.328733e-02
  1.740734e+00    9.807079e-01   1.312992e-02
  1.742945e+00    9.593829e-01   1.297317e-02
  1.745155e+00    9.786352e-01   1.308933e-02
  1.747366e+00    9.700512e-01   1.301815e-02
  1.749576e+00    9.670112e-01   1.298417e-02
  1.751787e+00    9.431479e-01   1.280990e-02
  1.753997e+00    9.562433e-01   1.288530e-02
  1.756208e+00    9.675279e-01   1.294794e-02
  1.758418e+00    9.636177e-01   1.290873e-02
  1.760628e+00    9.437395e-01   1.276169e-02
  1.762839e+00    9.569551e-01   1.283757e-02
  1.765049e+00    9.413744e-01   1.271967e-02
  1.767260e+00    9.436341e-01   1.272222e-02
  1.769470e+00    9.192957e-01   1.254435e-02
  1.771681e+00    9.094663e-01   1.246425e-02
  1.773891e+00    9.209504e-01   1.252985e-02
  1.776102e+00    9.301991e-01   1.257986e-02
  1.778312e+00    9.252328e-01   1.253363e-02
  1.780523e+00    9.318097e-01   1.256543e-02
  1.782733e+00    9.372420e-01   1.258933e-02
  1.784944e+00    9.230899e-01   1.248114e-02
  1.787154e+00    9.057912e-01   1.235127e-02
  1.789364e+00    9.183885e-01   1.242446e-02
  1.791575e+00    9.159315e-01   1.239537e-02
  1.793785e+00    8.927062e-01   1.222502e-02
  1.795996e+00    9.070234e-01   1.231022e-02
  1.798206e+00    9.276320e-01   1.243671e-02
  1.800417e+00    9.039923e-01   1.226464e-02
  1.802627e+00    8.790610e-01   1.208263e-02
  1.804838e+00    8.680959e-01   1.199522e-02
  1.807048e+00    8.642808e-01   1.195630e-02
  1.809259e+00    8.752464e-01   1.201855e-02
  1.811469e+00    8.855392e-01   1.207422e-02
  1.813679e+00    8.686308e-01   1.194369e-02
  1.815890e+00    8.739563e-01   1.196569e-02
  1.818100e+00    8.630918e-01   1.187628e-02
  1.820311e+00    8.602299e-01   1.184206e-02
  1.822521e+00    8.856753e-01   1.200113e-02
  1.824732e+00    8.683639e-01   1.186865e-02
  1.826942e+00    8.434460e-01   1.168508e-02
  1.829153e+00    8.476501e-01   1.170272e-02
  1.831363e+00    8.721474e-01   1.185868e-02
  1.833574e+00    8.560963e-01   1.173752e-02
  1.835784e+00    8.715212e-01   1.183143e-02
  1.837994e+00    8.612741e-01   1.175006e-02
  1.840205e+00    8.595763e-01   1.172740e-02
  1.842415e+00    8.767785e-01   1.183237e-02
  1.844626e+00    8.507323e-01   1.164388e-02
  1.846836e+00    8.395121e-01   1.155558e-02
  1.849047e+00    8.437377e-01   1.157318e-02
  1.851257e+00    8.512177e-01   1.161485e-02
  1.853468e+00    8.597287e-01   1.166399e-02
  1.855678e+00    8.724352e-01   1.174093e-02
  1.857889e+00    8.482119e-01   1.156835e-02
  1.860099e+00    8.502344e-01   1.157352e-02
  1.862309e+00    8.479157e-01   1.154927e-02
  1.864520e+00    8.482031e-01   1.154270e-02
  1.866730e+00    8.280646e-01   1.139560e-02
  1.868941e+00    8.357089e-01   1.143724e-02
  1.871151e+00    8.262631e-01   1.136121e-02
  1.873362e+00    8.260621e-01   1.134863e-02
  1.875572e+00    8.493888e-01   1.149682e-02
  1.877783e+00    8.312227e-01   1.136192e-02
  1.879993e+00    8.327335e-01   1.136115e-02
  1.882204e+00    8.315166e-01   1.134204e-02
  1.884414e+00    8.245686e-01   1.128362e-02
  1.886624e+00    8.264267e-01   1.128536e-02
  1.888835e+00    8.335760e-01   1.132315e-02
  1.891045e+00    8.338555e-01   1.131421e-02
  1.893256e+00    8.203708e-01   1.121138e-02
  1.895466e+00    8.292291e-01   1.126063e-02
  1.897677e+00    8.212434e-01   1.119545e-02
  1.899887e+00    8.493785e-01   1.137452e-02
  1.902098e+00    8.411776e-01   1.130858e-02
  1.904308e+00    8.508102e-01   1.136242e-02
  1.906519e+00    8.690022e-01   1.147219e-02
  1.908729e+00    8.288018e-01   1.119309e-02
  1.910940e+00    8.318614e-01   1.120255e-02
  1.913150e+00    8.286865e-01   1.117056e-02
  1.915360e+00    8.312813e-01   1.117737e-02
  1.917571e+00    8.291196e-01   1.115191e-02
  1.919781e+00    8.250804e-01   1.111401e-02
  1.921992e+00    8.343850e-01   1.116577e-02
  1.924202e+00    8.343367e-01   1.115459e-02
  1.926413e+00    8.438410e-01   1.120746e-02
  1.928623e+00    8.328844e-01   1.112382e-02
  1.930834e+00    8.169134e-01   1.100618e-02
  1.933044e+00    8.057620e-01   1.092019e-02
  1.935255e+00    8.042681e-01   1.089975e-02
  1.937465e+00    8.167933e-01   1.097384e-02
  1.939675e+00    8.357484e-01   1.108942e-02
  1.941886e+00    8.093792e-01   1.090277e-02
  1.944096e+00    8.030027e-01   1.084953e-02
  1.946307e+00    8.114311e-01   1.089594e-02
  1.948517e+00    8.287424e-01   1.100091e-02
  1.950728e+00    8.058877e-01   1.083789e-02
  1.952938e+00    8.219663e-01   1.093521e-02
  1.955149e+00    8.185588e-01   1.090216e-02
  1.957359e+00    8.041669e-01   1.079580e-02
  1.959570e+00    8.037987e-01   1.078238e-02
  1.961780e+00    8.154280e-01   1.085005e-02
  1.963990e+00    8.120298e-01   1.081718e-02
  1.966201e+00    7.899887e-01   1.065931e-02
  1.968411e+00    8.044460e-01   1.074615e-02
  1.970622e+00    7.976645e-01   1.069061e-02
  1.972832e+00    7.982548e-01   1.068452e-02
  1.975043e+00    8.026863e-01   1.070399e-02
  1.977253e+00    8.069605e-01   1.072236e-02
  1.979464e+00    8.114567e-01   1.074197e-02
  1.981674e+00    8.221956e-01   1.080231e-02
  1.983885e+00    8.060704e-01   1.068569e-02
  1.986095e+00    7.835456e-01   1.052561e-02
  1.988305e+00    7.789507e-01   1.048481e-02
  1.990516e+00    7.769847e-01   1.046165e-02
  1.992726e+00    7.870547e-01   1.051951e-02
  1.994937e+00    7.885769e-01   1.051945e-02
  1.997147e+00    8.196794e-01   1.071490e-02
  1.999358e+00    8.144191e-01   1.067039e-02
  2.001568e+00    7.884865e-01   1.048821e-02
  2.003779e+00    7.692327e-01   1.034747e-02
  2.005989e+00    7.731271e-01   1.036158e-02
  2.008200e+00    7.787299e-01   1.038747e-02
  2.010410e+00    7.940103e-01   1.047695e-02
  2.012621e+00    7.857687e-01   1.041062e-02
  2.014831e+00    7.690307e-01   1.028765e-02
  2.017041e+00    7.826455e-01   1.036782e-02
  2.019252e+00    7.826241e-01   1.035762e-02
  2.021462e+00    7.733648e-01   1.028661e-02
  2.023673e+00    7.512696e-01   1.012929e-02
  2.025883e+00    7.469267e-01   1.009055e-02
  2.028094e+00    7.516161e-01   1.011260e-02
  2.030304e+00    7.427803e-01   1.004356e-02
  2.032515e+00    7.534169e-01   1.010596e-02
  2.034725e+00    7.562333e-01   1.011542e-02
  2.036936e+00    7.614366e-01   1.014079e-02
  2.039146e+00    7.678976e-01   1.017409e-02
  2.041356e+00    7.602817e-01   1.011385e-02
  2.043567e+00    7.688716e-01   1.016142e-02
  2.045777e+00    7.789903e-01   1.021869e-02
  2.047988e+00    7.485558e-01   1.000777e-02
  2.050198e+00    7.449980e-01   9.975561e-03
  2.052409e+00    7.365143e-01   9.911015e-03
  2.054619e+00    7.564830e-01   1.003709e-02
  2.056830e+00    7.569870e-01   1.003322e-02
  2.059040e+00    7.557188e-01   1.001727e-02
  2.061251e+00    7.689243e-01   1.009709e-02
  2.063461e+00    7.481693e-01   9.952297e-03
  2.065671e+00    7.237639e-01   9.780054e-03
  2.067882e+00    7.303966e-01   9.815862e-03
  2.070092e+00    7.313261e-01   9.813012e-03
  2.072303e+00    7.210353e-01   9.734744e-03
  2.074513e+00    7.416890e-01   9.863881e-03
  2.076724e+00    7.492583e-01   9.904601e-03
  2.078934e+00    7.365264e-01   9.811128e-03
  2.081145e+00    7.265621e-01   9.735551e-03
  2.083355e+00    7.337459e-01   9.774434e-03
  2.085566e+00    7.259662e-01   9.713666e-03
  2.087776e+00    7.297013e-01   9.729173e-03
  2.089986e+00    7.383339e-01   9.777774e-03
  2.092197e+00    7.214654e-01   9.656576e-03
  2.094407e+00    7.319027e-01   9.716965e-03
  2.096618e+00    7.474123e-01   9.810412e-03
  2.098828e+00    7.427895e-01   9.770671e-03
  2.101039e+00    7.543818e-01   9.837492e-03
  2.103249e+00    7.694732e-01   9.926528e-03
  2.105460e+00    7.382644e-01   9.714086e-03
  2.107670e+00    7.399126e-01   9.716102e-03
  2.109881e+00    7.230781e-01   9.595814e-03
  2.112091e+00    7.372160e-01   9.680089e-03
  2.114301e+00    7.424772e-01   9.705698e-03
  2.116512e+00    7.098283e-01   9.481193e-03
  2.118722e+00    7.081512e-01   9.461244e-03
  2.120933e+00    7.062421e-01   9.439700e-03
  2.123143e+00    7.192864e-01   9.517559e-03
  2.125354e+00    7.169185e-01   9.493376e-03
  2.127564e+00    7.139180e-01   9.464766e-03
  2.129775e+00    7.061294e-01   9.404328e-03
  2.131985e+00    6.968682e-01   9.333511e-03
  2.134196e+00    6.899579e-01   9.278658e-03
  2.136406e+00    7.012150e-01   9.345384e-03
  2.138617e+00    7.049888e-01   9.362062e-03
  2.140827e+00    7.017978e-01   9.356836e-03
  2.143037e+00    7.089292e-01   9.449790e-03
  2.145248e+00    6.982263e-01   9.400082e-03
  2.147458e+00    6.950583e-01   9.393749e-03
  2.149669e+00    7.040532e-01   9.466206e-03
  2.151879e+00    6.935371e-01   9.404420e-03
  2.154090e+00    6.792365e-01   9.314141e-03
  2.156300e+00    6.982954e-01   9.450518e-03
  2.158511e+00    6.846637e-01   9.363048e-03
  2.160721e+00    6.962851e-01   9.447003e-03
  2.162932e+00    6.860650e-01   9.381130e-03
  2.165142e+00    6.910194e-01   9.417930e-03
  2.167352e+00    6.783670e-01   9.334210e-03
  2.169563e+00    6.830572e-01   9.368330e-03
  2.171773e+00    6.822741e-01   9.365412e-03
  2.173984e+00    6.817458e-01   9.363161e-03
  2.176194e+00    6.983195e-01   9.477508e-03
  2.178405e+00    6.879555e-01   9.407610e-03
  2.180615e+00    6.641458e-01   9.244056e-03
  2.182826e+00    6.768150e-01   9.332460e-03
  2.185036e+00    6.790286e-01   9.347785e-03
  2.187247e+00    6.620106e-01   9.229848e-03
  2.189457e+00    6.712622e-01   9.293690e-03
  2.191667e+00    6.819896e-01   9.367508e-03
  2.193878e+00    6.777678e-01   9.337896e-03
  2.196088e+00    6.945474e-01   9.452092e-03
  2.198299e+00    6.721848e-01   9.297613e-03
  2.200509e+00    6.646811e-01   9.244526e-03
  2.202720e+00    6.779037e-01   9.334857e-03
  2.204930e+00    6.783848e-01   9.336959e-03
  2.207141e+00    6.717181e-01   9.289830e-03
  2.209351e+00    6.792375e-01   9.339830e-03
  2.211562e+00    6.702292e-01   9.276064e-03
  2.213772e+00    6.772714e-01   9.269169e-03
  2.215982e+00    6.671411e-01   9.155672e-03
  2.218193e+00    6.733696e-01   9.168720e-03
  2.220403e+00    6.579989e-01   9.039205e-03
  2.222614e+00    6.651115e-01   9.067104e-03
  2.224824e+00    6.576579e-01   8.997001e-03
  2.227035e+00    6.712367e-01   9.071985e-03
  2.229245e+00    6.657196e-01   9.017741e-03
  2.231456e+00    6.596562e-01   8.961096e-03
  2.233666e+00    6.622537e-01   8.963722e-03
  2.235877e+00    6.758094e-01   9.040665e-03
  2.238087e+00    6.759330e-01   9.027977e-03
  2.240298e+00    6.548515e-01   8.872446e-03
  2.242508e+00    6.524158e-01   8.840987e-03
  2.244718e+00    6.633779e-01   8.899198e-03
  2.246929e+00    6.677605e-01   8.914146e-03
  2.249139e+00    6.636407e-01   8.874244e-03
  2.251350e+00    6.743432e-01   8.933761e-03
  2.253560e+00    6.682491e-01   8.881709e-03
  2.255771e+00    6.777604e-01   8.933185e-03
  2.257981e+00    6.795344e-01   8.933569e-03
  2.260192e+00    6.647104e-01   8.824489e-03
  2.262402e+00    6.652642e-01   8.817293e-03
  2.264613e+00    6.548408e-01   8.737190e-03
  2.266823e+00    6.498209e-01   8.693336e-03
  2.269033e+00    6.664116e-01   8.793190e-03
  2.271244e+00    6.525026e-01   8.690659e-03
  2.273454e+00    6.733996e-01   8.818344e-03
  2.275665e+00    6.783838e-01   8.840513e-03
  2.277875e+00    6.625047e-01   8.726506e-03
  2.280086e+00    6.516276e-01   8.644578e-03
  2.282296e+00    6.529985e-01   8.644304e-03
  2.284507e+00    6.581537e-01   8.668243e-03
  2.286717e+00    6.441819e-01   8.566380e-03
  2.288928e+00    6.293771e-01   8.457694e-03
  2.291138e+00    6.555112e-01   8.622103e-03
  2.293348e+00    6.363772e-01   8.485931e-03
  2.295559e+00    6.615716e-01   8.642911e-03
  2.297769e+00    6.604785e-01   8.626503e-03
  2.299980e+00    6.410933e-01   8.489721e-03
  2.302190e+00    6.440330e-01   8.500083e-03
  2.304401e+00    6.490464e-01   8.523817e-03
  2.306611e+00    6.336557e-01   8.413078e-03
  2.308822e+00    6.429121e-01   8.465973e-03
  2.311032e+00    6.496027e-01   8.503457e-03
  2.313243e+00    6.391963e-01   8.428865e-03
  2.315453e+00    6.289608e-01   8.353642e-03
  2.317663e+00    6.309976e-01   8.358146e-03
  2.319874e+00    6.518511e-01   8.486364e-03
  2.322084e+00    6.429460e-01   8.419273e-03
  2.324295e+00    6.419373e-01   8.404446e-03
  2.326505e+00    6.486821e-01   8.439403e-03
  2.328716e+00    6.505306e-01   8.442830e-03
  2.330926e+00    6.470699e-01   8.411513e-03
  2.333137e+00    6.383246e-01   8.346139e-03
  2.335347e+00    6.368026e-01   8.327337e-03
  2.337558e+00    6.351207e-01   8.308138e-03
  2.339768e+00    6.222811e-01   8.215277e-03
  2.341979e+00    6.284764e-01   8.247768e-03
  2.344189e+00    6.244291e-01   8.212869e-03
  2.346399e+00    6.132978e-01   8.130990e-03
  2.348610e+00    6.198288e-01   8.165806e-03
  2.350820e+00    6.344892e-01   8.253640e-03
  2.353031e+00    6.380736e-01   8.268609e-03
  2.355241e+00    6.439150e-01   8.298259e-03
  2.357452e+00    6.341261e-01   8.226507e-03
  2.359662e+00    6.322359e-01   8.206008e-03
  2.361873e+00    6.191500e-01   8.112495e-03
  2.364083e+00    6.142731e-01   8.072574e-03
  2.366294e+00    6.121764e-01   8.050783e-03
  2.368504e+00    6.154061e-01   8.063989e-03
  2.370714e+00    6.118027e-01   8.032368e-03
  2.372925e+00    6.150963e-01   8.045984e-03
  2.375135e+00    6.194103e-01   8.066111e-03
  2.377346e+00    6.215525e-01   8.072140e-03
  2.379556e+00    6.159243e-01   8.027633e-03
  2.381767e+00    6.163503e-01   8.022592e-03
  2.383977e+00    6.194462e-01   8.034778e-03
  2.386188e+00    6.256628e-01   8.067049e-03
  2.388398e+00    6.216651e-01   8.033256e-03
  2.390609e+00    6.169652e-01   7.995112e-03
  2.392819e+00    6.163954e-01   7.983640e-03
  2.395029e+00    6.084409e-01   7.924352e-03
  2.397240e+00    6.099593e-01   7.926382e-03
  2.399450e+00    6.069093e-01   7.898783e-03
  2.401661e+00    6.013901e-01   7.855169e-03
  2.403871e+00    6.084809e-01   7.893596e-03
  2.406082e+00    6.062093e-01   7.871448e-03
  2.408292e+00    6.002726e-01   7.825075e-03
  2.410503e+00    5.859371e-01   7.723717e-03
  2.412713e+00    5.991650e-01   7.802658e-03
  2.414924e+00    6.024259e-01   7.816428e-03
  2.417134e+00    5.930693e-01   7.747910e-03
  2.419344e+00    6.044983e-01   7.814786e-03
  2.421555e+00    6.099286e-01   7.842261e-03
  2.423765e+00    6.116636e-01   7.845933e-03
  2.425976e+00    5.917878e-01   7.709649e-03
  2.428186e+00    5.956593e-01   7.727638e-03
  2.430397e+00    5.923166e-01   7.698460e-03
  2.432607e+00    5.908536e-01   7.681706e-03
  2.434818e+00    5.937575e-01   7.693019e-03
  2.437028e+00    5.942980e-01   7.689380e-03
  2.439239e+00    5.885919e-01   7.644757e-03
  2.441449e+00    5.863119e-01   7.622760e-03
  2.443659e+00    6.002171e-01   7.705226e-03
  2.445870e+00    5.870997e-01   7.632781e-03
  2.448080e+00    5.749566e-01   7.588011e-03
  2.450291e+00    5.714889e-01   7.581603e-03
  2.452501e+00    5.719674e-01   7.595903e-03
  2.454712e+00    5.700388e-01   7.591496e-03
  2.456922e+00    5.565692e-01   7.507806e-03
  2.459133e+00    5.499153e-01   7.468134e-03
  2.461343e+00    5.550224e-01   7.507032e-03
  2.463554e+00    5.703961e-01   7.613781e-03
  2.465764e+00    5.594393e-01   7.543444e-03
  2.467975e+00    5.554342e-01   7.518650e-03
  2.470185e+00    5.610836e-01   7.559057e-03
  2.472395e+00    5.519696e-01   7.498638e-03
  2.474606e+00    5.494280e-01   7.482893e-03
  2.476816e+00    5.495956e-01   7.484786e-03
  2.479027e+00    5.338966e-01   7.377945e-03
  2.481237e+00    5.365250e-01   7.396340e-03
  2.483448e+00    5.470794e-01   7.469053e-03
  2.485658e+00    5.397900e-01   7.418975e-03
  2.487869e+00    5.574678e-01   7.539523e-03
  2.490079e+00    5.580987e-01   7.543260e-03
  2.492290e+00    5.510375e-01   7.494970e-03
  2.494500e+00    5.316832e-01   7.361420e-03
  2.496710e+00    5.425950e-01   7.435885e-03
  2.498921e+00    5.334679e-01   7.372085e-03
  2.501131e+00    5.379381e-01   7.401958e-03
  2.503342e+00    5.115031e-01   7.216573e-03
  2.505552e+00    5.273359e-01   7.326241e-03
  2.507763e+00    5.341921e-01   7.372323e-03
  2.509973e+00    5.160149e-01   7.244435e-03
  2.512184e+00    5.253088e-01   7.307745e-03
  2.514394e+00    5.287181e-01   7.322059e-03
  2.516605e+00    5.340329e-01   7.311375e-03
  2.518815e+00    5.242817e-01   7.216037e-03
  2.521025e+00    5.265557e-01   7.210680e-03
  2.523236e+00    5.264660e-01   7.192068e-03
  2.525446e+00    5.240327e-01   7.159847e-03
  2.527657e+00    5.365258e-01   7.229926e-03
  2.529867e+00    5.422335e-01   7.253882e-03
  2.532078e+00    5.148855e-01   7.053695e-03
  2.534288e+00    5.208345e-01   7.080486e-03
  2.536499e+00    5.234678e-01   7.086450e-03
  2.538709e+00    5.177987e-01   7.037027e-03
  2.540920e+00    5.154528e-01   7.010520e-03
  2.543130e+00    5.265508e-01   7.075203e-03
  2.545340e+00    5.154044e-01   6.989937e-03
  2.547551e+00    5.204400e-01   7.014069e-03
  2.549761e+00    5.124556e-01   6.950579e-03
  2.551972e+00    5.156621e-01   6.962979e-03
  2.554182e+00    5.127810e-01   6.934415e-03
  2.556393e+00    5.188604e-01   6.966302e-03
  2.558603e+00    5.245342e-01   6.995194e-03
  2.560814e+00    5.177497e-01   6.941121e-03
  2.563024e+00    5.225202e-01   6.964413e-03
  2.565235e+00    5.337785e-01   7.029399e-03
  2.567445e+00    5.342656e-01   7.022929e-03
  2.569656e+00    5.164449e-01   6.895068e-03
  2.571866e+00    5.150068e-01   6.876130e-03
  2.574076e+00    5.346986e-01   6.996920e-03
  2.576287e+00    5.441093e-01   7.049661e-03
  2.578497e+00    5.656215e-01   7.179490e-03
  2.580708e+00    5.339499e-01   6.967365e-03
  2.582918e+00    5.192119e-01   6.862733e-03
  2.585129e+00    5.049303e-01   6.760010e-03
  2.587339e+00    5.068073e-01   6.764933e-03
  2.589550e+00    5.056973e-01   6.750023e-03
  2.591760e+00    5.039923e-01   6.730963e-03
  2.593971e+00    5.042792e-01   6.725399e-03
  2.596181e+00    5.087284e-01   6.748799e-03
  2.598391e+00    5.078262e-01   6.737634e-03
  2.600602e+00    5.205472e-01   6.815529e-03
  2.602812e+00    5.061455e-01   6.713083e-03
  2.605023e+00    5.086354e-01   6.722399e-03
  2.607233e+00    5.048348e-01   6.690125e-03
  2.609444e+00    5.006341e-01   6.655040e-03
  2.611654e+00    5.039978e-01   6.670072e-03
  2.613865e+00    5.086842e-01   6.693936e-03
  2.616075e+00    5.078334e-01   6.681208e-03
  2.618286e+00    5.123843e-01   6.704029e-03
  2.620496e+00    4.974698e-01   6.599102e-03
  2.622706e+00    4.975261e-01   6.593751e-03
  2.624917e+00    4.982922e-01   6.593025e-03
  2.627127e+00    5.040945e-01   6.625562e-03
  2.629338e+00    4.913521e-01   6.535380e-03
  2.631548e+00    4.924042e-01   6.536270e-03
  2.633759e+00    4.974807e-01   6.562768e-03
  2.635969e+00    4.867542e-01   6.485039e-03
  2.638180e+00    5.035091e-01   6.588707e-03
  2.640390e+00    5.059360e-01   6.597937e-03
  2.642601e+00    4.961388e-01   6.527114e-03
  2.644811e+00    4.955041e-01   6.515875e-03
  2.647021e+00    5.099412e-01   6.603510e-03
  2.649232e+00    4.956980e-01   6.503941e-03
  2.651442e+00    4.901506e-01   6.460996e-03
  2.653653e+00    5.020185e-01   6.531931e-03
  2.655863e+00    5.065793e-01   6.554804e-03
  2.658074e+00    4.961209e-01   6.480187e-03
  2.660284e+00    5.066451e-01   6.542135e-03
  2.662495e+00    4.996321e-01   6.489948e-03
  2.664705e+00    4.978289e-01   6.471641e-03
  2.666916e+00    4.992471e-01   6.474373e-03
  2.669126e+00    4.933169e-01   6.429357e-03
  2.671337e+00    5.165089e-01   6.572042e-03
  2.673547e+00    4.984959e-01   6.450033e-03
  2.675757e+00    4.952332e-01   6.422424e-03
  2.677968e+00    5.004078e-01   6.449339e-03
  2.680178e+00    4.901682e-01   6.376622e-03
  2.682389e+00    4.869367e-01   6.349219e-03
  2.684599e+00    4.842416e-01   6.325498e-03
  2.686810e+00    4.903932e-01   6.358943e-03
  2.689020e+00    4.876520e-01   6.334886e-03
  2.691231e+00    4.956044e-01   6.380015e-03
  2.693441e+00    4.871922e-01   6.319512e-03
  2.695652e+00    4.827440e-01   6.284137e-03
  2.697862e+00    4.876107e-01   6.309387e-03
  2.700072e+00    4.895140e-01   6.315620e-03
  2.702283e+00    4.844115e-01   6.276436e-03
  2.704493e+00    4.895230e-01   6.303162e-03
  2.706704e+00    4.945849e-01   6.329226e-03
  2.708914e+00    4.876347e-01   6.278643e-03
  2.711125e+00    4.838914e-01   6.248267e-03
  2.713335e+00    4.839883e-01   6.242827e-03
  2.715546e+00    4.857417e-01   6.247675e-03
  2.717756e+00    4.849728e-01   6.236847e-03
  2.719967e+00    4.800323e-01   6.198827e-03
  2.722177e+00    4.731345e-01   6.148085e-03
  2.724387e+00    4.794916e-01   6.183178e-03
  2.726598e+00    4.774789e-01   6.164181e-03
  2.728808e+00    4.868495e-01   6.218203e-03
  2.731019e+00    4.894142e-01   6.228419e-03
  2.733229e+00    4.801760e-01   6.163578e-03
  2.735440e+00    4.685442e-01   6.082298e-03
  2.737650e+00    4.813077e-01   6.158564e-03
  2.739861e+00    4.863639e-01   6.184756e-03
  2.742071e+00    4.827363e-01   6.155906e-03
  2.744282e+00    4.649785e-01   6.035499e-03
  2.746492e+00    4.754987e-01   6.097374e-03
  2.748702e+00    4.797601e-01   6.118766e-03
  2.750913e+00    4.803570e-01   6.116783e-03
  2.753123e+00    4.784748e-01   6.098681e-03
  2.755334e+00    4.795436e-01   6.099436e-03
  2.757544e+00    4.766410e-01   6.075215e-03
  2.759755e+00    4.843321e-01   6.118138e-03
  2.761965e+00    4.815205e-01   6.094366e-03
  2.764176e+00    4.771544e-01   6.060703e-03
  2.766386e+00    4.785906e-01   6.064024e-03
  2.768597e+00    4.772088e-01   6.049429e-03
  2.770807e+00    4.726682e-01   6.014738e-03
  2.773017e+00    4.754952e-01   6.026754e-03
  2.775228e+00    4.731706e-01   6.006241e-03
  2.777438e+00    4.716763e-01   5.991004e-03
  2.779649e+00    4.830797e-01   6.057052e-03
  2.781859e+00    4.769916e-01   6.013008e-03
  2.784070e+00    4.825759e-01   6.042209e-03
  2.786280e+00    4.811368e-01   6.027403e-03
  2.788491e+00    4.764037e-01   5.991862e-03
  2.790701e+00    4.870689e-01   6.052838e-03
  2.792912e+00    4.779411e-01   5.989878e-03
  2.795122e+00    4.782539e-01   5.986108e-03
  2.797333e+00    4.710633e-01   5.935386e-03
  2.799543e+00    4.795927e-01   5.982988e-03
  2.801753e+00    4.838258e-01   6.003440e-03
  2.803964e+00    4.848897e-01   6.004325e-03
  2.806174e+00    4.672789e-01   5.888172e-03
  2.808385e+00    4.688505e-01   5.891330e-03
  2.810595e+00    4.747445e-01   5.921348e-03
  2.812806e+00    4.765075e-01   5.925733e-03
  2.815016e+00    4.681721e-01   5.868961e-03
  2.817227e+00    4.634531e-01   5.864931e-03
  2.819437e+00    4.677586e-01   5.903122e-03
  2.821648e+00    4.735955e-01   5.942133e-03
  2.823858e+00    4.761732e-01   5.963635e-03
  2.826068e+00    4.678555e-01   5.916277e-03
  2.828279e+00    4.747721e-01   5.963895e-03
  2.830489e+00    4.609697e-01   5.879868e-03
  2.832700e+00    4.587686e-01   5.868326e-03
  2.834910e+00    4.703760e-01   5.944155e-03
  2.837121e+00    4.816736e-01   6.016861e-03
  2.839331e+00    4.671711e-01   5.926809e-03
  2.841542e+00    4.655527e-01   5.917554e-03
  2.843752e+00    4.652377e-01   5.916308e-03
  2.845963e+00    4.688807e-01   5.939842e-03
  2.848173e+00    4.649871e-01   5.915209e-03
  2.850383e+00    4.699339e-01   5.946880e-03
  2.852594e+00    4.758322e-01   5.984017e-03
  2.854804e+00    4.565120e-01   5.860760e-03
  2.857015e+00    4.667518e-01   5.925707e-03
  2.859225e+00    4.640080e-01   5.908000e-03
  2.861436e+00    4.637108e-01   5.905467e-03
  2.863646e+00    4.524500e-01   5.833370e-03
  2.865857e+00    4.575095e-01   5.866198e-03
  2.868067e+00    4.600649e-01   5.882809e-03
  2.870278e+00    4.429013e-01   5.771678e-03
  2.872488e+00    4.625055e-01   5.896862e-03
  2.874698e+00    4.688658e-01   5.936219e-03
  2.876909e+00    4.635647e-01   5.901254e-03
  2.879119e+00    4.529025e-01   5.831393e-03
  2.881330e+00    4.503116e-01   5.813208e-03
  2.883540e+00    4.657016e-01   5.910343e-03
  2.885751e+00    4.689552e-01   5.929278e-03
  2.887961e+00    4.714460e-01   5.943122e-03
  2.890172e+00    4.586450e-01   5.860274e-03
  2.892382e+00    4.519198e-01   5.815357e-03
  2.894593e+00    4.663260e-01   5.905497e-03
  2.896803e+00    4.604134e-01   5.865960e-03
  2.899014e+00    4.616763e-01   5.872081e-03
  2.901224e+00    4.659849e-01   5.897417e-03
  2.903434e+00    4.610668e-01   5.864272e-03
  2.905645e+00    4.509422e-01   5.797322e-03
  2.907855e+00    4.616876e-01   5.863875e-03
  2.910066e+00    4.562863e-01   5.827405e-03
  2.912276e+00    4.639556e-01   5.874052e-03
  2.914487e+00    4.601461e-01   5.847413e-03
  2.916697e+00    4.454611e-01   5.751168e-03
  2.918908e+00    4.396039e-01   5.711270e-03
  2.921118e+00    4.557071e-01   5.812237e-03
  2.923329e+00    4.374338e-01   5.692257e-03
  2.925539e+00    4.578877e-01   5.821530e-03
  2.927749e+00    4.529831e-01   5.787970e-03
  2.929960e+00    4.618019e-01   5.841241e-03
  2.932170e+00    4.709045e-01   5.896168e-03
  2.934381e+00    4.650816e-01   5.857153e-03
  2.936591e+00    4.528617e-01   5.777110e-03
  2.938802e+00    4.621470e-01   5.833311e-03
  2.941012e+00    4.598992e-01   5.816767e-03
  2.943223e+00    4.544939e-01   5.779793e-03
  2.945433e+00    4.481314e-01   5.735481e-03
  2.947644e+00    4.605098e-01   5.809989e-03
  2.949854e+00    4.695598e-01   5.862482e-03
  2.952064e+00    4.530908e-01   5.754544e-03
  2.954275e+00    4.641225e-01   5.819715e-03
  2.956485e+00    4.603859e-01   5.792024e-03
  2.958696e+00    4.560357e-01   5.760232e-03
  2.960906e+00    4.504886e-01   5.720922e-03
  2.963117e+00    4.473675e-01   5.696618e-03
  2.965327e+00    4.470463e-01   5.690703e-03
  2.967538e+00    4.387615e-01   5.634881e-03
  2.969748e+00    4.348948e-01   5.607201e-03
  2.971959e+00    4.630166e-01   5.782508e-03
  2.974169e+00    4.627877e-01   5.778471e-03
  2.976379e+00    4.591610e-01   5.752859e-03
  2.978590e+00    4.588360e-01   5.747662e-03
  2.980800e+00    4.589419e-01   5.745509e-03
  2.983011e+00    4.623362e-01   5.763906e-03
  2.985221e+00    4.454217e-01   5.654362e-03
  2.987432e+00    4.540123e-01   5.705509e-03
  2.989642e+00    4.608849e-01   5.745897e-03
  2.991853e+00    4.477629e-01   5.660236e-03
  2.994063e+00    4.543016e-01   5.698523e-03
  2.996274e+00    4.559524e-01   5.705663e-03
  2.998484e+00    4.558547e-01   5.702356e-03
  3.000694e+00    4.474711e-01   5.646253e-03
  3.002905e+00    4.448529e-01   5.626786e-03
  3.005115e+00    4.410173e-01   5.599543e-03
  3.007326e+00    4.543276e-01   5.680242e-03
  3.009536e+00    4.562970e-01   5.689293e-03
  3.011747e+00    4.565880e-01   5.688170e-03
  3.013957e+00    4.690719e-01   5.762185e-03
  3.016168e+00    4.513451e-01   5.649000e-03
  3.018378e+00    4.459572e-01   5.612160e-03
  3.020589e+00    4.468024e-01   5.614293e-03
  3.022799e+00    4.275474e-01   5.488908e-03
  3.025010e+00    4.491923e-01   5.622885e-03
  3.027220e+00    4.575537e-01   5.671869e-03
  3.029430e+00    4.600747e-01   5.684190e-03
  3.031641e+00    4.633864e-01   5.701440e-03
  3.033851e+00    4.632390e-01   5.696981e-03
  3.036062e+00    4.462099e-01   5.588520e-03
  3.038272e+00    4.496199e-01   5.606255e-03
  3.040483e+00    4.427450e-01   5.560056e-03
  3.042693e+00    4.371440e-01   5.521540e-03
  3.044904e+00    4.379633e-01   5.522764e-03
  3.047114e+00    4.400541e-01   5.531172e-03
  3.049325e+00    4.500042e-01   5.588966e-03
  3.051535e+00    4.471911e-01   5.567103e-03
  3.053745e+00    4.507984e-01   5.584748e-03
  3.055956e+00    4.587565e-01   5.629217e-03
  3.058166e+00    4.625038e-01   5.647848e-03
  3.060377e+00    4.459234e-01   5.540945e-03
  3.062587e+00    4.556974e-01   5.596680e-03
  3.064798e+00    4.527088e-01   5.574010e-03
  3.067008e+00    4.555612e-01   5.586815e-03
  3.069219e+00    4.538505e-01   5.571760e-03
  3.071429e+00    4.456613e-01   5.517782e-03
  3.073640e+00    4.380292e-01   5.467032e-03
  3.075850e+00    4.385131e-01   5.466508e-03
  3.078060e+00    4.472055e-01   5.517329e-03
  3.080271e+00    4.468736e-01   5.511821e-03
  3.082481e+00    4.389726e-01   5.459459e-03
  3.084692e+00    4.433942e-01   5.483521e-03
  3.086902e+00    4.514789e-01   5.530040e-03
  3.089113e+00    4.545709e-01   5.545344e-03
  3.091323e+00    4.429494e-01   5.470659e-03
  3.093534e+00    4.406508e-01   5.453083e-03
  3.095744e+00    4.471993e-01   5.490090e-03
  3.097955e+00    4.511562e-01   5.510742e-03
  3.100165e+00    4.484987e-01   5.491182e-03
  3.102375e+00    4.485517e-01   5.488060e-03
  3.104586e+00    4.546597e-01   5.521783e-03
  3.106796e+00    4.410104e-01   5.434771e-03
  3.109007e+00    4.403399e-01   5.427436e-03
  3.111217e+00    4.381784e-01   5.410443e-03
  3.113428e+00    4.366103e-01   5.397368e-03
  3.115638e+00    4.452575e-01   5.447313e-03
  3.117849e+00    4.528593e-01   5.489887e-03
  3.120059e+00    4.497558e-01   5.467537e-03
  3.122270e+00    4.540167e-01   5.490101e-03
  3.124480e+00    4.402761e-01   5.402710e-03
  3.126691e+00    4.462387e-01   5.435609e-03
  3.128901e+00    4.426166e-01   5.410385e-03
  3.131111e+00    4.516772e-01   5.461605e-03
  3.133322e+00    4.316466e-01   5.335748e-03
  3.135532e+00    4.341417e-01   5.347761e-03
  3.137743e+00    4.461129e-01   5.417517e-03
  3.139953e+00    4.410108e-01   5.382764e-03
  3.142164e+00    4.404181e-01   5.391154e-03
  3.144374e+00    4.292865e-01   5.350539e-03
  3.146585e+00    4.463263e-01   5.470328e-03
  3.148795e+00    4.371085e-01   5.424281e-03
  3.151006e+00    4.367518e-01   5.430528e-03
  3.153216e+00    4.515368e-01   5.528919e-03
  3.155426e+00    4.363460e-01   5.441397e-03
  3.157637e+00    4.358213e-01   5.443611e-03
  3.159847e+00    4.299328e-01   5.411533e-03
  3.162058e+00    4.431588e-01   5.498577e-03
  3.164268e+00    4.407066e-01   5.487404e-03
  3.166479e+00    4.408163e-01   5.491759e-03
  3.168689e+00    4.323039e-01   5.441821e-03
  3.170900e+00    4.195429e-01   5.363988e-03
  3.173110e+00    4.318963e-01   5.445217e-03
  3.175321e+00    4.491639e-01   5.555565e-03
  3.177531e+00    4.333185e-01   5.459395e-03
  3.179741e+00    4.375850e-01   5.488291e-03
  3.181952e+00    4.214705e-01   5.388348e-03
  3.184162e+00    4.416257e-01   5.517879e-03
  3.186373e+00    4.346028e-01   5.475433e-03
  3.188583e+00    4.223510e-01   5.399468e-03
  3.190794e+00    4.290574e-01   5.443892e-03
  3.193004e+00    4.194975e-01   5.384131e-03
  3.195215e+00    4.301749e-01   5.453697e-03
  3.197425e+00    4.310799e-01   5.460647e-03
  3.199636e+00    4.373669e-01   5.499547e-03
  3.201846e+00    4.413722e-01   5.524070e-03
  3.204056e+00    4.256238e-01   5.425517e-03
  3.206267e+00    4.330537e-01   5.473485e-03
  3.208477e+00    4.374509e-01   5.502153e-03
  3.210688e+00    4.209479e-01   5.398198e-03
  3.212898e+00    4.287215e-01   5.448368e-03
  3.215109e+00    4.322326e-01   5.471407e-03
  3.217319e+00    4.350447e-01   5.489804e-03
  3.219530e+00    4.359700e-01   5.496041e-03
  3.221740e+00    4.255515e-01   5.430526e-03
  3.223951e+00    4.352179e-01   5.492327e-03
  3.226161e+00    4.241447e-01   5.422206e-03
  3.228372e+00    4.224276e-01   5.411735e-03
  3.230582e+00    4.172163e-01   5.378402e-03
  3.232792e+00    4.274539e-01   5.444186e-03
  3.235003e+00    4.322917e-01   5.475169e-03
  3.237213e+00    4.367319e-01   5.503328e-03
  3.239424e+00    4.168330e-01   5.376479e-03
  3.241634e+00    4.166083e-01   5.375158e-03
  3.243845e+00    4.264765e-01   5.438509e-03
  3.246055e+00    4.120389e-01   5.345400e-03
  3.248266e+00    4.124784e-01   5.348445e-03
  3.250476e+00    4.101042e-01   5.332742e-03
  3.252687e+00    4.075870e-01   5.316254e-03
  3.254897e+00    4.258044e-01   5.433644e-03
  3.257107e+00    4.318791e-01   5.471963e-03
  3.259318e+00    4.233223e-01   5.417266e-03
  3.261528e+00    4.202070e-01   5.397129e-03
  3.263739e+00    4.374823e-01   5.506391e-03
  3.265949e+00    4.449027e-01   5.552778e-03
  3.268160e+00    4.273499e-01   5.441723e-03
  3.270370e+00    4.219993e-01   5.407038e-03
  3.272581e+00    4.157694e-01   5.366707e-03
  3.274791e+00    4.240718e-01   5.419488e-03
  3.277002e+00    4.241401e-01   5.419385e-03
  3.279212e+00    4.087051e-01   5.319461e-03
  3.281422e+00    4.175868e-01   5.376392e-03
  3.283633e+00    4.419532e-01   5.530311e-03
  3.285843e+00    4.414709e-01   5.526994e-03
  3.288054e+00    4.181917e-01   5.378338e-03
  3.290264e+00    4.313838e-01   5.462181e-03
  3.292475e+00    4.229193e-01   5.407521e-03
  3.294685e+00    4.125120e-01   5.339940e-03
  3.296896e+00    4.207542e-01   5.392271e-03
  3.299106e+00    4.099496e-01   5.322025e-03
  3.301317e+00    4.145611e-01   5.350876e-03
  3.303527e+00    4.143093e-01   5.348783e-03
  3.305737e+00    4.331724e-01   5.468117e-03
  3.307948e+00    4.248568e-01   5.414731e-03
  3.310158e+00    4.223588e-01   5.397920e-03
  3.312369e+00    4.184062e-01   5.371738e-03
  3.314579e+00    4.157154e-01   5.353532e-03
  3.316790e+00    4.336933e-01   5.467341e-03
  3.319000e+00    4.269339e-01   5.423383e-03
  3.321211e+00    4.212329e-01   5.386441e-03
  3.323421e+00    4.233640e-01   5.398848e-03
  3.325632e+00    4.042015e-01   5.274375e-03
  3.327842e+00    4.271075e-01   5.420849e-03
  3.330052e+00    4.185916e-01   5.365473e-03
  3.332263e+00    4.273230e-01   5.420098e-03
  3.334473e+00    4.354940e-01   5.470777e-03
  3.336684e+00    4.193176e-01   5.366942e-03
  3.338894e+00    4.261104e-01   5.409384e-03
  3.341105e+00    4.358753e-01   5.469772e-03
  3.343315e+00    4.290147e-01   5.425438e-03
  3.345526e+00    4.086850e-01   5.294427e-03
  3.347736e+00    4.202438e-01   5.367354e-03
  3.349947e+00    4.283839e-01   5.418164e-03
  3.352157e+00    4.282100e-01   5.415866e-03
  3.354368e+00    4.182256e-01   5.351082e-03
  3.356578e+00    4.279198e-01   5.411685e-03
  3.358788e+00    4.102330e-01   5.297378e-03
  3.360999e+00    4.165151e-01   5.336525e-03
  3.363209e+00    4.090967e-01   5.287790e-03
  3.365420e+00    3.947319e-01   5.192639e-03
  3.367630e+00    4.034084e-01   5.248416e-03
  3.369841e+00    3.888033e-01   5.151147e-03
  3.372051e+00    4.090383e-01   5.281516e-03
  3.374262e+00    4.190125e-01   5.343101e-03
  3.376472e+00    4.142131e-01   5.309956e-03
  3.378683e+00    4.140868e-01   5.306653e-03
  3.380893e+00    4.257604e-01   5.378572e-03
  3.383103e+00    4.088215e-01   5.267813e-03
  3.385314e+00    4.074332e-01   5.256657e-03
  3.387524e+00    4.030279e-01   5.225467e-03
  3.389735e+00    3.944675e-01   5.167095e-03
  3.391945e+00    4.094527e-01   5.260667e-03
  3.394156e+00    4.167508e-01   5.303109e-03
  3.396366e+00    4.113290e-01   5.265101e-03
  3.398577e+00    4.146262e-01   5.283099e-03
  3.400787e+00    3.928502e-01   5.154144e-03
  3.402998e+00    4.018004e-01   5.250210e-03
  3.405208e+00    3.880168e-01   5.179570e-03
  3.407418e+00    3.954122e-01   5.244380e-03
  3.409629e+00    3.916547e-01   5.233183e-03
  3.411839e+00    3.918770e-01   5.246351e-03
  3.414050e+00    3.922841e-01   5.260004e-03
  3.416260e+00    3.782203e-01   5.174302e-03
  3.418471e+00    3.856685e-01   5.234290e-03
  3.420681e+00    3.919912e-01   5.285539e-03
  3.422892e+00    3.789541e-01   5.204774e-03
  3.425102e+00    3.860449e-01   5.261028e-03
  3.427313e+00    3.728459e-01   5.177333e-03
  3.429523e+00    3.863864e-01   5.277575e-03
  3.431733e+00    3.767130e-01   5.217678e-03
  3.433944e+00    3.784127e-01   5.235857e-03
  3.436154e+00    3.794167e-01   5.249025e-03
  3.438365e+00    3.581966e-01   5.105872e-03
  3.440575e+00    3.811392e-01   5.272761e-03
  3.442786e+00    3.738828e-01   5.227930e-03
  3.444996e+00    3.657278e-01   5.175998e-03
  3.447207e+00    3.602004e-01   5.141917e-03
  3.449417e+00    3.683209e-01   5.240209e-03
  3.451628e+00    3.555571e-01   5.177500e-03
  3.453838e+00    3.711342e-01   5.310961e-03
  3.456049e+00    3.622873e-01   5.271033e-03
  3.458259e+00    3.537011e-01   5.229760e-03
  3.460469e+00    3.607528e-01   5.301245e-03
  3.462680e+00    3.733253e-01   5.412085e-03
  3.464890e+00    3.585391e-01   5.321440e-03
  3.467101e+00    3.564457e-01   5.323067e-03
  3.469311e+00    3.818982e-01   5.526631e-03
  3.471522e+00    3.814528e-01   5.539973e-03
  3.473732e+00    3.895735e-01   5.614793e-03
  3.475943e+00    3.965243e-01   5.680651e-03
  3.478153e+00    4.095831e-01   5.789300e-03
  3.480364e+00    4.029091e-01   5.757288e-03
  3.482574e+00    4.026608e-01   5.770814e-03
  3.484784e+00    4.196261e-01   5.906161e-03
  3.486995e+00    4.102119e-01   5.854534e-03
  3.489205e+00    4.302474e-01   6.010606e-03
  3.491416e+00    4.223801e-01   5.970208e-03
  3.493626e+00    4.435852e-01   6.132989e-03
  3.495837e+00    4.377740e-01   6.107358e-03
  3.498047e+00    4.632607e-01   6.297461e-03
  3.500258e+00    4.524865e-01   6.238379e-03
  3.502468e+00    4.660729e-01   6.345953e-03
  3.504679e+00    4.618660e-01   6.331725e-03
  3.506889e+00    4.871957e-01   6.517834e-03
  3.509099e+00    4.760507e-01   6.457259e-03
  3.511310e+00    4.937022e-01   6.590624e-03
  3.513520e+00    4.916318e-01   6.591341e-03
  3.515731e+00    4.867410e-01   6.572892e-03
  3.517941e+00    4.949868e-01   6.642750e-03
  3.520152e+00    4.881611e-01   6.610999e-03
  3.522362e+00    4.990896e-01   6.699055e-03
  3.524573e+00    5.058330e-01   6.758431e-03
  3.526783e+00    5.042278e-01   6.760985e-03
  3.528994e+00    5.191995e-01   6.872880e-03
  3.531204e+00    5.142109e-01   6.852148e-03
  3.533414e+00    5.274110e-01   6.951654e-03
  3.535625e+00    5.260178e-01   6.954810e-03
  3.537835e+00    5.479694e-01   7.110723e-03
  3.540046e+00    5.370082e-01   7.048195e-03
  3.542256e+00    5.488497e-01   7.133101e-03
  3.544467e+00    5.419737e-01   7.095965e-03
  3.546677e+00    5.476241e-01   7.140503e-03
  3.548888e+00    5.486161e-01   7.154557e-03
  3.551098e+00    5.264590e-01   7.015825e-03
  3.553309e+00    5.272300e-01   7.029050e-03
  3.555519e+00    5.249612e-01   7.025060e-03
  3.557729e+00    5.306718e-01   7.074855e-03
  3.559940e+00    5.337727e-01   7.107042e-03
  3.562150e+00    5.191323e-01   7.020370e-03
  3.564361e+00    5.451673e-01   7.207733e-03
  3.566571e+00    5.487518e-01   7.245346e-03
  3.568782e+00    5.621723e-01   7.347898e-03
  3.570992e+00    5.339013e-01   7.174501e-03
  3.573203e+00    5.424611e-01   7.245969e-03
  3.575413e+00    5.346829e-01   7.207622e-03
  3.577624e+00    5.460325e-01   7.297948e-03
  3.579834e+00    5.397411e-01   7.269742e-03
  3.582045e+00    5.252113e-01   7.185098e-03
  3.584255e+00    5.213717e-01   7.172641e-03
  3.586465e+00    5.295346e-01   7.242434e-03
  3.588676e+00    5.288339e-01   7.251726e-03
  3.590886e+00    5.394597e-01   7.337970e-03
  3.593097e+00    5.246444e-01   7.250877e-03
  3.595307e+00    5.176967e-01   7.216391e-03
  3.597518e+00    5.194346e-01   7.242473e-03
  3.599728e+00    5.326065e-01   7.347772e-03
  3.601939e+00    5.414812e-01   7.422923e-03
  3.604149e+00    5.574257e-01   7.546070e-03
  3.606360e+00    5.393536e-01   7.436977e-03
  3.608570e+00    5.239096e-01   7.343730e-03
  3.610780e+00    5.287591e-01   7.388634e-03
  3.612991e+00    5.263475e-01   7.381671e-03
  3.615201e+00    5.273007e-01   7.398115e-03
  3.617412e+00    5.333142e-01   7.447399e-03
  3.619622e+00    5.390602e-01   7.493441e-03
  3.621833e+00    5.287760e-01   7.428260e-03
  3.624043e+00    5.343077e-01   7.476537e-03
  3.626254e+00    5.201175e-01   7.386156e-03
  3.628464e+00    5.349665e-01   7.501802e-03
  3.630675e+00    5.412764e-01   7.560167e-03
  3.632885e+00    5.212010e-01   7.432922e-03
  3.635095e+00    5.336501e-01   7.535551e-03
  3.637306e+00    5.282758e-01   7.511806e-03
  3.639516e+00    5.359256e-01   7.580551e-03
  3.641727e+00    5.421185e-01   7.638943e-03
  3.643937e+00    5.372030e-01   7.618796e-03
  3.646148e+00    5.334774e-01   7.606992e-03
  3.648358e+00    5.257068e-01   7.566121e-03
  3.650569e+00    5.214552e-01   7.550038e-03
  3.652779e+00    5.136946e-01   7.508164e-03
  3.654990e+00    5.346982e-01   7.675002e-03
  3.657200e+00    5.353850e-01   7.694896e-03
  3.659410e+00    5.273750e-01   7.652022e-03
  3.661621e+00    5.428998e-01   7.779058e-03
  3.663831e+00    5.257599e-01   7.670345e-03
  3.666042e+00    5.284846e-01   7.705318e-03
  3.668252e+00    5.273533e-01   7.712218e-03
  3.670463e+00    5.372654e-01   7.799705e-03
  3.672673e+00    5.077658e-01   7.597651e-03
  3.674884e+00    5.147043e-01   7.664511e-03
  3.677094e+00    5.158607e-01   7.688433e-03
  3.679305e+00    5.402742e-01   7.883941e-03
  3.681515e+00    5.316688e-01   7.836564e-03
  3.683726e+00    5.294438e-01   7.835935e-03
  3.685936e+00    5.525928e-01   8.021470e-03
  3.688146e+00    5.172155e-01   7.776090e-03
  3.690357e+00    5.200439e-01   7.813120e-03
  3.692567e+00    5.183979e-01   7.816735e-03
  3.694778e+00    5.349054e-01   7.956404e-03
  3.696988e+00    5.246686e-01   7.895874e-03
  3.699199e+00    5.189775e-01   7.869050e-03
  3.701409e+00    5.135700e-01   7.844177e-03
  3.703620e+00    5.052640e-01   7.796446e-03
  3.705830e+00    5.329612e-01   8.023812e-03
  3.708041e+00    5.234128e-01   7.968248e-03
  3.710251e+00    5.085459e-01   7.870728e-03
  3.712461e+00    4.942807e-01   7.775804e-03
  3.714672e+00    5.417157e-01   8.157404e-03
  3.716882e+00    5.389673e-01   8.153724e-03
  3.719093e+00    5.119328e-01   7.963593e-03
  3.721303e+00    5.088435e-01   7.956316e-03
  3.723514e+00    4.973360e-01   7.882710e-03
  3.725724e+00    5.162683e-01   8.048469e-03
  3.727935e+00    5.076040e-01   7.997962e-03
  3.730145e+00    5.078303e-01   8.016858e-03
  3.732356e+00    5.029989e-01   7.996006e-03
  3.734566e+00    5.180847e-01   8.132557e-03
  3.736776e+00    5.247023e-01   8.202301e-03
  3.738987e+00    5.034643e-01   8.052135e-03
  3.741197e+00    5.137662e-01   8.152073e-03
  3.743408e+00    5.285274e-01   8.286729e-03
  3.745618e+00    4.937583e-01   8.027471e-03
  3.747829e+00    4.973423e-01   8.074398e-03
  3.750039e+00    4.701993e-01   7.868559e-03
  3.752250e+00    5.253327e-01   8.335822e-03
  3.754460e+00    5.065092e-01   8.203623e-03
  3.756671e+00    5.153453e-01   8.293765e-03
  3.758881e+00    4.963797e-01   8.158166e-03
  3.761091e+00    4.976125e-01   8.187172e-03
  3.763302e+00    5.004435e-01   8.229414e-03
  3.765512e+00    4.978420e-01   8.226990e-03
  3.767723e+00    5.342491e-01   8.542427e-03
  3.769933e+00    4.978668e-01   8.265568e-03
  3.772144e+00    5.040392e-01   8.336223e-03
  3.774354e+00    5.057707e-01   8.370354e-03
  3.776565e+00    5.011246e-01   8.351586e-03
  3.778775e+00    5.102735e-01   8.447532e-03
  3.780986e+00    5.173474e-01   8.526477e-03
  3.783196e+00    5.094662e-01   8.481643e-03
  3.785407e+00    4.936356e-01   8.369109e-03
  3.787617e+00    4.760903e-01   8.239197e-03
  3.789827e+00    4.860849e-01   8.345365e-03
  3.792038e+00    5.139437e-01   8.602310e-03
  3.794248e+00    4.771829e-01   8.309659e-03
  3.796459e+00    4.925141e-01   8.463141e-03
  3.798669e+00    5.113155e-01   8.644856e-03
  3.800880e+00    5.063918e-01   8.624651e-03
  3.803090e+00    5.074845e-01   8.655966e-03
  3.805301e+00    5.097062e-01   8.697175e-03
  3.807511e+00    5.337955e-01   8.923061e-03
  3.809722e+00    5.166516e-01   8.801237e-03
  3.811932e+00    5.041646e-01   8.716518e-03
  3.814142e+00    4.870962e-01   8.590335e-03
  3.816353e+00    5.145620e-01   8.852328e-03
  3.818563e+00    5.150184e-01   8.879788e-03
  3.820774e+00    4.798481e-01   8.593963e-03
  3.822984e+00    4.941968e-01   8.744773e-03
  3.825195e+00    4.918040e-01   8.747139e-03
  3.827405e+00    5.027792e-01   8.868224e-03
  3.829616e+00    5.096253e-01   8.952749e-03
  3.831826e+00    5.162011e-01   9.034921e-03
  3.834037e+00    5.182546e-01   9.077950e-03
  3.836247e+00    4.914954e-01   8.865017e-03
  3.838457e+00    4.721630e-01   8.713349e-03
  3.840668e+00    4.858633e-01   8.863733e-03
  3.842878e+00    4.986561e-01   9.005273e-03
  3.845089e+00    4.923453e-01   8.973587e-03
  3.847299e+00    4.929028e-01   9.004421e-03
  3.849510e+00    5.067893e-01   9.156498e-03
  3.851720e+00    4.902793e-01   9.027457e-03
  3.853931e+00    5.097565e-01   9.224266e-03
  3.856141e+00    5.039980e-01   9.191245e-03
  3.858352e+00    4.906088e-01   9.087497e-03
  3.860562e+00    4.921721e-01   9.121267e-03
  3.862772e+00    5.113841e-01   9.317441e-03
  3.864983e+00    4.970032e-01   9.205338e-03
  3.867193e+00    4.898927e-01   9.158868e-03
  3.869404e+00    4.842553e-01   9.125703e-03
  3.871614e+00    4.990358e-01   9.283914e-03
  3.873825e+00    5.009333e-01   9.322094e-03
  3.876035e+00    5.131658e-01   9.456246e-03
  3.878246e+00    4.912630e-01   9.277944e-03
  3.880456e+00    4.832146e-01   9.230355e-03
  3.882667e+00    4.989248e-01   9.408723e-03
  3.884877e+00    5.103776e-01   9.546447e-03
  3.887087e+00    4.780844e-01   9.269005e-03
  3.889298e+00    4.827392e-01   9.344100e-03
  3.891508e+00    4.672509e-01   9.222781e-03
  3.893719e+00    5.020605e-01   9.591439e-03
  3.895929e+00    5.156738e-01   9.752914e-03
  3.898140e+00    5.163209e-01   9.791490e-03
  3.900350e+00    4.954190e-01   9.623586e-03
  3.902561e+00    4.802513e-01   9.507192e-03
  3.904771e+00    4.616283e-01   9.352813e-03
  3.906982e+00    4.752769e-01   9.522754e-03
  3.909192e+00    5.049998e-01   9.850015e-03
  3.911403e+00    5.035424e-01   9.870345e-03
  3.913613e+00    4.800670e-01   9.671529e-03
  3.915823e+00    4.977719e-01   9.883302e-03
  3.918034e+00    4.776371e-01   9.716261e-03
  3.920244e+00    5.037295e-01   1.001433e-02
  3.922455e+00    5.069324e-01   1.008301e-02
  3.924665e+00    5.067388e-01   1.011815e-02
  3.926876e+00    4.887270e-01   9.973845e-03
  3.929086e+00    4.859751e-01   9.983079e-03
  3.931297e+00    4.576565e-01   9.721538e-03
  3.933507e+00    4.747752e-01   9.930160e-03
  3.935718e+00    4.885726e-01   1.010229e-02
  3.937928e+00    5.054463e-01   1.030517e-02
  3.940138e+00    5.175188e-01   1.045777e-02
  3.942349e+00    4.954200e-01   1.026223e-02
  3.944559e+00    4.462566e-01   9.768514e-03
  3.946770e+00    4.611144e-01   9.958975e-03
  3.948980e+00    4.934577e-01   1.033340e-02
  3.951191e+00    4.649337e-01   1.006040e-02
  3.953401e+00    4.900730e-01   1.036027e-02
  3.955612e+00    4.982755e-01   1.047869e-02
  3.957822e+00    4.988572e-01   1.051685e-02
  3.960033e+00    4.835750e-01   1.038713e-02
  3.962243e+00    4.876696e-01   1.046386e-02
  3.964453e+00    4.859483e-01   1.047849e-02
  3.966664e+00    4.955283e-01   1.061503e-02
  3.968874e+00    4.885092e-01   1.056803e-02
  3.971085e+00    4.750212e-01   1.044291e-02
  3.973295e+00    4.632099e-01   1.033315e-02
  3.975506e+00    4.683365e-01   1.041136e-02
  3.977716e+00    4.960582e-01   1.073738e-02
  3.979927e+00    5.073609e-01   1.088156e-02
  3.982137e+00    4.766251e-01   1.056895e-02
  3.984348e+00    5.012339e-01   1.086127e-02
  3.986558e+00    5.007203e-01   1.087839e-02
  3.988768e+00    4.884461e-01   1.076734e-02
  3.990979e+00    4.736372e-01   1.062531e-02
  3.993189e+00    4.999233e-01   1.093960e-02
  3.995400e+00    4.961589e-01   1.092215e-02
  3.997610e+00    4.841602e-01   1.081908e-02
  3.999821e+00    4.525363e-01   1.049602e-02
  4.002031e+00    4.743422e-01   1.078381e-02
  4.004242e+00    5.013812e-01   1.112616e-02
  4.006452e+00    4.464648e-01   1.053694e-02
  4.008663e+00    4.925210e-01   1.110733e-02
  4.010873e+00    4.694008e-01   1.088303e-02
  4.013084e+00    4.347245e-01   1.051195e-02
  4.015294e+00    4.695704e-01   1.096540e-02
  4.017504e+00    5.117171e-01   1.149016e-02
  4.019715e+00    4.834477e-01   1.121062e-02
  4.021925e+00    4.632190e-01   1.101567e-02
  4.024136e+00    4.724273e-01   1.116774e-02
  4.026346e+00    4.920240e-01   1.144157e-02
  4.028557e+00    4.790268e-01   1.133349e-02
  4.030767e+00    4.642717e-01   1.120235e-02
  4.032978e+00    4.447927e-01   1.100915e-02
  4.035188e+00    4.772195e-01   1.144928e-02
  4.037399e+00    4.610165e-01   1.129981e-02
  4.039609e+00    4.499125e-01   1.120878e-02
  4.041819e+00    4.620934e-01   1.140720e-02
  4.044030e+00    4.793294e-01   1.166775e-02
  4.046240e+00    5.086828e-01   1.207078e-02
  4.048451e+00    4.749056e-01   1.171378e-02
  4.050661e+00    4.859212e-01   1.190039e-02
  4.052872e+00    4.634375e-01   1.167350e-02
  4.055082e+00    4.652340e-01   1.174862e-02
  4.057293e+00    4.737999e-01   1.190952e-02
  4.059503e+00    4.945408e-01   1.222276e-02
  4.061714e+00    4.965273e-01   1.230455e-02
  4.063924e+00    4.624220e-01   1.193018e-02
  4.066134e+00    5.003331e-01   1.246786e-02
  4.068345e+00    4.508596e-01   1.189251e-02
  4.070555e+00    5.008527e-01   1.259497e-02
  4.072766e+00    4.826285e-01   1.242458e-02
  4.074976e+00    4.429220e-01   1.196195e-02
  4.077187e+00    4.915401e-01   1.266385e-02
  4.079397e+00    5.164541e-01   1.304716e-02
  4.081608e+00    4.949226e-01   1.283891e-02
  4.083818e+00    4.769697e-01   1.266922e-02
  4.086029e+00    4.687090e-01   1.262538e-02
  4.088239e+00    4.670908e-01   1.267145e-02
  4.090449e+00    4.628422e-01   1.268199e-02
  4.092660e+00    4.883910e-01   1.309894e-02
  4.094870e+00    4.827720e-01   1.309594e-02
  4.097081e+00    4.563961e-01   1.280280e-02
  4.099291e+00    5.068879e-01   1.354832e-02
  4.101502e+00    4.883762e-01   1.334830e-02
  4.103712e+00    4.790539e-01   1.326942e-02
  4.105923e+00    4.753197e-01   1.326894e-02
  4.108133e+00    4.789862e-01   1.337129e-02
  4.110344e+00    4.719992e-01   1.332404e-02
  4.112554e+00    4.389566e-01   1.290022e-02
  4.114764e+00    4.675514e-01   1.336707e-02
  4.116975e+00    4.999215e-01   1.387662e-02
  4.119185e+00    5.240349e-01   1.426489e-02
  4.121396e+00    4.596494e-01   1.341531e-02
  4.123606e+00    4.847412e-01   1.383287e-02
  4.125817e+00    5.007483e-01   1.411841e-02
  4.128027e+00    4.536056e-01   1.349415e-02
  4.130238e+00    4.838279e-01   1.399596e-02
  4.132448e+00    4.732664e-01   1.390258e-02
  4.134659e+00    4.590999e-01   1.375168e-02
  4.136869e+00    4.624855e-01   1.386401e-02
  4.139080e+00    4.600588e-01   1.388978e-02
  4.141290e+00    4.621498e-01   1.398298e-02
  4.143500e+00    4.856967e-01   1.440084e-02
  4.145711e+00    5.191371e-01   1.495806e-02
  4.147921e+00    4.780107e-01   1.441909e-02
  4.150132e+00    4.976603e-01   1.478275e-02
  4.152342e+00    5.033177e-01   1.493852e-02
  4.154553e+00    4.703609e-01   1.450998e-02
  4.156763e+00    4.402596e-01   1.410737e-02
  4.158974e+00    4.642684e-01   1.455963e-02
  4.161184e+00    4.703193e-01   1.472696e-02
  4.163395e+00    4.727509e-01   1.484036e-02
  4.165605e+00    4.768251e-01   1.498165e-02
  4.167815e+00    4.703957e-01   1.495800e-02
  4.170026e+00    4.716673e-01   1.505702e-02
  4.172236e+00    4.728825e-01   1.515808e-02
  4.174447e+00    4.803741e-01   1.536055e-02
  4.176657e+00    4.924006e-01   1.563703e-02
  4.178868e+00    4.718816e-01   1.539407e-02
  4.181078e+00    4.836222e-01   1.567247e-02
  4.183289e+00    4.765047e-01   1.564547e-02
  4.185499e+00    4.887140e-01   1.593820e-02
  4.187710e+00    4.775087e-01   1.584678e-02
  4.189920e+00    4.887135e-01   1.612823e-02
  4.192130e+00    4.691047e-01   1.589793e-02
  4.194341e+00    4.369818e-01   1.543809e-02
  4.196551e+00    4.261168e-01   1.534137e-02
  4.198762e+00    5.076947e-01   1.685202e-02
  4.200972e+00    4.564603e-01   1.608255e-02
  4.203183e+00    4.258093e-01   1.563537e-02
  4.205393e+00    4.845466e-01   1.679002e-02
  4.207604e+00    4.906064e-01   1.701011e-02
  4.209814e+00    5.067087e-01   1.740543e-02
  4.212025e+00    4.454035e-01   1.643436e-02
  4.214235e+00    5.040246e-01   1.760614e-02
  4.216445e+00    4.877045e-01   1.744410e-02
  4.218656e+00    4.969285e-01   1.774035e-02
  4.220866e+00    4.836894e-01   1.763197e-02
  4.223077e+00    4.414681e-01   1.697440e-02
  4.225287e+00    4.558467e-01   1.738435e-02
  4.227498e+00    5.197262e-01   1.870790e-02
  4.229708e+00    5.006193e-01   1.851022e-02
  4.231919e+00    4.319168e-01   1.733572e-02
  4.234129e+00    4.858044e-01   1.853907e-02
  4.236340e+00    4.733996e-01   1.845787e-02
  4.238550e+00    4.742950e-01   1.863810e-02
  4.240761e+00    4.716607e-01   1.875069e-02
  4.242971e+00    4.396234e-01   1.826846e-02
  4.245181e+00    4.924922e-01   1.951696e-02
  4.247392e+00    4.714565e-01   1.927445e-02
  4.249602e+00    4.810647e-01   1.966329e-02
  4.251813e+00    4.638065e-01   1.949770e-02
  4.254023e+00    4.299618e-01   1.896186e-02
  4.256234e+00    5.336065e-01   2.134974e-02
  4.258444e+00    4.970912e-01   2.082201e-02
  4.260655e+00    4.169866e-01   1.928026e-02
  4.262865e+00    4.760569e-01   2.083421e-02
  4.265076e+00    4.740161e-01   2.102595e-02
  4.267286e+00    4.882740e-01   2.159278e-02
  4.269496e+00    5.059945e-01   2.224970e-02
  4.271707e+00    4.650900e-01   2.159476e-02
  4.273917e+00    5.308822e-01   2.337033e-02
  4.276128e+00    3.320982e-01   1.872953e-02
  4.278338e+00    5.077786e-01   2.346842e-02
  4.280549e+00    5.098669e-01   2.385392e-02
  4.282759e+00    5.063318e-01   2.411355e-02
  4.284970e+00    4.836275e-01   2.391482e-02
  4.287180e+00    5.056249e-01   2.474578e-02
  4.289391e+00    3.906849e-01   2.191594e-02
  4.291601e+00    5.126747e-01   2.530496e-02
  4.293811e+00    5.150311e-01   2.556199e-02
  4.296022e+00    4.294429e-01   2.352845e-02
  4.298232e+00    5.284607e-01   2.631997e-02
  4.300443e+00    4.239693e-01   2.376900e-02
  4.302653e+00    3.710383e-01   2.242772e-02
  4.304864e+00    4.653242e-01   2.533398e-02
  4.307074e+00    4.682038e-01   2.564079e-02
  4.309285e+00    4.842315e-01   2.631344e-02
  4.311495e+00    3.195965e-01   2.157700e-02
  4.313706e+00    4.009213e-01   2.439305e-02
  4.315916e+00    5.613291e-01   2.914809e-02
  4.318126e+00    3.859145e-01   2.440773e-02
  4.320337e+00    4.507260e-01   2.664430e-02
  4.322547e+00    4.983580e-01   2.831381e-02
  4.324758e+00    4.522122e-01   2.725213e-02
  4.326968e+00    4.519245e-01   2.754955e-02
  4.329179e+00    5.242246e-01   2.999860e-02
  4.331389e+00    6.154289e-01   3.287823e-02
  4.333600e+00    4.868053e-01   2.959147e-02
  4.335810e+00    5.474021e-01   3.175056e-02
  4.338021e+00    5.634979e-01   3.262816e-02
  4.340231e+00    4.992168e-01   3.109485e-02
  4.342442e+00    4.217001e-01   2.896394e-02
  4.344652e+00    4.106843e-01   2.897047e-02
  4.346862e+00    3.742356e-01   2.804175e-02
  4.349073e+00    4.576455e-01   3.146098e-02
  4.351283e+00    4.195845e-01   3.057461e-02
  4.353494e+00    5.300421e-01   3.489529e-02
  4.355704e+00    4.399836e-01   3.230531e-02
  4.357915e+00    4.163242e-01   3.194597e-02
  4.360125e+00    4.910468e-01   3.528894e-02
  4.362336e+00    4.411301e-01   3.405556e-02
  4.364546e+00    5.687251e-01   3.937238e-02
  4.366757e+00    5.018407e-01   3.772081e-02
  4.368967e+00    3.726914e-01   3.315568e-02
  4.371177e+00    5.029167e-01   3.933378e-02
  4.373388e+00    5.660992e-01   4.266391e-02
  4.375598e+00    6.375052e-01   4.630790e-02
  4.377809e+00    4.159718e-01   3.835417e-02
  4.380019e+00    2.581611e-01   3.097410e-02
  4.382230e+00    3.972723e-01   3.949498e-02
  4.384440e+00    4.310834e-01   4.232622e-02
  4.386651e+00    4.614242e-01   4.514011e-02
  4.388861e+00    3.061339e-01   3.800429e-02
  4.391072e+00    3.862705e-01   4.418683e-02
  4.393282e+00    4.294038e-01   4.838825e-02
  4.395492e+00    7.673754e-01   6.737716e-02
  4.397703e+00    4.458827e-01   5.370968e-02
  4.399913e+00    3.853894e-01   5.245842e-02
  4.402124e+00    4.817471e-01   6.197508e-02
  4.404334e+00    4.928002e-01   6.662972e-02
  4.406545e+00    2.997257e-01   5.582984e-02
  4.408755e+00    3.851177e-01   6.863550e-02
  4.410966e+00    1.712506e-01   5.066521e-02
  4.413176e+00    3.314101e-01   7.976305e-02
  4.415387e+00   -7.802930e-01            nan
  4.417597e+00   -1.779233e+00            nan
  4.419807e+00   -3.766224e-01            nan
