# == pyFAI calibration ==
# Distance Sample to Detector: 0.216 m
# PONI: 1.166e-01, 1.308e-01 m
# Rotations: 0.000000 0.000000 0.000000 rad
# 
# == Fit2d calibration ==
# Distance Sample-beamCenter: 216.000 mm
# Center: x=1744.293, y=1555.000 pix
# Tilt: 0.000 deg  TiltPlanRot: 0.000 deg
# 
# Detector Eiger 9M	 PixelSize= 7.500e-05, 7.500e-05 m
#    Detector has a mask: True 
#    Detector has a dark current: False 
#    detector has a flat field: False 
# 
# Wavelength: 9.8e-11 m
# Mask applied: from detector
# Dark current applied: False
# Flat field applied: False
# Polarization factor: None
# Normalization factor: 1.0
# 
# Headers of the input frame:
# {
# "_array_data.header_convention": "SLS_1.0",
# "_array_data.header_contents": "# Detector: Dectris Eiger 9M, S/N E-18-0102\r\n# Pixel_size 75e-6 m x 75e-6 m\r\n# Silicon sensor, thickness 0.000450 m\r\n# Exposure_time 0.024997 s\r\n# Exposure_period 0.025000 s\r\n# Count_cutoff 62318 counts\r\n# Wavelength 0.980106 A\r\n# Detector_distance 0.215992 m\r\n# Beam_xy (1555, 1744) pixels\r\n# Start_angle 0.000000 deg.\r\n# Angle_increment 0.000000 deg.",
# "Content-Type": "application/octet-stream;",
# "conversions": "x-CBF_BYTE_OFFSET",
# "Content-Transfer-Encoding": "BINARY",
# "X-Binary-Size": "10166630",
# "X-Binary-ID": "1",
# "X-Binary-Element-Type": "signed 32-bit integer",
# "X-Binary-Element-Byte-Order": "LITTLE_ENDIAN",
# "Content-MD5": "NWGvhl+FAoWoRtHUQVMfIA==",
# "X-Binary-Number-of-Elements": "10166590",
# "X-Binary-Size-Fastest-Dimension": "3110",
# "X-Binary-Size-Second-Dimension": "3269",
# "X-Binary-Size-Padding": "4095"
# }
# --> H:/Proxima2a_2019-04-05/RAW_DATA/C5_gel17_position5/C5_mesh_1_data.cbf/C5_mesh_1_data.cbf000142.dat
#        q_A^-1              I           sigma 
  1.105228e-03    1.404073e+00   6.411828e-01
  3.315685e-03    1.565265e+00   4.115659e-01
  5.526141e-03    1.193377e+00   2.778823e-01
  7.736597e-03    1.285923e+00   2.436844e-01
  9.947054e-03    1.736117e+00   2.496123e-01
  1.215751e-02    1.430130e+00   2.048596e-01
  1.436797e-02    1.454747e+00   1.900507e-01
  1.657842e-02    1.650563e+00   1.884345e-01
  1.878888e-02    1.318963e+00   1.582267e-01
  2.099934e-02    1.404256e+00   1.544633e-01
  2.320979e-02    1.297608e+00   1.412227e-01
  2.542025e-02    1.396625e+00   1.400069e-01
  2.763070e-02    1.385189e+00   1.337349e-01
  2.984116e-02    1.377572e+00   1.283316e-01
  3.205162e-02    1.552598e+00   1.314667e-01
  3.426207e-02    1.556171e+00   1.272927e-01
  3.647253e-02    1.459296e+00   1.194707e-01
  3.868299e-02    1.422874e+00   1.145589e-01
  4.089344e-02    1.447541e+00   1.123818e-01
  4.310390e-02    1.439714e+00   1.091596e-01
  4.531436e-02    1.384370e+00   1.043979e-01
  4.752481e-02    1.370595e+00   1.014316e-01
  4.973527e-02    1.546072e+00   1.053093e-01
  5.194572e-02    1.470152e+00   1.004810e-01
  5.415618e-02    1.441523e+00   9.744275e-02
  5.636664e-02    1.399572e+00   9.411588e-02
  5.857709e-02    1.480353e+00   9.495047e-02
  6.078755e-02    1.492302e+00   9.358060e-02
  6.299801e-02    1.400653e+00   8.905570e-02
  6.520846e-02    1.470752e+00   8.969750e-02
  6.741892e-02    1.504433e+00   8.921468e-02
  6.962938e-02    1.438355e+00   8.584192e-02
  7.183983e-02    1.427041e+00   8.417638e-02
  7.405029e-02    1.585998e+00   8.740424e-02
  7.626074e-02    1.607982e+00   8.672234e-02
  7.847120e-02    1.524045e+00   8.322865e-02
  8.068166e-02    1.490779e+00   8.117925e-02
  8.289211e-02    1.479123e+00   7.977537e-02
  8.510257e-02    1.519481e+00   7.979894e-02
  8.731303e-02    1.538730e+00   7.927678e-02
  8.952348e-02    1.402377e+00   7.474463e-02
  9.173394e-02    1.475367e+00   7.573277e-02
  9.394439e-02    1.541160e+00   7.648446e-02
  9.615485e-02    1.482521e+00   7.414640e-02
  9.836531e-02    1.436013e+00   7.214756e-02
  1.005758e-01    1.416800e+00   7.087182e-02
  1.027862e-01    1.543074e+00   7.316126e-02
  1.049967e-01    1.584178e+00   7.334356e-02
  1.072071e-01    1.545874e+00   7.169978e-02
  1.094176e-01    1.544339e+00   7.093552e-02
  1.116280e-01    1.555725e+00   7.048652e-02
  1.138385e-01    1.544570e+00   6.954680e-02
  1.160490e-01    1.455788e+00   6.687150e-02
  1.182594e-01    1.458820e+00   6.631108e-02
  1.204699e-01    1.525255e+00   6.717873e-02
  1.226803e-01    1.572308e+00   6.758699e-02
  1.248908e-01    1.642311e+00   6.846037e-02
  1.271012e-01    1.539896e+00   6.571113e-02
  1.293117e-01    1.503917e+00   6.438071e-02
  1.315222e-01    1.557526e+00   6.496370e-02
  1.337326e-01    1.553409e+00   6.433813e-02
  1.359431e-01    1.592539e+00   6.518157e-02
  1.381535e-01    1.625557e+00   6.673778e-02
  1.403640e-01    1.516428e+00   6.473701e-02
  1.425744e-01    1.592197e+00   6.644055e-02
  1.447849e-01    1.651338e+00   6.767884e-02
  1.469953e-01    1.543913e+00   6.539950e-02
  1.492058e-01    1.584842e+00   6.618366e-02
  1.514163e-01    1.605136e+00   6.649548e-02
  1.536267e-01    1.522721e+00   6.463942e-02
  1.558372e-01    1.644771e+00   6.703169e-02
  1.580476e-01    1.625355e+00   6.647321e-02
  1.602581e-01    1.652476e+00   6.685525e-02
  1.624685e-01    1.712336e+00   6.786905e-02
  1.646790e-01    1.721083e+00   6.784681e-02
  1.668895e-01    1.708237e+00   6.739791e-02
  1.690999e-01    1.707981e+00   6.719048e-02
  1.713104e-01    1.713369e+00   6.708755e-02
  1.735208e-01    1.719611e+00   6.700063e-02
  1.757313e-01    1.679618e+00   6.600941e-02
  1.779417e-01    1.739149e+00   6.694993e-02
  1.801522e-01    1.821429e+00   6.829715e-02
  1.823626e-01    1.847613e+00   6.855731e-02
  1.845731e-01    1.875514e+00   6.884927e-02
  1.867836e-01    1.941669e+00   6.981659e-02
  1.889940e-01    1.971953e+00   7.012903e-02
  1.912045e-01    1.974559e+00   6.994102e-02
  1.934149e-01    1.969386e+00   6.961557e-02
  1.956254e-01    1.919126e+00   6.849483e-02
  1.978358e-01    2.013295e+00   6.991478e-02
  2.000463e-01    2.014441e+00   6.970292e-02
  2.022568e-01    2.051510e+00   7.011046e-02
  2.044672e-01    1.980570e+00   6.865163e-02
  2.066777e-01    1.900764e+00   6.703103e-02
  2.088881e-01    1.909985e+00   6.697359e-02
  2.110986e-01    2.032983e+00   6.885944e-02
  2.133090e-01    2.007183e+00   6.819872e-02
  2.155195e-01    1.931872e+00   6.668508e-02
  2.177300e-01    1.969675e+00   6.680540e-02
  2.199404e-01    1.986557e+00   6.532324e-02
  2.221509e-01    1.911884e+00   6.303147e-02
  2.243613e-01    1.899018e+00   6.202265e-02
  2.265718e-01    2.002074e+00   6.298141e-02
  2.287822e-01    2.010507e+00   6.248922e-02
  2.309927e-01    2.125921e+00   6.367242e-02
  2.332031e-01    2.170286e+00   6.378277e-02
  2.354136e-01    2.178497e+00   6.338537e-02
  2.376241e-01    2.192070e+00   6.308902e-02
  2.398345e-01    2.215595e+00   6.295723e-02
  2.420450e-01    2.228282e+00   6.268600e-02
  2.442554e-01    2.128268e+00   6.084103e-02
  2.464659e-01    2.111609e+00   6.019554e-02
  2.486763e-01    2.159437e+00   6.047331e-02
  2.508868e-01    2.176802e+00   6.033295e-02
  2.530973e-01    2.171262e+00   5.988256e-02
  2.553077e-01    2.130989e+00   5.896474e-02
  2.575182e-01    2.095305e+00   5.812304e-02
  2.597286e-01    2.121592e+00   5.814651e-02
  2.619391e-01    2.078195e+00   5.721745e-02
  2.641495e-01    1.991936e+00   5.570737e-02
  2.663600e-01    2.048749e+00   5.618550e-02
  2.685704e-01    2.099150e+00   5.656414e-02
  2.707809e-01    2.028327e+00   5.530662e-02
  2.729914e-01    2.035144e+00   5.511076e-02
  2.752018e-01    2.044444e+00   5.494906e-02
  2.774123e-01    1.993188e+00   5.397872e-02
  2.796227e-01    1.984153e+00   5.358984e-02
  2.818332e-01    1.957846e+00   5.296784e-02
  2.840436e-01    2.058801e+00   5.405299e-02
  2.862541e-01    2.021142e+00   5.329892e-02
  2.884646e-01    2.021677e+00   5.305299e-02
  2.906750e-01    1.932474e+00   5.162341e-02
  2.928855e-01    1.917036e+00   5.117856e-02
  2.950959e-01    1.946804e+00   5.133745e-02
  2.973064e-01    1.951989e+00   5.117476e-02
  2.995168e-01    1.946259e+00   5.086814e-02
  3.017273e-01    1.928679e+00   5.041462e-02
  3.039377e-01    1.954703e+00   5.053139e-02
  3.061482e-01    1.894149e+00   4.952735e-02
  3.083587e-01    1.930756e+00   4.978719e-02
  3.105691e-01    1.911844e+00   4.933117e-02
  3.127796e-01    1.818425e+00   4.790856e-02
  3.149900e-01    1.897652e+00   4.873717e-02
  3.172005e-01    1.941548e+00   4.909605e-02
  3.194109e-01    1.932616e+00   4.878080e-02
  3.216214e-01    1.910202e+00   4.829921e-02
  3.238319e-01    1.896946e+00   4.794063e-02
  3.260423e-01    1.927373e+00   4.813112e-02
  3.282528e-01    1.879177e+00   4.733632e-02
  3.304632e-01    1.867205e+00   4.700251e-02
  3.326737e-01    1.876096e+00   4.693043e-02
  3.348841e-01    1.861132e+00   4.656165e-02
  3.370946e-01    1.840428e+00   4.612773e-02
  3.393050e-01    1.862111e+00   4.622291e-02
  3.415155e-01    1.802223e+00   4.530255e-02
  3.437260e-01    1.776740e+00   4.481440e-02
  3.459364e-01    1.865771e+00   4.575360e-02
  3.481469e-01    1.883092e+00   4.579773e-02
  3.503573e-01    1.834316e+00   4.503604e-02
  3.525678e-01    1.888549e+00   4.553409e-02
  3.547782e-01    1.823068e+00   4.457606e-02
  3.569887e-01    1.820187e+00   4.438297e-02
  3.591992e-01    1.865824e+00   4.477695e-02
  3.614096e-01    1.800201e+00   4.382997e-02
  3.636201e-01    1.843648e+00   4.419986e-02
  3.658305e-01    1.789794e+00   4.340097e-02
  3.680410e-01    1.794851e+00   4.331276e-02
  3.702514e-01    1.848638e+00   4.380913e-02
  3.724619e-01    1.865039e+00   4.385319e-02
  3.746724e-01    1.844925e+00   4.347056e-02
  3.768828e-01    1.818551e+00   4.301349e-02
  3.790933e-01    1.829129e+00   4.299783e-02
  3.813037e-01    1.816493e+00   4.270887e-02
  3.835142e-01    1.816715e+00   4.257120e-02
  3.857246e-01    1.774094e+00   4.193272e-02
  3.879351e-01    1.764490e+00   4.168371e-02
  3.901455e-01    1.731379e+00   4.115931e-02
  3.923560e-01    1.740945e+00   4.114166e-02
  3.945665e-01    1.786258e+00   4.154148e-02
  3.967769e-01    1.825152e+00   4.185979e-02
  3.989874e-01    1.837877e+00   4.187432e-02
  4.011978e-01    1.823730e+00   4.158457e-02
  4.034083e-01    1.798733e+00   4.117180e-02
  4.056187e-01    1.754043e+00   4.053190e-02
  4.078292e-01    1.770331e+00   4.059641e-02
  4.100397e-01    1.777052e+00   4.054921e-02
  4.122501e-01    1.771120e+00   4.036037e-02
  4.144606e-01    1.804806e+00   4.062156e-02
  4.166710e-01    1.788732e+00   4.032002e-02
  4.188815e-01    1.812133e+00   4.046302e-02
  4.210919e-01    1.826993e+00   4.050951e-02
  4.233024e-01    1.846752e+00   4.060820e-02
  4.255128e-01    1.810666e+00   4.009326e-02
  4.277233e-01    1.770473e+00   3.953186e-02
  4.299338e-01    1.820371e+00   3.996971e-02
  4.321442e-01    1.778717e+00   3.939673e-02
  4.343547e-01    1.791692e+00   3.942833e-02
  4.365651e-01    1.753761e+00   3.889792e-02
  4.387756e-01    1.784352e+00   3.912583e-02
  4.409860e-01    1.782936e+00   3.900195e-02
  4.431965e-01    1.785758e+00   3.892489e-02
  4.454070e-01    1.729954e+00   3.820526e-02
  4.476174e-01    1.774558e+00   3.858843e-02
  4.498279e-01    1.730030e+00   3.799754e-02
  4.520383e-01    1.735664e+00   3.795492e-02
  4.542488e-01    1.733515e+00   3.782913e-02
  4.564592e-01    1.703699e+00   3.740179e-02
  4.586697e-01    1.750095e+00   3.780701e-02
  4.608801e-01    1.714034e+00   3.731528e-02
  4.630906e-01    1.731948e+00   3.741042e-02
  4.653011e-01    1.766948e+00   3.768719e-02
  4.675115e-01    1.732631e+00   3.722114e-02
  4.697220e-01    1.714458e+00   3.692847e-02
  4.719324e-01    1.692554e+00   3.659691e-02
  4.741429e-01    1.737137e+00   3.698023e-02
  4.763533e-01    1.710884e+00   3.660567e-02
  4.785638e-01    1.719055e+00   3.659817e-02
  4.807743e-01    1.729044e+00   3.661101e-02
  4.829847e-01    1.733167e+00   3.656204e-02
  4.851952e-01    1.714954e+00   3.627738e-02
  4.874056e-01    1.736140e+00   3.640874e-02
  4.896161e-01    1.707780e+00   3.602060e-02
  4.918265e-01    1.713548e+00   3.599178e-02
  4.940370e-01    1.656495e+00   3.530017e-02
  4.962475e-01    1.722459e+00   3.590725e-02
  4.984579e-01    1.716284e+00   3.575451e-02
  5.006684e-01    1.689509e+00   3.538802e-02
  5.028788e-01    1.691298e+00   3.532095e-02
  5.050893e-01    1.657637e+00   3.488265e-02
  5.072997e-01    1.692140e+00   3.515869e-02
  5.095102e-01    1.696116e+00   3.511568e-02
  5.117206e-01    1.674195e+00   3.480505e-02
  5.139311e-01    1.687459e+00   3.485995e-02
  5.161416e-01    1.665088e+00   3.454630e-02
  5.183520e-01    1.620187e+00   3.399633e-02
  5.205625e-01    1.653565e+00   3.426426e-02
  5.227729e-01    1.690816e+00   3.456726e-02
  5.249834e-01    1.681105e+00   3.438782e-02
  5.271938e-01    1.735640e+00   3.485962e-02
  5.294043e-01    1.705631e+00   3.447721e-02
  5.316148e-01    1.731804e+00   3.466113e-02
  5.338252e-01    1.774513e+00   3.500576e-02
  5.360357e-01    1.755997e+00   3.474338e-02
  5.382461e-01    1.747376e+00   3.457963e-02
  5.404566e-01    1.780590e+00   3.482730e-02
  5.426670e-01    1.792595e+00   3.486577e-02
  5.448775e-01    1.780356e+00   3.466891e-02
  5.470879e-01    1.780493e+00   3.459295e-02
  5.492984e-01    1.801647e+00   3.472043e-02
  5.515089e-01    1.806202e+00   3.468721e-02
  5.537193e-01    1.769846e+00   3.426069e-02
  5.559298e-01    1.788518e+00   3.436538e-02
  5.581402e-01    1.808004e+00   3.447659e-02
  5.603507e-01    1.799477e+00   3.432034e-02
  5.625611e-01    1.781841e+00   3.407764e-02
  5.647716e-01    1.827966e+00   3.444093e-02
  5.669821e-01    1.807268e+00   3.417160e-02
  5.691925e-01    1.774116e+00   3.378402e-02
  5.714030e-01    1.788874e+00   3.385195e-02
  5.736134e-01    1.759685e+00   3.350320e-02
  5.758239e-01    1.757699e+00   3.341284e-02
  5.780343e-01    1.701261e+00   3.280248e-02
  5.802448e-01    1.683466e+00   3.256219e-02
  5.824552e-01    1.644751e+00   3.211805e-02
  5.846657e-01    1.697393e+00   3.255995e-02
  5.868762e-01    1.657742e+00   3.211045e-02
  5.890866e-01    1.634469e+00   3.181808e-02
  5.912971e-01    1.647108e+00   3.187473e-02
  5.935075e-01    1.621105e+00   3.155679e-02
  5.957180e-01    1.601925e+00   3.130517e-02
  5.979284e-01    1.667304e+00   3.187241e-02
  6.001389e-01    1.662935e+00   3.176583e-02
  6.023494e-01    1.626673e+00   3.135379e-02
  6.045598e-01    1.629042e+00   3.131270e-02
  6.067703e-01    1.678135e+00   3.171713e-02
  6.089807e-01    1.635570e+00   3.124934e-02
  6.111912e-01    1.681506e+00   3.162186e-02
  6.134016e-01    1.693106e+00   3.166746e-02
  6.156121e-01    1.703737e+00   3.170359e-02
  6.178226e-01    1.676092e+00   3.138306e-02
  6.200330e-01    1.690065e+00   3.145144e-02
  6.222435e-01    1.711880e+00   3.159107e-02
  6.244539e-01    1.701523e+00   3.143371e-02
  6.266644e-01    1.681499e+00   3.118723e-02
  6.288748e-01    1.732808e+00   3.159783e-02
  6.310853e-01    1.787544e+00   3.203074e-02
  6.332957e-01    1.746413e+00   3.159894e-02
  6.355062e-01    1.745183e+00   3.152646e-02
  6.377167e-01    1.700496e+00   3.106050e-02
  6.399271e-01    1.722767e+00   3.120331e-02
  6.421376e-01    1.722861e+00   3.114462e-02
  6.443480e-01    1.728009e+00   3.113176e-02
  6.465585e-01    1.707266e+00   3.088575e-02
  6.487689e-01    1.655796e+00   3.035916e-02
  6.509794e-01    1.685168e+00   3.056948e-02
  6.531899e-01    1.665701e+00   3.033527e-02
  6.554003e-01    1.614628e+00   2.981041e-02
  6.576108e-01    1.576808e+00   2.940439e-02
  6.598212e-01    1.551792e+00   2.911598e-02
  6.620317e-01    1.583079e+00   2.935352e-02
  6.642421e-01    1.578179e+00   2.925385e-02
  6.664526e-01    1.659371e+00   2.994162e-02
  6.686630e-01    1.656977e+00   2.986473e-02
  6.708735e-01    1.619363e+00   2.946966e-02
  6.730840e-01    1.616278e+00   2.938788e-02
  6.752944e-01    1.609641e+00   2.927415e-02
  6.775049e-01    1.618527e+00   2.930154e-02
  6.797153e-01    1.616861e+00   2.923343e-02
  6.819258e-01    1.626581e+00   2.926829e-02
  6.841362e-01    1.624722e+00   2.919895e-02
  6.863467e-01    1.635137e+00   2.923992e-02
  6.885572e-01    1.611518e+00   2.897598e-02
  6.907676e-01    1.615318e+00   2.895811e-02
  6.929781e-01    1.633332e+00   2.906740e-02
  6.951885e-01    1.594844e+00   2.867200e-02
  6.973990e-01    1.606965e+00   2.872988e-02
  6.996094e-01    1.565915e+00   2.831064e-02
  7.018199e-01    1.605092e+00   2.861228e-02
  7.040303e-01    1.616104e+00   2.865986e-02
  7.062408e-01    1.638559e+00   2.880770e-02
  7.084513e-01    1.676817e+00   2.909140e-02
  7.106617e-01    1.632853e+00   2.865762e-02
  7.128722e-01    1.610285e+00   2.840965e-02
  7.150826e-01    1.596723e+00   2.824099e-02
  7.172931e-01    1.617509e+00   2.837522e-02
  7.195035e-01    1.580159e+00   2.799748e-02
  7.217140e-01    1.605363e+00   2.826981e-02
  7.239245e-01    1.588042e+00   2.834459e-02
  7.261349e-01    1.570650e+00   2.829744e-02
  7.283454e-01    1.563833e+00   2.830809e-02
  7.305558e-01    1.587964e+00   2.857990e-02
  7.327663e-01    1.572585e+00   2.848364e-02
  7.349767e-01    1.586652e+00   2.862716e-02
  7.371872e-01    1.647276e+00   2.915752e-02
  7.393976e-01    1.571957e+00   2.846891e-02
  7.416081e-01    1.533789e+00   2.810518e-02
  7.438186e-01    1.572066e+00   2.830950e-02
  7.460290e-01    1.603812e+00   2.829697e-02
  7.482395e-01    1.565009e+00   2.778193e-02
  7.504499e-01    1.553761e+00   2.754653e-02
  7.526604e-01    1.565099e+00   2.753065e-02
  7.548708e-01    1.581807e+00   2.758760e-02
  7.570813e-01    1.603885e+00   2.772801e-02
  7.592918e-01    1.593668e+00   2.760417e-02
  7.615022e-01    1.600544e+00   2.762958e-02
  7.637127e-01    1.609220e+00   2.767121e-02
  7.659231e-01    1.592266e+00   2.749290e-02
  7.681336e-01    1.557831e+00   2.716256e-02
  7.703440e-01    1.554311e+00   2.710081e-02
  7.725545e-01    1.595729e+00   2.742843e-02
  7.747650e-01    1.633016e+00   2.770815e-02
  7.769754e-01    1.586235e+00   2.725551e-02
  7.791859e-01    1.598402e+00   2.730596e-02
  7.813963e-01    1.611427e+00   2.736385e-02
  7.836068e-01    1.596896e+00   2.718800e-02
  7.858172e-01    1.617454e+00   2.731129e-02
  7.880277e-01    1.594074e+00   2.706161e-02
  7.902381e-01    1.629094e+00   2.730753e-02
  7.924486e-01    1.593848e+00   2.696051e-02
  7.946591e-01    1.606912e+00   2.702235e-02
  7.968695e-01    1.641318e+00   2.726125e-02
  7.990800e-01    1.662203e+00   2.738512e-02
  8.012904e-01    1.676061e+00   2.745147e-02
  8.035009e-01    1.658602e+00   2.725954e-02
  8.057113e-01    1.650821e+00   2.714849e-02
  8.079218e-01    1.659806e+00   2.717530e-02
  8.101323e-01    1.636496e+00   2.693799e-02
  8.123427e-01    1.641752e+00   2.693519e-02
  8.145532e-01    1.624458e+00   2.674714e-02
  8.167636e-01    1.619486e+00   2.666123e-02
  8.189741e-01    1.667854e+00   2.701135e-02
  8.211845e-01    1.664099e+00   2.693570e-02
  8.233950e-01    1.661945e+00   2.687450e-02
  8.256054e-01    1.649276e+00   2.672751e-02
  8.278159e-01    1.641055e+00   2.661679e-02
  8.300264e-01    1.646757e+00   2.661979e-02
  8.322368e-01    1.678955e+00   2.683512e-02
  8.344473e-01    1.662275e+00   2.665782e-02
  8.366577e-01    1.658390e+00   2.658381e-02
  8.388682e-01    1.673721e+00   2.666370e-02
  8.410786e-01    1.665488e+00   2.655566e-02
  8.432891e-01    1.651838e+00   2.640461e-02
  8.454996e-01    1.613411e+00   2.605437e-02
  8.477100e-01    1.592822e+00   2.584650e-02
  8.499205e-01    1.646507e+00   2.623719e-02
  8.521309e-01    1.602014e+00   2.583992e-02
  8.543414e-01    1.626807e+00   2.599847e-02
  8.565518e-01    1.613954e+00   2.585527e-02
  8.587623e-01    1.609646e+00   2.578051e-02
  8.609727e-01    1.637760e+00   2.596435e-02
  8.631832e-01    1.653191e+00   2.604618e-02
  8.653937e-01    1.624273e+00   2.577770e-02
  8.676041e-01    1.637594e+00   2.584412e-02
  8.698146e-01    1.611951e+00   2.560180e-02
  8.720250e-01    1.607270e+00   2.552563e-02
  8.742355e-01    1.569720e+00   2.518730e-02
  8.764459e-01    1.583544e+00   2.525936e-02
  8.786564e-01    1.599764e+00   2.535055e-02
  8.808669e-01    1.599847e+00   2.531277e-02
  8.830773e-01    1.614625e+00   2.539113e-02
  8.852878e-01    1.639316e+00   2.554617e-02
  8.874982e-01    1.625920e+00   2.540467e-02
  8.897087e-01    1.602937e+00   2.518678e-02
  8.919191e-01    1.586195e+00   2.501730e-02
  8.941296e-01    1.585693e+00   2.497623e-02
  8.963401e-01    1.598060e+00   2.503703e-02
  8.985505e-01    1.612178e+00   2.511030e-02
  9.007610e-01    1.578216e+00   2.480790e-02
  9.029714e-01    1.569938e+00   2.470726e-02
  9.051819e-01    1.587687e+00   2.480943e-02
  9.073923e-01    1.626869e+00   2.507683e-02
  9.096028e-01    1.605274e+00   2.487489e-02
  9.118132e-01    1.589899e+00   2.471935e-02
  9.140237e-01    1.614390e+00   2.487222e-02
  9.162342e-01    1.617502e+00   2.486146e-02
  9.184446e-01    1.621679e+00   2.485750e-02
  9.206551e-01    1.656303e+00   2.508528e-02
  9.228655e-01    1.643515e+00   2.495252e-02
  9.250760e-01    1.684646e+00   2.522657e-02
  9.272864e-01    1.658647e+00   2.499631e-02
  9.294969e-01    1.636467e+00   2.479244e-02
  9.317074e-01    1.652897e+00   2.488136e-02
  9.339178e-01    1.654299e+00   2.485792e-02
  9.361283e-01    1.640764e+00   2.471953e-02
  9.383387e-01    1.645415e+00   2.472086e-02
  9.405492e-01    1.671546e+00   2.488159e-02
  9.427596e-01    1.657122e+00   2.473835e-02
  9.449701e-01    1.665110e+00   2.476419e-02
  9.471805e-01    1.696670e+00   2.496238e-02
  9.493910e-01    1.665604e+00   2.469886e-02
  9.516015e-01    1.705851e+00   2.496058e-02
  9.538119e-01    1.701798e+00   2.489676e-02
  9.560224e-01    1.720268e+00   2.499624e-02
  9.582328e-01    1.755628e+00   2.521797e-02
  9.604433e-01    1.743994e+00   2.509869e-02
  9.626537e-01    1.793857e+00   2.542072e-02
  9.648642e-01    1.804772e+00   2.546302e-02
  9.670747e-01    1.799504e+00   2.539077e-02
  9.692851e-01    1.826590e+00   2.554715e-02
  9.714956e-01    1.813524e+00   2.541972e-02
  9.737060e-01    1.804864e+00   2.532565e-02
  9.759165e-01    1.839524e+00   2.553159e-02
  9.781269e-01    1.869979e+00   2.570842e-02
  9.803374e-01    1.838012e+00   2.545247e-02
  9.825478e-01    1.838269e+00   2.542068e-02
  9.847583e-01    1.834564e+00   2.536056e-02
  9.869688e-01    1.825142e+00   2.526150e-02
  9.891792e-01    1.785358e+00   2.495146e-02
  9.913897e-01    1.763875e+00   2.476742e-02
  9.936001e-01    1.742527e+00   2.458484e-02
  9.958106e-01    1.729254e+00   2.445777e-02
  9.980210e-01    1.648845e+00   2.385136e-02
  1.000231e+00    1.656523e+00   2.403779e-02
  1.002442e+00    1.660711e+00   2.419602e-02
  1.004652e+00    1.649259e+00   2.417975e-02
  1.006863e+00    1.600976e+00   2.387260e-02
  1.009073e+00    1.602476e+00   2.392033e-02
  1.011284e+00    1.593168e+00   2.388265e-02
  1.013494e+00    1.551992e+00   2.359539e-02
  1.015705e+00    1.547306e+00   2.358198e-02
  1.017915e+00    1.582283e+00   2.386347e-02
  1.020126e+00    1.568942e+00   2.377872e-02
  1.022336e+00    1.567228e+00   2.377742e-02
  1.024547e+00    1.531498e+00   2.351599e-02
  1.026757e+00    1.527403e+00   2.349284e-02
  1.028967e+00    1.494017e+00   2.324222e-02
  1.031178e+00    1.516075e+00   2.341928e-02
  1.033388e+00    1.509006e+00   2.336966e-02
  1.035599e+00    1.514883e+00   2.341852e-02
  1.037809e+00    1.494619e+00   2.326460e-02
  1.040020e+00    1.465453e+00   2.303771e-02
  1.042230e+00    1.516833e+00   2.344004e-02
  1.044441e+00    1.505846e+00   2.335479e-02
  1.046651e+00    1.488736e+00   2.322189e-02
  1.048862e+00    1.483460e+00   2.317992e-02
  1.051072e+00    1.494686e+00   2.326509e-02
  1.053282e+00    1.507594e+00   2.336440e-02
  1.055493e+00    1.485765e+00   2.319034e-02
  1.057703e+00    1.479749e+00   2.314182e-02
  1.059914e+00    1.477902e+00   2.312314e-02
  1.062124e+00    1.488995e+00   2.320569e-02
  1.064335e+00    1.531716e+00   2.353275e-02
  1.066545e+00    1.519378e+00   2.343172e-02
  1.068756e+00    1.492236e+00   2.321774e-02
  1.070966e+00    1.442958e+00   2.282470e-02
  1.073177e+00    1.448312e+00   2.286098e-02
  1.075387e+00    1.450982e+00   2.287686e-02
  1.077597e+00    1.494635e+00   2.321111e-02
  1.079808e+00    1.486382e+00   2.301322e-02
  1.082018e+00    1.463479e+00   2.264611e-02
  1.084229e+00    1.444096e+00   2.238622e-02
  1.086439e+00    1.419721e+00   2.211011e-02
  1.088650e+00    1.469755e+00   2.242026e-02
  1.090860e+00    1.455744e+00   2.224551e-02
  1.093071e+00    1.462986e+00   2.223830e-02
  1.095281e+00    1.448230e+00   2.206860e-02
  1.097492e+00    1.427576e+00   2.185608e-02
  1.099702e+00    1.431204e+00   2.183259e-02
  1.101912e+00    1.488568e+00   2.221614e-02
  1.104123e+00    1.500295e+00   2.225422e-02
  1.106333e+00    1.479257e+00   2.205251e-02
  1.108544e+00    1.435171e+00   2.167707e-02
  1.110754e+00    1.452141e+00   2.176143e-02
  1.112965e+00    1.414820e+00   2.143956e-02
  1.115175e+00    1.404753e+00   2.132216e-02
  1.117386e+00    1.422453e+00   2.141672e-02
  1.119596e+00    1.402105e+00   2.122524e-02
  1.121807e+00    1.433189e+00   2.142009e-02
  1.124017e+00    1.436910e+00   2.141086e-02
  1.126228e+00    1.415606e+00   2.121564e-02
  1.128438e+00    1.419721e+00   2.120945e-02
  1.130648e+00    1.416501e+00   2.115086e-02
  1.132859e+00    1.403363e+00   2.101809e-02
  1.135069e+00    1.380523e+00   2.081178e-02
  1.137280e+00    1.402016e+00   2.094001e-02
  1.139490e+00    1.361438e+00   2.060202e-02
  1.141701e+00    1.360774e+00   2.056414e-02
  1.143911e+00    1.391023e+00   2.075950e-02
  1.146122e+00    1.405054e+00   2.083165e-02
  1.148332e+00    1.375184e+00   2.057721e-02
  1.150543e+00    1.358456e+00   2.042105e-02
  1.152753e+00    1.363209e+00   2.042606e-02
  1.154963e+00    1.349264e+00   2.029053e-02
  1.157174e+00    1.373593e+00   2.044247e-02
  1.159384e+00    1.392284e+00   2.055104e-02
  1.161595e+00    1.381828e+00   2.044375e-02
  1.163805e+00    1.365605e+00   2.029415e-02
  1.166016e+00    1.370055e+00   2.029775e-02
  1.168226e+00    1.351220e+00   2.012896e-02
  1.170437e+00    1.344157e+00   2.004787e-02
  1.172647e+00    1.358308e+00   2.012430e-02
  1.174858e+00    1.393032e+00   2.035152e-02
  1.177068e+00    1.363651e+00   2.010751e-02
  1.179278e+00    1.360711e+00   2.005724e-02
  1.181489e+00    1.375038e+00   2.013539e-02
  1.183699e+00    1.378637e+00   2.013395e-02
  1.185910e+00    1.354696e+00   1.993064e-02
  1.188120e+00    1.337522e+00   1.977739e-02
  1.190331e+00    1.335497e+00   1.973585e-02
  1.192541e+00    1.336601e+00   1.971680e-02
  1.194752e+00    1.361598e+00   1.987319e-02
  1.196962e+00    1.363812e+00   1.986349e-02
  1.199173e+00    1.347137e+00   1.971521e-02
  1.201383e+00    1.342090e+00   1.965116e-02
  1.203593e+00    1.335564e+00   1.957863e-02
  1.205804e+00    1.362430e+00   1.974854e-02
  1.208014e+00    1.368949e+00   1.976870e-02
  1.210225e+00    1.341064e+00   1.954108e-02
  1.212435e+00    1.348077e+00   1.956731e-02
  1.214646e+00    1.396755e+00   1.989093e-02
  1.216856e+00    1.366834e+00   1.965109e-02
  1.219067e+00    1.361116e+00   1.958536e-02
  1.221277e+00    1.355430e+00   1.951935e-02
  1.223488e+00    1.311419e+00   1.917446e-02
  1.225698e+00    1.322840e+00   1.923113e-02
  1.227909e+00    1.342610e+00   1.934422e-02
  1.230119e+00    1.361149e+00   1.944534e-02
  1.232329e+00    1.352679e+00   1.935399e-02
  1.234540e+00    1.370999e+00   1.945409e-02
  1.236750e+00    1.374032e+00   1.944506e-02
  1.238961e+00    1.397755e+00   1.958476e-02
  1.241171e+00    1.371331e+00   1.937440e-02
  1.243382e+00    1.362821e+00   1.929056e-02
  1.245592e+00    1.340447e+00   1.910754e-02
  1.247803e+00    1.381405e+00   1.937331e-02
  1.250013e+00    1.375827e+00   1.931043e-02
  1.252224e+00    1.330369e+00   1.896564e-02
  1.254434e+00    1.344899e+00   1.904522e-02
  1.256644e+00    1.359143e+00   1.912254e-02
  1.258855e+00    1.343756e+00   1.899077e-02
  1.261065e+00    1.318999e+00   1.879192e-02
  1.263276e+00    1.320550e+00   1.878026e-02
  1.265486e+00    1.352315e+00   1.898189e-02
  1.267697e+00    1.347930e+00   1.892810e-02
  1.269907e+00    1.364970e+00   1.902454e-02
  1.272118e+00    1.347689e+00   1.888119e-02
  1.274328e+00    1.331317e+00   1.874356e-02
  1.276539e+00    1.339013e+00   1.877496e-02
  1.278749e+00    1.351117e+00   1.883734e-02
  1.280959e+00    1.343691e+00   1.876302e-02
  1.283170e+00    1.340850e+00   1.872083e-02
  1.285380e+00    1.335115e+00   1.865840e-02
  1.287591e+00    1.367587e+00   1.886177e-02
  1.289801e+00    1.353256e+00   1.874145e-02
  1.292012e+00    1.351408e+00   1.871154e-02
  1.294222e+00    1.333508e+00   1.857106e-02
  1.296433e+00    1.340635e+00   1.860506e-02
  1.298643e+00    1.396194e+00   1.896993e-02
  1.300854e+00    1.379532e+00   1.883981e-02
  1.303064e+00    1.387528e+00   1.887484e-02
  1.305274e+00    1.377015e+00   1.878155e-02
  1.307485e+00    1.361881e+00   1.865641e-02
  1.309695e+00    1.339628e+00   1.848122e-02
  1.311906e+00    1.352278e+00   1.854652e-02
  1.314116e+00    1.384854e+00   1.874753e-02
  1.316327e+00    1.385205e+00   1.872794e-02
  1.318537e+00    1.414656e+00   1.890357e-02
  1.320748e+00    1.422984e+00   1.893702e-02
  1.322958e+00    1.418632e+00   1.888699e-02
  1.325169e+00    1.422473e+00   1.889097e-02
  1.327379e+00    1.394534e+00   1.868236e-02
  1.329589e+00    1.402188e+00   1.871210e-02
  1.331800e+00    1.369868e+00   1.847434e-02
  1.334010e+00    1.381240e+00   1.852996e-02
  1.336221e+00    1.392985e+00   1.858649e-02
  1.338431e+00    1.357410e+00   1.832670e-02
  1.340642e+00    1.376808e+00   1.852197e-02
  1.342852e+00    1.382616e+00   1.866287e-02
  1.345063e+00    1.405681e+00   1.886840e-02
  1.347273e+00    1.383929e+00   1.875753e-02
  1.349484e+00    1.405123e+00   1.892885e-02
  1.351694e+00    1.383991e+00   1.880898e-02
  1.353905e+00    1.367782e+00   1.871660e-02
  1.356115e+00    1.361897e+00   1.869141e-02
  1.358325e+00    1.341124e+00   1.856159e-02
  1.360536e+00    1.344146e+00   1.859409e-02
  1.362746e+00    1.347575e+00   1.862735e-02
  1.364957e+00    1.360268e+00   1.872256e-02
  1.367167e+00    1.379174e+00   1.885945e-02
  1.369378e+00    1.414545e+00   1.910593e-02
  1.371588e+00    1.417564e+00   1.913159e-02
  1.373799e+00    1.432422e+00   1.923538e-02
  1.376009e+00    1.503446e+00   1.971006e-02
  1.378220e+00    1.672322e+00   2.079037e-02
  1.380430e+00    1.967049e+00   2.255136e-02
  1.382640e+00    2.253817e+00   2.414055e-02
  1.384851e+00    2.086312e+00   2.322742e-02
  1.387061e+00    1.663812e+00   2.074294e-02
  1.389272e+00    1.457611e+00   1.941524e-02
  1.391482e+00    1.355045e+00   1.871899e-02
  1.393693e+00    1.339466e+00   1.861016e-02
  1.395903e+00    1.349059e+00   1.867514e-02
  1.398114e+00    1.347180e+00   1.866073e-02
  1.400324e+00    1.318450e+00   1.845851e-02
  1.402535e+00    1.313028e+00   1.841817e-02
  1.404745e+00    1.314277e+00   1.842452e-02
  1.406955e+00    1.314726e+00   1.842493e-02
  1.409166e+00    1.308706e+00   1.837937e-02
  1.411376e+00    1.290414e+00   1.824730e-02
  1.413587e+00    1.284237e+00   1.819976e-02
  1.415797e+00    1.295643e+00   1.827681e-02
  1.418008e+00    1.305490e+00   1.830369e-02
  1.420218e+00    1.277137e+00   1.795370e-02
  1.422429e+00    1.289780e+00   1.795635e-02
  1.424639e+00    1.287731e+00   1.787696e-02
  1.426850e+00    1.292201e+00   1.785277e-02
  1.429060e+00    1.300861e+00   1.786291e-02
  1.431270e+00    1.333258e+00   1.803858e-02
  1.433481e+00    1.303181e+00   1.779249e-02
  1.435691e+00    1.259906e+00   1.745628e-02
  1.437902e+00    1.272936e+00   1.750980e-02
  1.440112e+00    1.271072e+00   1.746163e-02
  1.442323e+00    1.287163e+00   1.753853e-02
  1.444533e+00    1.253288e+00   1.727388e-02
  1.446744e+00    1.254719e+00   1.725280e-02
  1.448954e+00    1.273569e+00   1.735166e-02
  1.451165e+00    1.292336e+00   1.744902e-02
  1.453375e+00    1.302189e+00   1.748703e-02
  1.455586e+00    1.288928e+00   1.736938e-02
  1.457796e+00    1.298012e+00   1.740268e-02
  1.460006e+00    1.281743e+00   1.726588e-02
  1.462217e+00    1.311079e+00   1.743571e-02
  1.464427e+00    1.300377e+00   1.733850e-02
  1.466638e+00    1.296932e+00   1.728991e-02
  1.468848e+00    1.294835e+00   1.725035e-02
  1.471059e+00    1.269623e+00   1.705648e-02
  1.473269e+00    1.299815e+00   1.723340e-02
  1.475480e+00    1.328686e+00   1.739946e-02
  1.477690e+00    1.291865e+00   1.713260e-02
  1.479901e+00    1.294168e+00   1.712378e-02
  1.482111e+00    1.288318e+00   1.706152e-02
  1.484321e+00    1.292217e+00   1.706398e-02
  1.486532e+00    1.304533e+00   1.712241e-02
  1.488742e+00    1.326949e+00   1.724570e-02
  1.490953e+00    1.325684e+00   1.721435e-02
  1.493163e+00    1.326972e+00   1.719986e-02
  1.495374e+00    1.326496e+00   1.717476e-02
  1.497584e+00    1.301612e+00   1.699093e-02
  1.499795e+00    1.276262e+00   1.680286e-02
  1.502005e+00    1.288645e+00   1.686225e-02
  1.504216e+00    1.283245e+00   1.680564e-02
  1.506426e+00    1.308125e+00   1.694656e-02
  1.508636e+00    1.315943e+00   1.697621e-02
  1.510847e+00    1.306579e+00   1.689346e-02
  1.513057e+00    1.268696e+00   1.662154e-02
  1.515268e+00    1.242578e+00   1.642396e-02
  1.517478e+00    1.268365e+00   1.656819e-02
  1.519689e+00    1.272444e+00   1.656969e-02
  1.521899e+00    1.268898e+00   1.652333e-02
  1.524110e+00    1.276576e+00   1.655273e-02
  1.526320e+00    1.276556e+00   1.653282e-02
  1.528531e+00    1.286146e+00   1.657476e-02
  1.530741e+00    1.271991e+00   1.646400e-02
  1.532951e+00    1.261556e+00   1.637664e-02
  1.535162e+00    1.260597e+00   1.645740e-02
  1.537372e+00    1.240538e+00   1.639260e-02
  1.539583e+00    1.244425e+00   1.645246e-02
  1.541793e+00    1.228529e+00   1.635392e-02
  1.544004e+00    1.252033e+00   1.650987e-02
  1.546214e+00    1.248802e+00   1.648707e-02
  1.548425e+00    1.255582e+00   1.653201e-02
  1.550635e+00    1.248044e+00   1.649202e-02
  1.552846e+00    1.263294e+00   1.660218e-02
  1.555056e+00    1.260086e+00   1.653937e-02
  1.557266e+00    1.260337e+00   1.642985e-02
  1.559477e+00    1.242206e+00   1.625219e-02
  1.561687e+00    1.266064e+00   1.637657e-02
  1.563898e+00    1.254763e+00   1.628611e-02
  1.566108e+00    1.256963e+00   1.628432e-02
  1.568319e+00    1.293621e+00   1.650415e-02
  1.570529e+00    1.265942e+00   1.630130e-02
  1.572740e+00    1.254848e+00   1.620197e-02
  1.574950e+00    1.240142e+00   1.608048e-02
  1.577161e+00    1.251224e+00   1.612662e-02
  1.579371e+00    1.249793e+00   1.609368e-02
  1.581582e+00    1.233402e+00   1.596813e-02
  1.583792e+00    1.247014e+00   1.603795e-02
  1.586002e+00    1.260737e+00   1.610821e-02
  1.588213e+00    1.276804e+00   1.619308e-02
  1.590423e+00    1.259018e+00   1.605971e-02
  1.592634e+00    1.274289e+00   1.613491e-02
  1.594844e+00    1.276789e+00   1.612907e-02
  1.597055e+00    1.266909e+00   1.604583e-02
  1.599265e+00    1.274943e+00   1.607563e-02
  1.601476e+00    1.265798e+00   1.599736e-02
  1.603686e+00    1.281605e+00   1.607684e-02
  1.605897e+00    1.326330e+00   1.633409e-02
  1.608107e+00    1.385567e+00   1.667418e-02
  1.610317e+00    1.361945e+00   1.651120e-02
  1.612528e+00    1.306040e+00   1.614905e-02
  1.614738e+00    1.298073e+00   1.608025e-02
  1.616949e+00    1.276043e+00   1.592388e-02
  1.619159e+00    1.250307e+00   1.574353e-02
  1.621370e+00    1.226781e+00   1.557622e-02
  1.623580e+00    1.218768e+00   1.550686e-02
  1.625791e+00    1.211244e+00   1.544066e-02
  1.628001e+00    1.194610e+00   1.531606e-02
  1.630212e+00    1.196100e+00   1.530784e-02
  1.632422e+00    1.165071e+00   1.509025e-02
  1.634632e+00    1.157508e+00   1.502405e-02
  1.636843e+00    1.161749e+00   1.503414e-02
  1.639053e+00    1.161329e+00   1.501421e-02
  1.641264e+00    1.174393e+00   1.508129e-02
  1.643474e+00    1.168553e+00   1.502632e-02
  1.645685e+00    1.159832e+00   1.495347e-02
  1.647895e+00    1.163118e+00   1.495797e-02
  1.650106e+00    1.150458e+00   1.485936e-02
  1.652316e+00    1.163148e+00   1.492450e-02
  1.654527e+00    1.146063e+00   1.479779e-02
  1.656737e+00    1.146528e+00   1.478414e-02
  1.658947e+00    1.141982e+00   1.473847e-02
  1.661158e+00    1.129238e+00   1.463971e-02
  1.663368e+00    1.136635e+00   1.467146e-02
  1.665579e+00    1.131783e+00   1.462386e-02
  1.667789e+00    1.158749e+00   1.478051e-02
  1.670000e+00    1.131940e+00   1.459294e-02
  1.672210e+00    1.095143e+00   1.433799e-02
  1.674421e+00    1.103588e+00   1.437784e-02
  1.676631e+00    1.090156e+00   1.427430e-02
  1.678842e+00    1.098394e+00   1.431234e-02
  1.681052e+00    1.113433e+00   1.439448e-02
  1.683263e+00    1.086173e+00   1.420208e-02
  1.685473e+00    1.066371e+00   1.405699e-02
  1.687683e+00    1.061789e+00   1.401150e-02
  1.689894e+00    1.062887e+00   1.400307e-02
  1.692104e+00    1.078016e+00   1.408748e-02
  1.694315e+00    1.055552e+00   1.392553e-02
  1.696525e+00    1.052813e+00   1.389241e-02
  1.698736e+00    1.064035e+00   1.395144e-02
  1.700946e+00    1.055270e+00   1.387877e-02
  1.703157e+00    1.033482e+00   1.372027e-02
  1.705367e+00    1.015064e+00   1.358323e-02
  1.707578e+00    1.030085e+00   1.366891e-02
  1.709788e+00    1.025356e+00   1.362355e-02
  1.711998e+00    1.008423e+00   1.349578e-02
  1.714209e+00    1.025777e+00   1.359710e-02
  1.716419e+00    1.022398e+00   1.356049e-02
  1.718630e+00    1.019962e+00   1.353014e-02
  1.720840e+00    1.020454e+00   1.351927e-02
  1.723051e+00    1.005458e+00   1.340586e-02
  1.725261e+00    9.864307e-01   1.326395e-02
  1.727472e+00    1.001136e+00   1.334840e-02
  1.729682e+00    9.883711e-01   1.324976e-02
  1.731893e+00    9.894673e-01   1.324334e-02
  1.734103e+00    9.910824e-01   1.324047e-02
  1.736313e+00    1.004362e+00   1.331489e-02
  1.738524e+00    9.992210e-01   1.326697e-02
  1.740734e+00    9.776707e-01   1.310957e-02
  1.742945e+00    9.810960e-01   1.311916e-02
  1.745155e+00    9.756483e-01   1.306935e-02
  1.747366e+00    9.738516e-01   1.304362e-02
  1.749576e+00    9.491158e-01   1.286347e-02
  1.751787e+00    9.578840e-01   1.290958e-02
  1.753997e+00    9.536218e-01   1.286763e-02
  1.756208e+00    9.603665e-01   1.289994e-02
  1.758418e+00    9.675311e-01   1.293490e-02
  1.760628e+00    9.569982e-01   1.285103e-02
  1.762839e+00    9.633720e-01   1.288054e-02
  1.765049e+00    9.574488e-01   1.282781e-02
  1.767260e+00    9.544814e-01   1.279513e-02
  1.769470e+00    9.551536e-01   1.278666e-02
  1.771681e+00    9.548972e-01   1.277177e-02
  1.773891e+00    9.559535e-01   1.276575e-02
  1.776102e+00    9.574275e-01   1.276265e-02
  1.778312e+00    9.517636e-01   1.271206e-02
  1.780523e+00    9.315982e-01   1.256402e-02
  1.782733e+00    9.287610e-01   1.253224e-02
  1.784944e+00    9.372650e-01   1.257659e-02
  1.787154e+00    9.366063e-01   1.255961e-02
  1.789364e+00    9.390087e-01   1.256317e-02
  1.791575e+00    9.284437e-01   1.247976e-02
  1.793785e+00    9.185005e-01   1.240036e-02
  1.795996e+00    9.192299e-01   1.239278e-02
  1.798206e+00    9.269457e-01   1.243211e-02
  1.800417e+00    9.093874e-01   1.230119e-02
  1.802627e+00    8.797707e-01   1.208750e-02
  1.804838e+00    8.976180e-01   1.219746e-02
  1.807048e+00    9.019508e-01   1.221408e-02
  1.809259e+00    9.091214e-01   1.224893e-02
  1.811469e+00    8.988831e-01   1.216485e-02
  1.813679e+00    8.847052e-01   1.205369e-02
  1.815890e+00    8.858733e-01   1.204700e-02
  1.818100e+00    8.684863e-01   1.191333e-02
  1.820311e+00    8.848457e-01   1.201030e-02
  1.822521e+00    8.897528e-01   1.202874e-02
  1.824732e+00    8.695260e-01   1.187657e-02
  1.826942e+00    8.668932e-01   1.184639e-02
  1.829153e+00    8.675970e-01   1.183962e-02
  1.831363e+00    8.565872e-01   1.175241e-02
  1.833574e+00    8.805185e-01   1.190377e-02
  1.835784e+00    8.776532e-01   1.187298e-02
  1.837994e+00    8.753427e-01   1.184564e-02
  1.840205e+00    8.919818e-01   1.194641e-02
  1.842415e+00    8.664153e-01   1.176224e-02
  1.844626e+00    8.625285e-01   1.172431e-02
  1.846836e+00    8.905633e-01   1.190174e-02
  1.849047e+00    8.869643e-01   1.186594e-02
  1.851257e+00    8.757311e-01   1.178093e-02
  1.853468e+00    8.664280e-01   1.170934e-02
  1.855678e+00    8.589701e-01   1.164998e-02
  1.857889e+00    8.865089e-01   1.182659e-02
  1.860099e+00    8.899897e-01   1.184103e-02
  1.862309e+00    8.690509e-01   1.169231e-02
  1.864520e+00    8.829251e-01   1.177658e-02
  1.866730e+00    8.731196e-01   1.170151e-02
  1.868941e+00    8.562384e-01   1.157689e-02
  1.871151e+00    8.545833e-01   1.155426e-02
  1.873362e+00    8.507667e-01   1.151710e-02
  1.875572e+00    8.452939e-01   1.146908e-02
  1.877783e+00    8.519220e-01   1.150250e-02
  1.879993e+00    8.428385e-01   1.142990e-02
  1.882204e+00    8.236328e-01   1.128814e-02
  1.884414e+00    8.438902e-01   1.141504e-02
  1.886624e+00    8.631864e-01   1.153361e-02
  1.888835e+00    8.578492e-01   1.148684e-02
  1.891045e+00    8.464353e-01   1.139924e-02
  1.893256e+00    8.493110e-01   1.140741e-02
  1.895466e+00    8.444694e-01   1.136365e-02
  1.897677e+00    8.382866e-01   1.131103e-02
  1.899887e+00    8.239133e-01   1.120272e-02
  1.902098e+00    8.439091e-01   1.132692e-02
  1.904308e+00    8.379357e-01   1.127615e-02
  1.906519e+00    8.272263e-01   1.119303e-02
  1.908729e+00    8.158929e-01   1.110557e-02
  1.910940e+00    8.163386e-01   1.109754e-02
  1.913150e+00    8.300174e-01   1.117954e-02
  1.915360e+00    8.128901e-01   1.105303e-02
  1.917571e+00    8.163714e-01   1.106584e-02
  1.919781e+00    8.227144e-01   1.109805e-02
  1.921992e+00    8.247883e-01   1.110139e-02
  1.924202e+00    8.166325e-01   1.103561e-02
  1.926413e+00    8.139722e-01   1.100732e-02
  1.928623e+00    8.306194e-01   1.110868e-02
  1.930834e+00    8.186452e-01   1.101785e-02
  1.933044e+00    7.988778e-01   1.087343e-02
  1.935255e+00    8.007081e-01   1.087561e-02
  1.937465e+00    7.994885e-01   1.085698e-02
  1.939675e+00    7.958488e-01   1.082147e-02
  1.941886e+00    7.776328e-01   1.068680e-02
  1.944096e+00    7.861268e-01   1.073493e-02
  1.946307e+00    7.969583e-01   1.079832e-02
  1.948517e+00    8.006165e-01   1.081264e-02
  1.950728e+00    7.916803e-01   1.074192e-02
  1.952938e+00    8.023219e-01   1.080375e-02
  1.955149e+00    8.213593e-01   1.092079e-02
  1.957359e+00    8.028401e-01   1.078690e-02
  1.959570e+00    7.794035e-01   1.061750e-02
  1.961780e+00    7.888644e-01   1.067187e-02
  1.963990e+00    7.917791e-01   1.068144e-02
  1.966201e+00    8.067195e-01   1.077158e-02
  1.968411e+00    7.967184e-01   1.069441e-02
  1.970622e+00    7.818038e-01   1.058379e-02
  1.972832e+00    7.941291e-01   1.065687e-02
  1.975043e+00    7.959298e-01   1.065884e-02
  1.977253e+00    7.883790e-01   1.059820e-02
  1.979464e+00    7.866853e-01   1.057675e-02
  1.981674e+00    7.886771e-01   1.057984e-02
  1.983885e+00    7.735083e-01   1.046762e-02
  1.986095e+00    7.824575e-01   1.051829e-02
  1.988305e+00    7.847206e-01   1.052356e-02
  1.990516e+00    7.893386e-01   1.054449e-02
  1.992726e+00    7.860510e-01   1.051278e-02
  1.994937e+00    7.942062e-01   1.055695e-02
  1.997147e+00    7.816518e-01   1.046342e-02
  1.999358e+00    7.761248e-01   1.041649e-02
  2.001568e+00    7.750697e-01   1.039858e-02
  2.003779e+00    7.880508e-01   1.047326e-02
  2.005989e+00    7.866598e-01   1.045188e-02
  2.008200e+00    7.588866e-01   1.025429e-02
  2.010410e+00    7.637807e-01   1.027557e-02
  2.012621e+00    7.725177e-01   1.032246e-02
  2.014831e+00    7.614334e-01   1.023671e-02
  2.017041e+00    7.529208e-01   1.016903e-02
  2.019252e+00    7.623794e-01   1.022277e-02
  2.021462e+00    7.754721e-01   1.030061e-02
  2.023673e+00    7.851093e-01   1.035488e-02
  2.025883e+00    8.737916e-01   1.091381e-02
  2.028094e+00    1.087772e+00   1.216558e-02
  2.030304e+00    9.201719e-01   1.117885e-02
  2.032515e+00    7.599916e-01   1.014999e-02
  2.034725e+00    7.683213e-01   1.019594e-02
  2.036936e+00    7.612375e-01   1.013948e-02
  2.039146e+00    7.718291e-01   1.020009e-02
  2.041356e+00    7.933754e-01   1.033161e-02
  2.043567e+00    7.937258e-01   1.032437e-02
  2.045777e+00    7.711278e-01   1.016699e-02
  2.047988e+00    7.685105e-01   1.014027e-02
  2.050198e+00    7.710012e-01   1.014815e-02
  2.052409e+00    7.824582e-01   1.021546e-02
  2.054619e+00    7.859345e-01   1.023061e-02
  2.056830e+00    7.742757e-01   1.014716e-02
  2.059040e+00    7.558802e-01   1.001835e-02
  2.061251e+00    7.629530e-01   1.005779e-02
  2.063461e+00    7.660010e-01   1.007019e-02
  2.065671e+00    7.653089e-01   1.005684e-02
  2.067882e+00    7.488251e-01   9.938928e-03
  2.070092e+00    7.547874e-01   9.969163e-03
  2.072303e+00    7.802529e-01   1.012660e-02
  2.074513e+00    7.692600e-01   1.004556e-02
  2.076724e+00    7.580594e-01   9.962605e-03
  2.078934e+00    7.455887e-01   9.871298e-03
  2.081145e+00    7.638056e-01   9.981936e-03
  2.083355e+00    7.745496e-01   1.004254e-02
  2.085566e+00    7.525605e-01   9.889994e-03
  2.087776e+00    7.463499e-01   9.839544e-03
  2.089986e+00    7.313365e-01   9.731325e-03
  2.092197e+00    7.508088e-01   9.850983e-03
  2.094407e+00    7.409046e-01   9.776557e-03
  2.096618e+00    7.430745e-01   9.781890e-03
  2.098828e+00    7.462437e-01   9.793376e-03
  2.101039e+00    7.299078e-01   9.676603e-03
  2.103249e+00    7.332897e-01   9.690331e-03
  2.105460e+00    7.169473e-01   9.572802e-03
  2.107670e+00    7.169356e-01   9.564057e-03
  2.109881e+00    7.294801e-01   9.638170e-03
  2.112091e+00    7.484524e-01   9.753584e-03
  2.114301e+00    7.812802e-01   9.956073e-03
  2.116512e+00    7.869730e-01   9.983107e-03
  2.118722e+00    7.711304e-01   9.873016e-03
  2.120933e+00    7.368999e-01   9.642425e-03
  2.123143e+00    7.309209e-01   9.594236e-03
  2.125354e+00    7.138262e-01   9.472881e-03
  2.127564e+00    7.119188e-01   9.451496e-03
  2.129775e+00    7.408943e-01   9.633025e-03
  2.131985e+00    7.418219e-01   9.629860e-03
  2.134196e+00    7.271503e-01   9.525463e-03
  2.136406e+00    7.293790e-01   9.531214e-03
  2.138617e+00    7.396959e-01   9.589738e-03
  2.140827e+00    7.323125e-01   9.558110e-03
  2.143037e+00    7.224138e-01   9.539232e-03
  2.145248e+00    7.284430e-01   9.601320e-03
  2.147458e+00    7.061982e-01   9.468751e-03
  2.149669e+00    6.936405e-01   9.395935e-03
  2.151879e+00    7.187760e-01   9.573996e-03
  2.154090e+00    7.232077e-01   9.610905e-03
  2.156300e+00    7.155341e-01   9.566456e-03
  2.158511e+00    7.034218e-01   9.490455e-03
  2.160721e+00    6.997552e-01   9.470518e-03
  2.162932e+00    7.035669e-01   9.500014e-03
  2.165142e+00    7.031072e-01   9.499967e-03
  2.167352e+00    6.886452e-01   9.404644e-03
  2.169563e+00    7.011240e-01   9.491420e-03
  2.171773e+00    7.127178e-01   9.572065e-03
  2.173984e+00    6.991104e-01   9.481677e-03
  2.176194e+00    7.037513e-01   9.514293e-03
  2.178405e+00    6.870474e-01   9.401409e-03
  2.180615e+00    7.003136e-01   9.492397e-03
  2.182826e+00    6.992033e-01   9.485583e-03
  2.185036e+00    7.024642e-01   9.507705e-03
  2.187247e+00    7.018633e-01   9.503617e-03
  2.189457e+00    6.869557e-01   9.401719e-03
  2.191667e+00    6.863704e-01   9.397546e-03
  2.193878e+00    6.736124e-01   9.309225e-03
  2.196088e+00    6.997493e-01   9.487410e-03
  2.198299e+00    7.034783e-01   9.511584e-03
  2.200509e+00    6.758445e-01   9.321830e-03
  2.202720e+00    6.768699e-01   9.327761e-03
  2.204930e+00    6.711614e-01   9.287088e-03
  2.207141e+00    6.962724e-01   9.458106e-03
  2.209351e+00    6.977607e-01   9.466313e-03
  2.211562e+00    6.801562e-01   9.344517e-03
  2.213772e+00    6.840554e-01   9.315475e-03
  2.215982e+00    6.972287e-01   9.359833e-03
  2.218193e+00    6.991031e-01   9.342295e-03
  2.220403e+00    6.773756e-01   9.171330e-03
  2.222614e+00    6.697405e-01   9.098605e-03
  2.224824e+00    6.692299e-01   9.075806e-03
  2.227035e+00    6.745225e-01   9.094171e-03
  2.229245e+00    6.657279e-01   9.017786e-03
  2.231456e+00    6.766062e-01   9.075505e-03
  2.233666e+00    6.704019e-01   9.018688e-03
  2.235877e+00    6.739725e-01   9.028388e-03
  2.238087e+00    6.813894e-01   9.064323e-03
  2.240298e+00    6.797706e-01   9.039686e-03
  2.242508e+00    6.569008e-01   8.871337e-03
  2.244718e+00    6.614127e-01   8.886006e-03
  2.246929e+00    6.695941e-01   8.926367e-03
  2.249139e+00    6.799424e-01   8.982587e-03
  2.251350e+00    6.559117e-01   8.810827e-03
  2.253560e+00    6.575943e-01   8.810623e-03
  2.255771e+00    6.585306e-01   8.805542e-03
  2.257981e+00    6.559870e-01   8.777426e-03
  2.260192e+00    6.635506e-01   8.816768e-03
  2.262402e+00    6.647248e-01   8.813714e-03
  2.264613e+00    6.748150e-01   8.869439e-03
  2.266823e+00    6.676844e-01   8.812021e-03
  2.269033e+00    6.635678e-01   8.774410e-03
  2.271244e+00    6.768721e-01   8.851447e-03
  2.273454e+00    6.775851e-01   8.845738e-03
  2.275665e+00    6.599738e-01   8.719728e-03
  2.277875e+00    6.608778e-01   8.715766e-03
  2.280086e+00    6.627604e-01   8.718109e-03
  2.282296e+00    6.617721e-01   8.702186e-03
  2.284507e+00    6.661105e-01   8.720476e-03
  2.286717e+00    6.624019e-01   8.686672e-03
  2.288928e+00    6.660227e-01   8.700437e-03
  2.291138e+00    6.629241e-01   8.670728e-03
  2.293348e+00    6.435366e-01   8.533531e-03
  2.295559e+00    6.631634e-01   8.653314e-03
  2.297769e+00    6.653584e-01   8.658302e-03
  2.299980e+00    6.707165e-01   8.683635e-03
  2.302190e+00    6.746770e-01   8.699967e-03
  2.304401e+00    6.717018e-01   8.671304e-03
  2.306611e+00    6.577778e-01   8.571727e-03
  2.308822e+00    6.508340e-01   8.517954e-03
  2.311032e+00    6.633412e-01   8.592919e-03
  2.313243e+00    6.576430e-01   8.549615e-03
  2.315453e+00    6.632578e-01   8.578370e-03
  2.317663e+00    6.610860e-01   8.555113e-03
  2.319874e+00    6.506596e-01   8.478608e-03
  2.322084e+00    6.655617e-01   8.566055e-03
  2.324295e+00    6.473250e-01   8.439665e-03
  2.326505e+00    6.327878e-01   8.335368e-03
  2.328716e+00    6.489237e-01   8.432384e-03
  2.330926e+00    6.510020e-01   8.437038e-03
  2.333137e+00    6.511208e-01   8.429368e-03
  2.335347e+00    6.520285e-01   8.426306e-03
  2.337558e+00    6.402358e-01   8.341529e-03
  2.339768e+00    6.543611e-01   8.424350e-03
  2.341979e+00    6.520272e-01   8.400907e-03
  2.344189e+00    6.264819e-01   8.226353e-03
  2.346399e+00    6.393954e-01   8.302162e-03
  2.348610e+00    6.560581e-01   8.401080e-03
  2.350820e+00    6.379367e-01   8.276050e-03
  2.353031e+00    6.350036e-01   8.248703e-03
  2.355241e+00    6.267410e-01   8.186837e-03
  2.357452e+00    6.332129e-01   8.220583e-03
  2.359662e+00    6.243261e-01   8.154513e-03
  2.361873e+00    6.303424e-01   8.185475e-03
  2.364083e+00    6.226094e-01   8.127179e-03
  2.366294e+00    6.244746e-01   8.131232e-03
  2.368504e+00    6.372051e-01   8.205561e-03
  2.370714e+00    6.345353e-01   8.180249e-03
  2.372925e+00    6.342483e-01   8.170288e-03
  2.375135e+00    6.210266e-01   8.076635e-03
  2.377346e+00    6.258228e-01   8.099815e-03
  2.379556e+00    6.144928e-01   8.018306e-03
  2.381767e+00    6.204637e-01   8.049320e-03
  2.383977e+00    6.118019e-01   7.985054e-03
  2.386188e+00    6.177804e-01   8.016068e-03
  2.388398e+00    6.302838e-01   8.088744e-03
  2.390609e+00    6.215863e-01   8.025006e-03
  2.392819e+00    6.122549e-01   7.956779e-03
  2.395029e+00    6.183170e-01   7.988402e-03
  2.397240e+00    6.051598e-01   7.895142e-03
  2.399450e+00    6.094553e-01   7.915326e-03
  2.401661e+00    6.142218e-01   7.938522e-03
  2.403871e+00    6.131170e-01   7.923624e-03
  2.406082e+00    5.955462e-01   7.801910e-03
  2.408292e+00    6.030710e-01   7.843272e-03
  2.410503e+00    6.201160e-01   7.945808e-03
  2.412713e+00    5.915250e-01   7.752764e-03
  2.414924e+00    5.997495e-01   7.799030e-03
  2.417134e+00    5.963726e-01   7.769463e-03
  2.419344e+00    5.885106e-01   7.710752e-03
  2.421555e+00    6.083905e-01   7.832360e-03
  2.423765e+00    6.193162e-01   7.894855e-03
  2.425976e+00    6.014235e-01   7.772179e-03
  2.428186e+00    5.978304e-01   7.741696e-03
  2.430397e+00    5.954496e-01   7.718799e-03
  2.432607e+00    5.992641e-01   7.736178e-03
  2.434818e+00    5.920969e-01   7.682264e-03
  2.437028e+00    5.943457e-01   7.689680e-03
  2.439239e+00    6.003711e-01   7.720870e-03
  2.441449e+00    5.769846e-01   7.561905e-03
  2.443659e+00    5.681828e-01   7.496781e-03
  2.445870e+00    5.738088e-01   7.545888e-03
  2.448080e+00    5.714856e-01   7.565071e-03
  2.450291e+00    5.632321e-01   7.526633e-03
  2.452501e+00    5.624794e-01   7.532640e-03
  2.454712e+00    5.699331e-01   7.590772e-03
  2.456922e+00    5.840829e-01   7.691144e-03
  2.459133e+00    5.623820e-01   7.552315e-03
  2.461343e+00    5.663031e-01   7.582941e-03
  2.463554e+00    5.657793e-01   7.582914e-03
  2.465764e+00    5.565350e-01   7.523830e-03
  2.467975e+00    5.557702e-01   7.520933e-03
  2.470185e+00    5.572664e-01   7.533295e-03
  2.472395e+00    5.545232e-01   7.515952e-03
  2.474606e+00    5.559586e-01   7.527248e-03
  2.476816e+00    5.580691e-01   7.542248e-03
  2.479027e+00    5.513998e-01   7.497910e-03
  2.481237e+00    5.422581e-01   7.435776e-03
  2.483448e+00    5.434724e-01   7.444380e-03
  2.485658e+00    5.428087e-01   7.439690e-03
  2.487869e+00    5.430844e-01   7.441633e-03
  2.490079e+00    5.347617e-01   7.383871e-03
  2.492290e+00    5.430219e-01   7.440228e-03
  2.494500e+00    5.415569e-01   7.429476e-03
  2.496710e+00    5.429274e-01   7.438145e-03
  2.498921e+00    5.424945e-01   7.434207e-03
  2.501131e+00    5.294271e-01   7.343170e-03
  2.503342e+00    5.237823e-01   7.302672e-03
  2.505552e+00    5.249400e-01   7.309588e-03
  2.507763e+00    5.332224e-01   7.365627e-03
  2.509973e+00    5.229789e-01   7.293154e-03
  2.512184e+00    5.266423e-01   7.317017e-03
  2.514394e+00    5.464327e-01   7.443707e-03
  2.516605e+00    5.338337e-01   7.310016e-03
  2.518815e+00    5.280067e-01   7.241625e-03
  2.521025e+00    5.292165e-01   7.228883e-03
  2.523236e+00    5.157695e-01   7.118627e-03
  2.525446e+00    5.267516e-01   7.178399e-03
  2.527657e+00    5.103607e-01   7.051439e-03
  2.529867e+00    5.137172e-01   7.060560e-03
  2.532078e+00    5.209789e-01   7.095288e-03
  2.534288e+00    5.345616e-01   7.173198e-03
  2.536499e+00    5.171066e-01   7.043257e-03
  2.538709e+00    5.172185e-01   7.033094e-03
  2.540920e+00    5.065017e-01   6.949395e-03
  2.543130e+00    5.197486e-01   7.029328e-03
  2.545340e+00    5.313711e-01   7.097391e-03
  2.547551e+00    5.223338e-01   7.026822e-03
  2.549761e+00    5.244732e-01   7.031597e-03
  2.551972e+00    5.260084e-01   7.032491e-03
  2.554182e+00    5.277448e-01   7.034860e-03
  2.556393e+00    5.200023e-01   6.973979e-03
  2.558603e+00    5.278370e-01   7.017173e-03
  2.560814e+00    5.226350e-01   6.973800e-03
  2.563024e+00    5.223606e-01   6.963349e-03
  2.565235e+00    5.278680e-01   6.990368e-03
  2.567445e+00    5.285289e-01   6.985125e-03
  2.569656e+00    5.132445e-01   6.873673e-03
  2.571866e+00    5.124214e-01   6.858847e-03
  2.574076e+00    5.086356e-01   6.824274e-03
  2.576287e+00    5.128263e-01   6.844023e-03
  2.578497e+00    5.255045e-01   6.920181e-03
  2.580708e+00    5.261557e-01   6.916322e-03
  2.582918e+00    5.144042e-01   6.830885e-03
  2.585129e+00    5.069408e-01   6.773444e-03
  2.587339e+00    5.182870e-01   6.841120e-03
  2.589550e+00    5.154141e-01   6.814571e-03
  2.591760e+00    5.109687e-01   6.777382e-03
  2.593971e+00    5.152017e-01   6.797857e-03
  2.596181e+00    5.291157e-01   6.882682e-03
  2.598391e+00    5.152935e-01   6.787023e-03
  2.600602e+00    4.975078e-01   6.662994e-03
  2.602812e+00    5.021843e-01   6.686747e-03
  2.605023e+00    5.092768e-01   6.726625e-03
  2.607233e+00    5.127733e-01   6.742534e-03
  2.609444e+00    4.927841e-01   6.602662e-03
  2.611654e+00    5.012450e-01   6.651823e-03
  2.613865e+00    5.093470e-01   6.698304e-03
  2.616075e+00    5.170242e-01   6.741383e-03
  2.618286e+00    5.251817e-01   6.787229e-03
  2.620496e+00    5.123607e-01   6.697140e-03
  2.622706e+00    4.959458e-01   6.583288e-03
  2.624917e+00    4.994707e-01   6.600806e-03
  2.627127e+00    4.999360e-01   6.598180e-03
  2.629338e+00    5.023776e-01   6.608296e-03
  2.631548e+00    5.111024e-01   6.659209e-03
  2.633759e+00    5.017390e-01   6.590798e-03
  2.635969e+00    5.043585e-01   6.601262e-03
  2.638180e+00    5.107666e-01   6.636026e-03
  2.640390e+00    4.968486e-01   6.538429e-03
  2.642601e+00    4.803647e-01   6.422505e-03
  2.644811e+00    4.934069e-01   6.502084e-03
  2.647021e+00    5.132121e-01   6.624639e-03
  2.649232e+00    5.036091e-01   6.555640e-03
  2.651442e+00    5.047203e-01   6.556322e-03
  2.653653e+00    5.061026e-01   6.558450e-03
  2.655863e+00    5.129364e-01   6.595793e-03
  2.658074e+00    5.042790e-01   6.533261e-03
  2.660284e+00    5.034809e-01   6.521670e-03
  2.662495e+00    5.092626e-01   6.552194e-03
  2.664705e+00    5.048659e-01   6.517230e-03
  2.666916e+00    4.999994e-01   6.479243e-03
  2.669126e+00    5.014774e-01   6.482322e-03
  2.671337e+00    4.928850e-01   6.419996e-03
  2.673547e+00    4.937192e-01   6.419044e-03
  2.675757e+00    4.987263e-01   6.445043e-03
  2.677968e+00    4.982476e-01   6.435393e-03
  2.680178e+00    5.030347e-01   6.459779e-03
  2.682389e+00    5.000005e-01   6.433822e-03
  2.684599e+00    5.077184e-01   6.477014e-03
  2.686810e+00    4.935298e-01   6.379252e-03
  2.689020e+00    4.882831e-01   6.338994e-03
  2.691231e+00    4.902739e-01   6.345600e-03
  2.693441e+00    4.874051e-01   6.320901e-03
  2.695652e+00    4.864720e-01   6.308337e-03
  2.697862e+00    4.898036e-01   6.323572e-03
  2.700072e+00    4.834605e-01   6.276449e-03
  2.702283e+00    4.933437e-01   6.334027e-03
  2.704493e+00    5.038554e-01   6.394775e-03
  2.706704e+00    4.910935e-01   6.306844e-03
  2.708914e+00    5.017986e-01   6.369173e-03
  2.711125e+00    4.911733e-01   6.295113e-03
  2.713335e+00    4.801029e-01   6.217720e-03
  2.715546e+00    4.766029e-01   6.188626e-03
  2.717756e+00    4.853382e-01   6.239193e-03
  2.719967e+00    4.842025e-01   6.225696e-03
  2.722177e+00    4.857696e-01   6.229631e-03
  2.724387e+00    4.988114e-01   6.306507e-03
  2.726598e+00    4.972761e-01   6.290677e-03
  2.728808e+00    4.853234e-01   6.208462e-03
  2.731019e+00    4.911280e-01   6.239309e-03
  2.733229e+00    4.872318e-01   6.208695e-03
  2.735440e+00    4.791913e-01   6.151010e-03
  2.737650e+00    4.875378e-01   6.198307e-03
  2.739861e+00    4.864115e-01   6.185058e-03
  2.742071e+00    4.876040e-01   6.186845e-03
  2.744282e+00    5.050983e-01   6.290486e-03
  2.746492e+00    4.943058e-01   6.216817e-03
  2.748702e+00    4.813090e-01   6.128616e-03
  2.750913e+00    4.907345e-01   6.182502e-03
  2.753123e+00    4.935966e-01   6.194315e-03
  2.755334e+00    4.708224e-01   6.043708e-03
  2.757544e+00    4.859279e-01   6.134123e-03
  2.759755e+00    4.883104e-01   6.143219e-03
  2.761965e+00    4.718821e-01   6.033068e-03
  2.764176e+00    4.749880e-01   6.046918e-03
  2.766386e+00    4.884983e-01   6.126467e-03
  2.768597e+00    5.002003e-01   6.193440e-03
  2.770807e+00    4.916040e-01   6.134036e-03
  2.773017e+00    4.853364e-01   6.088796e-03
  2.775228e+00    4.860318e-01   6.087323e-03
  2.777438e+00    4.856459e-01   6.079067e-03
  2.779649e+00    4.833224e-01   6.058581e-03
  2.781859e+00    4.736290e-01   5.991784e-03
  2.784070e+00    4.764859e-01   6.003954e-03
  2.786280e+00    4.903268e-01   6.084698e-03
  2.788491e+00    4.873744e-01   6.060456e-03
  2.790701e+00    4.772109e-01   5.991269e-03
  2.792912e+00    4.899088e-01   6.064411e-03
  2.795122e+00    4.828120e-01   6.014563e-03
  2.797333e+00    4.826801e-01   6.008130e-03
  2.799543e+00    4.797944e-01   5.984256e-03
  2.801753e+00    4.817173e-01   5.990348e-03
  2.803964e+00    4.715030e-01   5.920850e-03
  2.806174e+00    4.802848e-01   5.969552e-03
  2.808385e+00    4.871363e-01   6.005101e-03
  2.810595e+00    4.808588e-01   5.959379e-03
  2.812806e+00    4.742071e-01   5.911402e-03
  2.815016e+00    4.745087e-01   5.908542e-03
  2.817227e+00    4.710098e-01   5.912556e-03
  2.819437e+00    4.866251e-01   6.020992e-03
  2.821648e+00    4.782936e-01   5.971550e-03
  2.823858e+00    4.679751e-01   5.912068e-03
  2.826068e+00    4.818071e-01   6.003838e-03
  2.828279e+00    4.821382e-01   6.009989e-03
  2.830489e+00    4.745907e-01   5.966104e-03
  2.832700e+00    4.699165e-01   5.939199e-03
  2.834910e+00    4.685468e-01   5.932587e-03
  2.837121e+00    4.801372e-01   6.007250e-03
  2.839331e+00    4.730119e-01   5.963746e-03
  2.841542e+00    4.800184e-01   6.008780e-03
  2.843752e+00    4.831119e-01   6.028892e-03
  2.845963e+00    4.793920e-01   6.006047e-03
  2.848173e+00    4.908303e-01   6.077363e-03
  2.850383e+00    4.741997e-01   5.973826e-03
  2.852594e+00    4.713611e-01   5.955833e-03
  2.854804e+00    4.616756e-01   5.893817e-03
  2.857015e+00    4.713667e-01   5.954923e-03
  2.859225e+00    4.635704e-01   5.905217e-03
  2.861436e+00    4.748859e-01   5.976195e-03
  2.863646e+00    4.718439e-01   5.957072e-03
  2.865857e+00    4.770058e-01   5.989906e-03
  2.868067e+00    4.655710e-01   5.917897e-03
  2.870278e+00    4.785265e-01   5.999311e-03
  2.872488e+00    4.544400e-01   5.845238e-03
  2.874698e+00    4.636780e-01   5.903292e-03
  2.876909e+00    4.631926e-01   5.898871e-03
  2.879119e+00    4.714528e-01   5.949603e-03
  2.881330e+00    4.660767e-01   5.914114e-03
  2.883540e+00    4.532045e-01   5.830490e-03
  2.885751e+00    4.627240e-01   5.889776e-03
  2.887961e+00    4.513011e-01   5.814748e-03
  2.890172e+00    4.490648e-01   5.798743e-03
  2.892382e+00    4.638571e-01   5.891661e-03
  2.894593e+00    4.683240e-01   5.918136e-03
  2.896803e+00    4.582360e-01   5.852080e-03
  2.899014e+00    4.635494e-01   5.883978e-03
  2.901224e+00    4.620764e-01   5.872633e-03
  2.903434e+00    4.616080e-01   5.867716e-03
  2.905645e+00    4.658482e-01   5.892344e-03
  2.907855e+00    4.673983e-01   5.900037e-03
  2.910066e+00    4.631027e-01   5.870774e-03
  2.912276e+00    4.640120e-01   5.874394e-03
  2.914487e+00    4.668212e-01   5.889685e-03
  2.916697e+00    4.632178e-01   5.864666e-03
  2.918908e+00    4.536706e-01   5.801936e-03
  2.921118e+00    4.489428e-01   5.768931e-03
  2.923329e+00    4.509699e-01   5.779662e-03
  2.925539e+00    4.561794e-01   5.810665e-03
  2.927749e+00    4.502212e-01   5.770294e-03
  2.929960e+00    4.626705e-01   5.846731e-03
  2.932170e+00    4.615540e-01   5.837340e-03
  2.934381e+00    4.601797e-01   5.826209e-03
  2.936591e+00    4.549147e-01   5.790188e-03
  2.938802e+00    4.548628e-01   5.787157e-03
  2.941012e+00    4.560627e-01   5.792457e-03
  2.943223e+00    4.486551e-01   5.742542e-03
  2.945433e+00    4.564151e-01   5.788233e-03
  2.947644e+00    4.635162e-01   5.828946e-03
  2.949854e+00    4.631032e-01   5.822028e-03
  2.952064e+00    4.503630e-01   5.737193e-03
  2.954275e+00    4.510383e-01   5.737098e-03
  2.956485e+00    4.538362e-01   5.750682e-03
  2.958696e+00    4.504532e-01   5.724853e-03
  2.960906e+00    4.622597e-01   5.795183e-03
  2.963117e+00    4.482615e-01   5.702312e-03
  2.965327e+00    4.513311e-01   5.717906e-03
  2.967538e+00    4.705802e-01   5.835605e-03
  2.969748e+00    4.494680e-01   5.700401e-03
  2.971959e+00    4.523489e-01   5.715506e-03
  2.974169e+00    4.490159e-01   5.691847e-03
  2.976379e+00    4.463395e-01   5.671969e-03
  2.978590e+00    4.417981e-01   5.639939e-03
  2.980800e+00    4.610959e-01   5.758979e-03
  2.983011e+00    4.376801e-01   5.608093e-03
  2.985221e+00    4.659844e-01   5.783406e-03
  2.987432e+00    4.726067e-01   5.821170e-03
  2.989642e+00    4.582717e-01   5.729587e-03
  2.991853e+00    4.593849e-01   5.733232e-03
  2.994063e+00    4.526583e-01   5.688205e-03
  2.996274e+00    4.646049e-01   5.759538e-03
  2.998484e+00    4.608528e-01   5.733543e-03
  3.000694e+00    4.542910e-01   5.689095e-03
  3.002905e+00    4.629522e-01   5.740135e-03
  3.005115e+00    4.418614e-01   5.604900e-03
  3.007326e+00    4.442277e-01   5.616750e-03
  3.009536e+00    4.537222e-01   5.673208e-03
  3.011747e+00    4.636189e-01   5.731809e-03
  3.013957e+00    4.598055e-01   5.704972e-03
  3.016168e+00    4.509710e-01   5.646671e-03
  3.018378e+00    4.431273e-01   5.594327e-03
  3.020589e+00    4.533362e-01   5.655182e-03
  3.022799e+00    4.520520e-01   5.644010e-03
  3.025010e+00    4.519632e-01   5.640216e-03
  3.027220e+00    4.625289e-01   5.702619e-03
  3.029430e+00    4.545707e-01   5.650105e-03
  3.031641e+00    4.499936e-01   5.618433e-03
  3.033851e+00    4.512900e-01   5.623023e-03
  3.036062e+00    4.512676e-01   5.620105e-03
  3.038272e+00    4.404878e-01   5.549034e-03
  3.040483e+00    4.536796e-01   5.628277e-03
  3.042693e+00    4.531285e-01   5.621589e-03
  3.044904e+00    4.512464e-01   5.605881e-03
  3.047114e+00    4.634777e-01   5.676479e-03
  3.049325e+00    4.458368e-01   5.563033e-03
  3.051535e+00    4.502133e-01   5.585879e-03
  3.053745e+00    4.546686e-01   5.608677e-03
  3.055956e+00    4.604051e-01   5.639328e-03
  3.058166e+00    4.416171e-01   5.518845e-03
  3.060377e+00    4.501597e-01   5.567198e-03
  3.062587e+00    4.419135e-01   5.511385e-03
  3.064798e+00    4.568921e-01   5.599715e-03
  3.067008e+00    4.578034e-01   5.600538e-03
  3.069219e+00    4.443564e-01   5.513182e-03
  3.071429e+00    4.483975e-01   5.534687e-03
  3.073640e+00    4.532013e-01   5.560902e-03
  3.075850e+00    4.603562e-01   5.601002e-03
  3.078060e+00    4.524590e-01   5.549649e-03
  3.080271e+00    4.495426e-01   5.528247e-03
  3.082481e+00    4.498988e-01   5.526989e-03
  3.084692e+00    4.452812e-01   5.495184e-03
  3.086902e+00    4.586520e-01   5.573793e-03
  3.089113e+00    4.486989e-01   5.509424e-03
  3.091323e+00    4.579987e-01   5.562799e-03
  3.093534e+00    4.489710e-01   5.504340e-03
  3.095744e+00    4.428732e-01   5.463452e-03
  3.097955e+00    4.502352e-01   5.505141e-03
  3.100165e+00    4.441997e-01   5.464786e-03
  3.102375e+00    4.443011e-01   5.461993e-03
  3.104586e+00    4.485549e-01   5.484580e-03
  3.106796e+00    4.515134e-01   5.499107e-03
  3.109007e+00    4.511108e-01   5.493422e-03
  3.111217e+00    4.399911e-01   5.421608e-03
  3.113428e+00    4.462039e-01   5.456363e-03
  3.115638e+00    4.345100e-01   5.381179e-03
  3.117849e+00    4.371403e-01   5.393750e-03
  3.120059e+00    4.528809e-01   5.486504e-03
  3.122270e+00    4.406688e-01   5.408790e-03
  3.124480e+00    4.500069e-01   5.462090e-03
  3.126691e+00    4.514118e-01   5.467018e-03
  3.128901e+00    4.489927e-01   5.449214e-03
  3.131111e+00    4.492890e-01   5.447163e-03
  3.133322e+00    4.436142e-01   5.409191e-03
  3.135532e+00    4.335157e-01   5.343920e-03
  3.137743e+00    4.417271e-01   5.390803e-03
  3.139953e+00    4.501900e-01   5.438500e-03
  3.142164e+00    4.468277e-01   5.430231e-03
  3.144374e+00    4.472188e-01   5.461168e-03
  3.146585e+00    4.395202e-01   5.428455e-03
  3.148795e+00    4.458912e-01   5.478487e-03
  3.151006e+00    4.529827e-01   5.530529e-03
  3.153216e+00    4.389687e-01   5.451431e-03
  3.155426e+00    4.559444e-01   5.562248e-03
  3.157637e+00    4.335689e-01   5.429536e-03
  3.159847e+00    4.496590e-01   5.534270e-03
  3.162058e+00    4.372003e-01   5.461515e-03
  3.164268e+00    4.257015e-01   5.393166e-03
  3.166479e+00    4.487184e-01   5.540752e-03
  3.168689e+00    4.493896e-01   5.548307e-03
  3.170900e+00    4.456609e-01   5.528442e-03
  3.173110e+00    4.425777e-01   5.512155e-03
  3.175321e+00    4.322217e-01   5.449770e-03
  3.177531e+00    4.442423e-01   5.527775e-03
  3.179741e+00    4.441234e-01   5.529139e-03
  3.181952e+00    4.276086e-01   5.427456e-03
  3.184162e+00    4.255643e-01   5.416613e-03
  3.186373e+00    4.313683e-01   5.455006e-03
  3.188583e+00    4.294995e-01   5.444972e-03
  3.190794e+00    4.337538e-01   5.473603e-03
  3.193004e+00    4.277192e-01   5.436637e-03
  3.195215e+00    4.360081e-01   5.490550e-03
  3.197425e+00    4.346899e-01   5.483471e-03
  3.199636e+00    4.400663e-01   5.516484e-03
  3.201846e+00    4.443332e-01   5.542564e-03
  3.204056e+00    4.409026e-01   5.522026e-03
  3.206267e+00    4.354309e-01   5.488524e-03
  3.208477e+00    4.119847e-01   5.339578e-03
  3.210688e+00    4.306091e-01   5.459789e-03
  3.212898e+00    4.346236e-01   5.485754e-03
  3.215109e+00    4.337426e-01   5.480947e-03
  3.217319e+00    4.277549e-01   5.443618e-03
  3.219530e+00    4.470116e-01   5.565194e-03
  3.221740e+00    4.427158e-01   5.538967e-03
  3.223951e+00    4.495781e-01   5.582205e-03
  3.226161e+00    4.504606e-01   5.587876e-03
  3.228372e+00    4.373054e-01   5.506222e-03
  3.230582e+00    4.382809e-01   5.512490e-03
  3.232792e+00    4.285566e-01   5.451237e-03
  3.235003e+00    4.141156e-01   5.358818e-03
  3.237213e+00    4.267136e-01   5.439829e-03
  3.239424e+00    4.234003e-01   5.418666e-03
  3.241634e+00    4.340060e-01   5.486237e-03
  3.243845e+00    4.300284e-01   5.461118e-03
  3.246055e+00    4.257339e-01   5.433510e-03
  3.248266e+00    4.267276e-01   5.440034e-03
  3.250476e+00    4.310732e-01   5.467375e-03
  3.252687e+00    4.261878e-01   5.436216e-03
  3.254897e+00    4.227802e-01   5.414321e-03
  3.257107e+00    4.198321e-01   5.395113e-03
  3.259318e+00    4.274966e-01   5.443889e-03
  3.261528e+00    4.235504e-01   5.418566e-03
  3.263739e+00    4.155568e-01   5.366646e-03
  3.265949e+00    4.306912e-01   5.463356e-03
  3.268160e+00    4.417238e-01   5.532482e-03
  3.270370e+00    4.341071e-01   5.484052e-03
  3.272581e+00    4.396176e-01   5.518470e-03
  3.274791e+00    4.395956e-01   5.517805e-03
  3.277002e+00    4.281200e-01   5.444738e-03
  3.279212e+00    4.267533e-01   5.435668e-03
  3.281422e+00    4.224428e-01   5.407544e-03
  3.283633e+00    4.334383e-01   5.476788e-03
  3.285843e+00    4.372810e-01   5.500687e-03
  3.288054e+00    4.345214e-01   5.482334e-03
  3.290264e+00    4.335302e-01   5.475773e-03
  3.292475e+00    4.277073e-01   5.438040e-03
  3.294685e+00    4.213507e-01   5.396849e-03
  3.296896e+00    4.112764e-01   5.331182e-03
  3.299106e+00    4.320472e-01   5.463583e-03
  3.301317e+00    4.365791e-01   5.491124e-03
  3.303527e+00    4.350056e-01   5.480760e-03
  3.305737e+00    4.217280e-01   5.395397e-03
  3.307948e+00    4.207486e-01   5.388493e-03
  3.310158e+00    4.353345e-01   5.480210e-03
  3.312369e+00    4.310536e-01   5.452317e-03
  3.314579e+00    4.148031e-01   5.347659e-03
  3.316790e+00    4.149961e-01   5.348191e-03
  3.319000e+00    4.216307e-01   5.389583e-03
  3.321211e+00    4.280133e-01   5.429630e-03
  3.323421e+00    4.201040e-01   5.378026e-03
  3.325632e+00    4.274425e-01   5.423883e-03
  3.327842e+00    4.352318e-01   5.472160e-03
  3.330052e+00    4.313212e-01   5.446447e-03
  3.332263e+00    4.282232e-01   5.425827e-03
  3.334473e+00    4.224812e-01   5.388404e-03
  3.336684e+00    4.278277e-01   5.421131e-03
  3.338894e+00    4.224181e-01   5.385912e-03
  3.341105e+00    4.212604e-01   5.377294e-03
  3.343315e+00    4.221990e-01   5.382152e-03
  3.345526e+00    4.087459e-01   5.294820e-03
  3.347736e+00    4.195878e-01   5.363191e-03
  3.349947e+00    4.092862e-01   5.295984e-03
  3.352157e+00    4.354314e-01   5.461348e-03
  3.354368e+00    4.323829e-01   5.440889e-03
  3.356578e+00    4.210945e-01   5.368368e-03
  3.358788e+00    4.204551e-01   5.362957e-03
  3.360999e+00    4.191613e-01   5.353451e-03
  3.363209e+00    4.256658e-01   5.393801e-03
  3.365420e+00    4.270737e-01   5.401189e-03
  3.367630e+00    4.239918e-01   5.380641e-03
  3.369841e+00    4.043170e-01   5.252912e-03
  3.372051e+00    4.079066e-01   5.274219e-03
  3.374262e+00    4.143828e-01   5.313488e-03
  3.376472e+00    4.182329e-01   5.335673e-03
  3.378683e+00    4.074624e-01   5.264034e-03
  3.380893e+00    4.205628e-01   5.345637e-03
  3.383103e+00    4.222260e-01   5.353475e-03
  3.385314e+00    4.170655e-01   5.318428e-03
  3.387524e+00    4.079059e-01   5.256992e-03
  3.389735e+00    4.084191e-01   5.257676e-03
  3.391945e+00    4.112173e-01   5.272008e-03
  3.394156e+00    3.960350e-01   5.169620e-03
  3.396366e+00    4.118456e-01   5.268394e-03
  3.398577e+00    4.058798e-01   5.227080e-03
  3.400787e+00    4.074464e-01   5.249024e-03
  3.402998e+00    4.078822e-01   5.289790e-03
  3.405208e+00    4.082324e-01   5.312779e-03
  3.407418e+00    4.122871e-01   5.355122e-03
  3.409629e+00    4.165032e-01   5.396653e-03
  3.411839e+00    3.947417e-01   5.265494e-03
  3.414050e+00    3.947885e-01   5.276748e-03
  3.416260e+00    3.971269e-01   5.302059e-03
  3.418471e+00    3.827274e-01   5.214308e-03
  3.420681e+00    3.928109e-01   5.291054e-03
  3.422892e+00    3.895336e-01   5.276920e-03
  3.425102e+00    4.077608e-01   5.406968e-03
  3.427313e+00    3.905409e-01   5.298782e-03
  3.429523e+00    3.791580e-01   5.227986e-03
  3.431733e+00    3.813794e-01   5.249883e-03
  3.433944e+00    3.892127e-01   5.310037e-03
  3.436154e+00    4.010603e-01   5.396673e-03
  3.438365e+00    3.650010e-01   5.154143e-03
  3.440575e+00    3.774630e-01   5.247274e-03
  3.442786e+00    3.936032e-01   5.364006e-03
  3.444996e+00    3.814188e-01   5.285887e-03
  3.447207e+00    3.518328e-01   5.081861e-03
  3.449417e+00    3.696696e-01   5.249776e-03
  3.451628e+00    3.525592e-01   5.155638e-03
  3.453838e+00    3.622015e-01   5.246663e-03
  3.456049e+00    3.730844e-01   5.348984e-03
  3.458259e+00    3.628290e-01   5.296813e-03
  3.460469e+00    3.693438e-01   5.363994e-03
  3.462680e+00    3.800377e-01   5.460523e-03
  3.464890e+00    3.832875e-01   5.502002e-03
  3.467101e+00    3.945384e-01   5.600299e-03
  3.469311e+00    3.919056e-01   5.598602e-03
  3.471522e+00    4.017650e-01   5.685522e-03
  3.473732e+00    4.184113e-01   5.818917e-03
  3.475943e+00    4.248936e-01   5.880346e-03
  3.478153e+00    4.133642e-01   5.815979e-03
  3.480364e+00    4.135309e-01   5.832672e-03
  3.482574e+00    4.138465e-01   5.850431e-03
  3.484784e+00    4.272544e-01   5.959594e-03
  3.486995e+00    4.269705e-01   5.972924e-03
  3.489205e+00    4.397209e-01   6.076421e-03
  3.491416e+00    4.273555e-01   6.005269e-03
  3.493626e+00    4.491913e-01   6.171614e-03
  3.495837e+00    4.474744e-01   6.174691e-03
  3.498047e+00    4.538858e-01   6.233391e-03
  3.500258e+00    4.681180e-01   6.345215e-03
  3.502468e+00    4.573241e-01   6.286112e-03
  3.504679e+00    4.653343e-01   6.355466e-03
  3.506889e+00    4.698724e-01   6.400899e-03
  3.509099e+00    4.646772e-01   6.379653e-03
  3.511310e+00    4.864824e-01   6.542251e-03
  3.513520e+00    5.058277e-01   6.685840e-03
  3.515731e+00    4.949744e-01   6.628240e-03
  3.517941e+00    4.981362e-01   6.663833e-03
  3.520152e+00    5.053353e-01   6.726293e-03
  3.522362e+00    5.113873e-01   6.781092e-03
  3.524573e+00    5.195566e-01   6.849501e-03
  3.526783e+00    5.132185e-01   6.820983e-03
  3.528994e+00    5.065339e-01   6.788562e-03
  3.531204e+00    5.158301e-01   6.862913e-03
  3.533414e+00    5.331998e-01   6.989698e-03
  3.535625e+00    5.620986e-01   7.189356e-03
  3.537835e+00    5.655702e-01   7.224020e-03
  3.540046e+00    5.643169e-01   7.225212e-03
  3.542256e+00    5.601813e-01   7.206363e-03
  3.544467e+00    5.380175e-01   7.070027e-03
  3.546677e+00    5.355865e-01   7.061577e-03
  3.548888e+00    5.372048e-01   7.079760e-03
  3.551098e+00    5.345840e-01   7.069764e-03
  3.553309e+00    5.208316e-01   6.986250e-03
  3.555519e+00    5.384041e-01   7.114460e-03
  3.557729e+00    5.300192e-01   7.070509e-03
  3.559940e+00    5.397257e-01   7.146529e-03
  3.562150e+00    5.586336e-01   7.282577e-03
  3.564361e+00    5.673820e-01   7.353088e-03
  3.566571e+00    5.604209e-01   7.322025e-03
  3.568782e+00    5.490801e-01   7.261834e-03
  3.570992e+00    5.373647e-01   7.197708e-03
  3.573203e+00    5.428263e-01   7.248431e-03
  3.575413e+00    5.402714e-01   7.245174e-03
  3.577624e+00    5.402173e-01   7.259010e-03
  3.579834e+00    5.268334e-01   7.182273e-03
  3.582045e+00    5.424221e-01   7.301857e-03
  3.584255e+00    5.586120e-01   7.424385e-03
  3.586465e+00    5.501131e-01   7.381829e-03
  3.588676e+00    5.520582e-01   7.409244e-03
  3.590886e+00    5.569218e-01   7.455804e-03
  3.593097e+00    5.407639e-01   7.361412e-03
  3.595307e+00    5.300424e-01   7.301930e-03
  3.597518e+00    5.340775e-01   7.343846e-03
  3.599728e+00    5.437461e-01   7.424232e-03
  3.601939e+00    5.333610e-01   7.367055e-03
  3.604149e+00    5.316929e-01   7.369842e-03
  3.606360e+00    5.375434e-01   7.424483e-03
  3.608570e+00    5.443953e-01   7.485894e-03
  3.610780e+00    5.486550e-01   7.526369e-03
  3.612991e+00    5.161786e-01   7.310060e-03
  3.615201e+00    5.279061e-01   7.402302e-03
  3.617412e+00    5.706440e-01   7.703646e-03
  3.619622e+00    5.604684e-01   7.640790e-03
  3.621833e+00    5.466880e-01   7.553031e-03
  3.624043e+00    5.485040e-01   7.575202e-03
  3.626254e+00    5.427352e-01   7.545051e-03
  3.628464e+00    5.309721e-01   7.473760e-03
  3.630675e+00    5.253039e-01   7.447797e-03
  3.632885e+00    5.257264e-01   7.465092e-03
  3.635095e+00    5.372525e-01   7.560939e-03
  3.637306e+00    5.329328e-01   7.544850e-03
  3.639516e+00    5.557505e-01   7.719487e-03
  3.641727e+00    5.323353e-01   7.569713e-03
  3.643937e+00    5.367140e-01   7.615331e-03
  3.646148e+00    5.353466e-01   7.620316e-03
  3.648358e+00    5.113819e-01   7.462302e-03
  3.650569e+00    5.389863e-01   7.675915e-03
  3.652779e+00    5.315559e-01   7.637551e-03
  3.654990e+00    5.285488e-01   7.630778e-03
  3.657200e+00    5.400490e-01   7.728317e-03
  3.659410e+00    5.417863e-01   7.755865e-03
  3.661621e+00    5.201148e-01   7.614100e-03
  3.663831e+00    5.301188e-01   7.702073e-03
  3.666042e+00    5.385348e-01   7.778202e-03
  3.668252e+00    5.469998e-01   7.854595e-03
  3.670463e+00    5.236274e-01   7.700077e-03
  3.672673e+00    5.097728e-01   7.612618e-03
  3.674884e+00    5.257853e-01   7.746589e-03
  3.677094e+00    5.456405e-01   7.907226e-03
  3.679305e+00    5.393260e-01   7.877042e-03
  3.681515e+00    5.449184e-01   7.933588e-03
  3.683726e+00    5.447143e-01   7.948177e-03
  3.685936e+00    5.191531e-01   7.774972e-03
  3.688146e+00    5.423952e-01   7.963084e-03
  3.690357e+00    5.263145e-01   7.860114e-03
  3.692567e+00    5.340384e-01   7.933772e-03
  3.694778e+00    5.248765e-01   7.881467e-03
  3.696988e+00    5.171474e-01   7.839067e-03
  3.699199e+00    5.428902e-01   8.048301e-03
  3.701409e+00    5.130233e-01   7.839973e-03
  3.703620e+00    5.545874e-01   8.168128e-03
  3.705830e+00    5.349116e-01   8.038521e-03
  3.708041e+00    5.139341e-01   7.895770e-03
  3.710251e+00    5.296726e-01   8.032516e-03
  3.712461e+00    5.367661e-01   8.103085e-03
  3.714672e+00    5.339511e-01   8.098795e-03
  3.716882e+00    5.160017e-01   7.978084e-03
  3.719093e+00    5.037751e-01   7.899906e-03
  3.721303e+00    5.115523e-01   7.977410e-03
  3.723514e+00    5.385463e-01   8.202820e-03
  3.725724e+00    5.363550e-01   8.203554e-03
  3.727935e+00    5.160266e-01   8.064027e-03
  3.730145e+00    5.078427e-01   8.016992e-03
  3.732356e+00    5.248954e-01   8.168152e-03
  3.734566e+00    5.351140e-01   8.265148e-03
  3.736776e+00    5.264670e-01   8.216093e-03
  3.738987e+00    5.008551e-01   8.031240e-03
  3.741197e+00    4.967217e-01   8.015737e-03
  3.743408e+00    5.170658e-01   8.196344e-03
  3.745618e+00    5.210066e-01   8.245979e-03
  3.747829e+00    5.434936e-01   8.440727e-03
  3.750039e+00    4.993717e-01   8.108989e-03
  3.752250e+00    5.235429e-01   8.321620e-03
  3.754460e+00    5.202178e-01   8.313911e-03
  3.756671e+00    5.171717e-01   8.308428e-03
  3.758881e+00    5.148690e-01   8.308702e-03
  3.761091e+00    5.068014e-01   8.262431e-03
  3.763302e+00    4.925841e-01   8.164510e-03
  3.765512e+00    5.331369e-01   8.513656e-03
  3.767723e+00    5.070707e-01   8.322340e-03
  3.769933e+00    4.885806e-01   8.188124e-03
  3.772144e+00    5.031781e-01   8.329052e-03
  3.774354e+00    5.022072e-01   8.340822e-03
  3.776565e+00    5.161668e-01   8.475987e-03
  3.778775e+00    5.252463e-01   8.570592e-03
  3.780986e+00    5.082052e-01   8.450833e-03
  3.783196e+00    5.015298e-01   8.415292e-03
  3.785407e+00    5.071596e-01   8.482968e-03
  3.787617e+00    4.821242e-01   8.291205e-03
  3.789827e+00    4.906022e-01   8.384122e-03
  3.792038e+00    4.909069e-01   8.407278e-03
  3.794248e+00    5.185232e-01   8.662052e-03
  3.796459e+00    5.174948e-01   8.675212e-03
  3.798669e+00    5.320026e-01   8.817923e-03
  3.800880e+00    5.090704e-01   8.647497e-03
  3.803090e+00    5.198349e-01   8.760661e-03
  3.805301e+00    4.878852e-01   8.508992e-03
  3.807511e+00    5.068293e-01   8.694745e-03
  3.809722e+00    4.826320e-01   8.506529e-03
  3.811932e+00    5.083359e-01   8.752505e-03
  3.814142e+00    5.122566e-01   8.809376e-03
  3.816353e+00    4.959067e-01   8.690435e-03
  3.818563e+00    5.037766e-01   8.782284e-03
  3.820774e+00    4.935316e-01   8.715628e-03
  3.822984e+00    4.797613e-01   8.616108e-03
  3.825195e+00    4.963046e-01   8.787092e-03
  3.827405e+00    4.985884e-01   8.831184e-03
  3.829616e+00    4.833150e-01   8.718592e-03
  3.831826e+00    4.830672e-01   8.740179e-03
  3.834037e+00    5.002429e-01   8.918758e-03
  3.836247e+00    5.065955e-01   9.000155e-03
  3.838457e+00    4.871784e-01   8.850833e-03
  3.840668e+00    4.768454e-01   8.781084e-03
  3.842878e+00    5.196088e-01   9.192458e-03
  3.845089e+00    5.217929e-01   9.238097e-03
  3.847299e+00    5.021331e-01   9.088353e-03
  3.849510e+00    4.813678e-01   8.923887e-03
  3.851720e+00    4.943312e-01   9.064667e-03
  3.853931e+00    5.192615e-01   9.309900e-03
  3.856141e+00    4.832554e-01   9.000135e-03
  3.858352e+00    5.012818e-01   9.185761e-03
  3.860562e+00    5.215239e-01   9.389273e-03
  3.862772e+00    5.064353e-01   9.272316e-03
  3.864983e+00    5.108243e-01   9.332385e-03
  3.867193e+00    5.179656e-01   9.417670e-03
  3.869404e+00    5.076193e-01   9.343193e-03
  3.871614e+00    4.903365e-01   9.202715e-03
  3.873825e+00    4.809475e-01   9.134227e-03
  3.876035e+00    4.817395e-01   9.162129e-03
  3.878246e+00    4.912086e-01   9.277418e-03
  3.880456e+00    4.927021e-01   9.320533e-03
  3.882667e+00    4.885281e-01   9.310202e-03
  3.884877e+00    5.051832e-01   9.497693e-03
  3.887087e+00    5.037498e-01   9.514549e-03
  3.889298e+00    4.916252e-01   9.429682e-03
  3.891508e+00    5.144244e-01   9.677192e-03
  3.893719e+00    4.713631e-01   9.293630e-03
  3.895929e+00    5.002188e-01   9.605618e-03
  3.898140e+00    5.083402e-01   9.715525e-03
  3.900350e+00    5.157475e-01   9.819021e-03
  3.902561e+00    5.183014e-01   9.876623e-03
  3.904771e+00    5.203220e-01   9.929580e-03
  3.906982e+00    5.293254e-01   1.004971e-02
  3.909192e+00    4.687953e-01   9.490487e-03
  3.911403e+00    4.861972e-01   9.698826e-03
  3.913613e+00    4.836521e-01   9.707468e-03
  3.915823e+00    4.986657e-01   9.892222e-03
  3.918034e+00    4.874882e-01   9.815915e-03
  3.920244e+00    4.932028e-01   9.909227e-03
  3.922455e+00    5.132486e-01   1.014559e-02
  3.924665e+00    5.031039e-01   1.008180e-02
  3.926876e+00    4.762166e-01   9.845329e-03
  3.929086e+00    5.036891e-01   1.016334e-02
  3.931297e+00    4.896894e-01   1.005602e-02
  3.933507e+00    5.002385e-01   1.019297e-02
  3.935718e+00    4.874458e-01   1.009065e-02
  3.937928e+00    4.951997e-01   1.020017e-02
  3.940138e+00    4.959076e-01   1.023713e-02
  3.942349e+00    4.811461e-01   1.011328e-02
  3.944559e+00    4.912030e-01   1.024854e-02
  3.946770e+00    4.893610e-01   1.025954e-02
  3.948980e+00    5.134668e-01   1.054082e-02
  3.951191e+00    4.816041e-01   1.023923e-02
  3.953401e+00    4.939385e-01   1.040098e-02
  3.955612e+00    5.223407e-01   1.072873e-02
  3.957822e+00    4.812762e-01   1.032993e-02
  3.960033e+00    4.742139e-01   1.028607e-02
  3.962243e+00    4.856691e-01   1.044240e-02
  3.964453e+00    4.594618e-01   1.018894e-02
  3.966664e+00    4.769289e-01   1.041391e-02
  3.968874e+00    4.808598e-01   1.048499e-02
  3.971085e+00    4.970015e-01   1.068168e-02
  3.973295e+00    4.969813e-01   1.070321e-02
  3.975506e+00    5.193506e-01   1.096380e-02
  3.977716e+00    4.715784e-01   1.046911e-02
  3.979927e+00    4.668048e-01   1.043760e-02
  3.982137e+00    4.434191e-01   1.019415e-02
  3.984348e+00    4.670581e-01   1.048449e-02
  3.986558e+00    4.848719e-01   1.070471e-02
  3.988768e+00    5.030850e-01   1.092754e-02
  3.990979e+00    5.014849e-01   1.093323e-02
  3.993189e+00    5.215344e-01   1.117352e-02
  3.995400e+00    4.952142e-01   1.091179e-02
  3.997610e+00    4.949378e-01   1.093879e-02
  3.999821e+00    4.714295e-01   1.071291e-02
  4.002031e+00    4.688691e-01   1.072150e-02
  4.004242e+00    4.914920e-01   1.101584e-02
  4.006452e+00    4.778847e-01   1.090139e-02
  4.008663e+00    4.990186e-01   1.118036e-02
  4.010873e+00    5.096802e-01   1.134036e-02
  4.013084e+00    4.949295e-01   1.121622e-02
  4.015294e+00    4.642871e-01   1.090362e-02
  4.017504e+00    5.023040e-01   1.138389e-02
  4.019715e+00    5.326911e-01   1.176771e-02
  4.021925e+00    4.906303e-01   1.133701e-02
  4.024136e+00    4.782881e-01   1.123683e-02
  4.026346e+00    4.941393e-01   1.146610e-02
  4.028557e+00    4.632465e-01   1.114525e-02
  4.030767e+00    4.720066e-01   1.129530e-02
  4.032978e+00    4.404236e-01   1.095497e-02
  4.035188e+00    4.677331e-01   1.133488e-02
  4.037399e+00    4.692022e-01   1.139960e-02
  4.039609e+00    4.779690e-01   1.155303e-02
  4.041819e+00    5.146165e-01   1.203798e-02
  4.044030e+00    5.322928e-01   1.229551e-02
  4.046240e+00    4.611539e-01   1.149319e-02
  4.048451e+00    4.923215e-01   1.192652e-02
  4.050661e+00    5.126572e-01   1.222342e-02
  4.052872e+00    5.273203e-01   1.245205e-02
  4.055082e+00    4.794165e-01   1.192644e-02
  4.057293e+00    4.718687e-01   1.188529e-02
  4.059503e+00    4.675980e-01   1.188511e-02
  4.061714e+00    4.750648e-01   1.203571e-02
  4.063924e+00    4.773468e-01   1.212110e-02
  4.066134e+00    4.809918e-01   1.222459e-02
  4.068345e+00    4.566155e-01   1.196821e-02
  4.070555e+00    4.624539e-01   1.210245e-02
  4.072766e+00    4.822613e-01   1.241989e-02
  4.074976e+00    4.730957e-01   1.236266e-02
  4.077187e+00    4.635632e-01   1.229820e-02
  4.079397e+00    4.784780e-01   1.255832e-02
  4.081608e+00    5.139776e-01   1.308366e-02
  4.083818e+00    4.831272e-01   1.275078e-02
  4.086029e+00    4.704535e-01   1.264882e-02
  4.088239e+00    4.536712e-01   1.248805e-02
  4.090449e+00    4.890638e-01   1.303635e-02
  4.092660e+00    4.659111e-01   1.279390e-02
  4.094870e+00    4.729959e-01   1.296262e-02
  4.097081e+00    4.575838e-01   1.281957e-02
  4.099291e+00    4.679527e-01   1.301752e-02
  4.101502e+00    4.871238e-01   1.333115e-02
  4.103712e+00    4.842198e-01   1.334091e-02
  4.105923e+00    4.828485e-01   1.337341e-02
  4.108133e+00    4.896653e-01   1.351964e-02
  4.110344e+00    4.933448e-01   1.362193e-02
  4.112554e+00    5.133702e-01   1.395077e-02
  4.114764e+00    5.136920e-01   1.401120e-02
  4.116975e+00    5.267347e-01   1.424385e-02
  4.119185e+00    5.010964e-01   1.394941e-02
  4.121396e+00    4.679086e-01   1.353522e-02
  4.123606e+00    4.595588e-01   1.346875e-02
  4.125817e+00    4.886687e-01   1.394705e-02
  4.128027e+00    4.898853e-01   1.402333e-02
  4.130238e+00    4.781723e-01   1.391390e-02
  4.132448e+00    4.830189e-01   1.404502e-02
  4.134659e+00    4.448121e-01   1.353618e-02
  4.136869e+00    4.551232e-01   1.375303e-02
  4.139080e+00    4.807443e-01   1.419859e-02
  4.141290e+00    5.269417e-01   1.493098e-02
  4.143500e+00    5.304813e-01   1.505033e-02
  4.145711e+00    4.699447e-01   1.423170e-02
  4.147921e+00    5.192946e-01   1.502868e-02
  4.150132e+00    5.231223e-01   1.515632e-02
  4.152342e+00    4.898340e-01   1.473715e-02
  4.154553e+00    4.741502e-01   1.456809e-02
  4.156763e+00    5.156935e-01   1.526814e-02
  4.158974e+00    4.878412e-01   1.492477e-02
  4.161184e+00    5.160149e-01   1.542592e-02
  4.163395e+00    4.763198e-01   1.489603e-02
  4.165605e+00    5.134911e-01   1.554730e-02
  4.167815e+00    5.152066e-01   1.565427e-02
  4.170026e+00    4.691620e-01   1.501712e-02
  4.172236e+00    5.470699e-01   1.630350e-02
  4.174447e+00    4.895835e-01   1.550744e-02
  4.176657e+00    5.138607e-01   1.597387e-02
  4.178868e+00    4.956383e-01   1.577698e-02
  4.181078e+00    5.375702e-01   1.652328e-02
  4.183289e+00    4.989641e-01   1.601016e-02
  4.185499e+00    4.735211e-01   1.568859e-02
  4.187710e+00    4.930796e-01   1.610304e-02
  4.189920e+00    4.847219e-01   1.606242e-02
  4.192130e+00    4.702936e-01   1.591775e-02
  4.194341e+00    5.135322e-01   1.673562e-02
  4.196551e+00    5.336960e-01   1.716922e-02
  4.198762e+00    4.912656e-01   1.657700e-02
  4.200972e+00    4.891824e-01   1.664896e-02
  4.203183e+00    4.602516e-01   1.625568e-02
  4.205393e+00    4.840194e-01   1.678082e-02
  4.207604e+00    4.874495e-01   1.695521e-02
  4.209814e+00    4.751587e-01   1.685482e-02
  4.212025e+00    4.698308e-01   1.687897e-02
  4.214235e+00    4.702402e-01   1.700593e-02
  4.216445e+00    5.533130e-01   1.858048e-02
  4.218656e+00    4.880140e-01   1.758043e-02
  4.220866e+00    5.209275e-01   1.829805e-02
  4.223077e+00    4.672362e-01   1.746288e-02
  4.225287e+00    4.701690e-01   1.765516e-02
  4.227498e+00    5.363109e-01   1.900416e-02
  4.229708e+00    5.090552e-01   1.866561e-02
  4.231919e+00    4.332262e-01   1.736156e-02
  4.234129e+00    5.556990e-01   1.982804e-02
  4.236340e+00    4.653728e-01   1.830076e-02
  4.238550e+00    4.802806e-01   1.875517e-02
  4.240761e+00    4.746812e-01   1.881073e-02
  4.242971e+00    5.561768e-01   2.054775e-02
  4.245181e+00    5.101145e-01   1.986351e-02
  4.247392e+00    4.661378e-01   1.916541e-02
  4.249602e+00    4.807606e-01   1.965680e-02
  4.251813e+00    4.901949e-01   2.004459e-02
  4.254023e+00    4.631886e-01   1.968110e-02
  4.256234e+00    4.982108e-01   2.062949e-02
  4.258444e+00    4.934586e-01   2.074592e-02
  4.260655e+00    4.786528e-01   2.065692e-02
  4.262865e+00    4.598778e-01   2.047726e-02
  4.265076e+00    4.587742e-01   2.068520e-02
  4.267286e+00    4.702145e-01   2.119001e-02
  4.269496e+00    5.560766e-01   2.332444e-02
  4.271707e+00    5.308748e-01   2.307191e-02
  4.273917e+00    5.447254e-01   2.367263e-02
  4.276128e+00    5.072947e-01   2.314868e-02
  4.278338e+00    4.004236e-01   2.084123e-02
  4.280549e+00    3.486260e-01   1.972473e-02
  4.282759e+00    4.406252e-01   2.249389e-02
  4.284970e+00    4.274333e-01   2.248305e-02
  4.287180e+00    5.103622e-01   2.486051e-02
  4.289391e+00    5.146738e-01   2.515397e-02
  4.291601e+00    5.419365e-01   2.601743e-02
  4.293811e+00    4.781895e-01   2.463103e-02
  4.296022e+00    5.061756e-01   2.554447e-02
  4.298232e+00    4.746813e-01   2.494460e-02
  4.300443e+00    4.775421e-01   2.522560e-02
  4.302653e+00    4.589255e-01   2.494336e-02
  4.304864e+00    4.582243e-01   2.514013e-02
  4.307074e+00    4.697331e-01   2.568229e-02
  4.309285e+00    5.669859e-01   2.847246e-02
  4.311495e+00    5.156199e-01   2.740691e-02
  4.313706e+00    4.896882e-01   2.695919e-02
  4.315916e+00    4.427199e-01   2.588611e-02
  4.318126e+00    4.576178e-01   2.657827e-02
  4.320337e+00    5.813849e-01   3.026042e-02
  4.322547e+00    4.379139e-01   2.654176e-02
  4.324758e+00    4.039356e-01   2.575613e-02
  4.326968e+00    4.752456e-01   2.825175e-02
  4.329179e+00    4.797010e-01   2.869607e-02
  4.331389e+00    4.954056e-01   2.949902e-02
  4.333600e+00    4.498279e-01   2.844430e-02
  4.335810e+00    5.255687e-01   3.111143e-02
  4.338021e+00    4.643705e-01   2.961943e-02
  4.340231e+00    5.306828e-01   3.205993e-02
  4.342442e+00    5.720635e-01   3.373419e-02
  4.344652e+00    5.243268e-01   3.273392e-02
  4.346862e+00    4.274642e-01   2.997077e-02
  4.349073e+00    4.052710e-01   2.960566e-02
  4.351283e+00    3.953795e-01   2.968062e-02
  4.353494e+00    4.377211e-01   3.170975e-02
  4.355704e+00    4.722673e-01   3.346920e-02
  4.357915e+00    4.583966e-01   3.352199e-02
  4.360125e+00    5.491798e-01   3.731825e-02
  4.362336e+00    5.333853e-01   3.744883e-02
  4.364546e+00    3.896514e-01   3.259047e-02
  4.366757e+00    4.905080e-01   3.729315e-02
  4.368967e+00    4.364496e-01   3.587931e-02
  4.371177e+00    5.238521e-01   4.014373e-02
  4.373388e+00    5.371634e-01   4.155886e-02
  4.375598e+00    4.110808e-01   3.718669e-02
  4.377809e+00    4.041826e-01   3.780596e-02
  4.380019e+00    3.773179e-01   3.744587e-02
  4.382230e+00    2.934537e-01   3.394487e-02
  4.384440e+00    3.472600e-01   3.798996e-02
  4.386651e+00    7.185668e-01   5.632925e-02
  4.388861e+00    4.934297e-01   4.824847e-02
  4.391072e+00    4.074849e-01   4.538190e-02
  4.393282e+00    5.697560e-01   5.573929e-02
  4.395492e+00    6.665944e-01   6.279880e-02
  4.397703e+00    2.578569e-01   4.084450e-02
  4.399913e+00    2.496861e-01   4.222084e-02
  4.402124e+00    4.650894e-01   6.089196e-02
  4.404334e+00    6.356660e-01   7.567769e-02
  4.406545e+00    1.114758e-01   3.405470e-02
  4.408755e+00    1.694505e-01   4.552247e-02
  4.410966e+00    2.935547e-01   6.632500e-02
  4.413176e+00    3.772579e-01   8.509541e-02
  4.415387e+00   -6.752256e-01            nan
  4.417597e+00   -2.044852e+00            nan
  4.419807e+00   -3.766224e-01            nan
