# == pyFAI calibration ==
# Distance Sample to Detector: 0.216 m
# PONI: 1.166e-01, 1.308e-01 m
# Rotations: 0.000000 0.000000 0.000000 rad
# 
# == Fit2d calibration ==
# Distance Sample-beamCenter: 216.000 mm
# Center: x=1744.293, y=1555.000 pix
# Tilt: 0.000 deg  TiltPlanRot: 0.000 deg
# 
# Detector Eiger 9M	 PixelSize= 7.500e-05, 7.500e-05 m
#    Detector has a mask: True 
#    Detector has a dark current: False 
#    detector has a flat field: False 
# 
# Wavelength: 9.8e-11 m
# Mask applied: from detector
# Dark current applied: False
# Flat field applied: False
# Polarization factor: None
# Normalization factor: 1.0
# 
# Headers of the input frame:
# {
# "_array_data.header_convention": "SLS_1.0",
# "_array_data.header_contents": "# Detector: Dectris Eiger 9M, S/N E-18-0102\r\n# Pixel_size 75e-6 m x 75e-6 m\r\n# Silicon sensor, thickness 0.000450 m\r\n# Exposure_time 0.024997 s\r\n# Exposure_period 0.025000 s\r\n# Count_cutoff 62318 counts\r\n# Wavelength 0.980106 A\r\n# Detector_distance 0.215992 m\r\n# Beam_xy (1555, 1744) pixels\r\n# Start_angle 0.000000 deg.\r\n# Angle_increment 0.000000 deg.",
# "Content-Type": "application/octet-stream;",
# "conversions": "x-CBF_BYTE_OFFSET",
# "Content-Transfer-Encoding": "BINARY",
# "X-Binary-Size": "10166590",
# "X-Binary-ID": "1",
# "X-Binary-Element-Type": "signed 32-bit integer",
# "X-Binary-Element-Byte-Order": "LITTLE_ENDIAN",
# "Content-MD5": "L85bnA3EHo7hNmz/3oBWdg==",
# "X-Binary-Number-of-Elements": "10166590",
# "X-Binary-Size-Fastest-Dimension": "3110",
# "X-Binary-Size-Second-Dimension": "3269",
# "X-Binary-Size-Padding": "4095"
# }
# --> H:/Proxima2a_2019-04-05/RAW_DATA/C5_gel17_position5/C5_mesh_1_data.cbf/C5_mesh_1_data.cbf000183.dat
#        q_A^-1              I           sigma 
  1.105228e-03    2.043881e+00   7.735969e-01
  3.315685e-03    1.201780e+00   3.606267e-01
  5.526141e-03    1.328792e+00   2.932248e-01
  7.736597e-03    1.466456e+00   2.602284e-01
  9.947054e-03    1.443387e+00   2.275978e-01
  1.215751e-02    1.693387e+00   2.229188e-01
  1.436797e-02    1.350983e+00   1.831474e-01
  1.657842e-02    1.354010e+00   1.706692e-01
  1.878888e-02    1.385259e+00   1.621545e-01
  2.099934e-02    1.247407e+00   1.455815e-01
  2.320979e-02    1.613937e+00   1.574984e-01
  2.542025e-02    1.610845e+00   1.503614e-01
  2.763070e-02    1.609025e+00   1.441357e-01
  2.984116e-02    1.564366e+00   1.367558e-01
  3.205162e-02    1.454791e+00   1.272584e-01
  3.426207e-02    1.514845e+00   1.255911e-01
  3.647253e-02    1.329708e+00   1.140428e-01
  3.868299e-02    1.320860e+00   1.103758e-01
  4.089344e-02    1.398188e+00   1.104494e-01
  4.310390e-02    1.428655e+00   1.087396e-01
  4.531436e-02    1.574524e+00   1.113372e-01
  4.752481e-02    1.547797e+00   1.077894e-01
  4.973527e-02    1.468469e+00   1.026323e-01
  5.194572e-02    1.481108e+00   1.008547e-01
  5.415618e-02    1.404879e+00   9.619629e-02
  5.636664e-02    1.420112e+00   9.480397e-02
  5.857709e-02    1.419952e+00   9.299323e-02
  6.078755e-02    1.407162e+00   9.087186e-02
  6.299801e-02    1.361881e+00   8.781447e-02
  6.520846e-02    1.419223e+00   8.811221e-02
  6.741892e-02    1.407667e+00   8.629780e-02
  6.962938e-02    1.583524e+00   9.006970e-02
  7.183983e-02    1.604178e+00   8.924799e-02
  7.405029e-02    1.463216e+00   8.395287e-02
  7.626074e-02    1.374863e+00   8.018997e-02
  7.847120e-02    1.543293e+00   8.375255e-02
  8.068166e-02    1.563995e+00   8.314880e-02
  8.289211e-02    1.438794e+00   7.868031e-02
  8.510257e-02    1.411801e+00   7.691944e-02
  8.731303e-02    1.382890e+00   7.515513e-02
  8.952348e-02    1.433371e+00   7.556608e-02
  9.173394e-02    1.430062e+00   7.456093e-02
  9.394439e-02    1.489033e+00   7.517983e-02
  9.615485e-02    1.504568e+00   7.469571e-02
  9.836531e-02    1.433007e+00   7.207198e-02
  1.005758e-01    1.484946e+00   7.255625e-02
  1.027862e-01    1.485914e+00   7.179344e-02
  1.049967e-01    1.388492e+00   6.866441e-02
  1.072071e-01    1.430316e+00   6.896788e-02
  1.094176e-01    1.464142e+00   6.906914e-02
  1.116280e-01    1.484957e+00   6.886467e-02
  1.138385e-01    1.571647e+00   7.015376e-02
  1.160490e-01    1.440682e+00   6.652364e-02
  1.182594e-01    1.552158e+00   6.839954e-02
  1.204699e-01    1.525638e+00   6.718718e-02
  1.226803e-01    1.585076e+00   6.786088e-02
  1.248908e-01    1.643362e+00   6.848227e-02
  1.271012e-01    1.563082e+00   6.620398e-02
  1.293117e-01    1.606169e+00   6.653335e-02
  1.315222e-01    1.631383e+00   6.648616e-02
  1.337326e-01    1.568806e+00   6.465621e-02
  1.359431e-01    1.540738e+00   6.411273e-02
  1.381535e-01    1.476190e+00   6.359775e-02
  1.403640e-01    1.562271e+00   6.570824e-02
  1.425744e-01    1.537944e+00   6.529880e-02
  1.447849e-01    1.483419e+00   6.414560e-02
  1.469953e-01    1.533380e+00   6.517600e-02
  1.492058e-01    1.553719e+00   6.553058e-02
  1.514163e-01    1.612779e+00   6.665359e-02
  1.536267e-01    1.587206e+00   6.599393e-02
  1.558372e-01    1.625513e+00   6.663810e-02
  1.580476e-01    1.611191e+00   6.618294e-02
  1.602581e-01    1.547365e+00   6.469405e-02
  1.624685e-01    1.682141e+00   6.726800e-02
  1.646790e-01    1.604480e+00   6.550820e-02
  1.668895e-01    1.669950e+00   6.663831e-02
  1.690999e-01    1.795444e+00   6.888935e-02
  1.713104e-01    1.787895e+00   6.853107e-02
  1.735208e-01    1.805063e+00   6.864518e-02
  1.757313e-01    1.846790e+00   6.921644e-02
  1.779417e-01    1.904328e+00   7.005721e-02
  1.801522e-01    1.860431e+00   6.902449e-02
  1.823626e-01    1.903740e+00   6.959083e-02
  1.845731e-01    1.898682e+00   6.927321e-02
  1.867836e-01    1.911534e+00   6.927269e-02
  1.889940e-01    1.988708e+00   7.042632e-02
  1.912045e-01    2.012162e+00   7.060385e-02
  1.934149e-01    2.022202e+00   7.054287e-02
  1.956254e-01    1.979665e+00   6.956681e-02
  1.978358e-01    1.983842e+00   6.940151e-02
  2.000463e-01    1.967428e+00   6.888475e-02
  2.022568e-01    1.950352e+00   6.836006e-02
  2.044672e-01    1.974163e+00   6.854047e-02
  2.066777e-01    2.052720e+00   6.965890e-02
  2.088881e-01    2.029303e+00   6.903382e-02
  2.110986e-01    2.004067e+00   6.836799e-02
  2.133090e-01    1.965690e+00   6.749011e-02
  2.155195e-01    1.939229e+00   6.681193e-02
  2.177300e-01    1.928178e+00   6.609792e-02
  2.199404e-01    1.928581e+00   6.436298e-02
  2.221509e-01    1.860775e+00   6.218326e-02
  2.243613e-01    1.933451e+00   6.258241e-02
  2.265718e-01    2.018978e+00   6.324674e-02
  2.287822e-01    2.076550e+00   6.350728e-02
  2.309927e-01    2.095610e+00   6.321689e-02
  2.332031e-01    2.148563e+00   6.346273e-02
  2.354136e-01    2.174199e+00   6.332282e-02
  2.376241e-01    2.190017e+00   6.305948e-02
  2.398345e-01    2.152014e+00   6.204731e-02
  2.420450e-01    2.165402e+00   6.179522e-02
  2.442554e-01    2.133358e+00   6.091372e-02
  2.464659e-01    2.099744e+00   6.002620e-02
  2.486763e-01    2.134711e+00   6.012608e-02
  2.508868e-01    2.113435e+00   5.944832e-02
  2.530973e-01    2.077977e+00   5.858206e-02
  2.553077e-01    2.067242e+00   5.807611e-02
  2.575182e-01    2.096351e+00   5.813754e-02
  2.597286e-01    2.087897e+00   5.768294e-02
  2.619391e-01    2.098984e+00   5.750293e-02
  2.641495e-01    2.005676e+00   5.589917e-02
  2.663600e-01    2.003095e+00   5.555597e-02
  2.685704e-01    2.017810e+00   5.545742e-02
  2.707809e-01    2.003146e+00   5.496223e-02
  2.729914e-01    2.005003e+00   5.470115e-02
  2.752018e-01    2.072266e+00   5.532167e-02
  2.774123e-01    2.034802e+00   5.453931e-02
  2.796227e-01    1.981463e+00   5.355350e-02
  2.818332e-01    2.006156e+00   5.361734e-02
  2.840436e-01    2.040698e+00   5.381483e-02
  2.862541e-01    1.997551e+00   5.298696e-02
  2.884646e-01    1.950190e+00   5.210656e-02
  2.906750e-01    1.942772e+00   5.176079e-02
  2.928855e-01    1.931955e+00   5.137730e-02
  2.950959e-01    1.983741e+00   5.182219e-02
  2.973064e-01    2.003038e+00   5.183960e-02
  2.995168e-01    1.931078e+00   5.066937e-02
  3.017273e-01    1.909146e+00   5.015869e-02
  3.039377e-01    1.865939e+00   4.937072e-02
  3.061482e-01    1.858063e+00   4.905332e-02
  3.083587e-01    1.838856e+00   4.858786e-02
  3.105691e-01    1.875324e+00   4.885774e-02
  3.127796e-01    1.892293e+00   4.887194e-02
  3.149900e-01    1.863885e+00   4.830162e-02
  3.172005e-01    1.873231e+00   4.822455e-02
  3.194109e-01    1.919246e+00   4.861178e-02
  3.216214e-01    1.901543e+00   4.818961e-02
  3.238319e-01    1.870296e+00   4.760269e-02
  3.260423e-01    1.856060e+00   4.723228e-02
  3.282528e-01    1.866441e+00   4.717563e-02
  3.304632e-01    1.866654e+00   4.699555e-02
  3.326737e-01    1.842142e+00   4.650382e-02
  3.348841e-01    1.848207e+00   4.639968e-02
  3.370946e-01    1.818610e+00   4.585350e-02
  3.393050e-01    1.761092e+00   4.495164e-02
  3.415155e-01    1.787425e+00   4.511617e-02
  3.437260e-01    1.862154e+00   4.587894e-02
  3.459364e-01    1.860642e+00   4.569069e-02
  3.481469e-01    1.805748e+00   4.484733e-02
  3.503573e-01    1.796364e+00   4.456772e-02
  3.525678e-01    1.761799e+00   4.397955e-02
  3.547782e-01    1.791145e+00   4.418404e-02
  3.569887e-01    1.769291e+00   4.375808e-02
  3.591992e-01    1.771209e+00   4.362687e-02
  3.614096e-01    1.771400e+00   4.347795e-02
  3.636201e-01    1.774553e+00   4.336370e-02
  3.658305e-01    1.750723e+00   4.292464e-02
  3.680410e-01    1.802752e+00   4.340797e-02
  3.702514e-01    1.830630e+00   4.359524e-02
  3.724619e-01    1.824923e+00   4.337899e-02
  3.746724e-01    1.820894e+00   4.318652e-02
  3.768828e-01    1.834660e+00   4.320357e-02
  3.790933e-01    1.830174e+00   4.301013e-02
  3.813037e-01    1.793560e+00   4.243840e-02
  3.835142e-01    1.781933e+00   4.216171e-02
  3.857246e-01    1.751332e+00   4.166283e-02
  3.879351e-01    1.780914e+00   4.187724e-02
  3.901455e-01    1.769123e+00   4.160552e-02
  3.923560e-01    1.748218e+00   4.122752e-02
  3.945665e-01    1.743441e+00   4.104058e-02
  3.967769e-01    1.761226e+00   4.112020e-02
  3.989874e-01    1.761894e+00   4.099959e-02
  4.011978e-01    1.773977e+00   4.101340e-02
  4.034083e-01    1.786740e+00   4.103433e-02
  4.056187e-01    1.780635e+00   4.083796e-02
  4.078292e-01    1.779017e+00   4.069589e-02
  4.100397e-01    1.787105e+00   4.066374e-02
  4.122501e-01    1.797338e+00   4.065801e-02
  4.144606e-01    1.800803e+00   4.057648e-02
  4.166710e-01    1.785740e+00   4.028628e-02
  4.188815e-01    1.799848e+00   4.032565e-02
  4.210919e-01    1.768881e+00   3.986005e-02
  4.233024e-01    1.791071e+00   3.999132e-02
  4.255128e-01    1.813242e+00   4.012177e-02
  4.277233e-01    1.807324e+00   3.994115e-02
  4.299338e-01    1.774447e+00   3.946232e-02
  4.321442e-01    1.802969e+00   3.966438e-02
  4.343547e-01    1.812890e+00   3.966091e-02
  4.365651e-01    1.784620e+00   3.923865e-02
  4.387756e-01    1.746447e+00   3.870804e-02
  4.409860e-01    1.753709e+00   3.868097e-02
  4.431965e-01    1.720849e+00   3.821092e-02
  4.454070e-01    1.721080e+00   3.810717e-02
  4.476174e-01    1.715808e+00   3.794428e-02
  4.498279e-01    1.703997e+00   3.771058e-02
  4.520383e-01    1.725977e+00   3.784884e-02
  4.542488e-01    1.759709e+00   3.811389e-02
  4.564592e-01    1.674870e+00   3.708400e-02
  4.586697e-01    1.698645e+00   3.724715e-02
  4.608801e-01    1.679079e+00   3.693281e-02
  4.630906e-01    1.693128e+00   3.698881e-02
  4.653011e-01    1.703504e+00   3.700439e-02
  4.675115e-01    1.693800e+00   3.680169e-02
  4.697220e-01    1.698791e+00   3.675934e-02
  4.719324e-01    1.716883e+00   3.685900e-02
  4.741429e-01    1.717347e+00   3.676898e-02
  4.763533e-01    1.725921e+00   3.676617e-02
  4.785638e-01    1.697266e+00   3.636551e-02
  4.807743e-01    1.678871e+00   3.607590e-02
  4.829847e-01    1.738270e+00   3.661582e-02
  4.851952e-01    1.710804e+00   3.623348e-02
  4.874056e-01    1.729711e+00   3.634125e-02
  4.896161e-01    1.691432e+00   3.584780e-02
  4.918265e-01    1.629640e+00   3.509950e-02
  4.940370e-01    1.665706e+00   3.539817e-02
  4.962475e-01    1.660648e+00   3.525709e-02
  4.984579e-01    1.670357e+00   3.527287e-02
  5.006684e-01    1.707713e+00   3.557815e-02
  5.028788e-01    1.671654e+00   3.511524e-02
  5.050893e-01    1.708749e+00   3.541633e-02
  5.072997e-01    1.733894e+00   3.558984e-02
  5.095102e-01    1.643991e+00   3.457190e-02
  5.117206e-01    1.649537e+00   3.454779e-02
  5.139311e-01    1.629386e+00   3.425487e-02
  5.161416e-01    1.604319e+00   3.391003e-02
  5.183520e-01    1.654138e+00   3.435066e-02
  5.205625e-01    1.611122e+00   3.382168e-02
  5.227729e-01    1.637747e+00   3.402045e-02
  5.249834e-01    1.697452e+00   3.455461e-02
  5.271938e-01    1.719273e+00   3.469488e-02
  5.294043e-01    1.779642e+00   3.521726e-02
  5.316148e-01    1.792907e+00   3.526734e-02
  5.338252e-01    1.758513e+00   3.484758e-02
  5.360357e-01    1.755955e+00   3.474296e-02
  5.382461e-01    1.746568e+00   3.457165e-02
  5.404566e-01    1.749594e+00   3.452282e-02
  5.426670e-01    1.812276e+00   3.505664e-02
  5.448775e-01    1.756738e+00   3.443820e-02
  5.470879e-01    1.728218e+00   3.408134e-02
  5.492984e-01    1.749260e+00   3.421191e-02
  5.515089e-01    1.773561e+00   3.437237e-02
  5.537193e-01    1.722576e+00   3.380006e-02
  5.559298e-01    1.783711e+00   3.431917e-02
  5.581402e-01    1.755383e+00   3.397120e-02
  5.603507e-01    1.738485e+00   3.373368e-02
  5.625611e-01    1.801386e+00   3.426402e-02
  5.647716e-01    1.797570e+00   3.415341e-02
  5.669821e-01    1.782163e+00   3.393341e-02
  5.691925e-01    1.717104e+00   3.323678e-02
  5.714030e-01    1.694617e+00   3.294802e-02
  5.736134e-01    1.706316e+00   3.299124e-02
  5.758239e-01    1.665569e+00   3.252537e-02
  5.780343e-01    1.691891e+00   3.271203e-02
  5.802448e-01    1.710940e+00   3.282680e-02
  5.824552e-01    1.690995e+00   3.256644e-02
  5.846657e-01    1.669508e+00   3.229140e-02
  5.868762e-01    1.625927e+00   3.180083e-02
  5.890866e-01    1.612454e+00   3.160306e-02
  5.912971e-01    1.646762e+00   3.187139e-02
  5.935075e-01    1.675252e+00   3.207946e-02
  5.957180e-01    1.651895e+00   3.178970e-02
  5.979284e-01    1.665404e+00   3.185425e-02
  6.001389e-01    1.647536e+00   3.161840e-02
  6.023494e-01    1.654635e+00   3.162210e-02
  6.045598e-01    1.709071e+00   3.207261e-02
  6.067703e-01    1.683664e+00   3.176935e-02
  6.089807e-01    1.661896e+00   3.149984e-02
  6.111912e-01    1.662965e+00   3.144705e-02
  6.134016e-01    1.683600e+00   3.157843e-02
  6.156121e-01    1.684186e+00   3.152116e-02
  6.178226e-01    1.698617e+00   3.159323e-02
  6.200330e-01    1.695841e+00   3.150515e-02
  6.222435e-01    1.676120e+00   3.125936e-02
  6.244539e-01    1.724955e+00   3.164939e-02
  6.266644e-01    1.696984e+00   3.133051e-02
  6.288748e-01    1.703548e+00   3.132993e-02
  6.310853e-01    1.718800e+00   3.140879e-02
  6.332957e-01    1.695318e+00   3.113326e-02
  6.355062e-01    1.669862e+00   3.083863e-02
  6.377167e-01    1.694190e+00   3.100283e-02
  6.399271e-01    1.712668e+00   3.111172e-02
  6.421376e-01    1.688125e+00   3.082906e-02
  6.443480e-01    1.652349e+00   3.044259e-02
  6.465585e-01    1.651565e+00   3.037772e-02
  6.487689e-01    1.645890e+00   3.026821e-02
  6.509794e-01    1.632299e+00   3.008614e-02
  6.531899e-01    1.628921e+00   2.999846e-02
  6.554003e-01    1.639518e+00   3.003931e-02
  6.576108e-01    1.611585e+00   2.972686e-02
  6.598212e-01    1.592787e+00   2.949809e-02
  6.620317e-01    1.567004e+00   2.920411e-02
  6.642421e-01    1.577637e+00   2.924882e-02
  6.664526e-01    1.577062e+00   2.918962e-02
  6.686630e-01    1.589435e+00   2.924970e-02
  6.708735e-01    1.622028e+00   2.949389e-02
  6.730840e-01    1.600208e+00   2.924143e-02
  6.752944e-01    1.597268e+00   2.916142e-02
  6.775049e-01    1.621354e+00   2.932713e-02
  6.797153e-01    1.587531e+00   2.896706e-02
  6.819258e-01    1.623720e+00   2.924253e-02
  6.841362e-01    1.648387e+00   2.941084e-02
  6.863467e-01    1.622135e+00   2.912345e-02
  6.885572e-01    1.607635e+00   2.894104e-02
  6.907676e-01    1.612166e+00   2.892985e-02
  6.929781e-01    1.594585e+00   2.872055e-02
  6.951885e-01    1.579793e+00   2.853639e-02
  6.973990e-01    1.553833e+00   2.825092e-02
  6.996094e-01    1.597033e+00   2.859054e-02
  7.018199e-01    1.620977e+00   2.875353e-02
  7.040303e-01    1.598673e+00   2.850487e-02
  7.062408e-01    1.604506e+00   2.850681e-02
  7.084513e-01    1.563569e+00   2.809184e-02
  7.106617e-01    1.609142e+00   2.844876e-02
  7.128722e-01    1.626139e+00   2.854916e-02
  7.150826e-01    1.591418e+00   2.819404e-02
  7.172931e-01    1.587059e+00   2.810687e-02
  7.195035e-01    1.565732e+00   2.786937e-02
  7.217140e-01    1.561795e+00   2.788357e-02
  7.239245e-01    1.576025e+00   2.823713e-02
  7.261349e-01    1.565133e+00   2.824770e-02
  7.283454e-01    1.552636e+00   2.820656e-02
  7.305558e-01    1.532564e+00   2.807694e-02
  7.327663e-01    1.529080e+00   2.808687e-02
  7.349767e-01    1.570901e+00   2.848472e-02
  7.371872e-01    1.583258e+00   2.858533e-02
  7.393976e-01    1.568714e+00   2.843951e-02
  7.416081e-01    1.552738e+00   2.827827e-02
  7.438186e-01    1.576634e+00   2.835060e-02
  7.460290e-01    1.562859e+00   2.793336e-02
  7.482395e-01    1.564122e+00   2.777405e-02
  7.504499e-01    1.516925e+00   2.721806e-02
  7.526604e-01    1.546840e+00   2.736958e-02
  7.548708e-01    1.545214e+00   2.726664e-02
  7.570813e-01    1.538171e+00   2.715404e-02
  7.592918e-01    1.558969e+00   2.730201e-02
  7.615022e-01    1.559899e+00   2.727649e-02
  7.637127e-01    1.572907e+00   2.735724e-02
  7.659231e-01    1.604264e+00   2.759626e-02
  7.681336e-01    1.589375e+00   2.743618e-02
  7.703440e-01    1.585513e+00   2.737149e-02
  7.725545e-01    1.569328e+00   2.720059e-02
  7.747650e-01    1.580444e+00   2.725849e-02
  7.769754e-01    1.588813e+00   2.727764e-02
  7.791859e-01    1.579047e+00   2.714013e-02
  7.813963e-01    1.567888e+00   2.699165e-02
  7.836068e-01    1.601294e+00   2.722543e-02
  7.858172e-01    1.583516e+00   2.702323e-02
  7.880277e-01    1.577349e+00   2.691929e-02
  7.902381e-01    1.556765e+00   2.669445e-02
  7.924486e-01    1.597313e+00   2.698978e-02
  7.946591e-01    1.615545e+00   2.709484e-02
  7.968695e-01    1.617369e+00   2.706165e-02
  7.990800e-01    1.595047e+00   2.682622e-02
  8.012904e-01    1.583455e+00   2.668231e-02
  8.035009e-01    1.615247e+00   2.690091e-02
  8.057113e-01    1.599541e+00   2.672351e-02
  8.079218e-01    1.599372e+00   2.667596e-02
  8.101323e-01    1.639986e+00   2.696669e-02
  8.123427e-01    1.597661e+00   2.657106e-02
  8.145532e-01    1.614777e+00   2.666729e-02
  8.167636e-01    1.612669e+00   2.660507e-02
  8.189741e-01    1.680644e+00   2.711471e-02
  8.211845e-01    1.675649e+00   2.702903e-02
  8.233950e-01    1.623730e+00   2.656374e-02
  8.256054e-01    1.592160e+00   2.626062e-02
  8.278159e-01    1.608221e+00   2.634917e-02
  8.300264e-01    1.647609e+00   2.662666e-02
  8.322368e-01    1.670133e+00   2.676453e-02
  8.344473e-01    1.642747e+00   2.650077e-02
  8.366577e-01    1.641219e+00   2.644583e-02
  8.388682e-01    1.639010e+00   2.638577e-02
  8.410786e-01    1.649037e+00   2.642418e-02
  8.432891e-01    1.652640e+00   2.641101e-02
  8.454996e-01    1.640439e+00   2.627170e-02
  8.477100e-01    1.629139e+00   2.613951e-02
  8.499205e-01    1.616901e+00   2.600024e-02
  8.521309e-01    1.616910e+00   2.595978e-02
  8.543414e-01    1.618567e+00   2.593254e-02
  8.565518e-01    1.640889e+00   2.607012e-02
  8.587623e-01    1.590737e+00   2.562864e-02
  8.609727e-01    1.631906e+00   2.591791e-02
  8.631832e-01    1.620247e+00   2.578536e-02
  8.653937e-01    1.591161e+00   2.551359e-02
  8.676041e-01    1.574764e+00   2.534350e-02
  8.698146e-01    1.563777e+00   2.521632e-02
  8.720250e-01    1.575118e+00   2.526903e-02
  8.742355e-01    1.552348e+00   2.504754e-02
  8.764459e-01    1.559129e+00   2.506389e-02
  8.786564e-01    1.535165e+00   2.483344e-02
  8.808669e-01    1.551228e+00   2.492518e-02
  8.830773e-01    1.581269e+00   2.512748e-02
  8.852878e-01    1.590709e+00   2.516460e-02
  8.874982e-01    1.580052e+00   2.504375e-02
  8.897087e-01    1.564522e+00   2.488315e-02
  8.919191e-01    1.570264e+00   2.489133e-02
  8.941296e-01    1.582670e+00   2.495242e-02
  8.963401e-01    1.594338e+00   2.500786e-02
  8.985505e-01    1.588961e+00   2.492882e-02
  9.007610e-01    1.641382e+00   2.529947e-02
  9.029714e-01    1.587064e+00   2.484166e-02
  9.051819e-01    1.581247e+00   2.475908e-02
  9.073923e-01    1.585292e+00   2.475431e-02
  9.096028e-01    1.634796e+00   2.510256e-02
  9.118132e-01    1.607011e+00   2.485204e-02
  9.140237e-01    1.566101e+00   2.449742e-02
  9.162342e-01    1.570865e+00   2.450040e-02
  9.184446e-01    1.589567e+00   2.461018e-02
  9.206551e-01    1.598585e+00   2.464432e-02
  9.228655e-01    1.629053e+00   2.484249e-02
  9.250760e-01    1.644268e+00   2.492243e-02
  9.272864e-01    1.633371e+00   2.480512e-02
  9.294969e-01    1.594943e+00   2.447588e-02
  9.317074e-01    1.620449e+00   2.463593e-02
  9.339178e-01    1.620832e+00   2.460519e-02
  9.361283e-01    1.633880e+00   2.466762e-02
  9.383387e-01    1.617273e+00   2.450855e-02
  9.405492e-01    1.645408e+00   2.468629e-02
  9.427596e-01    1.607154e+00   2.436253e-02
  9.449701e-01    1.616746e+00   2.440190e-02
  9.471805e-01    1.667528e+00   2.474706e-02
  9.493910e-01    1.682766e+00   2.482577e-02
  9.516015e-01    1.666879e+00   2.467381e-02
  9.538119e-01    1.685899e+00   2.478017e-02
  9.560224e-01    1.688951e+00   2.476768e-02
  9.582328e-01    1.719752e+00   2.495897e-02
  9.604433e-01    1.750813e+00   2.514771e-02
  9.626537e-01    1.732442e+00   2.498178e-02
  9.648642e-01    1.763686e+00   2.517152e-02
  9.670747e-01    1.761837e+00   2.512363e-02
  9.692851e-01    1.769545e+00   2.514506e-02
  9.714956e-01    1.790328e+00   2.525663e-02
  9.737060e-01    1.809456e+00   2.535782e-02
  9.759165e-01    1.872175e+00   2.575719e-02
  9.781269e-01    1.881719e+00   2.578899e-02
  9.803374e-01    1.900472e+00   2.588131e-02
  9.825478e-01    1.957271e+00   2.623059e-02
  9.847583e-01    1.928166e+00   2.599948e-02
  9.869688e-01    1.880589e+00   2.564235e-02
  9.891792e-01    1.826540e+00   2.523759e-02
  9.913897e-01    1.822378e+00   2.517479e-02
  9.936001e-01    1.781799e+00   2.486036e-02
  9.958106e-01    1.724284e+00   2.442259e-02
  9.980210e-01    1.655890e+00   2.390225e-02
  1.000231e+00    1.661878e+00   2.407661e-02
  1.002442e+00    1.618591e+00   2.388723e-02
  1.004652e+00    1.622717e+00   2.398437e-02
  1.006863e+00    1.624905e+00   2.405033e-02
  1.009073e+00    1.615160e+00   2.401482e-02
  1.011284e+00    1.604866e+00   2.397017e-02
  1.013494e+00    1.601498e+00   2.396875e-02
  1.015705e+00    1.580945e+00   2.383696e-02
  1.017915e+00    1.568151e+00   2.375667e-02
  1.020126e+00    1.616432e+00   2.413590e-02
  1.022336e+00    1.598879e+00   2.401634e-02
  1.024547e+00    1.604060e+00   2.406662e-02
  1.026757e+00    1.591723e+00   2.398239e-02
  1.028967e+00    1.518660e+00   2.343313e-02
  1.031178e+00    1.510616e+00   2.337708e-02
  1.033388e+00    1.507636e+00   2.335905e-02
  1.035599e+00    1.496292e+00   2.327438e-02
  1.037809e+00    1.504530e+00   2.334160e-02
  1.040020e+00    1.516912e+00   2.343871e-02
  1.042230e+00    1.518653e+00   2.345410e-02
  1.044441e+00    1.529441e+00   2.353703e-02
  1.046651e+00    1.539161e+00   2.361188e-02
  1.048862e+00    1.525567e+00   2.350659e-02
  1.051072e+00    1.516393e+00   2.343343e-02
  1.053282e+00    1.579253e+00   2.391321e-02
  1.055493e+00    1.583700e+00   2.394244e-02
  1.057703e+00    1.574735e+00   2.387303e-02
  1.059914e+00    1.545587e+00   2.364672e-02
  1.062124e+00    1.532573e+00   2.354283e-02
  1.064335e+00    1.536665e+00   2.357073e-02
  1.066545e+00    1.535283e+00   2.355405e-02
  1.068756e+00    1.483910e+00   2.315287e-02
  1.070966e+00    1.454767e+00   2.291789e-02
  1.073177e+00    1.482134e+00   2.312637e-02
  1.075387e+00    1.468100e+00   2.301142e-02
  1.077597e+00    1.440435e+00   2.278638e-02
  1.079808e+00    1.423207e+00   2.251884e-02
  1.082018e+00    1.386489e+00   2.204240e-02
  1.084229e+00    1.404178e+00   2.207462e-02
  1.086439e+00    1.423870e+00   2.214240e-02
  1.088650e+00    1.427291e+00   2.209403e-02
  1.090860e+00    1.420756e+00   2.197654e-02
  1.093071e+00    1.413005e+00   2.185515e-02
  1.095281e+00    1.374536e+00   2.149978e-02
  1.097492e+00    1.380440e+00   2.149222e-02
  1.099702e+00    1.409927e+00   2.166970e-02
  1.101912e+00    1.409454e+00   2.161774e-02
  1.104123e+00    1.400033e+00   2.149776e-02
  1.106333e+00    1.405067e+00   2.149237e-02
  1.108544e+00    1.423348e+00   2.158760e-02
  1.110754e+00    1.414121e+00   2.147466e-02
  1.112965e+00    1.419719e+00   2.147664e-02
  1.115175e+00    1.412379e+00   2.137997e-02
  1.117386e+00    1.413282e+00   2.134756e-02
  1.119596e+00    1.394989e+00   2.117133e-02
  1.121807e+00    1.368691e+00   2.093256e-02
  1.124017e+00    1.382988e+00   2.100527e-02
  1.126228e+00    1.385228e+00   2.098677e-02
  1.128438e+00    1.365840e+00   2.080309e-02
  1.130648e+00    1.360768e+00   2.073057e-02
  1.132859e+00    1.393860e+00   2.094679e-02
  1.135069e+00    1.402942e+00   2.098010e-02
  1.137280e+00    1.351118e+00   2.055641e-02
  1.139490e+00    1.355961e+00   2.056051e-02
  1.141701e+00    1.363654e+00   2.058591e-02
  1.143911e+00    1.336741e+00   2.035043e-02
  1.146122e+00    1.353392e+00   2.044509e-02
  1.148332e+00    1.358814e+00   2.045435e-02
  1.150543e+00    1.352321e+00   2.037489e-02
  1.152753e+00    1.345448e+00   2.029255e-02
  1.154963e+00    1.336446e+00   2.019392e-02
  1.157174e+00    1.342564e+00   2.021027e-02
  1.159384e+00    1.374058e+00   2.041607e-02
  1.161595e+00    1.372454e+00   2.037429e-02
  1.163805e+00    1.358220e+00   2.023922e-02
  1.166016e+00    1.377558e+00   2.035325e-02
  1.168226e+00    1.374971e+00   2.030507e-02
  1.170437e+00    1.397122e+00   2.043903e-02
  1.172647e+00    1.376900e+00   2.026157e-02
  1.174858e+00    1.378346e+00   2.024395e-02
  1.177068e+00    1.412195e+00   2.046226e-02
  1.179278e+00    1.427904e+00   2.054648e-02
  1.181489e+00    1.433209e+00   2.055690e-02
  1.183699e+00    1.420622e+00   2.043824e-02
  1.185910e+00    1.394845e+00   2.022381e-02
  1.188120e+00    1.369303e+00   2.001099e-02
  1.190331e+00    1.353198e+00   1.986621e-02
  1.192541e+00    1.349586e+00   1.981235e-02
  1.194752e+00    1.366041e+00   1.990557e-02
  1.196962e+00    1.366439e+00   1.988261e-02
  1.199173e+00    1.346360e+00   1.970952e-02
  1.201383e+00    1.336558e+00   1.961062e-02
  1.203593e+00    1.331108e+00   1.954595e-02
  1.205804e+00    1.347555e+00   1.964045e-02
  1.208014e+00    1.340773e+00   1.956417e-02
  1.210225e+00    1.370848e+00   1.975689e-02
  1.212435e+00    1.324703e+00   1.939696e-02
  1.214646e+00    1.338793e+00   1.947383e-02
  1.216856e+00    1.330151e+00   1.938559e-02
  1.219067e+00    1.328078e+00   1.934622e-02
  1.221277e+00    1.335710e+00   1.937683e-02
  1.223488e+00    1.342107e+00   1.939750e-02
  1.225698e+00    1.356277e+00   1.947266e-02
  1.227909e+00    1.319102e+00   1.917415e-02
  1.230119e+00    1.294011e+00   1.895969e-02
  1.232329e+00    1.327027e+00   1.916960e-02
  1.234540e+00    1.354146e+00   1.933414e-02
  1.236750e+00    1.352595e+00   1.929279e-02
  1.238961e+00    1.331702e+00   1.911641e-02
  1.241171e+00    1.319043e+00   1.900142e-02
  1.243382e+00    1.304595e+00   1.887397e-02
  1.245592e+00    1.311822e+00   1.890241e-02
  1.247803e+00    1.343247e+00   1.910387e-02
  1.250013e+00    1.355145e+00   1.916472e-02
  1.252224e+00    1.349971e+00   1.910485e-02
  1.254434e+00    1.355243e+00   1.911832e-02
  1.256644e+00    1.362597e+00   1.914682e-02
  1.258855e+00    1.329323e+00   1.888851e-02
  1.261065e+00    1.308596e+00   1.871766e-02
  1.263276e+00    1.321437e+00   1.878656e-02
  1.265486e+00    1.351658e+00   1.897729e-02
  1.267697e+00    1.333511e+00   1.882659e-02
  1.269907e+00    1.325649e+00   1.874852e-02
  1.272118e+00    1.346396e+00   1.887212e-02
  1.274328e+00    1.330239e+00   1.873597e-02
  1.276539e+00    1.349553e+00   1.884872e-02
  1.278749e+00    1.320426e+00   1.862217e-02
  1.280959e+00    1.333628e+00   1.869261e-02
  1.283170e+00    1.365888e+00   1.889480e-02
  1.285380e+00    1.359726e+00   1.882960e-02
  1.287591e+00    1.342613e+00   1.868877e-02
  1.289801e+00    1.317713e+00   1.849368e-02
  1.292012e+00    1.333829e+00   1.858944e-02
  1.294222e+00    1.331088e+00   1.855419e-02
  1.296433e+00    1.334718e+00   1.856397e-02
  1.298643e+00    1.314993e+00   1.841004e-02
  1.300854e+00    1.331686e+00   1.851021e-02
  1.303064e+00    1.343745e+00   1.857465e-02
  1.305274e+00    1.379059e+00   1.879547e-02
  1.307485e+00    1.389574e+00   1.884514e-02
  1.309695e+00    1.377473e+00   1.874045e-02
  1.311906e+00    1.353933e+00   1.855788e-02
  1.314116e+00    1.354588e+00   1.854155e-02
  1.316327e+00    1.321764e+00   1.829406e-02
  1.318537e+00    1.327232e+00   1.831015e-02
  1.320748e+00    1.376208e+00   1.862315e-02
  1.322958e+00    1.376924e+00   1.860730e-02
  1.325169e+00    1.339537e+00   1.833199e-02
  1.327379e+00    1.341199e+00   1.832162e-02
  1.329589e+00    1.364437e+00   1.845847e-02
  1.331800e+00    1.358476e+00   1.839738e-02
  1.334010e+00    1.335780e+00   1.822247e-02
  1.336221e+00    1.354495e+00   1.832790e-02
  1.338431e+00    1.374310e+00   1.844042e-02
  1.340642e+00    1.367756e+00   1.846098e-02
  1.342852e+00    1.351045e+00   1.844858e-02
  1.345063e+00    1.365670e+00   1.859793e-02
  1.347273e+00    1.339005e+00   1.845058e-02
  1.349484e+00    1.334587e+00   1.844761e-02
  1.351694e+00    1.336719e+00   1.848496e-02
  1.353905e+00    1.335629e+00   1.849530e-02
  1.356115e+00    1.323027e+00   1.842275e-02
  1.358325e+00    1.316256e+00   1.838869e-02
  1.360536e+00    1.338527e+00   1.855517e-02
  1.362746e+00    1.331417e+00   1.851535e-02
  1.364957e+00    1.303295e+00   1.832628e-02
  1.367167e+00    1.327581e+00   1.850334e-02
  1.369378e+00    1.336397e+00   1.857067e-02
  1.371588e+00    1.330993e+00   1.853821e-02
  1.373799e+00    1.333523e+00   1.855948e-02
  1.376009e+00    1.320237e+00   1.847016e-02
  1.378220e+00    1.308913e+00   1.839328e-02
  1.380430e+00    1.304333e+00   1.836377e-02
  1.382640e+00    1.301118e+00   1.834199e-02
  1.384851e+00    1.316301e+00   1.844960e-02
  1.387061e+00    1.310489e+00   1.840910e-02
  1.389272e+00    1.304784e+00   1.836921e-02
  1.391482e+00    1.282905e+00   1.821386e-02
  1.393693e+00    1.286040e+00   1.823524e-02
  1.395903e+00    1.283134e+00   1.821313e-02
  1.398114e+00    1.288761e+00   1.825164e-02
  1.400324e+00    1.276906e+00   1.816537e-02
  1.402535e+00    1.248786e+00   1.796196e-02
  1.404745e+00    1.271210e+00   1.812012e-02
  1.406955e+00    1.270883e+00   1.811513e-02
  1.409166e+00    1.281110e+00   1.818453e-02
  1.411376e+00    1.265644e+00   1.807134e-02
  1.413587e+00    1.251885e+00   1.796905e-02
  1.415797e+00    1.264595e+00   1.805650e-02
  1.418008e+00    1.279032e+00   1.811726e-02
  1.420218e+00    1.268890e+00   1.789563e-02
  1.422429e+00    1.263359e+00   1.777148e-02
  1.424639e+00    1.280370e+00   1.782577e-02
  1.426850e+00    1.290754e+00   1.784278e-02
  1.429060e+00    1.276538e+00   1.769514e-02
  1.431270e+00    1.272772e+00   1.762466e-02
  1.433481e+00    1.247930e+00   1.741122e-02
  1.435691e+00    1.259287e+00   1.745200e-02
  1.437902e+00    1.266544e+00   1.746578e-02
  1.440112e+00    1.276417e+00   1.749830e-02
  1.442323e+00    1.280794e+00   1.749510e-02
  1.444533e+00    1.265276e+00   1.735630e-02
  1.446744e+00    1.243250e+00   1.717376e-02
  1.448954e+00    1.262444e+00   1.727571e-02
  1.451165e+00    1.259347e+00   1.722490e-02
  1.453375e+00    1.258161e+00   1.718886e-02
  1.455586e+00    1.243773e+00   1.706242e-02
  1.457796e+00    1.259656e+00   1.714362e-02
  1.460006e+00    1.260398e+00   1.712151e-02
  1.462217e+00    1.255033e+00   1.705897e-02
  1.464427e+00    1.253184e+00   1.702095e-02
  1.466638e+00    1.279282e+00   1.717186e-02
  1.468848e+00    1.298408e+00   1.727412e-02
  1.471059e+00    1.294473e+00   1.722259e-02
  1.473269e+00    1.296340e+00   1.721036e-02
  1.475480e+00    1.270758e+00   1.701594e-02
  1.477690e+00    1.261970e+00   1.693320e-02
  1.479901e+00    1.254169e+00   1.685709e-02
  1.482111e+00    1.250988e+00   1.681251e-02
  1.484321e+00    1.271779e+00   1.692848e-02
  1.486532e+00    1.262954e+00   1.684736e-02
  1.488742e+00    1.245850e+00   1.671040e-02
  1.490953e+00    1.240878e+00   1.665464e-02
  1.493163e+00    1.263223e+00   1.678162e-02
  1.495374e+00    1.265978e+00   1.677842e-02
  1.497584e+00    1.251286e+00   1.665922e-02
  1.499795e+00    1.224577e+00   1.645911e-02
  1.502005e+00    1.239484e+00   1.653747e-02
  1.504216e+00    1.257836e+00   1.663844e-02
  1.506426e+00    1.244599e+00   1.652994e-02
  1.508636e+00    1.240336e+00   1.648132e-02
  1.510847e+00    1.238348e+00   1.644644e-02
  1.513057e+00    1.242770e+00   1.645081e-02
  1.515268e+00    1.274240e+00   1.663187e-02
  1.517478e+00    1.279155e+00   1.663855e-02
  1.519689e+00    1.265391e+00   1.652369e-02
  1.521899e+00    1.248751e+00   1.639165e-02
  1.524110e+00    1.253855e+00   1.640476e-02
  1.526320e+00    1.246729e+00   1.633853e-02
  1.528531e+00    1.254444e+00   1.636921e-02
  1.530741e+00    1.244178e+00   1.628300e-02
  1.532951e+00    1.245847e+00   1.627436e-02
  1.535162e+00    1.264981e+00   1.648598e-02
  1.537372e+00    1.265165e+00   1.655453e-02
  1.539583e+00    1.236101e+00   1.639733e-02
  1.541793e+00    1.231174e+00   1.637152e-02
  1.544004e+00    1.247377e+00   1.647916e-02
  1.546214e+00    1.215100e+00   1.626308e-02
  1.548425e+00    1.233878e+00   1.638851e-02
  1.550635e+00    1.241260e+00   1.644710e-02
  1.552846e+00    1.256692e+00   1.655876e-02
  1.555056e+00    1.235022e+00   1.637404e-02
  1.557266e+00    1.241517e+00   1.630672e-02
  1.559477e+00    1.213412e+00   1.606273e-02
  1.561687e+00    1.231957e+00   1.615446e-02
  1.563898e+00    1.268261e+00   1.637346e-02
  1.566108e+00    1.220930e+00   1.604924e-02
  1.568319e+00    1.225420e+00   1.606320e-02
  1.570529e+00    1.245292e+00   1.616777e-02
  1.572740e+00    1.240762e+00   1.611078e-02
  1.574950e+00    1.242065e+00   1.609294e-02
  1.577161e+00    1.244946e+00   1.608612e-02
  1.579371e+00    1.239251e+00   1.602566e-02
  1.581582e+00    1.229335e+00   1.594179e-02
  1.583792e+00    1.232596e+00   1.594496e-02
  1.586002e+00    1.247537e+00   1.602368e-02
  1.588213e+00    1.237653e+00   1.594288e-02
  1.590423e+00    1.247278e+00   1.598466e-02
  1.592634e+00    1.233032e+00   1.587158e-02
  1.594844e+00    1.235867e+00   1.586847e-02
  1.597055e+00    1.223195e+00   1.576658e-02
  1.599265e+00    1.219001e+00   1.571899e-02
  1.601476e+00    1.245442e+00   1.586821e-02
  1.603686e+00    1.233747e+00   1.577382e-02
  1.605897e+00    1.211801e+00   1.561297e-02
  1.608107e+00    1.207301e+00   1.556463e-02
  1.610317e+00    1.220851e+00   1.563255e-02
  1.612528e+00    1.224812e+00   1.563879e-02
  1.614738e+00    1.225945e+00   1.562712e-02
  1.616949e+00    1.220170e+00   1.557134e-02
  1.619159e+00    1.206388e+00   1.546456e-02
  1.621370e+00    1.193521e+00   1.536359e-02
  1.623580e+00    1.207247e+00   1.543341e-02
  1.625791e+00    1.202161e+00   1.538265e-02
  1.628001e+00    1.180104e+00   1.522280e-02
  1.630212e+00    1.147227e+00   1.499184e-02
  1.632422e+00    1.167976e+00   1.510903e-02
  1.634632e+00    1.163015e+00   1.505977e-02
  1.636843e+00    1.165951e+00   1.506129e-02
  1.639053e+00    1.176861e+00   1.511428e-02
  1.641264e+00    1.172667e+00   1.507022e-02
  1.643474e+00    1.138790e+00   1.483372e-02
  1.645685e+00    1.144443e+00   1.485393e-02
  1.647895e+00    1.134213e+00   1.477096e-02
  1.650106e+00    1.121532e+00   1.467136e-02
  1.652316e+00    1.114197e+00   1.460708e-02
  1.654527e+00    1.106533e+00   1.454034e-02
  1.656737e+00    1.111047e+00   1.455359e-02
  1.658947e+00    1.132732e+00   1.467864e-02
  1.661158e+00    1.129674e+00   1.464255e-02
  1.663368e+00    1.121488e+00   1.457337e-02
  1.665579e+00    1.113525e+00   1.450544e-02
  1.667789e+00    1.104542e+00   1.443066e-02
  1.670000e+00    1.090061e+00   1.432043e-02
  1.672210e+00    1.088892e+00   1.429701e-02
  1.674421e+00    1.077070e+00   1.420405e-02
  1.676631e+00    1.059008e+00   1.406889e-02
  1.678842e+00    1.054510e+00   1.402352e-02
  1.681052e+00    1.052730e+00   1.399659e-02
  1.683263e+00    1.058832e+00   1.402217e-02
  1.685473e+00    1.065225e+00   1.404944e-02
  1.687683e+00    1.065890e+00   1.403852e-02
  1.689894e+00    1.031603e+00   1.379549e-02
  1.692104e+00    1.045825e+00   1.387553e-02
  1.694315e+00    1.035608e+00   1.379336e-02
  1.696525e+00    1.030291e+00   1.374301e-02
  1.698736e+00    1.063568e+00   1.394838e-02
  1.700946e+00    1.044359e+00   1.380683e-02
  1.703157e+00    1.044007e+00   1.378996e-02
  1.705367e+00    1.031941e+00   1.369567e-02
  1.707578e+00    1.031770e+00   1.368010e-02
  1.709788e+00    1.026277e+00   1.362964e-02
  1.711998e+00    1.010994e+00   1.351301e-02
  1.714209e+00    1.002881e+00   1.344448e-02
  1.716419e+00    1.018044e+00   1.353159e-02
  1.718630e+00    1.020674e+00   1.353487e-02
  1.720840e+00    1.010230e+00   1.345138e-02
  1.723051e+00    1.008466e+00   1.342588e-02
  1.725261e+00    9.922955e-01   1.330334e-02
  1.727472e+00    9.751813e-01   1.317424e-02
  1.729682e+00    9.778891e-01   1.317931e-02
  1.731893e+00    9.782571e-01   1.316811e-02
  1.734103e+00    9.623245e-01   1.304697e-02
  1.736313e+00    9.567412e-01   1.299541e-02
  1.738524e+00    9.645235e-01   1.303457e-02
  1.740734e+00    9.826140e-01   1.314266e-02
  1.742945e+00    9.842657e-01   1.314035e-02
  1.745155e+00    9.620506e-01   1.297795e-02
  1.747366e+00    9.570501e-01   1.293061e-02
  1.749576e+00    9.506223e-01   1.287367e-02
  1.751787e+00    9.644860e-01   1.295399e-02
  1.753997e+00    9.437768e-01   1.280105e-02
  1.756208e+00    9.414381e-01   1.277218e-02
  1.758418e+00    9.387867e-01   1.274131e-02
  1.760628e+00    9.303749e-01   1.267101e-02
  1.762839e+00    9.398741e-01   1.272248e-02
  1.765049e+00    9.384728e-01   1.270005e-02
  1.767260e+00    9.366619e-01   1.267513e-02
  1.769470e+00    9.400034e-01   1.268484e-02
  1.771681e+00    9.370564e-01   1.265191e-02
  1.773891e+00    9.106705e-01   1.245972e-02
  1.776102e+00    9.339010e-01   1.260486e-02
  1.778312e+00    9.177521e-01   1.248288e-02
  1.780523e+00    9.005998e-01   1.235322e-02
  1.782733e+00    8.982883e-01   1.232493e-02
  1.784944e+00    9.068650e-01   1.237095e-02
  1.787154e+00    9.025869e-01   1.232941e-02
  1.789364e+00    8.838428e-01   1.218856e-02
  1.791575e+00    8.717467e-01   1.209269e-02
  1.793785e+00    8.959458e-01   1.224716e-02
  1.795996e+00    9.213244e-01   1.240688e-02
  1.798206e+00    9.642490e-01   1.267979e-02
  1.800417e+00    9.297953e-01   1.243847e-02
  1.802627e+00    9.078192e-01   1.227867e-02
  1.804838e+00    9.003875e-01   1.221628e-02
  1.807048e+00    9.037552e-01   1.222629e-02
  1.809259e+00    9.075960e-01   1.223865e-02
  1.811469e+00    8.957258e-01   1.214347e-02
  1.813679e+00    8.936579e-01   1.211453e-02
  1.815890e+00    9.040673e-01   1.217007e-02
  1.818100e+00    8.937743e-01   1.208553e-02
  1.820311e+00    9.061794e-01   1.215422e-02
  1.822521e+00    8.921586e-01   1.204500e-02
  1.824732e+00    8.900541e-01   1.201593e-02
  1.826942e+00    9.210583e-01   1.221087e-02
  1.829153e+00    8.920631e-01   1.200541e-02
  1.831363e+00    8.861774e-01   1.195367e-02
  1.833574e+00    8.793912e-01   1.189616e-02
  1.835784e+00    8.793306e-01   1.188432e-02
  1.837994e+00    8.694714e-01   1.180585e-02
  1.840205e+00    8.781046e-01   1.185312e-02
  1.842415e+00    8.653892e-01   1.175527e-02
  1.844626e+00    8.468024e-01   1.161694e-02
  1.846836e+00    8.584858e-01   1.168544e-02
  1.849047e+00    8.605718e-01   1.168805e-02
  1.851257e+00    8.684987e-01   1.173219e-02
  1.853468e+00    8.308218e-01   1.146622e-02
  1.855678e+00    8.576021e-01   1.164067e-02
  1.857889e+00    8.645958e-01   1.167954e-02
  1.860099e+00    8.552005e-01   1.160727e-02
  1.862309e+00    8.532349e-01   1.158544e-02
  1.864520e+00    8.557680e-01   1.159404e-02
  1.866730e+00    8.632324e-01   1.163507e-02
  1.868941e+00    8.534487e-01   1.155801e-02
  1.871151e+00    8.494563e-01   1.151956e-02
  1.873362e+00    8.317072e-01   1.138736e-02
  1.875572e+00    8.208027e-01   1.130171e-02
  1.877783e+00    8.400059e-01   1.142176e-02
  1.879993e+00    8.368231e-01   1.138904e-02
  1.882204e+00    8.339481e-01   1.135860e-02
  1.884414e+00    8.413239e-01   1.139769e-02
  1.886624e+00    8.140672e-01   1.120067e-02
  1.888835e+00    8.296833e-01   1.129667e-02
  1.891045e+00    8.247147e-01   1.125203e-02
  1.893256e+00    8.204423e-01   1.121187e-02
  1.895466e+00    8.107163e-01   1.113422e-02
  1.897677e+00    8.325637e-01   1.127234e-02
  1.899887e+00    8.288935e-01   1.123653e-02
  1.902098e+00    8.329310e-01   1.125301e-02
  1.904308e+00    8.466299e-01   1.133448e-02
  1.906519e+00    8.392341e-01   1.127398e-02
  1.908729e+00    8.488964e-01   1.132794e-02
  1.910940e+00    8.596691e-01   1.138826e-02
  1.913150e+00    8.348305e-01   1.121191e-02
  1.915360e+00    8.286257e-01   1.115950e-02
  1.917571e+00    8.327936e-01   1.117660e-02
  1.919781e+00    8.036183e-01   1.096851e-02
  1.921992e+00    8.050224e-01   1.096756e-02
  1.924202e+00    7.983183e-01   1.091117e-02
  1.926413e+00    7.899101e-01   1.084341e-02
  1.928623e+00    8.141873e-01   1.099823e-02
  1.930834e+00    8.215493e-01   1.103737e-02
  1.933044e+00    8.107561e-01   1.095397e-02
  1.935255e+00    7.966633e-01   1.084810e-02
  1.937465e+00    8.034978e-01   1.088417e-02
  1.939675e+00    7.935547e-01   1.080586e-02
  1.941886e+00    7.962692e-01   1.081410e-02
  1.944096e+00    7.877685e-01   1.074614e-02
  1.946307e+00    7.837655e-01   1.070858e-02
  1.948517e+00    7.861544e-01   1.071453e-02
  1.950728e+00    7.784687e-01   1.065193e-02
  1.952938e+00    7.739247e-01   1.061083e-02
  1.955149e+00    8.019411e-01   1.079091e-02
  1.957359e+00    8.099904e-01   1.083482e-02
  1.959570e+00    7.946874e-01   1.072110e-02
  1.961780e+00    7.924495e-01   1.069609e-02
  1.963990e+00    7.893968e-01   1.066537e-02
  1.966201e+00    7.812119e-01   1.059993e-02
  1.968411e+00    7.691508e-01   1.050777e-02
  1.970622e+00    7.673479e-01   1.048547e-02
  1.972832e+00    7.800272e-01   1.056182e-02
  1.975043e+00    7.899948e-01   1.061903e-02
  1.977253e+00    7.879220e-01   1.059513e-02
  1.979464e+00    7.621334e-01   1.041040e-02
  1.981674e+00    7.577698e-01   1.037044e-02
  1.983885e+00    7.625656e-01   1.039333e-02
  1.986095e+00    7.491800e-01   1.029220e-02
  1.988305e+00    7.549443e-01   1.032197e-02
  1.990516e+00    7.570168e-01   1.032635e-02
  1.992726e+00    7.833940e-01   1.049499e-02
  1.994937e+00    7.832025e-01   1.048358e-02
  1.997147e+00    7.741780e-01   1.041326e-02
  1.999358e+00    7.684007e-01   1.036452e-02
  2.001568e+00    7.743852e-01   1.039400e-02
  2.003779e+00    7.634038e-01   1.030818e-02
  2.005989e+00    7.817878e-01   1.041946e-02
  2.008200e+00    7.825956e-01   1.041324e-02
  2.010410e+00    7.736019e-01   1.034144e-02
  2.012621e+00    7.563701e-01   1.021401e-02
  2.014831e+00    7.491822e-01   1.015402e-02
  2.017041e+00    7.573492e-01   1.019889e-02
  2.019252e+00    7.618306e-01   1.021909e-02
  2.021462e+00    7.572528e-01   1.017888e-02
  2.023673e+00    7.652679e-01   1.022322e-02
  2.025883e+00    7.548091e-01   1.014365e-02
  2.028094e+00    7.418493e-01   1.004669e-02
  2.030304e+00    7.320287e-01   9.970617e-03
  2.032515e+00    7.386070e-01   1.000614e-02
  2.034725e+00    7.429349e-01   1.002608e-02
  2.036936e+00    7.487387e-01   1.005589e-02
  2.039146e+00    7.375092e-01   9.970757e-03
  2.041356e+00    7.380298e-01   9.964732e-03
  2.043567e+00    7.450634e-01   1.000287e-02
  2.045777e+00    7.429252e-01   9.979336e-03
  2.047988e+00    7.506777e-01   1.002192e-02
  2.050198e+00    7.465794e-01   9.986144e-03
  2.052409e+00    7.476379e-01   9.985578e-03
  2.054619e+00    7.600048e-01   1.006042e-02
  2.056830e+00    7.511262e-01   9.994305e-03
  2.059040e+00    7.573288e-01   1.002795e-02
  2.061251e+00    7.318527e-01   9.850689e-03
  2.063461e+00    7.301763e-01   9.831882e-03
  2.065671e+00    7.285306e-01   9.812197e-03
  2.067882e+00    7.361683e-01   9.854576e-03
  2.070092e+00    7.335305e-01   9.827787e-03
  2.072303e+00    7.593632e-01   9.990110e-03
  2.074513e+00    7.595534e-01   9.981975e-03
  2.076724e+00    7.376759e-01   9.827765e-03
  2.078934e+00    7.276798e-01   9.752017e-03
  2.081145e+00    7.444778e-01   9.854838e-03
  2.083355e+00    7.415601e-01   9.826357e-03
  2.085566e+00    7.288253e-01   9.732773e-03
  2.087776e+00    7.092828e-01   9.592094e-03
  2.089986e+00    7.121994e-01   9.603161e-03
  2.092197e+00    7.346827e-01   9.744609e-03
  2.094407e+00    7.304339e-01   9.707231e-03
  2.096618e+00    7.209206e-01   9.634976e-03
  2.098828e+00    7.273944e-01   9.668887e-03
  2.101039e+00    7.137356e-01   9.568815e-03
  2.103249e+00    7.119140e-01   9.548043e-03
  2.105460e+00    7.111121e-01   9.533758e-03
  2.107670e+00    7.004653e-01   9.453561e-03
  2.109881e+00    7.183812e-01   9.564579e-03
  2.112091e+00    7.321398e-01   9.646718e-03
  2.114301e+00    7.075315e-01   9.474540e-03
  2.116512e+00    7.069781e-01   9.462128e-03
  2.118722e+00    7.128389e-01   9.492503e-03
  2.120933e+00    7.157523e-01   9.503049e-03
  2.123143e+00    7.144846e-01   9.485744e-03
  2.125354e+00    7.062294e-01   9.422341e-03
  2.127564e+00    7.004614e-01   9.375142e-03
  2.129775e+00    7.143998e-01   9.459223e-03
  2.131985e+00    7.165827e-01   9.464621e-03
  2.134196e+00    6.994600e-01   9.342336e-03
  2.136406e+00    6.933070e-01   9.292546e-03
  2.138617e+00    6.996280e-01   9.326394e-03
  2.140827e+00    6.999587e-01   9.344572e-03
  2.143037e+00    7.006138e-01   9.394204e-03
  2.145248e+00    6.919029e-01   9.357415e-03
  2.147458e+00    6.902499e-01   9.361198e-03
  2.149669e+00    7.011068e-01   9.446378e-03
  2.151879e+00    7.166932e-01   9.560108e-03
  2.154090e+00    7.134513e-01   9.545864e-03
  2.156300e+00    6.838566e-01   9.352315e-03
  2.158511e+00    6.674758e-01   9.244781e-03
  2.160721e+00    6.712405e-01   9.275537e-03
  2.162932e+00    6.999165e-01   9.475342e-03
  2.165142e+00    6.961215e-01   9.452639e-03
  2.167352e+00    6.994756e-01   9.478322e-03
  2.169563e+00    6.694524e-01   9.274582e-03
  2.171773e+00    6.700848e-01   9.281364e-03
  2.173984e+00    6.830987e-01   9.372434e-03
  2.176194e+00    6.996402e-01   9.486489e-03
  2.178405e+00    6.781642e-01   9.340416e-03
  2.180615e+00    6.831812e-01   9.375583e-03
  2.182826e+00    6.761450e-01   9.327857e-03
  2.185036e+00    6.836267e-01   9.379372e-03
  2.187247e+00    6.889240e-01   9.415578e-03
  2.189457e+00    6.824893e-01   9.371114e-03
  2.191667e+00    6.828644e-01   9.373502e-03
  2.193878e+00    6.939008e-01   9.448376e-03
  2.196088e+00    6.738441e-01   9.310174e-03
  2.198299e+00    6.868058e-01   9.398161e-03
  2.200509e+00    6.824527e-01   9.367301e-03
  2.202720e+00    6.824948e-01   9.366427e-03
  2.204930e+00    6.676810e-01   9.262994e-03
  2.207141e+00    6.711657e-01   9.286027e-03
  2.209351e+00    6.763859e-01   9.320184e-03
  2.211562e+00    6.724693e-01   9.291553e-03
  2.213772e+00    6.684548e-01   9.208654e-03
  2.215982e+00    6.625841e-01   9.124338e-03
  2.218193e+00    6.618589e-01   9.090026e-03
  2.220403e+00    6.539149e-01   9.011104e-03
  2.222614e+00    6.705405e-01   9.104023e-03
  2.224824e+00    6.694986e-01   9.077640e-03
  2.227035e+00    6.642660e-01   9.024761e-03
  2.229245e+00    6.720570e-01   9.060551e-03
  2.231456e+00    6.876985e-01   9.149579e-03
  2.233666e+00    6.799950e-01   9.083007e-03
  2.235877e+00    6.594597e-01   8.930665e-03
  2.238087e+00    6.419579e-01   8.798139e-03
  2.240298e+00    6.758535e-01   9.013587e-03
  2.242508e+00    6.713410e-01   8.968305e-03
  2.244718e+00    6.642350e-01   8.904959e-03
  2.246929e+00    6.654159e-01   8.898474e-03
  2.249139e+00    6.699252e-01   8.916174e-03
  2.251350e+00    6.555564e-01   8.808428e-03
  2.253560e+00    6.665931e-01   8.870696e-03
  2.255771e+00    6.627464e-01   8.833697e-03
  2.257981e+00    6.680520e-01   8.857756e-03
  2.260192e+00    6.698502e-01   8.858536e-03
  2.262402e+00    6.674151e-01   8.831533e-03
  2.264613e+00    6.715288e-01   8.847816e-03
  2.266823e+00    6.600201e-01   8.761296e-03
  2.269033e+00    6.701799e-01   8.818021e-03
  2.271244e+00    6.704647e-01   8.809452e-03
  2.273454e+00    6.708938e-01   8.801944e-03
  2.275665e+00    6.694899e-01   8.782364e-03
  2.277875e+00    6.606922e-01   8.714554e-03
  2.280086e+00    6.497188e-01   8.631907e-03
  2.282296e+00    6.482197e-01   8.612622e-03
  2.284507e+00    6.418543e-01   8.560230e-03
  2.286717e+00    6.560602e-01   8.644980e-03
  2.288928e+00    6.462271e-01   8.570175e-03
  2.291138e+00    6.458898e-01   8.558602e-03
  2.293348e+00    6.431423e-01   8.530909e-03
  2.295559e+00    6.483344e-01   8.556021e-03
  2.297769e+00    6.429750e-01   8.511430e-03
  2.299980e+00    6.400397e-01   8.482723e-03
  2.302190e+00    6.504052e-01   8.542035e-03
  2.304401e+00    6.461979e-01   8.505096e-03
  2.306611e+00    6.465397e-01   8.498169e-03
  2.308822e+00    6.552036e-01   8.546521e-03
  2.311032e+00    6.337566e-01   8.399120e-03
  2.313243e+00    6.423572e-01   8.449657e-03
  2.315453e+00    6.386636e-01   8.417840e-03
  2.317663e+00    6.321921e-01   8.366059e-03
  2.319874e+00    6.214058e-01   8.285825e-03
  2.322084e+00    6.426645e-01   8.417405e-03
  2.324295e+00    6.362063e-01   8.366866e-03
  2.326505e+00    6.242062e-01   8.278654e-03
  2.328716e+00    6.287185e-01   8.300074e-03
  2.330926e+00    6.277958e-01   8.285295e-03
  2.333137e+00    6.371458e-01   8.338423e-03
  2.335347e+00    6.351750e-01   8.316681e-03
  2.337558e+00    6.393800e-01   8.335945e-03
  2.339768e+00    6.324034e-01   8.281831e-03
  2.341979e+00    6.292609e-01   8.252908e-03
  2.344189e+00    6.388227e-01   8.306987e-03
  2.346399e+00    6.211823e-01   8.183088e-03
  2.348610e+00    6.324266e-01   8.248373e-03
  2.350820e+00    6.382023e-01   8.277763e-03
  2.353031e+00    6.248892e-01   8.182750e-03
  2.355241e+00    6.307220e-01   8.212788e-03
  2.357452e+00    6.410385e-01   8.271222e-03
  2.359662e+00    6.408995e-01   8.262046e-03
  2.361873e+00    6.277762e-01   8.168804e-03
  2.364083e+00    6.271987e-01   8.157067e-03
  2.366294e+00    6.278207e-01   8.152994e-03
  2.368504e+00    6.272679e-01   8.141340e-03
  2.370714e+00    6.239834e-01   8.111934e-03
  2.372925e+00    6.270281e-01   8.123648e-03
  2.375135e+00    6.171753e-01   8.051554e-03
  2.377346e+00    6.169176e-01   8.041980e-03
  2.379556e+00    6.161866e-01   8.029344e-03
  2.381767e+00    6.322724e-01   8.125540e-03
  2.383977e+00    6.223669e-01   8.053714e-03
  2.386188e+00    6.171241e-01   8.011818e-03
  2.388398e+00    6.079172e-01   7.943935e-03
  2.390609e+00    6.155699e-01   7.986055e-03
  2.392819e+00    6.172322e-01   7.989061e-03
  2.395029e+00    6.018282e-01   7.881179e-03
  2.397240e+00    5.936870e-01   7.819937e-03
  2.399450e+00    6.056738e-01   7.890735e-03
  2.401661e+00    5.978352e-01   7.831917e-03
  2.403871e+00    6.075012e-01   7.887250e-03
  2.406082e+00    5.985097e-01   7.821291e-03
  2.408292e+00    5.920104e-01   7.771040e-03
  2.410503e+00    5.908809e-01   7.756226e-03
  2.412713e+00    5.900199e-01   7.742891e-03
  2.414924e+00    5.871214e-01   7.716496e-03
  2.417134e+00    5.985199e-01   7.783416e-03
  2.419344e+00    5.949360e-01   7.752751e-03
  2.421555e+00    6.007871e-01   7.783256e-03
  2.423765e+00    6.114886e-01   7.844812e-03
  2.425976e+00    6.097350e-01   7.825676e-03
  2.428186e+00    6.132500e-01   7.840913e-03
  2.430397e+00    5.930920e-01   7.703502e-03
  2.432607e+00    5.967466e-01   7.719908e-03
  2.434818e+00    5.942758e-01   7.696386e-03
  2.437028e+00    5.841696e-01   7.623574e-03
  2.439239e+00    5.902435e-01   7.655470e-03
  2.441449e+00    5.751504e-01   7.549865e-03
  2.443659e+00    5.727798e-01   7.527064e-03
  2.445870e+00    5.641640e-01   7.482192e-03
  2.448080e+00    5.670921e-01   7.535941e-03
  2.450291e+00    5.497264e-01   7.435848e-03
  2.452501e+00    5.643398e-01   7.545074e-03
  2.454712e+00    5.668938e-01   7.570524e-03
  2.456922e+00    5.498366e-01   7.462266e-03
  2.459133e+00    5.396107e-01   7.397823e-03
  2.461343e+00    5.521529e-01   7.487612e-03
  2.463554e+00    5.472539e-01   7.457734e-03
  2.465764e+00    5.479810e-01   7.465776e-03
  2.467975e+00    5.743819e-01   7.645810e-03
  2.470185e+00    5.670343e-01   7.599051e-03
  2.472395e+00    5.585919e-01   7.543471e-03
  2.474606e+00    5.657019e-01   7.592919e-03
  2.476816e+00    5.501570e-01   7.488605e-03
  2.479027e+00    5.466143e-01   7.465294e-03
  2.481237e+00    5.477664e-01   7.473435e-03
  2.483448e+00    5.481428e-01   7.476314e-03
  2.485658e+00    5.431294e-01   7.441890e-03
  2.487869e+00    5.424931e-01   7.437579e-03
  2.490079e+00    5.375527e-01   7.403104e-03
  2.492290e+00    5.361152e-01   7.392787e-03
  2.494500e+00    5.222659e-01   7.295933e-03
  2.496710e+00    5.189417e-01   7.272010e-03
  2.498921e+00    5.223413e-01   7.294793e-03
  2.501131e+00    5.262929e-01   7.321399e-03
  2.503342e+00    5.212464e-01   7.284961e-03
  2.505552e+00    5.279499e-01   7.330530e-03
  2.507763e+00    5.190430e-01   7.267044e-03
  2.509973e+00    4.978350e-01   7.115666e-03
  2.512184e+00    5.169523e-01   7.249396e-03
  2.514394e+00    5.087723e-01   7.182617e-03
  2.516605e+00    5.290017e-01   7.276847e-03
  2.518815e+00    5.177962e-01   7.171270e-03
  2.521025e+00    5.230125e-01   7.186376e-03
  2.523236e+00    5.106610e-01   7.083307e-03
  2.525446e+00    5.139570e-01   7.090667e-03
  2.527657e+00    5.216471e-01   7.128981e-03
  2.529867e+00    5.112981e-01   7.043923e-03
  2.532078e+00    5.102956e-01   7.022167e-03
  2.534288e+00    5.279546e-01   7.128718e-03
  2.536499e+00    5.236587e-01   7.087742e-03
  2.538709e+00    5.163744e-01   7.027347e-03
  2.540920e+00    5.287301e-01   7.100237e-03
  2.543130e+00    5.263903e-01   7.074122e-03
  2.545340e+00    5.193063e-01   7.016355e-03
  2.547551e+00    5.129898e-01   6.963672e-03
  2.549761e+00    5.304580e-01   7.071608e-03
  2.551972e+00    5.214745e-01   7.002126e-03
  2.554182e+00    5.222043e-01   6.997820e-03
  2.556393e+00    5.330240e-01   7.060761e-03
  2.558603e+00    5.183434e-01   6.953796e-03
  2.560814e+00    5.107746e-01   6.894210e-03
  2.563024e+00    5.103160e-01   6.882597e-03
  2.565235e+00    5.152976e-01   6.906651e-03
  2.567445e+00    5.006286e-01   6.798249e-03
  2.569656e+00    5.047220e-01   6.816351e-03
  2.571866e+00    5.141528e-01   6.870431e-03
  2.574076e+00    5.153860e-01   6.869402e-03
  2.576287e+00    5.144519e-01   6.854875e-03
  2.578497e+00    5.037109e-01   6.775175e-03
  2.580708e+00    5.067474e-01   6.787558e-03
  2.582918e+00    5.072012e-01   6.782878e-03
  2.585129e+00    5.189546e-01   6.853239e-03
  2.587339e+00    5.066863e-01   6.764136e-03
  2.589550e+00    5.146405e-01   6.809444e-03
  2.591760e+00    5.093887e-01   6.766901e-03
  2.593971e+00    5.010858e-01   6.704084e-03
  2.596181e+00    4.911386e-01   6.631097e-03
  2.598391e+00    4.904186e-01   6.621152e-03
  2.600602e+00    5.039908e-01   6.706272e-03
  2.602812e+00    4.924276e-01   6.621481e-03
  2.605023e+00    5.032424e-01   6.686651e-03
  2.607233e+00    5.117959e-01   6.736092e-03
  2.609444e+00    5.013113e-01   6.659550e-03
  2.611654e+00    4.987892e-01   6.635511e-03
  2.613865e+00    5.020202e-01   6.649952e-03
  2.616075e+00    5.066673e-01   6.673526e-03
  2.618286e+00    5.074754e-01   6.671835e-03
  2.620496e+00    5.065113e-01   6.658786e-03
  2.622706e+00    5.076595e-01   6.660582e-03
  2.624917e+00    5.013519e-01   6.613235e-03
  2.627127e+00    5.089529e-01   6.657410e-03
  2.629338e+00    4.959565e-01   6.565927e-03
  2.631548e+00    5.048717e-01   6.618510e-03
  2.633759e+00    4.821228e-01   6.460671e-03
  2.635969e+00    4.888311e-01   6.498860e-03
  2.638180e+00    5.021284e-01   6.579668e-03
  2.640390e+00    4.983990e-01   6.548608e-03
  2.642601e+00    4.935206e-01   6.509861e-03
  2.644811e+00    5.059441e-01   6.584179e-03
  2.647021e+00    4.948378e-01   6.504975e-03
  2.649232e+00    4.950903e-01   6.499953e-03
  2.651442e+00    5.000818e-01   6.526123e-03
  2.653653e+00    4.886320e-01   6.444268e-03
  2.655863e+00    4.970205e-01   6.492652e-03
  2.658074e+00    5.064167e-01   6.547073e-03
  2.660284e+00    5.048208e-01   6.530356e-03
  2.662495e+00    5.000136e-01   6.492434e-03
  2.664705e+00    4.845257e-01   6.384590e-03
  2.666916e+00    4.880570e-01   6.401394e-03
  2.669126e+00    5.024949e-01   6.488892e-03
  2.671337e+00    5.046097e-01   6.495901e-03
  2.673547e+00    5.035073e-01   6.482365e-03
  2.675757e+00    5.008216e-01   6.458563e-03
  2.677968e+00    5.061090e-01   6.485970e-03
  2.680178e+00    4.919160e-01   6.387993e-03
  2.682389e+00    4.766568e-01   6.281845e-03
  2.684599e+00    4.853871e-01   6.332961e-03
  2.686810e+00    4.755370e-01   6.261896e-03
  2.689020e+00    4.749546e-01   6.251873e-03
  2.691231e+00    4.752656e-01   6.247718e-03
  2.693441e+00    4.834415e-01   6.295137e-03
  2.695652e+00    4.854558e-01   6.301755e-03
  2.697862e+00    5.012118e-01   6.396781e-03
  2.700072e+00    4.952645e-01   6.352609e-03
  2.702283e+00    5.047070e-01   6.406558e-03
  2.704493e+00    4.900138e-01   6.306340e-03
  2.706704e+00    4.839413e-01   6.260753e-03
  2.708914e+00    4.826166e-01   6.246250e-03
  2.711125e+00    4.788012e-01   6.215326e-03
  2.713335e+00    4.782645e-01   6.205798e-03
  2.715546e+00    4.820732e-01   6.224032e-03
  2.717756e+00    4.833063e-01   6.226130e-03
  2.719967e+00    4.686733e-01   6.125045e-03
  2.722177e+00    4.783252e-01   6.181710e-03
  2.724387e+00    4.679971e-01   6.108621e-03
  2.726598e+00    4.766390e-01   6.158749e-03
  2.728808e+00    4.877268e-01   6.223810e-03
  2.731019e+00    4.841279e-01   6.194693e-03
  2.733229e+00    4.679577e-01   6.084663e-03
  2.735440e+00    4.616225e-01   6.037191e-03
  2.737650e+00    4.781037e-01   6.138036e-03
  2.739861e+00    4.808437e-01   6.149560e-03
  2.742071e+00    4.743009e-01   6.101882e-03
  2.744282e+00    4.727833e-01   6.085927e-03
  2.746492e+00    4.775477e-01   6.110511e-03
  2.748702e+00    4.716589e-01   6.066877e-03
  2.750913e+00    4.777380e-01   6.100090e-03
  2.753123e+00    4.711630e-01   6.051895e-03
  2.755334e+00    4.775675e-01   6.086854e-03
  2.757544e+00    4.778153e-01   6.082718e-03
  2.759755e+00    4.693697e-01   6.022885e-03
  2.761965e+00    4.731790e-01   6.041346e-03
  2.764176e+00    4.731041e-01   6.034923e-03
  2.766386e+00    4.792283e-01   6.068065e-03
  2.768597e+00    4.794183e-01   6.063425e-03
  2.770807e+00    4.668023e-01   5.977288e-03
  2.773017e+00    4.710698e-01   5.998643e-03
  2.775228e+00    4.790644e-01   6.043537e-03
  2.777438e+00    4.720287e-01   5.993246e-03
  2.779649e+00    4.631728e-01   5.930940e-03
  2.781859e+00    4.741523e-01   5.995079e-03
  2.784070e+00    4.878391e-01   6.075063e-03
  2.786280e+00    4.874311e-01   6.066709e-03
  2.788491e+00    4.881895e-01   6.065516e-03
  2.790701e+00    4.790018e-01   6.002516e-03
  2.792912e+00    4.694064e-01   5.936157e-03
  2.795122e+00    4.707938e-01   5.939237e-03
  2.797333e+00    4.650141e-01   5.897150e-03
  2.799543e+00    4.681439e-01   5.911155e-03
  2.801753e+00    4.717890e-01   5.928291e-03
  2.803964e+00    4.758259e-01   5.947926e-03
  2.806174e+00    4.746104e-01   5.934188e-03
  2.808385e+00    4.805120e-01   5.964131e-03
  2.810595e+00    4.636416e-01   5.851725e-03
  2.812806e+00    4.726361e-01   5.901602e-03
  2.815016e+00    4.604695e-01   5.820479e-03
  2.817227e+00    4.594408e-01   5.839495e-03
  2.819437e+00    4.691189e-01   5.911698e-03
  2.821648e+00    4.747591e-01   5.949424e-03
  2.823858e+00    4.711808e-01   5.932305e-03
  2.826068e+00    4.550361e-01   5.834656e-03
  2.828279e+00    4.643272e-01   5.897925e-03
  2.830489e+00    4.645339e-01   5.902550e-03
  2.832700e+00    4.662013e-01   5.915675e-03
  2.834910e+00    4.627874e-01   5.896018e-03
  2.837121e+00    4.632280e-01   5.900532e-03
  2.839331e+00    4.682348e-01   5.933536e-03
  2.841542e+00    4.660769e-01   5.920894e-03
  2.843752e+00    4.578077e-01   5.868880e-03
  2.845963e+00    4.702761e-01   5.948660e-03
  2.848173e+00    4.621805e-01   5.897345e-03
  2.850383e+00    4.534801e-01   5.841843e-03
  2.852594e+00    4.638358e-01   5.908092e-03
  2.854804e+00    4.703697e-01   5.949041e-03
  2.857015e+00    4.779276e-01   5.996242e-03
  2.859225e+00    4.628938e-01   5.900910e-03
  2.861436e+00    4.639317e-01   5.906859e-03
  2.863646e+00    4.705855e-01   5.949124e-03
  2.865857e+00    4.710698e-01   5.952506e-03
  2.868067e+00    4.705390e-01   5.949399e-03
  2.870278e+00    4.506169e-01   5.821734e-03
  2.872488e+00    4.489383e-01   5.809735e-03
  2.874698e+00    4.481626e-01   5.803691e-03
  2.876909e+00    4.623489e-01   5.893485e-03
  2.879119e+00    4.654056e-01   5.911332e-03
  2.881330e+00    4.581922e-01   5.863871e-03
  2.883540e+00    4.681269e-01   5.925709e-03
  2.885751e+00    4.532444e-01   5.829124e-03
  2.887961e+00    4.469279e-01   5.786519e-03
  2.890172e+00    4.550597e-01   5.837303e-03
  2.892382e+00    4.686593e-01   5.922077e-03
  2.894593e+00    4.706527e-01   5.932837e-03
  2.896803e+00    4.553474e-01   5.833609e-03
  2.899014e+00    4.524216e-01   5.812925e-03
  2.901224e+00    4.547604e-01   5.825956e-03
  2.903434e+00    4.520658e-01   5.806745e-03
  2.905645e+00    4.437016e-01   5.750601e-03
  2.907855e+00    4.402621e-01   5.726193e-03
  2.910066e+00    4.541032e-01   5.813442e-03
  2.912276e+00    4.532565e-01   5.805925e-03
  2.914487e+00    4.596135e-01   5.844033e-03
  2.916697e+00    4.566727e-01   5.823083e-03
  2.918908e+00    4.553604e-01   5.812722e-03
  2.921118e+00    4.568343e-01   5.819419e-03
  2.923329e+00    4.530575e-01   5.793024e-03
  2.925539e+00    4.406108e-01   5.710656e-03
  2.927749e+00    4.456774e-01   5.741091e-03
  2.929960e+00    4.567508e-01   5.809218e-03
  2.932170e+00    4.577397e-01   5.813181e-03
  2.934381e+00    4.533507e-01   5.782783e-03
  2.936591e+00    4.618840e-01   5.834392e-03
  2.938802e+00    4.471664e-01   5.737992e-03
  2.941012e+00    4.543987e-01   5.781867e-03
  2.943223e+00    4.544850e-01   5.779737e-03
  2.945433e+00    4.463366e-01   5.723991e-03
  2.947644e+00    4.516172e-01   5.753619e-03
  2.949854e+00    4.538219e-01   5.763394e-03
  2.952064e+00    4.474732e-01   5.718763e-03
  2.954275e+00    4.439068e-01   5.691553e-03
  2.956485e+00    4.567260e-01   5.768961e-03
  2.958696e+00    4.410165e-01   5.664587e-03
  2.960906e+00    4.405609e-01   5.657516e-03
  2.963117e+00    4.564652e-01   5.754254e-03
  2.965327e+00    4.429926e-01   5.664849e-03
  2.967538e+00    4.431278e-01   5.662828e-03
  2.969748e+00    4.519456e-01   5.716092e-03
  2.971959e+00    4.468766e-01   5.680821e-03
  2.974169e+00    4.656658e-01   5.796402e-03
  2.976379e+00    4.682432e-01   5.809479e-03
  2.978590e+00    4.622163e-01   5.768800e-03
  2.980800e+00    4.511865e-01   5.696767e-03
  2.983011e+00    4.514420e-01   5.695585e-03
  2.985221e+00    4.566935e-01   5.725460e-03
  2.987432e+00    4.496208e-01   5.677850e-03
  2.989642e+00    4.628884e-01   5.758360e-03
  2.991853e+00    4.642688e-01   5.763626e-03
  2.994063e+00    4.482922e-01   5.660718e-03
  2.996274e+00    4.555154e-01   5.702921e-03
  2.998484e+00    4.507339e-01   5.670244e-03
  3.000694e+00    4.391357e-01   5.593408e-03
  3.002905e+00    4.440820e-01   5.621905e-03
  3.005115e+00    4.525878e-01   5.672525e-03
  3.007326e+00    4.512268e-01   5.660831e-03
  3.009536e+00    4.490268e-01   5.643783e-03
  3.011747e+00    4.598750e-01   5.708611e-03
  3.013957e+00    4.495077e-01   5.640743e-03
  3.016168e+00    4.476907e-01   5.626073e-03
  3.018378e+00    4.576240e-01   5.685097e-03
  3.020589e+00    4.508856e-01   5.639887e-03
  3.022799e+00    4.520327e-01   5.643885e-03
  3.025010e+00    4.479143e-01   5.614895e-03
  3.027220e+00    4.556090e-01   5.659798e-03
  3.029430e+00    4.557104e-01   5.657184e-03
  3.031641e+00    4.483956e-01   5.608453e-03
  3.033851e+00    4.502481e-01   5.616532e-03
  3.036062e+00    4.435070e-01   5.571565e-03
  3.038272e+00    4.484246e-01   5.598800e-03
  3.040483e+00    4.507214e-01   5.609900e-03
  3.042693e+00    4.474912e-01   5.586524e-03
  3.044904e+00    4.464553e-01   5.576031e-03
  3.047114e+00    4.492690e-01   5.588800e-03
  3.049325e+00    4.421032e-01   5.539689e-03
  3.051535e+00    4.450268e-01   5.553600e-03
  3.053745e+00    4.489241e-01   5.573136e-03
  3.055956e+00    4.510464e-01   5.581711e-03
  3.058166e+00    4.536087e-01   5.593279e-03
  3.060377e+00    4.410649e-01   5.510664e-03
  3.062587e+00    4.530089e-01   5.580144e-03
  3.064798e+00    4.376056e-01   5.480266e-03
  3.067008e+00    4.502464e-01   5.554108e-03
  3.069219e+00    4.382808e-01   5.475367e-03
  3.071429e+00    4.382859e-01   5.471926e-03
  3.073640e+00    4.467600e-01   5.521243e-03
  3.075850e+00    4.343041e-01   5.440235e-03
  3.078060e+00    4.372021e-01   5.455255e-03
  3.080271e+00    4.468175e-01   5.511468e-03
  3.082481e+00    4.421723e-01   5.479323e-03
  3.084692e+00    4.389924e-01   5.456241e-03
  3.086902e+00    4.494359e-01   5.517513e-03
  3.089113e+00    4.395380e-01   5.452882e-03
  3.091323e+00    4.450361e-01   5.483524e-03
  3.093534e+00    4.277712e-01   5.372811e-03
  3.095744e+00    4.337792e-01   5.407081e-03
  3.097955e+00    4.426199e-01   5.458360e-03
  3.100165e+00    4.437776e-01   5.462198e-03
  3.102375e+00    4.422247e-01   5.449217e-03
  3.104586e+00    4.380891e-01   5.420226e-03
  3.106796e+00    4.320157e-01   5.379061e-03
  3.109007e+00    4.398481e-01   5.424400e-03
  3.111217e+00    4.417437e-01   5.432422e-03
  3.113428e+00    4.346328e-01   5.385125e-03
  3.115638e+00    4.334357e-01   5.374531e-03
  3.117849e+00    4.387817e-01   5.403857e-03
  3.120059e+00    4.414682e-01   5.416955e-03
  3.122270e+00    4.263348e-01   5.320093e-03
  3.124480e+00    4.449961e-01   5.431582e-03
  3.126691e+00    4.473461e-01   5.442353e-03
  3.128901e+00    4.489376e-01   5.448874e-03
  3.131111e+00    4.405487e-01   5.393918e-03
  3.133322e+00    4.445392e-01   5.414826e-03
  3.135532e+00    4.414648e-01   5.392693e-03
  3.137743e+00    4.356275e-01   5.353461e-03
  3.139953e+00    4.394045e-01   5.372970e-03
  3.142164e+00    4.287329e-01   5.319132e-03
  3.144374e+00    4.354427e-01   5.388772e-03
  3.146585e+00    4.499851e-01   5.492708e-03
  3.148795e+00    4.383880e-01   5.432208e-03
  3.151006e+00    4.358491e-01   5.424934e-03
  3.153216e+00    4.401080e-01   5.458490e-03
  3.155426e+00    4.394468e-01   5.460695e-03
  3.157637e+00    4.332305e-01   5.427404e-03
  3.159847e+00    4.436831e-01   5.497374e-03
  3.162058e+00    4.378672e-01   5.465663e-03
  3.164268e+00    4.351453e-01   5.452679e-03
  3.166479e+00    4.388412e-01   5.479434e-03
  3.168689e+00    4.388978e-01   5.483158e-03
  3.170900e+00    4.307460e-01   5.435136e-03
  3.173110e+00    4.369122e-01   5.476754e-03
  3.175321e+00    4.444545e-01   5.526351e-03
  3.177531e+00    4.371796e-01   5.483677e-03
  3.179741e+00    4.351354e-01   5.472900e-03
  3.181952e+00    4.347121e-01   5.472338e-03
  3.184162e+00    4.341883e-01   5.471236e-03
  3.186373e+00    4.163089e-01   5.358951e-03
  3.188583e+00    4.393853e-01   5.507260e-03
  3.190794e+00    4.336716e-01   5.473097e-03
  3.193004e+00    4.273677e-01   5.434401e-03
  3.195215e+00    4.335589e-01   5.475114e-03
  3.197425e+00    4.297378e-01   5.452137e-03
  3.199636e+00    4.419791e-01   5.528479e-03
  3.201846e+00    4.286545e-01   5.443898e-03
  3.204056e+00    4.202982e-01   5.391458e-03
  3.206267e+00    4.293213e-01   5.449857e-03
  3.208477e+00    4.170782e-01   5.372502e-03
  3.210688e+00    4.179420e-01   5.378880e-03
  3.212898e+00    4.313681e-01   5.465171e-03
  3.215109e+00    4.273618e-01   5.440486e-03
  3.217319e+00    4.308715e-01   5.463412e-03
  3.219530e+00    4.307138e-01   5.462809e-03
  3.221740e+00    4.230227e-01   5.414366e-03
  3.223951e+00    4.230368e-01   5.414933e-03
  3.226161e+00    4.314939e-01   5.468956e-03
  3.228372e+00    4.253903e-01   5.430700e-03
  3.230582e+00    4.210449e-01   5.403010e-03
  3.232792e+00    4.225790e-01   5.413054e-03
  3.235003e+00    4.382273e-01   5.512628e-03
  3.237213e+00    4.263149e-01   5.437299e-03
  3.239424e+00    4.222016e-01   5.410993e-03
  3.241634e+00    4.202043e-01   5.398302e-03
  3.243845e+00    4.213052e-01   5.405444e-03
  3.246055e+00    4.225945e-01   5.413432e-03
  3.248266e+00    4.212281e-01   5.404870e-03
  3.250476e+00    4.201567e-01   5.397707e-03
  3.252687e+00    4.092622e-01   5.327187e-03
  3.254897e+00    3.990012e-01   5.259855e-03
  3.257107e+00    4.037380e-01   5.290674e-03
  3.259318e+00    4.310762e-01   5.466624e-03
  3.261528e+00    4.203867e-01   5.398307e-03
  3.263739e+00    4.260308e-01   5.433843e-03
  3.265949e+00    4.264522e-01   5.436425e-03
  3.268160e+00    4.066342e-01   5.308193e-03
  3.270370e+00    4.217013e-01   5.405126e-03
  3.272581e+00    4.091004e-01   5.323488e-03
  3.274791e+00    4.052224e-01   5.297694e-03
  3.277002e+00    4.168265e-01   5.372424e-03
  3.279212e+00    4.214210e-01   5.401603e-03
  3.281422e+00    4.093854e-01   5.323326e-03
  3.283633e+00    4.240151e-01   5.416933e-03
  3.285843e+00    4.379951e-01   5.505152e-03
  3.288054e+00    4.246604e-01   5.419785e-03
  3.290264e+00    4.240153e-01   5.415349e-03
  3.292475e+00    4.348503e-01   5.483255e-03
  3.294685e+00    4.250195e-01   5.420304e-03
  3.296896e+00    4.130489e-01   5.342649e-03
  3.299106e+00    4.246701e-01   5.416747e-03
  3.301317e+00    4.295209e-01   5.446543e-03
  3.303527e+00    4.391967e-01   5.507103e-03
  3.305737e+00    4.286619e-01   5.439570e-03
  3.307948e+00    4.230157e-01   5.402994e-03
  3.310158e+00    4.153014e-01   5.352633e-03
  3.312369e+00    4.241855e-01   5.408710e-03
  3.314579e+00    4.219193e-01   5.393322e-03
  3.316790e+00    4.231430e-01   5.400434e-03
  3.319000e+00    4.019029e-01   5.262001e-03
  3.321211e+00    4.181121e-01   5.366444e-03
  3.323421e+00    4.130254e-01   5.332529e-03
  3.325632e+00    4.053675e-01   5.281980e-03
  3.327842e+00    4.100607e-01   5.311551e-03
  3.330052e+00    4.231167e-01   5.394400e-03
  3.332263e+00    4.285454e-01   5.427858e-03
  3.334473e+00    4.252850e-01   5.406258e-03
  3.336684e+00    4.287611e-01   5.427043e-03
  3.338894e+00    4.169507e-01   5.350932e-03
  3.341105e+00    4.345040e-01   5.461175e-03
  3.343315e+00    4.133938e-01   5.325737e-03
  3.345526e+00    4.124483e-01   5.318744e-03
  3.347736e+00    4.106965e-01   5.306042e-03
  3.349947e+00    4.172620e-01   5.347359e-03
  3.352157e+00    4.152834e-01   5.333501e-03
  3.354368e+00    4.198434e-01   5.361398e-03
  3.356578e+00    4.180484e-01   5.348923e-03
  3.358788e+00    4.113280e-01   5.304443e-03
  3.360999e+00    4.032757e-01   5.251010e-03
  3.363209e+00    4.151153e-01   5.326550e-03
  3.365420e+00    4.152517e-01   5.325904e-03
  3.367630e+00    4.092480e-01   5.286254e-03
  3.369841e+00    4.219485e-01   5.366208e-03
  3.372051e+00    4.155458e-01   5.323395e-03
  3.374262e+00    4.015548e-01   5.230597e-03
  3.376472e+00    4.225903e-01   5.363391e-03
  3.378683e+00    4.124969e-01   5.296467e-03
  3.380893e+00    4.054900e-01   5.248969e-03
  3.383103e+00    4.089174e-01   5.268426e-03
  3.385314e+00    4.021852e-01   5.222685e-03
  3.387524e+00    4.047551e-01   5.236640e-03
  3.389735e+00    3.941560e-01   5.165072e-03
  3.391945e+00    4.117410e-01   5.275344e-03
  3.394156e+00    3.939375e-01   5.155927e-03
  3.396366e+00    4.014024e-01   5.201173e-03
  3.398577e+00    4.111528e-01   5.260925e-03
  3.400787e+00    3.901899e-01   5.136664e-03
  3.402998e+00    3.996463e-01   5.236109e-03
  3.405208e+00    3.907368e-01   5.197694e-03
  3.407418e+00    3.981656e-01   5.262609e-03
  3.409629e+00    3.933772e-01   5.244686e-03
  3.411839e+00    3.992387e-01   5.295403e-03
  3.414050e+00    3.841543e-01   5.205202e-03
  3.416260e+00    3.862293e-01   5.228795e-03
  3.418471e+00    3.960508e-01   5.304298e-03
  3.420681e+00    3.865132e-01   5.248466e-03
  3.422892e+00    3.891481e-01   5.274323e-03
  3.425102e+00    3.784983e-01   5.209343e-03
  3.427313e+00    3.745720e-01   5.189316e-03
  3.429523e+00    3.861301e-01   5.275809e-03
  3.431733e+00    3.863176e-01   5.283778e-03
  3.433944e+00    3.801510e-01   5.247887e-03
  3.436154e+00    3.746074e-01   5.215639e-03
  3.438365e+00    3.809129e-01   5.265267e-03
  3.440575e+00    3.904095e-01   5.336526e-03
  3.442786e+00    3.808685e-01   5.276520e-03
  3.444996e+00    3.669564e-01   5.184699e-03
  3.447207e+00    3.798723e-01   5.280462e-03
  3.449417e+00    3.769066e-01   5.300925e-03
  3.451628e+00    3.711857e-01   5.290066e-03
  3.453838e+00    3.630760e-01   5.253004e-03
  3.456049e+00    3.668398e-01   5.304050e-03
  3.458259e+00    3.665580e-01   5.323941e-03
  3.460469e+00    3.649429e-01   5.331963e-03
  3.462680e+00    3.513498e-01   5.250389e-03
  3.464890e+00    3.660949e-01   5.377200e-03
  3.467101e+00    3.453066e-01   5.239244e-03
  3.469311e+00    3.686560e-01   5.429975e-03
  3.471522e+00    3.908675e-01   5.607898e-03
  3.473732e+00    3.897323e-01   5.615953e-03
  3.475943e+00    4.053915e-01   5.743820e-03
  3.478153e+00    3.904724e-01   5.652627e-03
  3.480364e+00    3.997428e-01   5.734610e-03
  3.482574e+00    4.138208e-01   5.850249e-03
  3.484784e+00    4.086617e-01   5.828485e-03
  3.486995e+00    4.243725e-01   5.954707e-03
  3.489205e+00    4.491089e-01   6.140946e-03
  3.491416e+00    4.268440e-01   6.001696e-03
  3.493626e+00    4.397039e-01   6.106068e-03
  3.495837e+00    4.604972e-01   6.263886e-03
  3.498047e+00    4.468806e-01   6.185130e-03
  3.500258e+00    4.466800e-01   6.198216e-03
  3.502468e+00    4.416288e-01   6.177312e-03
  3.504679e+00    4.446526e-01   6.212614e-03
  3.506889e+00    4.623632e-01   6.349553e-03
  3.509099e+00    4.731039e-01   6.437231e-03
  3.511310e+00    4.682657e-01   6.418611e-03
  3.513520e+00    4.827631e-01   6.531613e-03
  3.515731e+00    4.889431e-01   6.587727e-03
  3.517941e+00    4.873897e-01   6.591586e-03
  3.520152e+00    5.052627e-01   6.725796e-03
  3.522362e+00    4.983638e-01   6.694180e-03
  3.524573e+00    5.082086e-01   6.774301e-03
  3.526783e+00    4.991997e-01   6.727179e-03
  3.528994e+00    5.144202e-01   6.841176e-03
  3.531204e+00    5.195448e-01   6.887594e-03
  3.533414e+00    5.175145e-01   6.886134e-03
  3.535625e+00    5.305716e-01   6.984813e-03
  3.537835e+00    5.579199e-01   7.175005e-03
  3.540046e+00    5.526809e-01   7.150320e-03
  3.542256e+00    5.308844e-01   7.015413e-03
  3.544467e+00    5.527690e-01   7.166256e-03
  3.546677e+00    5.373386e-01   7.073149e-03
  3.548888e+00    5.364892e-01   7.075018e-03
  3.551098e+00    5.425890e-01   7.122491e-03
  3.553309e+00    5.221748e-01   6.995283e-03
  3.555519e+00    5.174350e-01   6.974528e-03
  3.557729e+00    5.482671e-01   7.191170e-03
  3.559940e+00    5.398605e-01   7.147445e-03
  3.562150e+00    5.414861e-01   7.169948e-03
  3.564361e+00    5.334917e-01   7.130135e-03
  3.566571e+00    5.403441e-01   7.189642e-03
  3.568782e+00    5.396709e-01   7.199327e-03
  3.570992e+00    5.493425e-01   7.277491e-03
  3.573203e+00    5.332996e-01   7.184549e-03
  3.575413e+00    5.280348e-01   7.162671e-03
  3.577624e+00    5.274212e-01   7.172499e-03
  3.579834e+00    5.289541e-01   7.196716e-03
  3.582045e+00    5.359553e-01   7.258201e-03
  3.584255e+00    5.354202e-01   7.268654e-03
  3.586465e+00    5.273139e-01   7.227248e-03
  3.588676e+00    5.256047e-01   7.229534e-03
  3.590886e+00    5.402711e-01   7.343496e-03
  3.593097e+00    5.308915e-01   7.293894e-03
  3.595307e+00    5.301908e-01   7.302953e-03
  3.597518e+00    5.396976e-01   7.382386e-03
  3.599728e+00    5.547131e-01   7.498738e-03
  3.601939e+00    5.348372e-01   7.377237e-03
  3.604149e+00    5.443032e-01   7.456721e-03
  3.606360e+00    5.355110e-01   7.410449e-03
  3.608570e+00    5.293982e-01   7.382073e-03
  3.610780e+00    5.435168e-01   7.491043e-03
  3.612991e+00    5.271659e-01   7.387419e-03
  3.615201e+00    5.217696e-01   7.359188e-03
  3.617412e+00    5.412668e-01   7.502749e-03
  3.619622e+00    5.356777e-01   7.469866e-03
  3.621833e+00    5.160547e-01   7.338393e-03
  3.624043e+00    5.299278e-01   7.445799e-03
  3.626254e+00    5.310998e-01   7.463734e-03
  3.628464e+00    5.332992e-01   7.490117e-03
  3.630675e+00    5.401737e-01   7.552454e-03
  3.632885e+00    5.366493e-01   7.542256e-03
  3.635095e+00    5.223747e-01   7.455545e-03
  3.637306e+00    5.190433e-01   7.445861e-03
  3.639516e+00    5.357052e-01   7.579000e-03
  3.641727e+00    5.387314e-01   7.615019e-03
  3.643937e+00    5.341441e-01   7.597100e-03
  3.646148e+00    5.279996e-01   7.567816e-03
  3.648358e+00    5.182039e-01   7.511945e-03
  3.650569e+00    5.238243e-01   7.567179e-03
  3.652779e+00    5.036442e-01   7.434329e-03
  3.654990e+00    5.295075e-01   7.637680e-03
  3.657200e+00    5.445241e-01   7.760296e-03
  3.659410e+00    5.315703e-01   7.682357e-03
  3.661621e+00    5.413280e-01   7.767831e-03
  3.663831e+00    5.320314e-01   7.715943e-03
  3.666042e+00    5.348229e-01   7.751385e-03
  3.668252e+00    5.092794e-01   7.578939e-03
  3.670463e+00    5.168853e-01   7.650317e-03
  3.672673e+00    5.021465e-01   7.555506e-03
  3.674884e+00    5.268844e-01   7.754631e-03
  3.677094e+00    5.283815e-01   7.781212e-03
  3.679305e+00    5.118581e-01   7.673815e-03
  3.681515e+00    5.284117e-01   7.812522e-03
  3.683726e+00    5.206715e-01   7.770757e-03
  3.685936e+00    5.266481e-01   7.830894e-03
  3.688146e+00    5.245094e-01   7.830703e-03
  3.690357e+00    5.253289e-01   7.852730e-03
  3.692567e+00    5.184860e-01   7.817424e-03
  3.694778e+00    5.108820e-01   7.775659e-03
  3.696988e+00    5.050913e-01   7.747182e-03
  3.699199e+00    4.988722e-01   7.715110e-03
  3.701409e+00    5.061312e-01   7.787134e-03
  3.703620e+00    5.242953e-01   7.941929e-03
  3.705830e+00    5.070737e-01   7.826556e-03
  3.708041e+00    5.123863e-01   7.883825e-03
  3.710251e+00    5.018055e-01   7.818385e-03
  3.712461e+00    5.206329e-01   7.980397e-03
  3.714672e+00    5.401729e-01   8.145798e-03
  3.716882e+00    5.134470e-01   7.958348e-03
  3.719093e+00    5.121651e-01   7.965400e-03
  3.721303e+00    5.161572e-01   8.013271e-03
  3.723514e+00    4.984384e-01   7.891465e-03
  3.725724e+00    4.950000e-01   7.880938e-03
  3.727935e+00    5.023144e-01   7.956157e-03
  3.730145e+00    5.090579e-01   8.026573e-03
  3.732356e+00    5.155651e-01   8.095232e-03
  3.734566e+00    5.266045e-01   8.199171e-03
  3.736776e+00    4.949552e-01   7.966436e-03
  3.738987e+00    5.026449e-01   8.045545e-03
  3.741197e+00    5.033858e-01   8.069330e-03
  3.743408e+00    5.041211e-01   8.093135e-03
  3.745618e+00    5.074642e-01   8.138064e-03
  3.747829e+00    5.169200e-01   8.231801e-03
  3.750039e+00    4.960636e-01   8.082089e-03
  3.752250e+00    4.976164e-01   8.112976e-03
  3.754460e+00    4.964477e-01   8.121685e-03
  3.756671e+00    5.167360e-01   8.304989e-03
  3.758881e+00    5.091292e-01   8.262200e-03
  3.761091e+00    5.062745e-01   8.258183e-03
  3.763302e+00    5.107711e-01   8.313855e-03
  3.765512e+00    5.001526e-01   8.246084e-03
  3.767723e+00    5.239146e-01   8.459378e-03
  3.769933e+00    5.159217e-01   8.414149e-03
  3.772144e+00    4.895647e-01   8.215643e-03
  3.774354e+00    4.947794e-01   8.278854e-03
  3.776565e+00    5.089994e-01   8.417002e-03
  3.778775e+00    5.018184e-01   8.377241e-03
  3.780986e+00    5.178608e-01   8.530729e-03
  3.783196e+00    5.172756e-01   8.546404e-03
  3.785407e+00    5.219790e-01   8.605957e-03
  3.787617e+00    4.859518e-01   8.324144e-03
  3.789827e+00    4.769786e-01   8.266820e-03
  3.792038e+00    5.061712e-01   8.537020e-03
  3.794248e+00    5.060076e-01   8.556927e-03
  3.796459e+00    4.782400e-01   8.339642e-03
  3.798669e+00    5.023459e-01   8.568657e-03
  3.800880e+00    5.225725e-01   8.761384e-03
  3.803090e+00    5.078880e-01   8.659424e-03
  3.805301e+00    5.002310e-01   8.615967e-03
  3.807511e+00    4.863720e-01   8.517466e-03
  3.809722e+00    5.170501e-01   8.804596e-03
  3.811932e+00    4.864555e-01   8.562089e-03
  3.814142e+00    5.037669e-01   8.736065e-03
  3.816353e+00    4.990084e-01   8.717568e-03
  3.818563e+00    4.850090e-01   8.617173e-03
  3.820774e+00    5.017888e-01   8.788213e-03
  3.822984e+00    4.914903e-01   8.720809e-03
  3.825195e+00    4.914661e-01   8.744125e-03
  3.827405e+00    5.127003e-01   8.955270e-03
  3.829616e+00    5.179697e-01   9.025751e-03
  3.831826e+00    5.050026e-01   8.936461e-03
  3.834037e+00    4.685066e-01   8.631217e-03
  3.836247e+00    4.926387e-01   8.875295e-03
  3.838457e+00    4.944276e-01   8.916373e-03
  3.840668e+00    5.028043e-01   9.016966e-03
  3.842878e+00    4.990236e-01   9.008610e-03
  3.845089e+00    4.907857e-01   8.959384e-03
  3.847299e+00    4.902023e-01   8.979672e-03
  3.849510e+00    4.804160e-01   8.915103e-03
  3.851720e+00    4.892938e-01   9.018344e-03
  3.853931e+00    4.862958e-01   9.009529e-03
  3.856141e+00    4.884248e-01   9.048115e-03
  3.858352e+00    4.767101e-01   8.957825e-03
  3.860562e+00    4.967254e-01   9.163370e-03
  3.862772e+00    4.760514e-01   8.989829e-03
  3.864983e+00    4.729852e-01   8.980104e-03
  3.867193e+00    4.714954e-01   8.985299e-03
  3.869404e+00    4.634799e-01   8.927697e-03
  3.871614e+00    5.063533e-01   9.351790e-03
  3.873825e+00    5.133645e-01   9.437024e-03
  3.876035e+00    5.436872e-01   9.733357e-03
  3.878246e+00    5.344633e-01   9.677308e-03
  3.880456e+00    5.129286e-01   9.509962e-03
  3.882667e+00    4.677496e-01   9.110035e-03
  3.884877e+00    4.868082e-01   9.323369e-03
  3.887087e+00    4.918028e-01   9.401057e-03
  3.889298e+00    4.811386e-01   9.328608e-03
  3.891508e+00    5.158668e-01   9.690680e-03
  3.893719e+00    4.876166e-01   9.452526e-03
  3.895929e+00    5.104079e-01   9.702940e-03
  3.898140e+00    4.911673e-01   9.550082e-03
  3.900350e+00    4.841973e-01   9.513916e-03
  3.902561e+00    4.816254e-01   9.520793e-03
  3.904771e+00    4.640633e-01   9.377426e-03
  3.906982e+00    4.926823e-01   9.695605e-03
  3.909192e+00    5.063346e-01   9.863030e-03
  3.911403e+00    4.960831e-01   9.796995e-03
  3.913613e+00    4.558080e-01   9.423966e-03
  3.915823e+00    4.857217e-01   9.762879e-03
  3.918034e+00    5.109496e-01   1.004939e-02
  3.920244e+00    5.160288e-01   1.013595e-02
  3.922455e+00    4.941714e-01   9.955261e-03
  3.924665e+00    4.703740e-01   9.748376e-03
  3.926876e+00    4.588807e-01   9.664460e-03
  3.929086e+00    4.807174e-01   9.928833e-03
  3.931297e+00    4.785740e-01   9.941283e-03
  3.933507e+00    4.836305e-01   1.002234e-02
  3.935718e+00    4.812612e-01   1.002638e-02
  3.937928e+00    5.052201e-01   1.030293e-02
  3.940138e+00    4.726306e-01   9.993944e-03
  3.942349e+00    4.848483e-01   1.015205e-02
  3.944559e+00    4.988964e-01   1.032862e-02
  3.946770e+00    4.650851e-01   1.000183e-02
  3.948980e+00    4.923767e-01   1.032200e-02
  3.951191e+00    5.032167e-01   1.046637e-02
  3.953401e+00    4.869830e-01   1.032762e-02
  3.955612e+00    4.660828e-01   1.013456e-02
  3.957822e+00    4.598393e-01   1.009717e-02
  3.960033e+00    4.998489e-01   1.056039e-02
  3.962243e+00    4.998561e-01   1.059383e-02
  3.964453e+00    4.677714e-01   1.028072e-02
  3.966664e+00    5.011863e-01   1.067543e-02
  3.968874e+00    4.896223e-01   1.058015e-02
  3.971085e+00    4.743392e-01   1.043528e-02
  3.973295e+00    5.099383e-01   1.084187e-02
  3.975506e+00    4.682937e-01   1.041094e-02
  3.977716e+00    5.040681e-01   1.082365e-02
  3.979927e+00    4.907027e-01   1.070148e-02
  3.982137e+00    4.896456e-01   1.071232e-02
  3.984348e+00    4.872642e-01   1.070888e-02
  3.986558e+00    4.921010e-01   1.078436e-02
  3.988768e+00    4.874596e-01   1.075639e-02
  3.990979e+00    4.862480e-01   1.076593e-02
  3.993189e+00    4.612333e-01   1.050775e-02
  3.995400e+00    4.744082e-01   1.068002e-02
  3.997610e+00    5.084257e-01   1.108680e-02
  3.999821e+00    5.023491e-01   1.105865e-02
  4.002031e+00    4.979579e-01   1.104907e-02
  4.004242e+00    4.810509e-01   1.089830e-02
  4.006452e+00    4.597173e-01   1.069214e-02
  4.008663e+00    4.552473e-01   1.067884e-02
  4.010873e+00    4.638616e-01   1.081846e-02
  4.013084e+00    4.920308e-01   1.118343e-02
  4.015294e+00    4.909071e-01   1.121187e-02
  4.017504e+00    4.718951e-01   1.103399e-02
  4.019715e+00    4.720480e-01   1.107768e-02
  4.021925e+00    4.578742e-01   1.095180e-02
  4.024136e+00    4.543667e-01   1.095240e-02
  4.026346e+00    4.968779e-01   1.149774e-02
  4.028557e+00    4.823024e-01   1.137215e-02
  4.030767e+00    4.944017e-01   1.156017e-02
  4.032978e+00    4.804931e-01   1.144252e-02
  4.035188e+00    4.527154e-01   1.115143e-02
  4.037399e+00    4.587801e-01   1.127226e-02
  4.039609e+00    4.748126e-01   1.151489e-02
  4.041819e+00    4.530436e-01   1.129497e-02
  4.044030e+00    4.809805e-01   1.168779e-02
  4.046240e+00    4.890192e-01   1.183530e-02
  4.048451e+00    4.721767e-01   1.167999e-02
  4.050661e+00    4.650193e-01   1.164160e-02
  4.052872e+00    4.631077e-01   1.166936e-02
  4.055082e+00    4.503937e-01   1.155974e-02
  4.057293e+00    4.539193e-01   1.165696e-02
  4.059503e+00    4.677605e-01   1.188724e-02
  4.061714e+00    4.760869e-01   1.204868e-02
  4.063924e+00    4.378071e-01   1.160827e-02
  4.066134e+00    4.630041e-01   1.199376e-02
  4.068345e+00    4.736305e-01   1.218909e-02
  4.070555e+00    4.919853e-01   1.248292e-02
  4.072766e+00    5.006139e-01   1.265401e-02
  4.074976e+00    4.801550e-01   1.245457e-02
  4.077187e+00    5.015793e-01   1.279255e-02
  4.079397e+00    5.447722e-01   1.340010e-02
  4.081608e+00    5.091511e-01   1.302205e-02
  4.083818e+00    4.837658e-01   1.275928e-02
  4.086029e+00    4.625331e-01   1.254195e-02
  4.088239e+00    4.683835e-01   1.268886e-02
  4.090449e+00    5.107567e-01   1.332227e-02
  4.092660e+00    4.942443e-01   1.317725e-02
  4.094870e+00    5.057447e-01   1.340380e-02
  4.097081e+00    4.826131e-01   1.316562e-02
  4.099291e+00    4.750541e-01   1.311589e-02
  4.101502e+00    4.943864e-01   1.343013e-02
  4.103712e+00    4.721733e-01   1.317396e-02
  4.105923e+00    4.492654e-01   1.289991e-02
  4.108133e+00    4.889896e-01   1.351026e-02
  4.110344e+00    4.754203e-01   1.337236e-02
  4.112554e+00    4.616756e-01   1.322975e-02
  4.114764e+00    4.673063e-01   1.336360e-02
  4.116975e+00    4.481241e-01   1.313803e-02
  4.119185e+00    4.834398e-01   1.370130e-02
  4.121396e+00    4.763204e-01   1.365626e-02
  4.123606e+00    4.936911e-01   1.395993e-02
  4.125817e+00    4.644382e-01   1.359705e-02
  4.128027e+00    4.358035e-01   1.322644e-02
  4.130238e+00    4.833269e-01   1.398877e-02
  4.132448e+00    4.783341e-01   1.397674e-02
  4.134659e+00    4.857763e-01   1.414557e-02
  4.136869e+00    5.116565e-01   1.458230e-02
  4.139080e+00    4.959614e-01   1.442179e-02
  4.141290e+00    4.638518e-01   1.400890e-02
  4.143500e+00    4.359986e-01   1.364413e-02
  4.145711e+00    4.781147e-01   1.435480e-02
  4.147921e+00    4.903428e-01   1.460410e-02
  4.150132e+00    4.757546e-01   1.445361e-02
  4.152342e+00    5.117477e-01   1.506320e-02
  4.154553e+00    4.909930e-01   1.482453e-02
  4.156763e+00    5.032433e-01   1.508275e-02
  4.158974e+00    5.072969e-01   1.521939e-02
  4.161184e+00    4.577180e-01   1.452845e-02
  4.163395e+00    4.971805e-01   1.521898e-02
  4.165605e+00    4.758797e-01   1.496690e-02
  4.167815e+00    4.821148e-01   1.514303e-02
  4.170026e+00    5.225493e-01   1.584857e-02
  4.172236e+00    4.604025e-01   1.495680e-02
  4.174447e+00    4.492737e-01   1.485489e-02
  4.176657e+00    5.551521e-01   1.660334e-02
  4.178868e+00    5.051361e-01   1.592733e-02
  4.181078e+00    5.286683e-01   1.638597e-02
  4.183289e+00    5.149001e-01   1.626383e-02
  4.185499e+00    4.720061e-01   1.566348e-02
  4.187710e+00    4.795868e-01   1.588134e-02
  4.189920e+00    4.291852e-01   1.511408e-02
  4.192130e+00    5.030116e-01   1.646228e-02
  4.194341e+00    4.658403e-01   1.593974e-02
  4.196551e+00    4.882910e-01   1.642237e-02
  4.198762e+00    5.355822e-01   1.730869e-02
  4.200972e+00    4.559117e-01   1.607299e-02
  4.203183e+00    4.586598e-01   1.622728e-02
  4.205393e+00    4.382239e-01   1.596734e-02
  4.207604e+00    5.037586e-01   1.723636e-02
  4.209814e+00    5.621691e-01   1.833332e-02
  4.212025e+00    4.795925e-01   1.705342e-02
  4.214235e+00    4.422366e-01   1.649180e-02
  4.216445e+00    5.067178e-01   1.778076e-02
  4.218656e+00    4.851914e-01   1.752961e-02
  4.220866e+00    3.741660e-01   1.550792e-02
  4.223077e+00    4.564706e-01   1.726012e-02
  4.225287e+00    4.591857e-01   1.744769e-02
  4.227498e+00    4.921899e-01   1.820599e-02
  4.229708e+00    4.647592e-01   1.783478e-02
  4.231919e+00    5.209906e-01   1.903895e-02
  4.234129e+00    5.160447e-01   1.910809e-02
  4.236340e+00    4.681907e-01   1.835567e-02
  4.238550e+00    5.375203e-01   1.984144e-02
  4.240761e+00    5.198483e-01   1.968541e-02
  4.242971e+00    4.387267e-01   1.824976e-02
  4.245181e+00    4.633406e-01   1.893082e-02
  4.247392e+00    4.707536e-01   1.926028e-02
  4.249602e+00    4.734559e-01   1.950657e-02
  4.251813e+00    4.990464e-01   2.022512e-02
  4.254023e+00    4.639958e-01   1.969788e-02
  4.256234e+00    4.934209e-01   2.053028e-02
  4.258444e+00    4.563875e-01   1.995122e-02
  4.260655e+00    5.385772e-01   2.191136e-02
  4.262865e+00    4.653116e-01   2.059835e-02
  4.265076e+00    4.664538e-01   2.085737e-02
  4.267286e+00    4.519670e-01   2.077484e-02
  4.269496e+00    4.075130e-01   1.996747e-02
  4.271707e+00    4.265280e-01   2.068003e-02
  4.273917e+00    4.959753e-01   2.258849e-02
  4.276128e+00    5.108867e-01   2.323068e-02
  4.278338e+00    3.727586e-01   2.010772e-02
  4.280549e+00    4.352158e-01   2.203901e-02
  4.282759e+00    3.780206e-01   2.083481e-02
  4.284970e+00    4.922139e-01   2.412628e-02
  4.287180e+00    4.492750e-01   2.332629e-02
  4.289391e+00    4.743740e-01   2.414865e-02
  4.291601e+00    4.663474e-01   2.413495e-02
  4.293811e+00    4.407969e-01   2.364783e-02
  4.296022e+00    4.449195e-01   2.394939e-02
  4.298232e+00    4.654237e-01   2.469988e-02
  4.300443e+00    4.752884e-01   2.516630e-02
  4.302653e+00    4.252380e-01   2.401059e-02
  4.304864e+00    4.915734e-01   2.603856e-02
  4.307074e+00    4.834173e-01   2.605439e-02
  4.309285e+00    4.624259e-01   2.571371e-02
  4.311495e+00    4.340430e-01   2.514508e-02
  4.313706e+00    4.997381e-01   2.723390e-02
  4.315916e+00    4.760378e-01   2.684315e-02
  4.318126e+00    4.150491e-01   2.531177e-02
  4.320337e+00    4.003292e-01   2.511059e-02
  4.322547e+00    5.648469e-01   3.014320e-02
  4.324758e+00    4.289316e-01   2.654131e-02
  4.326968e+00    4.409162e-01   2.721225e-02
  4.329179e+00    4.225010e-01   2.693153e-02
  4.331389e+00    4.444672e-01   2.794084e-02
  4.333600e+00    5.180338e-01   3.052421e-02
  4.335810e+00    5.048249e-01   3.049191e-02
  4.338021e+00    5.569106e-01   3.243616e-02
  4.340231e+00    4.933740e-01   3.091298e-02
  4.342442e+00    4.567571e-01   3.014329e-02
  4.344652e+00    4.417309e-01   3.004506e-02
  4.346862e+00    4.782146e-01   3.169876e-02
  4.349073e+00    4.005564e-01   2.943478e-02
  4.351283e+00    4.631963e-01   3.212416e-02
  4.353494e+00    4.161226e-01   3.091856e-02
  4.355704e+00    5.050405e-01   3.461073e-02
  4.357915e+00    3.370306e-01   2.874390e-02
  4.360125e+00    5.030717e-01   3.571695e-02
  4.362336e+00    5.239323e-01   3.711509e-02
  4.364546e+00    3.525015e-01   3.099904e-02
  4.366757e+00    4.204992e-01   3.452721e-02
  4.368967e+00    5.437016e-01   4.004683e-02
  4.371177e+00    5.039921e-01   3.937624e-02
  4.373388e+00    3.753161e-01   3.473859e-02
  4.375598e+00    4.759066e-01   4.001114e-02
  4.377809e+00    3.383292e-01   3.458862e-02
  4.380019e+00    5.175828e-01   4.385628e-02
  4.382230e+00    5.513067e-01   4.652907e-02
  4.384440e+00    4.492375e-01   4.320713e-02
  4.386651e+00    4.776589e-01   4.592941e-02
  4.388861e+00    4.526917e-01   4.621220e-02
  4.391072e+00    3.269615e-01   4.065313e-02
  4.393282e+00    3.349594e-01   4.273875e-02
  4.395492e+00    5.975277e-01   5.945255e-02
  4.397703e+00    3.861530e-01   4.998155e-02
  4.399913e+00    4.082277e-01   5.399279e-02
  4.402124e+00    7.793910e-02   2.492980e-02
  4.404334e+00    4.529150e-01   6.387477e-02
  4.406545e+00    2.955862e-01   5.544668e-02
  4.408755e+00    5.895391e-01   8.491372e-02
  4.410966e+00    6.025504e-01   9.502403e-02
  4.413176e+00    3.950957e-01   8.709214e-02
  4.415387e+00   -5.892509e-01            nan
  4.417597e+00   -2.015506e+00            nan
  4.419807e+00   -3.766224e-01            nan
