# == pyFAI calibration ==
# Distance Sample to Detector: 0.216 m
# PONI: 1.166e-01, 1.308e-01 m
# Rotations: 0.000000 0.000000 0.000000 rad
# 
# == Fit2d calibration ==
# Distance Sample-beamCenter: 216.000 mm
# Center: x=1744.293, y=1555.000 pix
# Tilt: 0.000 deg  TiltPlanRot: 0.000 deg
# 
# Detector Eiger 9M	 PixelSize= 7.500e-05, 7.500e-05 m
#    Detector has a mask: True 
#    Detector has a dark current: False 
#    detector has a flat field: False 
# 
# Wavelength: 9.8e-11 m
# Mask applied: from detector
# Dark current applied: False
# Flat field applied: False
# Polarization factor: None
# Normalization factor: 1.0
# 
# Headers of the input frame:
# {
# "_array_data.header_convention": "SLS_1.0",
# "_array_data.header_contents": "# Detector: Dectris Eiger 9M, S/N E-18-0102\r\n# Pixel_size 75e-6 m x 75e-6 m\r\n# Silicon sensor, thickness 0.000450 m\r\n# Exposure_time 0.024997 s\r\n# Exposure_period 0.025000 s\r\n# Count_cutoff 62318 counts\r\n# Wavelength 0.980106 A\r\n# Detector_distance 0.215992 m\r\n# Beam_xy (1555, 1744) pixels\r\n# Start_angle 0.000000 deg.\r\n# Angle_increment 0.000000 deg.",
# "Content-Type": "application/octet-stream;",
# "conversions": "x-CBF_BYTE_OFFSET",
# "Content-Transfer-Encoding": "BINARY",
# "X-Binary-Size": "10166598",
# "X-Binary-ID": "1",
# "X-Binary-Element-Type": "signed 32-bit integer",
# "X-Binary-Element-Byte-Order": "LITTLE_ENDIAN",
# "Content-MD5": "oEYOL2UG7hMrAejtmDFgOw==",
# "X-Binary-Number-of-Elements": "10166590",
# "X-Binary-Size-Fastest-Dimension": "3110",
# "X-Binary-Size-Second-Dimension": "3269",
# "X-Binary-Size-Padding": "4095"
# }
# --> H:/Proxima2a_2019-04-05/RAW_DATA/C5_gel17_position5/C5_mesh_1_data.cbf/C5_mesh_1_data.cbf000066.dat
#        q_A^-1              I           sigma 
  1.105228e-03    1.144377e+00   5.788573e-01
  3.315685e-03    1.357933e+00   3.833404e-01
  5.526141e-03    1.370355e+00   2.977753e-01
  7.736597e-03    1.393209e+00   2.536462e-01
  9.947054e-03    1.399948e+00   2.241467e-01
  1.215751e-02    1.395041e+00   2.023309e-01
  1.436797e-02    1.415395e+00   1.874626e-01
  1.657842e-02    1.263076e+00   1.648387e-01
  1.878888e-02    1.259233e+00   1.546026e-01
  2.099934e-02    1.307009e+00   1.490189e-01
  2.320979e-02    1.437461e+00   1.486384e-01
  2.542025e-02    1.381084e+00   1.392257e-01
  2.763070e-02    1.498685e+00   1.391059e-01
  2.984116e-02    1.543929e+00   1.358596e-01
  3.205162e-02    1.500426e+00   1.292390e-01
  3.426207e-02    1.484840e+00   1.243411e-01
  3.647253e-02    1.471812e+00   1.199819e-01
  3.868299e-02    1.500294e+00   1.176343e-01
  4.089344e-02    1.322483e+00   1.074177e-01
  4.310390e-02    1.307356e+00   1.040210e-01
  4.531436e-02    1.426455e+00   1.059729e-01
  4.752481e-02    1.332454e+00   1.000104e-01
  4.973527e-02    1.351109e+00   9.844575e-02
  5.194572e-02    1.329282e+00   9.554578e-02
  5.415618e-02    1.385311e+00   9.552398e-02
  5.636664e-02    1.421454e+00   9.484876e-02
  5.857709e-02    1.518935e+00   9.617986e-02
  6.078755e-02    1.452321e+00   9.231849e-02
  6.299801e-02    1.438402e+00   9.024779e-02
  6.520846e-02    1.442160e+00   8.882136e-02
  6.741892e-02    1.436113e+00   8.716543e-02
  6.962938e-02    1.352412e+00   8.323783e-02
  7.183983e-02    1.414765e+00   8.381357e-02
  7.405029e-02    1.436249e+00   8.317564e-02
  7.626074e-02    1.491665e+00   8.352684e-02
  7.847120e-02    1.513351e+00   8.293613e-02
  8.068166e-02    1.459059e+00   8.031096e-02
  8.289211e-02    1.455200e+00   7.912760e-02
  8.510257e-02    1.519040e+00   7.978735e-02
  8.731303e-02    1.458571e+00   7.718423e-02
  8.952348e-02    1.407288e+00   7.487538e-02
  9.173394e-02    1.481818e+00   7.589818e-02
  9.394439e-02    1.482643e+00   7.501838e-02
  9.615485e-02    1.413740e+00   7.240599e-02
  9.836531e-02    1.450587e+00   7.251274e-02
  1.005758e-01    1.450163e+00   7.170144e-02
  1.027862e-01    1.372097e+00   6.898908e-02
  1.049967e-01    1.403650e+00   6.903818e-02
  1.072071e-01    1.443968e+00   6.929621e-02
  1.094176e-01    1.511492e+00   7.017709e-02
  1.116280e-01    1.508825e+00   6.941592e-02
  1.138385e-01    1.498988e+00   6.851291e-02
  1.160490e-01    1.488586e+00   6.762058e-02
  1.182594e-01    1.536530e+00   6.805434e-02
  1.204699e-01    1.539091e+00   6.748274e-02
  1.226803e-01    1.484007e+00   6.566175e-02
  1.248908e-01    1.528481e+00   6.604525e-02
  1.271012e-01    1.559341e+00   6.612471e-02
  1.293117e-01    1.534279e+00   6.502734e-02
  1.315222e-01    1.583020e+00   6.549323e-02
  1.337326e-01    1.555487e+00   6.438117e-02
  1.359431e-01    1.523417e+00   6.375134e-02
  1.381535e-01    1.507175e+00   6.426171e-02
  1.403640e-01    1.585647e+00   6.619804e-02
  1.425744e-01    1.518768e+00   6.489042e-02
  1.447849e-01    1.461267e+00   6.366484e-02
  1.469953e-01    1.570420e+00   6.595850e-02
  1.492058e-01    1.570973e+00   6.589346e-02
  1.514163e-01    1.595842e+00   6.630266e-02
  1.536267e-01    1.696594e+00   6.823013e-02
  1.558372e-01    1.671332e+00   6.757080e-02
  1.580476e-01    1.521102e+00   6.430602e-02
  1.602581e-01    1.493185e+00   6.355134e-02
  1.624685e-01    1.670317e+00   6.703115e-02
  1.646790e-01    1.629015e+00   6.600714e-02
  1.668895e-01    1.730428e+00   6.783425e-02
  1.690999e-01    1.759899e+00   6.820406e-02
  1.713104e-01    1.725767e+00   6.732981e-02
  1.735208e-01    1.803462e+00   6.861472e-02
  1.757313e-01    1.777485e+00   6.790528e-02
  1.779417e-01    1.694194e+00   6.607899e-02
  1.801522e-01    1.751508e+00   6.697342e-02
  1.823626e-01    1.812338e+00   6.789970e-02
  1.845731e-01    1.806832e+00   6.757687e-02
  1.867836e-01    1.912490e+00   6.929000e-02
  1.889940e-01    1.963295e+00   6.997490e-02
  1.912045e-01    1.946139e+00   6.943589e-02
  1.934149e-01    1.917475e+00   6.869190e-02
  1.956254e-01    2.089583e+00   7.147201e-02
  1.978358e-01    2.005004e+00   6.977070e-02
  2.000463e-01    1.939265e+00   6.838994e-02
  2.022568e-01    1.964317e+00   6.860436e-02
  2.044672e-01    2.036797e+00   6.961925e-02
  2.066777e-01    2.065277e+00   6.987163e-02
  2.088881e-01    1.991946e+00   6.839547e-02
  2.110986e-01    2.014711e+00   6.854928e-02
  2.133090e-01    2.049042e+00   6.890616e-02
  2.155195e-01    1.913399e+00   6.636550e-02
  2.177300e-01    1.922496e+00   6.600045e-02
  2.199404e-01    1.915078e+00   6.413728e-02
  2.221509e-01    1.843317e+00   6.189089e-02
  2.243613e-01    1.843704e+00   6.111266e-02
  2.265718e-01    2.030049e+00   6.341990e-02
  2.287822e-01    2.085280e+00   6.364064e-02
  2.309927e-01    2.152554e+00   6.407003e-02
  2.332031e-01    2.107459e+00   6.285278e-02
  2.354136e-01    2.086417e+00   6.203134e-02
  2.376241e-01    2.109755e+00   6.189315e-02
  2.398345e-01    2.051633e+00   6.058294e-02
  2.420450e-01    2.131493e+00   6.130946e-02
  2.442554e-01    2.167702e+00   6.140207e-02
  2.464659e-01    2.139223e+00   6.058787e-02
  2.486763e-01    2.133148e+00   6.010408e-02
  2.508868e-01    2.109513e+00   5.939314e-02
  2.530973e-01    2.129532e+00   5.930432e-02
  2.553077e-01    2.104591e+00   5.859841e-02
  2.575182e-01    2.079720e+00   5.790648e-02
  2.597286e-01    1.993584e+00   5.636509e-02
  2.619391e-01    1.951290e+00   5.544294e-02
  2.641495e-01    2.055250e+00   5.658575e-02
  2.663600e-01    2.101896e+00   5.690961e-02
  2.685704e-01    2.075212e+00   5.624070e-02
  2.707809e-01    2.056776e+00   5.569313e-02
  2.729914e-01    1.965499e+00   5.415958e-02
  2.752018e-01    1.966561e+00   5.389224e-02
  2.774123e-01    1.917114e+00   5.293861e-02
  2.796227e-01    1.847625e+00   5.171324e-02
  2.818332e-01    1.933115e+00   5.263222e-02
  2.840436e-01    1.955985e+00   5.268602e-02
  2.862541e-01    1.944426e+00   5.227760e-02
  2.884646e-01    1.923054e+00   5.174277e-02
  2.906750e-01    1.917458e+00   5.142245e-02
  2.928855e-01    1.929876e+00   5.134966e-02
  2.950959e-01    1.948236e+00   5.135633e-02
  2.973064e-01    1.914697e+00   5.068357e-02
  2.995168e-01    1.883357e+00   5.003936e-02
  3.017273e-01    2.021350e+00   5.161160e-02
  3.039377e-01    1.994955e+00   5.104903e-02
  3.061482e-01    1.888831e+00   4.945777e-02
  3.083587e-01    1.857224e+00   4.882995e-02
  3.105691e-01    1.860571e+00   4.866517e-02
  3.127796e-01    1.866940e+00   4.854343e-02
  3.149900e-01    1.889921e+00   4.863780e-02
  3.172005e-01    1.802191e+00   4.730131e-02
  3.194109e-01    1.796121e+00   4.702663e-02
  3.216214e-01    1.835703e+00   4.734799e-02
  3.238319e-01    1.836248e+00   4.716740e-02
  3.260423e-01    1.882194e+00   4.756366e-02
  3.282528e-01    1.876758e+00   4.730584e-02
  3.304632e-01    1.872230e+00   4.706571e-02
  3.326737e-01    1.892262e+00   4.713219e-02
  3.348841e-01    1.843066e+00   4.633513e-02
  3.370946e-01    1.806466e+00   4.570012e-02
  3.393050e-01    1.838723e+00   4.593169e-02
  3.415155e-01    1.860390e+00   4.602782e-02
  3.437260e-01    1.865965e+00   4.592588e-02
  3.459364e-01    1.889739e+00   4.604654e-02
  3.481469e-01    1.875842e+00   4.570948e-02
  3.503573e-01    1.800269e+00   4.461613e-02
  3.525678e-01    1.759962e+00   4.395663e-02
  3.547782e-01    1.760937e+00   4.380986e-02
  3.569887e-01    1.767919e+00   4.374111e-02
  3.591992e-01    1.775249e+00   4.367661e-02
  3.614096e-01    1.738126e+00   4.306767e-02
  3.636201e-01    1.813247e+00   4.383392e-02
  3.658305e-01    1.783553e+00   4.332524e-02
  3.680410e-01    1.764703e+00   4.294746e-02
  3.702514e-01    1.749976e+00   4.262404e-02
  3.724619e-01    1.769699e+00   4.271761e-02
  3.746724e-01    1.762908e+00   4.249331e-02
  3.768828e-01    1.739768e+00   4.207148e-02
  3.790933e-01    1.694826e+00   4.138920e-02
  3.813037e-01    1.739461e+00   4.179347e-02
  3.835142e-01    1.802154e+00   4.240025e-02
  3.857246e-01    1.744746e+00   4.158444e-02
  3.879351e-01    1.700782e+00   4.092428e-02
  3.901455e-01    1.722127e+00   4.104917e-02
  3.923560e-01    1.777589e+00   4.157240e-02
  3.945665e-01    1.748909e+00   4.110489e-02
  3.967769e-01    1.793105e+00   4.149067e-02
  3.989874e-01    1.784855e+00   4.126588e-02
  4.011978e-01    1.854071e+00   4.192904e-02
  4.034083e-01    1.810416e+00   4.130531e-02
  4.056187e-01    1.752705e+00   4.051643e-02
  4.078292e-01    1.743772e+00   4.029074e-02
  4.100397e-01    1.778797e+00   4.056909e-02
  4.122501e-01    1.820852e+00   4.092310e-02
  4.144606e-01    1.783474e+00   4.038077e-02
  4.166710e-01    1.773477e+00   4.014773e-02
  4.188815e-01    1.805612e+00   4.039015e-02
  4.210919e-01    1.803596e+00   4.024930e-02
  4.233024e-01    1.756299e+00   3.960123e-02
  4.255128e-01    1.732951e+00   3.922340e-02
  4.277233e-01    1.752294e+00   3.932837e-02
  4.299338e-01    1.742159e+00   3.910165e-02
  4.321442e-01    1.740790e+00   3.897443e-02
  4.343547e-01    1.749375e+00   3.895994e-02
  4.365651e-01    1.713485e+00   3.844867e-02
  4.387756e-01    1.724613e+00   3.846531e-02
  4.409860e-01    1.721088e+00   3.831952e-02
  4.431965e-01    1.743216e+00   3.845844e-02
  4.454070e-01    1.751365e+00   3.844097e-02
  4.476174e-01    1.772094e+00   3.856162e-02
  4.498279e-01    1.751647e+00   3.823422e-02
  4.520383e-01    1.723319e+00   3.781970e-02
  4.542488e-01    1.705227e+00   3.751922e-02
  4.564592e-01    1.711186e+00   3.748387e-02
  4.586697e-01    1.723957e+00   3.752363e-02
  4.608801e-01    1.692457e+00   3.707967e-02
  4.630906e-01    1.679994e+00   3.684504e-02
  4.653011e-01    1.742892e+00   3.742976e-02
  4.675115e-01    1.724132e+00   3.712973e-02
  4.697220e-01    1.720999e+00   3.699885e-02
  4.719324e-01    1.703225e+00   3.671211e-02
  4.741429e-01    1.696783e+00   3.654817e-02
  4.763533e-01    1.710707e+00   3.660376e-02
  4.785638e-01    1.687436e+00   3.626003e-02
  4.807743e-01    1.696850e+00   3.626855e-02
  4.829847e-01    1.730274e+00   3.653152e-02
  4.851952e-01    1.694982e+00   3.606554e-02
  4.874056e-01    1.683373e+00   3.585117e-02
  4.896161e-01    1.682296e+00   3.575085e-02
  4.918265e-01    1.681485e+00   3.565345e-02
  4.940370e-01    1.650213e+00   3.523317e-02
  4.962475e-01    1.674105e+00   3.539965e-02
  4.984579e-01    1.698340e+00   3.556710e-02
  5.006684e-01    1.636834e+00   3.483200e-02
  5.028788e-01    1.633825e+00   3.471563e-02
  5.050893e-01    1.612466e+00   3.440409e-02
  5.072997e-01    1.632560e+00   3.453417e-02
  5.095102e-01    1.623921e+00   3.436021e-02
  5.117206e-01    1.609715e+00   3.412822e-02
  5.139311e-01    1.659214e+00   3.456698e-02
  5.161416e-01    1.651794e+00   3.440810e-02
  5.183520e-01    1.645902e+00   3.426506e-02
  5.205625e-01    1.622697e+00   3.394295e-02
  5.227729e-01    1.660239e+00   3.425326e-02
  5.249834e-01    1.678583e+00   3.436204e-02
  5.271938e-01    1.658627e+00   3.407744e-02
  5.294043e-01    1.768301e+00   3.510487e-02
  5.316148e-01    1.763479e+00   3.497671e-02
  5.338252e-01    1.753833e+00   3.480118e-02
  5.360357e-01    1.756927e+00   3.475257e-02
  5.382461e-01    1.734872e+00   3.445569e-02
  5.404566e-01    1.720788e+00   3.423746e-02
  5.426670e-01    1.665310e+00   3.360514e-02
  5.448775e-01    1.729198e+00   3.416716e-02
  5.470879e-01    1.749453e+00   3.429008e-02
  5.492984e-01    1.761864e+00   3.433496e-02
  5.515089e-01    1.762886e+00   3.426876e-02
  5.537193e-01    1.766150e+00   3.422490e-02
  5.559298e-01    1.777927e+00   3.426349e-02
  5.581402e-01    1.734177e+00   3.376536e-02
  5.603507e-01    1.744736e+00   3.379428e-02
  5.625611e-01    1.807336e+00   3.432055e-02
  5.647716e-01    1.853451e+00   3.468020e-02
  5.669821e-01    1.806643e+00   3.416569e-02
  5.691925e-01    1.742731e+00   3.348388e-02
  5.714030e-01    1.720154e+00   3.319535e-02
  5.736134e-01    1.730111e+00   3.322047e-02
  5.758239e-01    1.740301e+00   3.324706e-02
  5.780343e-01    1.687954e+00   3.267394e-02
  5.802448e-01    1.678312e+00   3.251230e-02
  5.824552e-01    1.665685e+00   3.232179e-02
  5.846657e-01    1.663931e+00   3.223744e-02
  5.868762e-01    1.601555e+00   3.156158e-02
  5.890866e-01    1.648805e+00   3.195731e-02
  5.912971e-01    1.642055e+00   3.182580e-02
  5.935075e-01    1.640037e+00   3.174052e-02
  5.957180e-01    1.672754e+00   3.198976e-02
  5.979284e-01    1.657592e+00   3.177946e-02
  6.001389e-01    1.655925e+00   3.169879e-02
  6.023494e-01    1.672550e+00   3.179285e-02
  6.045598e-01    1.645944e+00   3.147474e-02
  6.067703e-01    1.644500e+00   3.139766e-02
  6.089807e-01    1.647784e+00   3.136581e-02
  6.111912e-01    1.695155e+00   3.174993e-02
  6.134016e-01    1.673764e+00   3.148607e-02
  6.156121e-01    1.692840e+00   3.160204e-02
  6.178226e-01    1.683115e+00   3.144875e-02
  6.200330e-01    1.669131e+00   3.125604e-02
  6.222435e-01    1.711785e+00   3.159020e-02
  6.244539e-01    1.682603e+00   3.125844e-02
  6.266644e-01    1.681042e+00   3.118300e-02
  6.288748e-01    1.657348e+00   3.090218e-02
  6.310853e-01    1.680474e+00   3.105663e-02
  6.332957e-01    1.668150e+00   3.088280e-02
  6.355062e-01    1.696649e+00   3.108498e-02
  6.377167e-01    1.697442e+00   3.103258e-02
  6.399271e-01    1.682349e+00   3.083512e-02
  6.421376e-01    1.710179e+00   3.102976e-02
  6.443480e-01    1.674965e+00   3.065023e-02
  6.465585e-01    1.697145e+00   3.079404e-02
  6.487689e-01    1.705168e+00   3.080847e-02
  6.509794e-01    1.647782e+00   3.022850e-02
  6.531899e-01    1.597802e+00   2.971054e-02
  6.554003e-01    1.620868e+00   2.986797e-02
  6.576108e-01    1.600218e+00   2.962184e-02
  6.598212e-01    1.631594e+00   2.985525e-02
  6.620317e-01    1.615068e+00   2.964862e-02
  6.642421e-01    1.622378e+00   2.966065e-02
  6.664526e-01    1.603742e+00   2.943550e-02
  6.686630e-01    1.637214e+00   2.968607e-02
  6.708735e-01    1.650395e+00   2.975067e-02
  6.730840e-01    1.631505e+00   2.952600e-02
  6.752944e-01    1.601713e+00   2.920198e-02
  6.775049e-01    1.608633e+00   2.921185e-02
  6.797153e-01    1.609843e+00   2.916991e-02
  6.819258e-01    1.606654e+00   2.908847e-02
  6.841362e-01    1.595202e+00   2.893247e-02
  6.863467e-01    1.596469e+00   2.889213e-02
  6.885572e-01    1.595006e+00   2.882713e-02
  6.907676e-01    1.600714e+00   2.882693e-02
  6.929781e-01    1.605378e+00   2.881757e-02
  6.951885e-01    1.602858e+00   2.874396e-02
  6.973990e-01    1.544158e+00   2.816283e-02
  6.996094e-01    1.554368e+00   2.820607e-02
  7.018199e-01    1.544419e+00   2.806631e-02
  7.040303e-01    1.572636e+00   2.827178e-02
  7.062408e-01    1.575839e+00   2.825100e-02
  7.084513e-01    1.591963e+00   2.834576e-02
  7.106617e-01    1.575197e+00   2.814711e-02
  7.128722e-01    1.588683e+00   2.821843e-02
  7.150826e-01    1.624596e+00   2.848643e-02
  7.172931e-01    1.593328e+00   2.816233e-02
  7.195035e-01    1.517554e+00   2.743726e-02
  7.217140e-01    1.531759e+00   2.761413e-02
  7.239245e-01    1.565502e+00   2.814271e-02
  7.261349e-01    1.559580e+00   2.819754e-02
  7.283454e-01    1.507769e+00   2.779605e-02
  7.305558e-01    1.529179e+00   2.804589e-02
  7.327663e-01    1.552672e+00   2.830272e-02
  7.349767e-01    1.592217e+00   2.867734e-02
  7.371872e-01    1.571126e+00   2.847561e-02
  7.393976e-01    1.559263e+00   2.835371e-02
  7.416081e-01    1.576880e+00   2.849725e-02
  7.438186e-01    1.561493e+00   2.821415e-02
  7.460290e-01    1.591825e+00   2.819102e-02
  7.482395e-01    1.599508e+00   2.808647e-02
  7.504499e-01    1.533650e+00   2.736770e-02
  7.526604e-01    1.546490e+00   2.736648e-02
  7.548708e-01    1.555128e+00   2.735397e-02
  7.570813e-01    1.574787e+00   2.747533e-02
  7.592918e-01    1.581129e+00   2.749537e-02
  7.615022e-01    1.598603e+00   2.761281e-02
  7.637127e-01    1.586257e+00   2.747309e-02
  7.659231e-01    1.573969e+00   2.733448e-02
  7.681336e-01    1.553270e+00   2.712276e-02
  7.703440e-01    1.565987e+00   2.720241e-02
  7.725545e-01    1.580852e+00   2.730028e-02
  7.747650e-01    1.611314e+00   2.752342e-02
  7.769754e-01    1.596346e+00   2.734224e-02
  7.791859e-01    1.596515e+00   2.728983e-02
  7.813963e-01    1.630180e+00   2.752262e-02
  7.836068e-01    1.655073e+00   2.767881e-02
  7.858172e-01    1.668551e+00   2.773933e-02
  7.880277e-01    1.640006e+00   2.744872e-02
  7.902381e-01    1.647722e+00   2.746323e-02
  7.924486e-01    1.640525e+00   2.735242e-02
  7.946591e-01    1.638113e+00   2.728344e-02
  7.968695e-01    1.622159e+00   2.710169e-02
  7.990800e-01    1.607914e+00   2.693420e-02
  8.012904e-01    1.641209e+00   2.716455e-02
  8.035009e-01    1.630992e+00   2.703171e-02
  8.057113e-01    1.612182e+00   2.682889e-02
  8.079218e-01    1.656040e+00   2.714444e-02
  8.101323e-01    1.651852e+00   2.706408e-02
  8.123427e-01    1.630353e+00   2.684154e-02
  8.145532e-01    1.620103e+00   2.671124e-02
  8.167636e-01    1.668636e+00   2.706279e-02
  8.189741e-01    1.679320e+00   2.710404e-02
  8.211845e-01    1.642164e+00   2.675759e-02
  8.233950e-01    1.640550e+00   2.670095e-02
  8.256054e-01    1.635839e+00   2.661840e-02
  8.278159e-01    1.653552e+00   2.671795e-02
  8.300264e-01    1.631573e+00   2.649679e-02
  8.322368e-01    1.620914e+00   2.636720e-02
  8.344473e-01    1.616586e+00   2.628891e-02
  8.366577e-01    1.613528e+00   2.622177e-02
  8.388682e-01    1.613716e+00   2.618139e-02
  8.410786e-01    1.592039e+00   2.596350e-02
  8.432891e-01    1.633494e+00   2.625757e-02
  8.454996e-01    1.613871e+00   2.605808e-02
  8.477100e-01    1.632576e+00   2.616706e-02
  8.499205e-01    1.631122e+00   2.611434e-02
  8.521309e-01    1.600036e+00   2.582396e-02
  8.543414e-01    1.588836e+00   2.569327e-02
  8.565518e-01    1.603763e+00   2.577348e-02
  8.587623e-01    1.635465e+00   2.598645e-02
  8.609727e-01    1.633371e+00   2.592956e-02
  8.631832e-01    1.611203e+00   2.571328e-02
  8.653937e-01    1.605150e+00   2.562549e-02
  8.676041e-01    1.630388e+00   2.578720e-02
  8.698146e-01    1.624834e+00   2.570390e-02
  8.720250e-01    1.596606e+00   2.544081e-02
  8.742355e-01    1.592421e+00   2.536876e-02
  8.764459e-01    1.603453e+00   2.541765e-02
  8.786564e-01    1.602508e+00   2.537229e-02
  8.808669e-01    1.574430e+00   2.511090e-02
  8.830773e-01    1.566815e+00   2.501238e-02
  8.852878e-01    1.600180e+00   2.523939e-02
  8.874982e-01    1.605127e+00   2.524170e-02
  8.897087e-01    1.614478e+00   2.527728e-02
  8.919191e-01    1.591801e+00   2.506148e-02
  8.941296e-01    1.580623e+00   2.493628e-02
  8.963401e-01    1.557665e+00   2.471857e-02
  8.985505e-01    1.552677e+00   2.464256e-02
  9.007610e-01    1.585371e+00   2.486406e-02
  9.029714e-01    1.567555e+00   2.468850e-02
  9.051819e-01    1.602419e+00   2.492427e-02
  9.073923e-01    1.636056e+00   2.514754e-02
  9.096028e-01    1.588586e+00   2.474525e-02
  9.118132e-01    1.588111e+00   2.470544e-02
  9.140237e-01    1.613558e+00   2.486582e-02
  9.162342e-01    1.588132e+00   2.463471e-02
  9.184446e-01    1.542114e+00   2.424005e-02
  9.206551e-01    1.563025e+00   2.436868e-02
  9.228655e-01    1.599526e+00   2.461632e-02
  9.250760e-01    1.591419e+00   2.451865e-02
  9.272864e-01    1.557385e+00   2.422126e-02
  9.294969e-01    1.573622e+00   2.431172e-02
  9.317074e-01    1.572479e+00   2.426854e-02
  9.339178e-01    1.615400e+00   2.456392e-02
  9.361283e-01    1.641714e+00   2.472668e-02
  9.383387e-01    1.640940e+00   2.468723e-02
  9.405492e-01    1.648502e+00   2.470949e-02
  9.427596e-01    1.647833e+00   2.466891e-02
  9.449701e-01    1.634821e+00   2.453793e-02
  9.471805e-01    1.676569e+00   2.481406e-02
  9.493910e-01    1.711293e+00   2.503531e-02
  9.516015e-01    1.719349e+00   2.505915e-02
  9.538119e-01    1.690536e+00   2.481423e-02
  9.560224e-01    1.704994e+00   2.488503e-02
  9.582328e-01    1.735827e+00   2.507535e-02
  9.604433e-01    1.784430e+00   2.538799e-02
  9.626537e-01    1.765950e+00   2.522222e-02
  9.648642e-01    1.734186e+00   2.496012e-02
  9.670747e-01    1.779501e+00   2.524924e-02
  9.692851e-01    1.825061e+00   2.553645e-02
  9.714956e-01    1.850005e+00   2.567412e-02
  9.737060e-01    1.851654e+00   2.565182e-02
  9.759165e-01    1.864498e+00   2.570432e-02
  9.781269e-01    2.021841e+00   2.673190e-02
  9.803374e-01    2.043594e+00   2.683820e-02
  9.825478e-01    1.873790e+00   2.566514e-02
  9.847583e-01    1.818165e+00   2.524696e-02
  9.869688e-01    1.826076e+00   2.526795e-02
  9.891792e-01    1.843337e+00   2.535334e-02
  9.913897e-01    1.919347e+00   2.583588e-02
  9.936001e-01    1.871925e+00   2.548134e-02
  9.958106e-01    1.760725e+00   2.467933e-02
  9.980210e-01    1.720221e+00   2.436211e-02
  1.000231e+00    1.710712e+00   2.442780e-02
  1.002442e+00    1.645267e+00   2.408327e-02
  1.004652e+00    1.611468e+00   2.390110e-02
  1.006863e+00    1.618602e+00   2.400365e-02
  1.009073e+00    1.607663e+00   2.395901e-02
  1.011284e+00    1.592546e+00   2.387800e-02
  1.013494e+00    1.574105e+00   2.376287e-02
  1.015705e+00    1.577801e+00   2.381324e-02
  1.017915e+00    1.551556e+00   2.363064e-02
  1.020126e+00    1.516482e+00   2.337779e-02
  1.022336e+00    1.535570e+00   2.353606e-02
  1.024547e+00    1.519181e+00   2.342123e-02
  1.026757e+00    1.495028e+00   2.324252e-02
  1.028967e+00    1.496076e+00   2.325823e-02
  1.031178e+00    1.514147e+00   2.340437e-02
  1.033388e+00    1.522811e+00   2.347632e-02
  1.035599e+00    1.469284e+00   2.306338e-02
  1.037809e+00    1.481123e+00   2.315930e-02
  1.040020e+00    1.493167e+00   2.325455e-02
  1.042230e+00    1.467546e+00   2.305608e-02
  1.044441e+00    1.466786e+00   2.304988e-02
  1.046651e+00    1.496554e+00   2.328277e-02
  1.048862e+00    1.498469e+00   2.329687e-02
  1.051072e+00    1.496360e+00   2.327813e-02
  1.053282e+00    1.500225e+00   2.330722e-02
  1.055493e+00    1.520190e+00   2.345745e-02
  1.057703e+00    1.493355e+00   2.324799e-02
  1.059914e+00    1.479838e+00   2.313828e-02
  1.062124e+00    1.449801e+00   2.289826e-02
  1.064335e+00    1.439101e+00   2.281021e-02
  1.066545e+00    1.431810e+00   2.274645e-02
  1.068756e+00    1.451679e+00   2.290004e-02
  1.070966e+00    1.461702e+00   2.297246e-02
  1.073177e+00    1.458618e+00   2.294219e-02
  1.075387e+00    1.436616e+00   2.276334e-02
  1.077597e+00    1.410631e+00   2.254941e-02
  1.079808e+00    1.398196e+00   2.232009e-02
  1.082018e+00    1.393739e+00   2.209994e-02
  1.084229e+00    1.399719e+00   2.203956e-02
  1.086439e+00    1.412521e+00   2.205397e-02
  1.088650e+00    1.450637e+00   2.227397e-02
  1.090860e+00    1.446187e+00   2.217237e-02
  1.093071e+00    1.447873e+00   2.212314e-02
  1.095281e+00    1.455979e+00   2.212754e-02
  1.097492e+00    1.443463e+00   2.197737e-02
  1.099702e+00    1.436600e+00   2.187370e-02
  1.101912e+00    1.446672e+00   2.190131e-02
  1.104123e+00    1.419328e+00   2.164538e-02
  1.106333e+00    1.454606e+00   2.186797e-02
  1.108544e+00    1.425054e+00   2.160053e-02
  1.110754e+00    1.388879e+00   2.128215e-02
  1.112965e+00    1.373967e+00   2.112774e-02
  1.115175e+00    1.396927e+00   2.126268e-02
  1.117386e+00    1.439110e+00   2.154174e-02
  1.119596e+00    1.441508e+00   2.152142e-02
  1.121807e+00    1.411568e+00   2.125792e-02
  1.124017e+00    1.400770e+00   2.113987e-02
  1.126228e+00    1.411762e+00   2.118682e-02
  1.128438e+00    1.381888e+00   2.092494e-02
  1.130648e+00    1.378058e+00   2.086186e-02
  1.132859e+00    1.399350e+00   2.098801e-02
  1.135069e+00    1.395663e+00   2.092559e-02
  1.137280e+00    1.386687e+00   2.082522e-02
  1.139490e+00    1.378449e+00   2.073033e-02
  1.141701e+00    1.373257e+00   2.065826e-02
  1.143911e+00    1.351894e+00   2.046546e-02
  1.146122e+00    1.341819e+00   2.035748e-02
  1.148332e+00    1.382364e+00   2.063085e-02
  1.150543e+00    1.363267e+00   2.045719e-02
  1.152753e+00    1.347053e+00   2.030465e-02
  1.154963e+00    1.333067e+00   2.016838e-02
  1.157174e+00    1.361923e+00   2.035544e-02
  1.159384e+00    1.360347e+00   2.031398e-02
  1.161595e+00    1.347610e+00   2.018902e-02
  1.163805e+00    1.384005e+00   2.043042e-02
  1.166016e+00    1.369238e+00   2.029171e-02
  1.168226e+00    1.363155e+00   2.021762e-02
  1.170437e+00    1.372747e+00   2.025996e-02
  1.172647e+00    1.365473e+00   2.017732e-02
  1.174858e+00    1.352557e+00   2.005368e-02
  1.177068e+00    1.377073e+00   2.020621e-02
  1.179278e+00    1.334257e+00   1.986134e-02
  1.181489e+00    1.322860e+00   1.974966e-02
  1.183699e+00    1.356462e+00   1.997136e-02
  1.185910e+00    1.366114e+00   2.001444e-02
  1.188120e+00    1.382065e+00   2.010402e-02
  1.190331e+00    1.392649e+00   2.015371e-02
  1.192541e+00    1.372655e+00   1.998098e-02
  1.194752e+00    1.371139e+00   1.994268e-02
  1.196962e+00    1.389671e+00   2.005091e-02
  1.199173e+00    1.380163e+00   1.995541e-02
  1.201383e+00    1.349350e+00   1.970425e-02
  1.203593e+00    1.338035e+00   1.959674e-02
  1.205804e+00    1.346768e+00   1.963471e-02
  1.208014e+00    1.328151e+00   1.947190e-02
  1.210225e+00    1.323373e+00   1.941175e-02
  1.212435e+00    1.328247e+00   1.942288e-02
  1.214646e+00    1.343277e+00   1.950640e-02
  1.216856e+00    1.390163e+00   1.981807e-02
  1.219067e+00    1.374639e+00   1.968244e-02
  1.221277e+00    1.366466e+00   1.959863e-02
  1.223488e+00    1.355886e+00   1.949685e-02
  1.225698e+00    1.332199e+00   1.929904e-02
  1.227909e+00    1.330577e+00   1.925735e-02
  1.230119e+00    1.342637e+00   1.931265e-02
  1.232329e+00    1.324667e+00   1.915255e-02
  1.234540e+00    1.317332e+00   1.906953e-02
  1.236750e+00    1.344512e+00   1.923504e-02
  1.238961e+00    1.367579e+00   1.937219e-02
  1.241171e+00    1.392394e+00   1.952262e-02
  1.243382e+00    1.343105e+00   1.915051e-02
  1.245592e+00    1.344615e+00   1.913722e-02
  1.247803e+00    1.373872e+00   1.932042e-02
  1.250013e+00    1.375072e+00   1.930512e-02
  1.252224e+00    1.343145e+00   1.905650e-02
  1.254434e+00    1.343791e+00   1.903737e-02
  1.256644e+00    1.357908e+00   1.911384e-02
  1.258855e+00    1.338680e+00   1.895486e-02
  1.261065e+00    1.344576e+00   1.897323e-02
  1.263276e+00    1.384889e+00   1.923232e-02
  1.265486e+00    1.366117e+00   1.907853e-02
  1.267697e+00    1.379539e+00   1.914873e-02
  1.269907e+00    1.411181e+00   1.934390e-02
  1.272118e+00    1.401214e+00   1.925248e-02
  1.274328e+00    1.384394e+00   1.911355e-02
  1.276539e+00    1.372658e+00   1.900939e-02
  1.278749e+00    1.381962e+00   1.905113e-02
  1.280959e+00    1.366186e+00   1.891945e-02
  1.283170e+00    1.361298e+00   1.886301e-02
  1.285380e+00    1.356616e+00   1.880807e-02
  1.287591e+00    1.338152e+00   1.865768e-02
  1.289801e+00    1.337611e+00   1.863279e-02
  1.292012e+00    1.334654e+00   1.859517e-02
  1.294222e+00    1.368273e+00   1.881158e-02
  1.296433e+00    1.331671e+00   1.854278e-02
  1.298643e+00    1.361990e+00   1.873611e-02
  1.300854e+00    1.364430e+00   1.873640e-02
  1.303064e+00    1.346597e+00   1.859437e-02
  1.305274e+00    1.349874e+00   1.859552e-02
  1.307485e+00    1.360403e+00   1.864629e-02
  1.309695e+00    1.352215e+00   1.856781e-02
  1.311906e+00    1.403675e+00   1.889570e-02
  1.314116e+00    1.381870e+00   1.872733e-02
  1.316327e+00    1.373089e+00   1.864585e-02
  1.318537e+00    1.390736e+00   1.874307e-02
  1.320748e+00    1.392350e+00   1.873206e-02
  1.322958e+00    1.390085e+00   1.869601e-02
  1.325169e+00    1.359919e+00   1.847093e-02
  1.327379e+00    1.362795e+00   1.846853e-02
  1.329589e+00    1.372967e+00   1.851610e-02
  1.331800e+00    1.350808e+00   1.834536e-02
  1.334010e+00    1.367597e+00   1.843821e-02
  1.336221e+00    1.367264e+00   1.841409e-02
  1.338431e+00    1.345705e+00   1.824751e-02
  1.340642e+00    1.350593e+00   1.834479e-02
  1.342852e+00    1.373026e+00   1.859804e-02
  1.345063e+00    1.359171e+00   1.855363e-02
  1.347273e+00    1.357783e+00   1.857948e-02
  1.349484e+00    1.381910e+00   1.877184e-02
  1.351694e+00    1.385992e+00   1.882255e-02
  1.353905e+00    1.375211e+00   1.876738e-02
  1.356115e+00    1.361653e+00   1.868973e-02
  1.358325e+00    1.369037e+00   1.875374e-02
  1.360536e+00    1.426533e+00   1.915544e-02
  1.362746e+00    1.416710e+00   1.909921e-02
  1.364957e+00    1.396124e+00   1.896772e-02
  1.367167e+00    1.369927e+00   1.879614e-02
  1.369378e+00    1.365352e+00   1.877077e-02
  1.371588e+00    1.354465e+00   1.870097e-02
  1.373799e+00    1.334040e+00   1.856307e-02
  1.376009e+00    1.344711e+00   1.864056e-02
  1.378220e+00    1.357448e+00   1.873120e-02
  1.380430e+00    1.316468e+00   1.844900e-02
  1.382640e+00    1.298343e+00   1.832243e-02
  1.384851e+00    1.315537e+00   1.844424e-02
  1.387061e+00    1.288475e+00   1.825384e-02
  1.389272e+00    1.261971e+00   1.806532e-02
  1.391482e+00    1.292818e+00   1.828409e-02
  1.393693e+00    1.313006e+00   1.842544e-02
  1.395903e+00    1.298504e+00   1.832188e-02
  1.398114e+00    1.286602e+00   1.823635e-02
  1.400324e+00    1.289701e+00   1.825615e-02
  1.402535e+00    1.297381e+00   1.830809e-02
  1.404745e+00    1.298258e+00   1.831190e-02
  1.406955e+00    1.298470e+00   1.831068e-02
  1.409166e+00    1.280992e+00   1.818370e-02
  1.411376e+00    1.276743e+00   1.815038e-02
  1.413587e+00    1.307353e+00   1.836281e-02
  1.415797e+00    1.277249e+00   1.814664e-02
  1.418008e+00    1.270056e+00   1.805357e-02
  1.420218e+00    1.269672e+00   1.790115e-02
  1.422429e+00    1.260316e+00   1.775007e-02
  1.424639e+00    1.276840e+00   1.780119e-02
  1.426850e+00    1.272409e+00   1.771555e-02
  1.429060e+00    1.241574e+00   1.745112e-02
  1.431270e+00    1.251639e+00   1.747771e-02
  1.433481e+00    1.311270e+00   1.784761e-02
  1.435691e+00    1.293211e+00   1.768550e-02
  1.437902e+00    1.280753e+00   1.756350e-02
  1.440112e+00    1.267558e+00   1.743749e-02
  1.442323e+00    1.236822e+00   1.719214e-02
  1.444533e+00    1.256617e+00   1.729680e-02
  1.446744e+00    1.267424e+00   1.733992e-02
  1.448954e+00    1.262460e+00   1.727583e-02
  1.451165e+00    1.274155e+00   1.732586e-02
  1.453375e+00    1.268785e+00   1.726129e-02
  1.455586e+00    1.270944e+00   1.724778e-02
  1.457796e+00    1.264110e+00   1.717391e-02
  1.460006e+00    1.257919e+00   1.710468e-02
  1.462217e+00    1.244873e+00   1.698978e-02
  1.464427e+00    1.240638e+00   1.693555e-02
  1.466638e+00    1.254384e+00   1.700393e-02
  1.468848e+00    1.268281e+00   1.707254e-02
  1.471059e+00    1.264611e+00   1.702279e-02
  1.473269e+00    1.258486e+00   1.695722e-02
  1.475480e+00    1.254325e+00   1.690556e-02
  1.477690e+00    1.253258e+00   1.687464e-02
  1.479901e+00    1.257375e+00   1.687861e-02
  1.482111e+00    1.247899e+00   1.679174e-02
  1.484321e+00    1.245670e+00   1.675382e-02
  1.486532e+00    1.252975e+00   1.678065e-02
  1.488742e+00    1.246456e+00   1.671446e-02
  1.490953e+00    1.237991e+00   1.663526e-02
  1.493163e+00    1.249432e+00   1.668977e-02
  1.495374e+00    1.256681e+00   1.671669e-02
  1.497584e+00    1.268814e+00   1.677548e-02
  1.499795e+00    1.269767e+00   1.676005e-02
  1.502005e+00    1.242424e+00   1.655709e-02
  1.504216e+00    1.241991e+00   1.653330e-02
  1.506426e+00    1.244900e+00   1.653194e-02
  1.508636e+00    1.253825e+00   1.657069e-02
  1.510847e+00    1.258892e+00   1.658229e-02
  1.513057e+00    1.281564e+00   1.670561e-02
  1.515268e+00    1.254675e+00   1.650372e-02
  1.517478e+00    1.262641e+00   1.653079e-02
  1.519689e+00    1.247817e+00   1.640855e-02
  1.521899e+00    1.263870e+00   1.649057e-02
  1.524110e+00    1.251858e+00   1.639169e-02
  1.526320e+00    1.249818e+00   1.635875e-02
  1.528531e+00    1.249794e+00   1.633886e-02
  1.530741e+00    1.236331e+00   1.623156e-02
  1.532951e+00    1.251139e+00   1.630888e-02
  1.535162e+00    1.272830e+00   1.653705e-02
  1.537372e+00    1.223799e+00   1.628165e-02
  1.539583e+00    1.241340e+00   1.643204e-02
  1.541793e+00    1.238146e+00   1.641781e-02
  1.544004e+00    1.225584e+00   1.633457e-02
  1.546214e+00    1.243749e+00   1.645366e-02
  1.548425e+00    1.258451e+00   1.655090e-02
  1.550635e+00    1.245733e+00   1.647673e-02
  1.552846e+00    1.237657e+00   1.643287e-02
  1.555056e+00    1.247074e+00   1.645374e-02
  1.557266e+00    1.241124e+00   1.630415e-02
  1.559477e+00    1.240046e+00   1.623804e-02
  1.561687e+00    1.246323e+00   1.624840e-02
  1.563898e+00    1.244292e+00   1.621802e-02
  1.566108e+00    1.251838e+00   1.625108e-02
  1.568319e+00    1.260615e+00   1.629224e-02
  1.570529e+00    1.252805e+00   1.621650e-02
  1.572740e+00    1.254329e+00   1.619861e-02
  1.574950e+00    1.255349e+00   1.617879e-02
  1.577161e+00    1.223243e+00   1.594529e-02
  1.579371e+00    1.231760e+00   1.597714e-02
  1.581582e+00    1.252625e+00   1.609208e-02
  1.583792e+00    1.232136e+00   1.594200e-02
  1.586002e+00    1.225543e+00   1.588181e-02
  1.588213e+00    1.227112e+00   1.587483e-02
  1.590423e+00    1.250936e+00   1.600808e-02
  1.592634e+00    1.248791e+00   1.597267e-02
  1.594844e+00    1.267632e+00   1.607111e-02
  1.597055e+00    1.261120e+00   1.600914e-02
  1.599265e+00    1.261999e+00   1.599381e-02
  1.601476e+00    1.258873e+00   1.595356e-02
  1.603686e+00    1.265801e+00   1.597741e-02
  1.605897e+00    1.251346e+00   1.586567e-02
  1.608107e+00    1.242198e+00   1.578797e-02
  1.610317e+00    1.258394e+00   1.587109e-02
  1.612528e+00    1.291717e+00   1.606024e-02
  1.614738e+00    1.290595e+00   1.603388e-02
  1.616949e+00    1.263156e+00   1.584325e-02
  1.619159e+00    1.268561e+00   1.585804e-02
  1.621370e+00    1.246018e+00   1.569785e-02
  1.623580e+00    1.212170e+00   1.546485e-02
  1.625791e+00    1.205719e+00   1.540540e-02
  1.628001e+00    1.199650e+00   1.534836e-02
  1.630212e+00    1.175965e+00   1.517844e-02
  1.632422e+00    1.180603e+00   1.519051e-02
  1.634632e+00    1.175228e+00   1.513861e-02
  1.636843e+00    1.160472e+00   1.502587e-02
  1.639053e+00    1.173436e+00   1.509227e-02
  1.641264e+00    1.185207e+00   1.515058e-02
  1.643474e+00    1.153555e+00   1.492958e-02
  1.645685e+00    1.153908e+00   1.491523e-02
  1.647895e+00    1.138253e+00   1.479724e-02
  1.650106e+00    1.127410e+00   1.470977e-02
  1.652316e+00    1.135218e+00   1.474421e-02
  1.654527e+00    1.135747e+00   1.473105e-02
  1.656737e+00    1.112766e+00   1.456485e-02
  1.658947e+00    1.117790e+00   1.458151e-02
  1.661158e+00    1.105951e+00   1.448798e-02
  1.663368e+00    1.082317e+00   1.431661e-02
  1.665579e+00    1.084694e+00   1.431641e-02
  1.667789e+00    1.086221e+00   1.431047e-02
  1.670000e+00    1.090782e+00   1.432517e-02
  1.672210e+00    1.069102e+00   1.416648e-02
  1.674421e+00    1.097916e+00   1.434084e-02
  1.676631e+00    1.091847e+00   1.428536e-02
  1.678842e+00    1.076345e+00   1.416798e-02
  1.681052e+00    1.071240e+00   1.411910e-02
  1.683263e+00    1.059269e+00   1.402507e-02
  1.685473e+00    1.056927e+00   1.399462e-02
  1.687683e+00    1.075770e+00   1.410341e-02
  1.689894e+00    1.076710e+00   1.409388e-02
  1.692104e+00    1.038956e+00   1.382989e-02
  1.694315e+00    1.056540e+00   1.393204e-02
  1.696525e+00    1.065536e+00   1.397612e-02
  1.698736e+00    1.044347e+00   1.382178e-02
  1.700946e+00    1.018518e+00   1.363493e-02
  1.703157e+00    1.031622e+00   1.370791e-02
  1.705367e+00    1.032929e+00   1.370224e-02
  1.707578e+00    1.015290e+00   1.357040e-02
  1.709788e+00    1.019333e+00   1.358345e-02
  1.711998e+00    1.021154e+00   1.358073e-02
  1.714209e+00    1.028718e+00   1.361657e-02
  1.716419e+00    1.021261e+00   1.355295e-02
  1.718630e+00    1.020318e+00   1.353250e-02
  1.720840e+00    1.035090e+00   1.361588e-02
  1.723051e+00    1.010231e+00   1.343763e-02
  1.725261e+00    9.874044e-01   1.327050e-02
  1.727472e+00    9.809249e-01   1.321299e-02
  1.729682e+00    9.731861e-01   1.314758e-02
  1.731893e+00    9.689924e-01   1.310560e-02
  1.734103e+00    9.760880e-01   1.313993e-02
  1.736313e+00    1.001600e+00   1.329656e-02
  1.738524e+00    9.851019e-01   1.317291e-02
  1.740734e+00    9.780450e-01   1.311207e-02
  1.742945e+00    9.709722e-01   1.305129e-02
  1.745155e+00    9.831819e-01   1.311971e-02
  1.747366e+00    9.833330e-01   1.310695e-02
  1.749576e+00    9.725467e-01   1.302130e-02
  1.751787e+00    9.633093e-01   1.294608e-02
  1.753997e+00    9.572181e-01   1.289188e-02
  1.756208e+00    9.331400e-01   1.271579e-02
  1.758418e+00    9.391480e-01   1.274375e-02
  1.760628e+00    9.442001e-01   1.276482e-02
  1.762839e+00    9.478579e-01   1.277640e-02
  1.765049e+00    9.487683e-01   1.276953e-02
  1.767260e+00    9.554419e-01   1.280155e-02
  1.769470e+00    9.526006e-01   1.276957e-02
  1.771681e+00    9.222547e-01   1.255158e-02
  1.773891e+00    9.214713e-01   1.253340e-02
  1.776102e+00    9.192918e-01   1.250589e-02
  1.778312e+00    9.135422e-01   1.245419e-02
  1.780523e+00    9.018764e-01   1.236197e-02
  1.782733e+00    9.111198e-01   1.241265e-02
  1.784944e+00    9.191528e-01   1.245447e-02
  1.787154e+00    9.175341e-01   1.243109e-02
  1.789364e+00    8.925339e-01   1.224833e-02
  1.791575e+00    9.029812e-01   1.230742e-02
  1.793785e+00    9.203062e-01   1.241255e-02
  1.795996e+00    9.054987e-01   1.229989e-02
  1.798206e+00    8.948639e-01   1.221508e-02
  1.800417e+00    9.037206e-01   1.226279e-02
  1.802627e+00    9.077679e-01   1.227831e-02
  1.804838e+00    9.544579e-01   1.257772e-02
  1.807048e+00    9.333082e-01   1.242461e-02
  1.809259e+00    9.125202e-01   1.227180e-02
  1.811469e+00    9.013621e-01   1.218160e-02
  1.813679e+00    9.466099e-01   1.246825e-02
  1.815890e+00    9.353347e-01   1.237877e-02
  1.818100e+00    8.968636e-01   1.210639e-02
  1.820311e+00    8.939705e-01   1.207208e-02
  1.822521e+00    8.951585e-01   1.206521e-02
  1.824732e+00    8.699338e-01   1.187937e-02
  1.826942e+00    8.517033e-01   1.174214e-02
  1.829153e+00    8.774251e-01   1.190648e-02
  1.831363e+00    9.148970e-01   1.214580e-02
  1.833574e+00    1.005250e+00   1.271896e-02
  1.835784e+00    1.031607e+00   1.287230e-02
  1.837994e+00    9.395317e-01   1.227232e-02
  1.840205e+00    8.786603e-01   1.185688e-02
  1.842415e+00    8.807077e-01   1.185885e-02
  1.844626e+00    8.718157e-01   1.178728e-02
  1.846836e+00    8.628076e-01   1.171482e-02
  1.849047e+00    8.546556e-01   1.164782e-02
  1.851257e+00    8.528720e-01   1.162614e-02
  1.853468e+00    8.641914e-01   1.169421e-02
  1.855678e+00    8.751665e-01   1.175932e-02
  1.857889e+00    8.516851e-01   1.159200e-02
  1.860099e+00    8.685616e-01   1.169759e-02
  1.862309e+00    8.719543e-01   1.171185e-02
  1.864520e+00    8.175792e-01   1.133242e-02
  1.866730e+00    8.342779e-01   1.143825e-02
  1.868941e+00    8.491281e-01   1.152871e-02
  1.871151e+00    8.429912e-01   1.147564e-02
  1.873362e+00    8.377605e-01   1.142872e-02
  1.875572e+00    8.380594e-01   1.141989e-02
  1.877783e+00    8.571119e-01   1.153747e-02
  1.879993e+00    8.515812e-01   1.148903e-02
  1.882204e+00    8.573664e-01   1.151698e-02
  1.884414e+00    8.443223e-01   1.141799e-02
  1.886624e+00    8.236255e-01   1.126621e-02
  1.888835e+00    8.315938e-01   1.130969e-02
  1.891045e+00    8.213875e-01   1.122929e-02
  1.893256e+00    8.308598e-01   1.128283e-02
  1.895466e+00    8.393441e-01   1.132910e-02
  1.897677e+00    8.310795e-01   1.126229e-02
  1.899887e+00    8.361224e-01   1.128542e-02
  1.902098e+00    8.277810e-01   1.121817e-02
  1.904308e+00    8.089028e-01   1.107908e-02
  1.906519e+00    8.029185e-01   1.102734e-02
  1.908729e+00    8.091948e-01   1.105988e-02
  1.910940e+00    8.241391e-01   1.115044e-02
  1.913150e+00    8.289886e-01   1.117260e-02
  1.915360e+00    8.149436e-01   1.106699e-02
  1.917571e+00    8.149595e-01   1.105628e-02
  1.919781e+00    8.048541e-01   1.097693e-02
  1.921992e+00    8.270526e-01   1.111661e-02
  1.924202e+00    8.096489e-01   1.098833e-02
  1.926413e+00    7.935580e-01   1.086843e-02
  1.928623e+00    8.040165e-01   1.092932e-02
  1.930834e+00    8.174986e-01   1.101013e-02
  1.933044e+00    8.181272e-01   1.100364e-02
  1.935255e+00    8.209291e-01   1.101208e-02
  1.937465e+00    8.180778e-01   1.098247e-02
  1.939675e+00    8.230788e-01   1.100505e-02
  1.941886e+00    7.923906e-01   1.078774e-02
  1.944096e+00    7.942767e-01   1.079042e-02
  1.946307e+00    8.144787e-01   1.091638e-02
  1.948517e+00    7.955678e-01   1.077850e-02
  1.950728e+00    7.983200e-01   1.078686e-02
  1.952938e+00    8.215928e-01   1.093274e-02
  1.955149e+00    8.100377e-01   1.084527e-02
  1.957359e+00    7.985395e-01   1.075794e-02
  1.959570e+00    7.999131e-01   1.075632e-02
  1.961780e+00    7.809347e-01   1.061808e-02
  1.963990e+00    7.986682e-01   1.072782e-02
  1.966201e+00    7.947740e-01   1.069154e-02
  1.968411e+00    7.908888e-01   1.065521e-02
  1.970622e+00    7.849463e-01   1.060504e-02
  1.972832e+00    7.677507e-01   1.047839e-02
  1.975043e+00    7.632943e-01   1.043803e-02
  1.977253e+00    7.666624e-01   1.045120e-02
  1.979464e+00    7.871785e-01   1.058006e-02
  1.981674e+00    7.811607e-01   1.052929e-02
  1.983885e+00    7.970507e-01   1.062572e-02
  1.986095e+00    7.678249e-01   1.041948e-02
  1.988305e+00    7.715564e-01   1.043493e-02
  1.990516e+00    7.793674e-01   1.047767e-02
  1.992726e+00    7.865556e-01   1.051616e-02
  1.994937e+00    7.695298e-01   1.039165e-02
  1.997147e+00    7.954379e-01   1.055527e-02
  1.999358e+00    7.799346e-01   1.044203e-02
  2.001568e+00    7.692273e-01   1.035931e-02
  2.003779e+00    7.751922e-01   1.038747e-02
  2.005989e+00    7.680387e-01   1.032743e-02
  2.008200e+00    7.673353e-01   1.031121e-02
  2.010410e+00    7.761216e-01   1.035826e-02
  2.012621e+00    7.729313e-01   1.032521e-02
  2.014831e+00    7.671091e-01   1.027480e-02
  2.017041e+00    7.543639e-01   1.017877e-02
  2.019252e+00    7.589465e-01   1.019973e-02
  2.021462e+00    7.625793e-01   1.021462e-02
  2.023673e+00    7.541206e-01   1.014849e-02
  2.025883e+00    7.638093e-01   1.020395e-02
  2.028094e+00    7.488851e-01   1.009420e-02
  2.030304e+00    7.658573e-01   1.019840e-02
  2.032515e+00    7.543417e-01   1.011217e-02
  2.034725e+00    7.543294e-01   1.010267e-02
  2.036936e+00    7.685536e-01   1.018807e-02
  2.039146e+00    7.638233e-01   1.014707e-02
  2.041356e+00    7.735045e-01   1.020142e-02
  2.043567e+00    7.691098e-01   1.016301e-02
  2.045777e+00    7.644955e-01   1.012317e-02
  2.047988e+00    7.528310e-01   1.003630e-02
  2.050198e+00    7.634146e-01   1.009810e-02
  2.052409e+00    7.604991e-01   1.007111e-02
  2.054619e+00    7.521605e-01   1.000837e-02
  2.056830e+00    7.463456e-01   9.962463e-03
  2.059040e+00    7.267188e-01   9.823195e-03
  2.061251e+00    7.463253e-01   9.947586e-03
  2.063461e+00    7.408167e-01   9.903284e-03
  2.065671e+00    7.291811e-01   9.816564e-03
  2.067882e+00    7.468109e-01   9.925551e-03
  2.070092e+00    7.327583e-01   9.822625e-03
  2.072303e+00    7.324066e-01   9.811204e-03
  2.074513e+00    7.285106e-01   9.775861e-03
  2.076724e+00    7.263818e-01   9.752226e-03
  2.078934e+00    7.083437e-01   9.621586e-03
  2.081145e+00    7.302017e-01   9.759890e-03
  2.083355e+00    7.403969e-01   9.818632e-03
  2.085566e+00    7.446515e-01   9.837886e-03
  2.087776e+00    7.268943e-01   9.710444e-03
  2.089986e+00    7.231914e-01   9.676998e-03
  2.092197e+00    7.112842e-01   9.588195e-03
  2.094407e+00    7.114353e-01   9.580134e-03
  2.096618e+00    7.223615e-01   9.644603e-03
  2.098828e+00    7.362540e-01   9.727591e-03
  2.101039e+00    7.100875e-01   9.544337e-03
  2.103249e+00    6.916468e-01   9.411158e-03
  2.105460e+00    6.863436e-01   9.366243e-03
  2.107670e+00    7.097332e-01   9.515891e-03
  2.109881e+00    7.172456e-01   9.557015e-03
  2.112091e+00    7.237452e-01   9.591263e-03
  2.114301e+00    7.024342e-01   9.440336e-03
  2.116512e+00    7.180751e-01   9.536105e-03
  2.118722e+00    7.061213e-01   9.447666e-03
  2.120933e+00    7.198519e-01   9.530224e-03
  2.123143e+00    7.235819e-01   9.545948e-03
  2.125354e+00    7.046371e-01   9.411705e-03
  2.127564e+00    7.107748e-01   9.443904e-03
  2.129775e+00    7.132117e-01   9.451360e-03
  2.131985e+00    7.201027e-01   9.487837e-03
  2.134196e+00    7.046571e-01   9.376984e-03
  2.136406e+00    7.049557e-01   9.370273e-03
  2.138617e+00    7.101284e-01   9.396125e-03
  2.140827e+00    7.121847e-01   9.425830e-03
  2.143037e+00    7.196584e-01   9.521021e-03
  2.145248e+00    7.076421e-01   9.463254e-03
  2.147458e+00    7.058622e-01   9.466480e-03
  2.149669e+00    6.942635e-01   9.400175e-03
  2.151879e+00    6.997111e-01   9.446168e-03
  2.154090e+00    7.005631e-01   9.459247e-03
  2.156300e+00    6.893856e-01   9.390026e-03
  2.158511e+00    6.962344e-01   9.441839e-03
  2.160721e+00    7.088590e-01   9.531920e-03
  2.162932e+00    6.997893e-01   9.474488e-03
  2.165142e+00    6.924496e-01   9.427679e-03
  2.167352e+00    6.961292e-01   9.455603e-03
  2.169563e+00    6.951684e-01   9.451047e-03
  2.171773e+00    6.860107e-01   9.391006e-03
  2.173984e+00    6.830739e-01   9.372291e-03
  2.176194e+00    7.004063e-01   9.491653e-03
  2.178405e+00    6.772625e-01   9.334224e-03
  2.180615e+00    6.733840e-01   9.308110e-03
  2.182826e+00    6.951046e-01   9.457728e-03
  2.185036e+00    6.737652e-01   9.311481e-03
  2.187247e+00    6.913728e-01   9.432292e-03
  2.189457e+00    6.935098e-01   9.446470e-03
  2.191667e+00    6.975900e-01   9.474031e-03
  2.193878e+00    6.788539e-01   9.345397e-03
  2.196088e+00    6.807607e-01   9.357803e-03
  2.198299e+00    6.870466e-01   9.399832e-03
  2.200509e+00    6.828502e-01   9.370002e-03
  2.202720e+00    7.018082e-01   9.498033e-03
  2.204930e+00    6.933702e-01   9.439509e-03
  2.207141e+00    6.920251e-01   9.429229e-03
  2.209351e+00    6.813078e-01   9.354033e-03
  2.211562e+00    6.932828e-01   9.434253e-03
  2.213772e+00    6.865277e-01   9.332305e-03
  2.215982e+00    6.838654e-01   9.269710e-03
  2.218193e+00    6.712899e-01   9.154568e-03
  2.220403e+00    6.659181e-01   9.093425e-03
  2.222614e+00    6.594740e-01   9.028599e-03
  2.224824e+00    6.652303e-01   9.048655e-03
  2.227035e+00    6.611059e-01   9.003264e-03
  2.229245e+00    6.576269e-01   8.962756e-03
  2.231456e+00    6.732488e-01   9.052942e-03
  2.233666e+00    6.819532e-01   9.096071e-03
  2.235877e+00    6.828011e-01   9.087316e-03
  2.238087e+00    6.653866e-01   8.957274e-03
  2.240298e+00    6.608699e-01   8.913115e-03
  2.242508e+00    6.519065e-01   8.837543e-03
  2.244718e+00    6.642509e-01   8.905051e-03
  2.246929e+00    6.707109e-01   8.933811e-03
  2.249139e+00    6.718529e-01   8.928992e-03
  2.251350e+00    6.716428e-01   8.915844e-03
  2.253560e+00    6.695260e-01   8.890202e-03
  2.255771e+00    6.628243e-01   8.834205e-03
  2.257981e+00    6.705472e-01   8.874298e-03
  2.260192e+00    6.634368e-01   8.816020e-03
  2.262402e+00    6.568188e-01   8.761154e-03
  2.264613e+00    6.487057e-01   8.696151e-03
  2.266823e+00    6.722178e-01   8.841878e-03
  2.269033e+00    6.619208e-01   8.763541e-03
  2.271244e+00    6.605667e-01   8.744158e-03
  2.273454e+00    7.275995e-01   9.166341e-03
  2.275665e+00    7.739379e-01   9.442623e-03
  2.277875e+00    7.433537e-01   9.243662e-03
  2.280086e+00    6.884767e-01   8.885662e-03
  2.282296e+00    6.646132e-01   8.720857e-03
  2.284507e+00    6.663438e-01   8.721999e-03
  2.286717e+00    6.636450e-01   8.694823e-03
  2.288928e+00    6.541982e-01   8.622865e-03
  2.291138e+00    6.637126e-01   8.675869e-03
  2.293348e+00    6.568059e-01   8.621065e-03
  2.295559e+00    6.640016e-01   8.658778e-03
  2.297769e+00    6.671550e-01   8.669999e-03
  2.299980e+00    6.466589e-01   8.526484e-03
  2.302190e+00    6.459422e-01   8.512680e-03
  2.304401e+00    6.416311e-01   8.474984e-03
  2.306611e+00    6.415470e-01   8.465298e-03
  2.308822e+00    6.378782e-01   8.432774e-03
  2.311032e+00    6.356524e-01   8.411651e-03
  2.313243e+00    6.415945e-01   8.444650e-03
  2.315453e+00    6.468601e-01   8.471671e-03
  2.317663e+00    6.473526e-01   8.465779e-03
  2.319874e+00    6.438470e-01   8.434101e-03
  2.322084e+00    6.470712e-01   8.446237e-03
  2.324295e+00    6.427372e-01   8.409690e-03
  2.326505e+00    6.341445e-01   8.344303e-03
  2.328716e+00    6.354975e-01   8.344703e-03
  2.330926e+00    6.469836e-01   8.410952e-03
  2.333137e+00    6.391239e-01   8.351353e-03
  2.335347e+00    6.367480e-01   8.326980e-03
  2.337558e+00    6.467454e-01   8.383818e-03
  2.339768e+00    6.393946e-01   8.327479e-03
  2.341979e+00    6.259354e-01   8.231090e-03
  2.344189e+00    6.261051e-01   8.223862e-03
  2.346399e+00    6.353723e-01   8.276029e-03
  2.348610e+00    6.292678e-01   8.227760e-03
  2.350820e+00    6.391782e-01   8.284077e-03
  2.353031e+00    6.373692e-01   8.264057e-03
  2.355241e+00    6.215430e-01   8.152829e-03
  2.357452e+00    6.324962e-01   8.215924e-03
  2.359662e+00    6.252791e-01   8.160738e-03
  2.361873e+00    6.263786e-01   8.159695e-03
  2.364083e+00    6.208273e-01   8.115537e-03
  2.366294e+00    6.154032e-01   8.071964e-03
  2.368504e+00    6.334384e-01   8.181266e-03
  2.370714e+00    6.271808e-01   8.132712e-03
  2.372925e+00    6.238061e-01   8.102747e-03
  2.375135e+00    6.217456e-01   8.081313e-03
  2.377346e+00    6.194943e-01   8.058751e-03
  2.379556e+00    6.220434e-01   8.067423e-03
  2.381767e+00    6.086175e-01   7.972102e-03
  2.383977e+00    6.242345e-01   8.065771e-03
  2.386188e+00    6.200689e-01   8.030920e-03
  2.388398e+00    6.130465e-01   7.977367e-03
  2.390609e+00    6.112006e-01   7.957672e-03
  2.392819e+00    6.139976e-01   7.968093e-03
  2.395029e+00    6.255171e-01   8.034771e-03
  2.397240e+00    6.073098e-01   7.909169e-03
  2.399450e+00    6.015853e-01   7.864051e-03
  2.401661e+00    6.007800e-01   7.851196e-03
  2.403871e+00    5.944106e-01   7.801787e-03
  2.406082e+00    6.169406e-01   7.940809e-03
  2.408292e+00    6.065866e-01   7.866113e-03
  2.410503e+00    6.169152e-01   7.925266e-03
  2.412713e+00    6.003942e-01   7.810674e-03
  2.414924e+00    5.873260e-01   7.717829e-03
  2.417134e+00    5.897391e-01   7.726132e-03
  2.419344e+00    5.902424e-01   7.722097e-03
  2.421555e+00    5.840116e-01   7.673835e-03
  2.423765e+00    5.752490e-01   7.608804e-03
  2.425976e+00    5.838026e-01   7.657443e-03
  2.428186e+00    5.962888e-01   7.731717e-03
  2.430397e+00    5.884714e-01   7.673434e-03
  2.432607e+00    5.871077e-01   7.657311e-03
  2.434818e+00    5.873040e-01   7.651099e-03
  2.437028e+00    5.893803e-01   7.657498e-03
  2.439239e+00    5.912669e-01   7.662102e-03
  2.441449e+00    5.886229e-01   7.637772e-03
  2.443659e+00    5.846104e-01   7.604395e-03
  2.445870e+00    5.888467e-01   7.644125e-03
  2.448080e+00    5.907387e-01   7.691436e-03
  2.450291e+00    5.835427e-01   7.661152e-03
  2.452501e+00    5.722387e-01   7.597703e-03
  2.454712e+00    5.723807e-01   7.607078e-03
  2.456922e+00    5.559419e-01   7.503570e-03
  2.459133e+00    5.578169e-01   7.521599e-03
  2.461343e+00    5.510848e-01   7.480362e-03
  2.463554e+00    5.651145e-01   7.578448e-03
  2.465764e+00    5.537163e-01   7.504768e-03
  2.467975e+00    5.355871e-01   7.383098e-03
  2.470185e+00    5.480435e-01   7.470696e-03
  2.472395e+00    5.441355e-01   7.445236e-03
  2.474606e+00    5.359590e-01   7.390597e-03
  2.476816e+00    5.597207e-01   7.553404e-03
  2.479027e+00    5.606794e-01   7.560730e-03
  2.481237e+00    5.521918e-01   7.503567e-03
  2.483448e+00    5.527790e-01   7.507863e-03
  2.485658e+00    5.495780e-01   7.485938e-03
  2.487869e+00    5.506627e-01   7.493369e-03
  2.490079e+00    5.427868e-01   7.439073e-03
  2.492290e+00    5.380639e-01   7.406197e-03
  2.494500e+00    5.430049e-01   7.439383e-03
  2.496710e+00    5.375930e-01   7.401532e-03
  2.498921e+00    5.273020e-01   7.329368e-03
  2.501131e+00    5.278080e-01   7.331916e-03
  2.503342e+00    5.320058e-01   7.359777e-03
  2.505552e+00    5.291741e-01   7.339015e-03
  2.507763e+00    5.225511e-01   7.291567e-03
  2.509973e+00    5.162560e-01   7.246110e-03
  2.512184e+00    5.193204e-01   7.265979e-03
  2.514394e+00    5.206674e-01   7.266105e-03
  2.516605e+00    5.192924e-01   7.209758e-03
  2.518815e+00    5.237661e-01   7.212492e-03
  2.521025e+00    5.266112e-01   7.211058e-03
  2.523236e+00    5.199888e-01   7.147693e-03
  2.525446e+00    5.310336e-01   7.207497e-03
  2.527657e+00    5.430605e-01   7.273838e-03
  2.529867e+00    5.204837e-01   7.106919e-03
  2.532078e+00    5.144506e-01   7.050699e-03
  2.534288e+00    5.140885e-01   7.034495e-03
  2.536499e+00    5.146823e-01   7.026716e-03
  2.538709e+00    5.134379e-01   7.007345e-03
  2.540920e+00    5.193020e-01   7.036635e-03
  2.543130e+00    5.165112e-01   7.007440e-03
  2.545340e+00    5.120558e-01   6.967187e-03
  2.547551e+00    5.187699e-01   7.002806e-03
  2.549761e+00    5.197726e-01   7.000023e-03
  2.551972e+00    5.210949e-01   6.999562e-03
  2.554182e+00    5.082464e-01   6.903687e-03
  2.556393e+00    5.152313e-01   6.941905e-03
  2.558603e+00    5.267581e-01   7.009997e-03
  2.560814e+00    5.115849e-01   6.899680e-03
  2.563024e+00    5.260435e-01   6.987854e-03
  2.565235e+00    5.155368e-01   6.908251e-03
  2.567445e+00    5.128887e-01   6.880981e-03
  2.569656e+00    5.243742e-01   6.947795e-03
  2.571866e+00    5.257138e-01   6.947236e-03
  2.574076e+00    5.274053e-01   6.949050e-03
  2.576287e+00    5.178636e-01   6.877564e-03
  2.578497e+00    5.119207e-01   6.830168e-03
  2.580708e+00    5.025980e-01   6.759708e-03
  2.582918e+00    4.963597e-01   6.710005e-03
  2.585129e+00    5.033509e-01   6.749428e-03
  2.587339e+00    5.025057e-01   6.736154e-03
  2.589550e+00    5.112325e-01   6.786868e-03
  2.591760e+00    5.000229e-01   6.704403e-03
  2.593971e+00    4.978527e-01   6.682414e-03
  2.596181e+00    4.968780e-01   6.669733e-03
  2.598391e+00    5.128907e-01   6.771143e-03
  2.600602e+00    5.189172e-01   6.804842e-03
  2.602812e+00    5.159011e-01   6.777479e-03
  2.605023e+00    5.007935e-01   6.670368e-03
  2.607233e+00    5.129409e-01   6.743623e-03
  2.609444e+00    5.007176e-01   6.655604e-03
  2.611654e+00    5.029342e-01   6.663025e-03
  2.613865e+00    5.057596e-01   6.674673e-03
  2.616075e+00    5.201516e-01   6.761746e-03
  2.618286e+00    5.037602e-01   6.647372e-03
  2.620496e+00    5.017179e-01   6.627211e-03
  2.622706e+00    4.979876e-01   6.596821e-03
  2.624917e+00    4.898403e-01   6.536873e-03
  2.627127e+00    5.024107e-01   6.614476e-03
  2.629338e+00    5.042120e-01   6.620347e-03
  2.631548e+00    5.149205e-01   6.684042e-03
  2.633759e+00    5.066681e-01   6.623100e-03
  2.635969e+00    4.934786e-01   6.529687e-03
  2.638180e+00    4.972889e-01   6.547885e-03
  2.640390e+00    4.898649e-01   6.492299e-03
  2.642601e+00    4.929380e-01   6.506016e-03
  2.644811e+00    5.054867e-01   6.581192e-03
  2.647021e+00    5.024680e-01   6.554938e-03
  2.649232e+00    4.903846e-01   6.468998e-03
  2.651442e+00    4.933580e-01   6.482097e-03
  2.653653e+00    4.947231e-01   6.484298e-03
  2.655863e+00    4.980301e-01   6.499248e-03
  2.658074e+00    4.974181e-01   6.488663e-03
  2.660284e+00    4.991227e-01   6.493394e-03
  2.662495e+00    5.040100e-01   6.518300e-03
  2.664705e+00    4.991760e-01   6.480401e-03
  2.666916e+00    4.928476e-01   6.432750e-03
  2.669126e+00    4.896922e-01   6.405696e-03
  2.671337e+00    4.883497e-01   6.390395e-03
  2.673547e+00    4.844105e-01   6.358231e-03
  2.675757e+00    5.057007e-01   6.489945e-03
  2.677968e+00    4.985610e-01   6.437427e-03
  2.680178e+00    4.887806e-01   6.367596e-03
  2.682389e+00    4.826681e-01   6.321329e-03
  2.684599e+00    4.899524e-01   6.362678e-03
  2.686810e+00    4.954633e-01   6.391733e-03
  2.689020e+00    4.900993e-01   6.350767e-03
  2.691231e+00    4.863282e-01   6.320025e-03
  2.693441e+00    4.905035e-01   6.340942e-03
  2.695652e+00    4.977779e-01   6.381228e-03
  2.697862e+00    4.970321e-01   6.370057e-03
  2.700072e+00    4.947929e-01   6.349593e-03
  2.702283e+00    4.880399e-01   6.299892e-03
  2.704493e+00    4.931228e-01   6.326291e-03
  2.706704e+00    4.897240e-01   6.298060e-03
  2.708914e+00    4.848151e-01   6.260463e-03
  2.711125e+00    4.799913e-01   6.223039e-03
  2.713335e+00    4.798074e-01   6.215812e-03
  2.715546e+00    4.693285e-01   6.141203e-03
  2.717756e+00    4.841574e-01   6.231593e-03
  2.719967e+00    4.804175e-01   6.201321e-03
  2.722177e+00    4.810815e-01   6.199492e-03
  2.724387e+00    4.935516e-01   6.273184e-03
  2.726598e+00    4.791996e-01   6.175279e-03
  2.728808e+00    4.830227e-01   6.193724e-03
  2.731019e+00    4.819458e-01   6.180712e-03
  2.733229e+00    4.838634e-01   6.187194e-03
  2.735440e+00    4.708147e-01   6.097016e-03
  2.737650e+00    4.768330e-01   6.129880e-03
  2.739861e+00    4.846655e-01   6.173938e-03
  2.742071e+00    4.892609e-01   6.197372e-03
  2.744282e+00    4.780775e-01   6.119906e-03
  2.746492e+00    4.805132e-01   6.129465e-03
  2.748702e+00    4.689658e-01   6.049534e-03
  2.750913e+00    4.783169e-01   6.103773e-03
  2.753123e+00    4.747356e-01   6.074812e-03
  2.755334e+00    4.804176e-01   6.104985e-03
  2.757544e+00    4.761225e-01   6.071911e-03
  2.759755e+00    4.950554e-01   6.185494e-03
  2.761965e+00    4.766087e-01   6.063209e-03
  2.764176e+00    4.708849e-01   6.020754e-03
  2.766386e+00    4.736325e-01   6.032531e-03
  2.768597e+00    4.882835e-01   6.119213e-03
  2.770807e+00    4.819144e-01   6.073283e-03
  2.773017e+00    4.856595e-01   6.090824e-03
  2.775228e+00    4.771713e-01   6.031582e-03
  2.777438e+00    4.836461e-01   6.066546e-03
  2.779649e+00    4.708684e-01   5.980021e-03
  2.781859e+00    4.657295e-01   5.941590e-03
  2.784070e+00    4.769900e-01   6.007138e-03
  2.786280e+00    4.834194e-01   6.041683e-03
  2.788491e+00    4.879982e-01   6.064330e-03
  2.790701e+00    4.739651e-01   5.970870e-03
  2.792912e+00    4.740416e-01   5.965394e-03
  2.795122e+00    4.646628e-01   5.900437e-03
  2.797333e+00    4.742235e-01   5.955255e-03
  2.799543e+00    4.651540e-01   5.892253e-03
  2.801753e+00    4.780163e-01   5.967289e-03
  2.803964e+00    4.734593e-01   5.933122e-03
  2.806174e+00    4.680849e-01   5.893246e-03
  2.808385e+00    4.654054e-01   5.869645e-03
  2.810595e+00    4.607407e-01   5.833367e-03
  2.812806e+00    4.720248e-01   5.897793e-03
  2.815016e+00    4.497738e-01   5.752491e-03
  2.817227e+00    4.591839e-01   5.837840e-03
  2.819437e+00    4.653220e-01   5.887746e-03
  2.821648e+00    4.641756e-01   5.882727e-03
  2.823858e+00    4.748614e-01   5.955422e-03
  2.826068e+00    4.739141e-01   5.954452e-03
  2.828279e+00    4.734223e-01   5.955424e-03
  2.830489e+00    4.668756e-01   5.917399e-03
  2.832700e+00    4.705604e-01   5.943269e-03
  2.834910e+00    4.632196e-01   5.898779e-03
  2.837121e+00    4.679370e-01   5.930432e-03
  2.839331e+00    4.792989e-01   6.003249e-03
  2.841542e+00    4.764012e-01   5.986093e-03
  2.843752e+00    4.597088e-01   5.881063e-03
  2.845963e+00    4.688069e-01   5.939371e-03
  2.848173e+00    4.597159e-01   5.881581e-03
  2.850383e+00    4.679425e-01   5.934278e-03
  2.852594e+00    4.582361e-01   5.872316e-03
  2.854804e+00    4.721411e-01   5.960231e-03
  2.857015e+00    4.779183e-01   5.996190e-03
  2.859225e+00    4.519041e-01   5.830434e-03
  2.861436e+00    4.617763e-01   5.893133e-03
  2.863646e+00    4.512773e-01   5.825798e-03
  2.865857e+00    4.471920e-01   5.799684e-03
  2.868067e+00    4.565913e-01   5.860547e-03
  2.870278e+00    4.612573e-01   5.890075e-03
  2.872488e+00    4.545300e-01   5.845792e-03
  2.874698e+00    4.650128e-01   5.911786e-03
  2.876909e+00    4.659241e-01   5.916247e-03
  2.879119e+00    4.605802e-01   5.880607e-03
  2.881330e+00    4.701246e-01   5.939733e-03
  2.883540e+00    4.556682e-01   5.846315e-03
  2.885751e+00    4.779032e-01   5.985584e-03
  2.887961e+00    4.617690e-01   5.881817e-03
  2.890172e+00    4.498898e-01   5.804065e-03
  2.892382e+00    4.581199e-01   5.855121e-03
  2.894593e+00    4.557974e-01   5.838450e-03
  2.896803e+00    4.550043e-01   5.831396e-03
  2.899014e+00    4.706116e-01   5.928628e-03
  2.901224e+00    4.605885e-01   5.863182e-03
  2.903434e+00    4.551937e-01   5.826795e-03
  2.905645e+00    4.657021e-01   5.891425e-03
  2.907855e+00    4.748352e-01   5.946793e-03
  2.910066e+00    4.613663e-01   5.859754e-03
  2.912276e+00    4.562382e-01   5.824988e-03
  2.914487e+00    4.688948e-01   5.902736e-03
  2.916697e+00    4.596074e-01   5.841777e-03
  2.918908e+00    4.568004e-01   5.821899e-03
  2.921118e+00    4.608061e-01   5.844664e-03
  2.923329e+00    4.549816e-01   5.805315e-03
  2.925539e+00    4.588093e-01   5.827376e-03
  2.927749e+00    4.664176e-01   5.873173e-03
  2.929960e+00    4.668106e-01   5.872840e-03
  2.932170e+00    4.621345e-01   5.841015e-03
  2.934381e+00    4.554661e-01   5.796293e-03
  2.936591e+00    4.609948e-01   5.828748e-03
  2.938802e+00    4.639219e-01   5.844507e-03
  2.941012e+00    4.543127e-01   5.781324e-03
  2.943223e+00    4.499679e-01   5.750949e-03
  2.945433e+00    4.413340e-01   5.691815e-03
  2.947644e+00    4.559668e-01   5.781263e-03
  2.949854e+00    4.570853e-01   5.784081e-03
  2.952064e+00    4.512894e-01   5.743092e-03
  2.954275e+00    4.568307e-01   5.773815e-03
  2.956485e+00    4.576763e-01   5.774958e-03
  2.958696e+00    4.621439e-01   5.798671e-03
  2.960906e+00    4.539675e-01   5.742970e-03
  2.963117e+00    4.461966e-01   5.689157e-03
  2.965327e+00    4.394105e-01   5.641900e-03
  2.967538e+00    4.419082e-01   5.655039e-03
  2.969748e+00    4.433139e-01   5.661228e-03
  2.971959e+00    4.580481e-01   5.751392e-03
  2.974169e+00    4.570862e-01   5.742789e-03
  2.976379e+00    4.414156e-01   5.640578e-03
  2.978590e+00    4.484261e-01   5.682101e-03
  2.980800e+00    4.398948e-01   5.625023e-03
  2.983011e+00    4.488228e-01   5.679034e-03
  2.985221e+00    4.588593e-01   5.739013e-03
  2.987432e+00    4.543415e-01   5.707580e-03
  2.989642e+00    4.643604e-01   5.767518e-03
  2.991853e+00    4.592075e-01   5.732127e-03
  2.994063e+00    4.549140e-01   5.702345e-03
  2.996274e+00    4.664882e-01   5.771215e-03
  2.998484e+00    4.568124e-01   5.708348e-03
  3.000694e+00    4.469256e-01   5.642802e-03
  3.002905e+00    4.517296e-01   5.670112e-03
  3.005115e+00    4.524384e-01   5.671586e-03
  3.007326e+00    4.390104e-01   5.583682e-03
  3.009536e+00    4.434946e-01   5.608910e-03
  3.011747e+00    4.330007e-01   5.539304e-03
  3.013957e+00    4.506405e-01   5.647826e-03
  3.016168e+00    4.459999e-01   5.615461e-03
  3.018378e+00    4.434493e-01   5.596349e-03
  3.020589e+00    4.593240e-01   5.692405e-03
  3.022799e+00    4.581847e-01   5.682171e-03
  3.025010e+00    4.554327e-01   5.661826e-03
  3.027220e+00    4.545554e-01   5.653260e-03
  3.029430e+00    4.381071e-01   5.546839e-03
  3.031641e+00    4.489511e-01   5.611912e-03
  3.033851e+00    4.542083e-01   5.641187e-03
  3.036062e+00    4.472900e-01   5.595262e-03
  3.038272e+00    4.538844e-01   5.632790e-03
  3.040483e+00    4.526218e-01   5.621709e-03
  3.042693e+00    4.547008e-01   5.631343e-03
  3.044904e+00    4.588958e-01   5.653193e-03
  3.047114e+00    4.426288e-01   5.547352e-03
  3.049325e+00    4.467650e-01   5.568809e-03
  3.051535e+00    4.402548e-01   5.523762e-03
  3.053745e+00    4.339815e-01   5.479596e-03
  3.055956e+00    4.487300e-01   5.567351e-03
  3.058166e+00    4.516251e-01   5.581031e-03
  3.060377e+00    4.583668e-01   5.617721e-03
  3.062587e+00    4.393037e-01   5.495087e-03
  3.064798e+00    4.605796e-01   5.622255e-03
  3.067008e+00    4.534014e-01   5.573551e-03
  3.069219e+00    4.516665e-01   5.558340e-03
  3.071429e+00    4.499476e-01   5.544256e-03
  3.073640e+00    4.482927e-01   5.530699e-03
  3.075850e+00    4.536694e-01   5.560180e-03
  3.078060e+00    4.650972e-01   5.626617e-03
  3.080271e+00    4.423152e-01   5.483634e-03
  3.082481e+00    4.479220e-01   5.514834e-03
  3.084692e+00    4.437104e-01   5.485484e-03
  3.086902e+00    4.376953e-01   5.444967e-03
  3.089113e+00    4.401335e-01   5.456585e-03
  3.091323e+00    4.377916e-01   5.438695e-03
  3.093534e+00    4.477009e-01   5.496525e-03
  3.095744e+00    4.503624e-01   5.509481e-03
  3.097955e+00    4.368577e-01   5.422735e-03
  3.100165e+00    4.405355e-01   5.442182e-03
  3.102375e+00    4.548394e-01   5.526401e-03
  3.104586e+00    4.396621e-01   5.429951e-03
  3.106796e+00    4.429488e-01   5.446699e-03
  3.109007e+00    4.343461e-01   5.390374e-03
  3.111217e+00    4.391186e-01   5.416246e-03
  3.113428e+00    4.416914e-01   5.428670e-03
  3.115638e+00    4.447540e-01   5.444258e-03
  3.117849e+00    4.353554e-01   5.382725e-03
  3.120059e+00    4.463045e-01   5.446524e-03
  3.122270e+00    4.430267e-01   5.423243e-03
  3.124480e+00    4.378722e-01   5.387945e-03
  3.126691e+00    4.441566e-01   5.422914e-03
  3.128901e+00    4.390539e-01   5.388560e-03
  3.131111e+00    4.324268e-01   5.343960e-03
  3.133322e+00    4.457840e-01   5.422405e-03
  3.135532e+00    4.385488e-01   5.374852e-03
  3.137743e+00    4.482395e-01   5.430409e-03
  3.139953e+00    4.479930e-01   5.425216e-03
  3.142164e+00    4.405951e-01   5.392210e-03
  3.144374e+00    4.440914e-01   5.442040e-03
  3.146585e+00    4.358254e-01   5.405596e-03
  3.148795e+00    4.392464e-01   5.437520e-03
  3.151006e+00    4.343775e-01   5.415766e-03
  3.153216e+00    4.376837e-01   5.443439e-03
  3.155426e+00    4.368185e-01   5.444351e-03
  3.157637e+00    4.357720e-01   5.443287e-03
  3.159847e+00    4.392767e-01   5.470027e-03
  3.162058e+00    4.518918e-01   5.552481e-03
  3.164268e+00    4.427403e-01   5.500070e-03
  3.166479e+00    4.446184e-01   5.515382e-03
  3.168689e+00    4.302632e-01   5.428952e-03
  3.170900e+00    4.344982e-01   5.458767e-03
  3.173110e+00    4.436737e-01   5.518971e-03
  3.175321e+00    4.340000e-01   5.460972e-03
  3.177531e+00    4.306400e-01   5.442493e-03
  3.179741e+00    4.404554e-01   5.506254e-03
  3.181952e+00    4.301912e-01   5.443806e-03
  3.184162e+00    4.335363e-01   5.467133e-03
  3.186373e+00    4.322216e-01   5.460402e-03
  3.188583e+00    4.284959e-01   5.438599e-03
  3.190794e+00    4.347433e-01   5.479834e-03
  3.193004e+00    4.434461e-01   5.535695e-03
  3.195215e+00    4.233459e-01   5.410235e-03
  3.197425e+00    4.410216e-01   5.523263e-03
  3.199636e+00    4.348843e-01   5.483913e-03
  3.201846e+00    4.339616e-01   5.477505e-03
  3.204056e+00    4.366698e-01   5.495448e-03
  3.206267e+00    4.365603e-01   5.495611e-03
  3.208477e+00    4.430978e-01   5.537545e-03
  3.210688e+00    4.298915e-01   5.455244e-03
  3.212898e+00    4.334105e-01   5.478103e-03
  3.215109e+00    4.193217e-01   5.389058e-03
  3.217319e+00    4.261947e-01   5.433688e-03
  3.219530e+00    4.307558e-01   5.463067e-03
  3.221740e+00    4.277314e-01   5.444414e-03
  3.223951e+00    4.368149e-01   5.502398e-03
  3.226161e+00    4.343249e-01   5.486882e-03
  3.228372e+00    4.292966e-01   5.455569e-03
  3.230582e+00    4.231306e-01   5.416375e-03
  3.232792e+00    4.153351e-01   5.366475e-03
  3.235003e+00    4.258534e-01   5.434234e-03
  3.237213e+00    4.192860e-01   5.392298e-03
  3.239424e+00    4.269785e-01   5.441497e-03
  3.241634e+00    4.166168e-01   5.375226e-03
  3.243845e+00    4.314877e-01   5.470360e-03
  3.246055e+00    4.347677e-01   5.490849e-03
  3.248266e+00    4.279501e-01   5.447839e-03
  3.250476e+00    4.257596e-01   5.433561e-03
  3.252687e+00    4.337317e-01   5.484111e-03
  3.254897e+00    4.310372e-01   5.466946e-03
  3.257107e+00    4.328468e-01   5.478096e-03
  3.259318e+00    4.223889e-01   5.411260e-03
  3.261528e+00    4.270795e-01   5.441097e-03
  3.263739e+00    4.310825e-01   5.465981e-03
  3.265949e+00    4.189994e-01   5.388704e-03
  3.268160e+00    4.406091e-01   5.525481e-03
  3.270370e+00    4.362680e-01   5.497698e-03
  3.272581e+00    4.275412e-01   5.442148e-03
  3.274791e+00    4.209537e-01   5.399529e-03
  3.277002e+00    4.417935e-01   5.531005e-03
  3.279212e+00    4.222083e-01   5.406627e-03
  3.281422e+00    4.357281e-01   5.491944e-03
  3.283633e+00    4.321537e-01   5.468664e-03
  3.285843e+00    4.261609e-01   5.430288e-03
  3.288054e+00    4.142190e-01   5.352745e-03
  3.290264e+00    4.300754e-01   5.453897e-03
  3.292475e+00    4.231281e-01   5.408861e-03
  3.294685e+00    4.264811e-01   5.429581e-03
  3.296896e+00    4.251220e-01   5.420196e-03
  3.299106e+00    4.229477e-01   5.405735e-03
  3.301317e+00    4.189890e-01   5.379380e-03
  3.303527e+00    4.187649e-01   5.377450e-03
  3.305737e+00    4.088504e-01   5.312415e-03
  3.307948e+00    4.150367e-01   5.351760e-03
  3.310158e+00    4.164929e-01   5.360306e-03
  3.312369e+00    4.353094e-01   5.479163e-03
  3.314579e+00    4.184127e-01   5.370896e-03
  3.316790e+00    4.014719e-01   5.260312e-03
  3.319000e+00    4.196708e-01   5.377045e-03
  3.321211e+00    4.266009e-01   5.420679e-03
  3.323421e+00    4.089834e-01   5.306341e-03
  3.325632e+00    4.327175e-01   5.457253e-03
  3.327842e+00    4.236803e-01   5.399073e-03
  3.330052e+00    4.168827e-01   5.354493e-03
  3.332263e+00    4.200312e-01   5.373681e-03
  3.334473e+00    4.228996e-01   5.391075e-03
  3.336684e+00    4.208423e-01   5.376695e-03
  3.338894e+00    4.101617e-01   5.307178e-03
  3.341105e+00    4.159646e-01   5.343407e-03
  3.343315e+00    4.084098e-01   5.293517e-03
  3.345526e+00    4.264147e-01   5.408043e-03
  3.347736e+00    4.201781e-01   5.366953e-03
  3.349947e+00    4.143780e-01   5.328841e-03
  3.352157e+00    4.177223e-01   5.349147e-03
  3.354368e+00    4.111018e-01   5.305303e-03
  3.356578e+00    4.032336e-01   5.253278e-03
  3.358788e+00    4.145541e-01   5.325187e-03
  3.360999e+00    4.015517e-01   5.239800e-03
  3.363209e+00    4.040038e-01   5.254766e-03
  3.365420e+00    4.269255e-01   5.400228e-03
  3.367630e+00    4.086754e-01   5.282587e-03
  3.369841e+00    4.190428e-01   5.347685e-03
  3.372051e+00    4.129152e-01   5.306528e-03
  3.374262e+00    4.149677e-01   5.317231e-03
  3.376472e+00    4.052867e-01   5.252434e-03
  3.378683e+00    4.208743e-01   5.349965e-03
  3.380893e+00    4.205807e-01   5.345764e-03
  3.383103e+00    4.187968e-01   5.331677e-03
  3.385314e+00    4.138455e-01   5.297869e-03
  3.387524e+00    4.065625e-01   5.248323e-03
  3.389735e+00    4.086116e-01   5.258919e-03
  3.391945e+00    4.153322e-01   5.298305e-03
  3.394156e+00    4.127496e-01   5.277599e-03
  3.396366e+00    4.036405e-01   5.215661e-03
  3.398577e+00    4.042220e-01   5.216390e-03
  3.400787e+00    4.019774e-01   5.213670e-03
  3.402998e+00    3.980049e-01   5.225352e-03
  3.405208e+00    4.057848e-01   5.296836e-03
  3.407418e+00    4.000539e-01   5.275072e-03
  3.409629e+00    3.976235e-01   5.272908e-03
  3.411839e+00    4.029287e-01   5.319815e-03
  3.414050e+00    3.978049e-01   5.296898e-03
  3.416260e+00    3.767929e-01   5.164505e-03
  3.418471e+00    3.888205e-01   5.255661e-03
  3.420681e+00    3.903174e-01   5.274230e-03
  3.422892e+00    3.732414e-01   5.165414e-03
  3.425102e+00    3.724369e-01   5.167448e-03
  3.427313e+00    3.809328e-01   5.233197e-03
  3.429523e+00    3.806877e-01   5.238505e-03
  3.431733e+00    3.890603e-01   5.302481e-03
  3.433944e+00    3.834246e-01   5.270440e-03
  3.436154e+00    3.880348e-01   5.308288e-03
  3.438365e+00    3.882281e-01   5.315596e-03
  3.440575e+00    3.816260e-01   5.276155e-03
  3.442786e+00    3.894781e-01   5.335824e-03
  3.444996e+00    3.768138e-01   5.253871e-03
  3.447207e+00    3.613602e-01   5.150197e-03
  3.449417e+00    3.814284e-01   5.332605e-03
  3.451628e+00    3.642081e-01   5.240136e-03
  3.453838e+00    3.691137e-01   5.296489e-03
  3.456049e+00    3.448886e-01   5.142913e-03
  3.458259e+00    3.679292e-01   5.333886e-03
  3.460469e+00    3.641733e-01   5.326338e-03
  3.462680e+00    3.572052e-01   5.293939e-03
  3.464890e+00    3.628656e-01   5.353438e-03
  3.467101e+00    3.740093e-01   5.452641e-03
  3.469311e+00    3.806044e-01   5.517262e-03
  3.471522e+00    3.858719e-01   5.571972e-03
  3.473732e+00    3.907515e-01   5.623278e-03
  3.475943e+00    3.852218e-01   5.599109e-03
  3.478153e+00    4.115169e-01   5.802937e-03
  3.480364e+00    4.376183e-01   6.000136e-03
  3.482574e+00    4.255212e-01   5.932375e-03
  3.484784e+00    4.245466e-01   5.940709e-03
  3.486995e+00    4.266995e-01   5.971012e-03
  3.489205e+00    4.406422e-01   6.082788e-03
  3.491416e+00    4.320430e-01   6.038116e-03
  3.493626e+00    4.414274e-01   6.118053e-03
  3.495837e+00    4.422187e-01   6.138321e-03
  3.498047e+00    4.460202e-01   6.179147e-03
  3.500258e+00    4.457676e-01   6.191886e-03
  3.502468e+00    4.596524e-01   6.302094e-03
  3.504679e+00    4.412220e-01   6.188610e-03
  3.506889e+00    4.693135e-01   6.397075e-03
  3.509099e+00    4.828765e-01   6.503397e-03
  3.511310e+00    4.796304e-01   6.496026e-03
  3.513520e+00    4.816864e-01   6.524347e-03
  3.515731e+00    4.882716e-01   6.583177e-03
  3.517941e+00    5.029430e-01   6.695941e-03
  3.520152e+00    5.017881e-01   6.702636e-03
  3.522362e+00    5.170768e-01   6.818703e-03
  3.524573e+00    5.271998e-01   6.899701e-03
  3.526783e+00    5.194976e-01   6.862567e-03
  3.528994e+00    5.316342e-01   6.954716e-03
  3.531204e+00    5.342461e-01   6.984365e-03
  3.533414e+00    5.304013e-01   6.971343e-03
  3.535625e+00    5.274430e-01   6.964230e-03
  3.537835e+00    5.320637e-01   7.006759e-03
  3.540046e+00    5.285745e-01   6.992633e-03
  3.542256e+00    5.291159e-01   7.003714e-03
  3.544467e+00    5.398673e-01   7.082130e-03
  3.546677e+00    5.544336e-01   7.184747e-03
  3.548888e+00    5.467189e-01   7.142208e-03
  3.551098e+00    5.254053e-01   7.008778e-03
  3.553309e+00    5.355181e-01   7.084065e-03
  3.555519e+00    5.404008e-01   7.127661e-03
  3.557729e+00    5.163569e-01   6.978763e-03
  3.559940e+00    5.374664e-01   7.131575e-03
  3.562150e+00    5.358311e-01   7.132413e-03
  3.564361e+00    5.434843e-01   7.196588e-03
  3.566571e+00    5.314918e-01   7.130517e-03
  3.568782e+00    5.323130e-01   7.150094e-03
  3.570992e+00    5.349378e-01   7.181419e-03
  3.573203e+00    5.410563e-01   7.236611e-03
  3.575413e+00    5.367876e-01   7.221785e-03
  3.577624e+00    5.340580e-01   7.217502e-03
  3.579834e+00    5.285980e-01   7.194296e-03
  3.582045e+00    5.236816e-01   7.174617e-03
  3.584255e+00    5.236643e-01   7.188396e-03
  3.586465e+00    5.406760e-01   7.318215e-03
  3.588676e+00    5.353829e-01   7.296508e-03
  3.590886e+00    5.203751e-01   7.207025e-03
  3.593097e+00    5.282519e-01   7.275728e-03
  3.595307e+00    5.432376e-01   7.392233e-03
  3.597518e+00    5.538708e-01   7.478730e-03
  3.599728e+00    5.414888e-01   7.408794e-03
  3.601939e+00    5.374665e-01   7.395369e-03
  3.604149e+00    5.201520e-01   7.289408e-03
  3.606360e+00    5.375568e-01   7.424580e-03
  3.608570e+00    5.477707e-01   7.509065e-03
  3.610780e+00    5.321530e-01   7.412321e-03
  3.612991e+00    5.418077e-01   7.489298e-03
  3.615201e+00    5.340870e-01   7.445564e-03
  3.617412e+00    5.223963e-01   7.370800e-03
  3.619622e+00    5.380361e-01   7.486268e-03
  3.621833e+00    5.429573e-01   7.527252e-03
  3.624043e+00    5.329403e-01   7.466954e-03
  3.626254e+00    5.376629e-01   7.509692e-03
  3.628464e+00    5.321661e-01   7.482186e-03
  3.630675e+00    5.173813e-01   7.391402e-03
  3.632885e+00    5.234774e-01   7.449112e-03
  3.635095e+00    5.275819e-01   7.492580e-03
  3.637306e+00    5.352314e-01   7.561099e-03
  3.639516e+00    5.367632e-01   7.586480e-03
  3.641727e+00    5.505677e-01   7.698228e-03
  3.643937e+00    5.251102e-01   7.532588e-03
  3.646148e+00    5.323444e-01   7.598865e-03
  3.648358e+00    5.419046e-01   7.681817e-03
  3.650569e+00    5.410347e-01   7.690461e-03
  3.652779e+00    5.328929e-01   7.647186e-03
  3.654990e+00    5.164906e-01   7.543225e-03
  3.657200e+00    5.178386e-01   7.567727e-03
  3.659410e+00    5.372270e-01   7.723152e-03
  3.661621e+00    5.362115e-01   7.731025e-03
  3.663831e+00    5.333751e-01   7.725710e-03
  3.666042e+00    5.304434e-01   7.719535e-03
  3.668252e+00    5.556065e-01   7.916121e-03
  3.670463e+00    5.466520e-01   7.867562e-03
  3.672673e+00    5.200006e-01   7.688629e-03
  3.674884e+00    5.186256e-01   7.693652e-03
  3.677094e+00    5.350164e-01   7.829883e-03
  3.679305e+00    5.331398e-01   7.831734e-03
  3.681515e+00    5.219060e-01   7.764269e-03
  3.683726e+00    5.311363e-01   7.848471e-03
  3.685936e+00    5.246702e-01   7.816199e-03
  3.688146e+00    5.092837e-01   7.716205e-03
  3.690357e+00    5.090876e-01   7.730385e-03
  3.692567e+00    5.068753e-01   7.729371e-03
  3.694778e+00    5.219172e-01   7.859222e-03
  3.696988e+00    5.250219e-01   7.898508e-03
  3.699199e+00    5.210097e-01   7.884446e-03
  3.701409e+00    5.333707e-01   7.993943e-03
  3.703620e+00    5.111989e-01   7.842152e-03
  3.705830e+00    4.961341e-01   7.741624e-03
  3.708041e+00    5.132710e-01   7.890651e-03
  3.710251e+00    5.205555e-01   7.963075e-03
  3.712461e+00    5.411491e-01   8.136143e-03
  3.714672e+00    5.083230e-01   7.902015e-03
  3.716882e+00    5.203877e-01   8.011949e-03
  3.719093e+00    5.156251e-01   7.992238e-03
  3.721303e+00    5.070174e-01   7.942041e-03
  3.723514e+00    4.998363e-01   7.902506e-03
  3.725724e+00    5.291962e-01   8.148575e-03
  3.727935e+00    5.318701e-01   8.186897e-03
  3.730145e+00    5.048838e-01   7.993645e-03
  3.732356e+00    5.092404e-01   8.045411e-03
  3.734566e+00    5.127834e-01   8.090870e-03
  3.736776e+00    5.027157e-01   8.028594e-03
  3.738987e+00    5.008743e-01   8.031385e-03
  3.741197e+00    5.217091e-01   8.214876e-03
  3.743408e+00    4.906855e-01   7.984563e-03
  3.745618e+00    4.992234e-01   8.071710e-03
  3.747829e+00    5.205323e-01   8.260522e-03
  3.750039e+00    5.024800e-01   8.134169e-03
  3.752250e+00    5.174224e-01   8.272873e-03
  3.754460e+00    5.044360e-01   8.186785e-03
  3.756671e+00    5.133711e-01   8.277894e-03
  3.758881e+00    4.961462e-01   8.156222e-03
  3.761091e+00    5.109766e-01   8.296383e-03
  3.763302e+00    5.207704e-01   8.394822e-03
  3.765512e+00    5.231885e-01   8.433883e-03
  3.767723e+00    5.182582e-01   8.413602e-03
  3.769933e+00    5.192884e-01   8.441535e-03
  3.772144e+00    4.845819e-01   8.173760e-03
  3.774354e+00    4.910405e-01   8.247516e-03
  3.776565e+00    5.075656e-01   8.405096e-03
  3.778775e+00    5.009160e-01   8.369740e-03
  3.780986e+00    5.062122e-01   8.434214e-03
  3.783196e+00    5.046779e-01   8.441683e-03
  3.785407e+00    4.925231e-01   8.359657e-03
  3.787617e+00    4.878793e-01   8.340552e-03
  3.789827e+00    4.976622e-01   8.444185e-03
  3.792038e+00    5.271748e-01   8.712366e-03
  3.794248e+00    4.876598e-01   8.400338e-03
  3.796459e+00    4.942473e-01   8.478072e-03
  3.798669e+00    4.904054e-01   8.466210e-03
  3.800880e+00    5.000326e-01   8.570347e-03
  3.803090e+00    5.016457e-01   8.606034e-03
  3.805301e+00    4.905078e-01   8.531849e-03
  3.807511e+00    4.974799e-01   8.614121e-03
  3.809722e+00    4.999625e-01   8.657971e-03
  3.811932e+00    5.005041e-01   8.684780e-03
  3.814142e+00    5.079050e-01   8.771881e-03
  3.816353e+00    5.036800e-01   8.758288e-03
  3.818563e+00    4.981715e-01   8.733297e-03
  3.820774e+00    5.163925e-01   8.915192e-03
  3.822984e+00    5.179682e-01   8.952592e-03
  3.825195e+00    5.071427e-01   8.882558e-03
  3.827405e+00    4.884485e-01   8.740917e-03
  3.829616e+00    4.941567e-01   8.815837e-03
  3.831826e+00    4.786940e-01   8.700543e-03
  3.834037e+00    4.976972e-01   8.895996e-03
  3.836247e+00    5.264717e-01   9.175059e-03
  3.838457e+00    5.092714e-01   9.049234e-03
  3.840668e+00    4.878958e-01   8.882298e-03
  3.842878e+00    4.815200e-01   8.849198e-03
  3.845089e+00    4.610006e-01   8.683256e-03
  3.847299e+00    4.666863e-01   8.761657e-03
  3.849510e+00    4.741189e-01   8.856416e-03
  3.851720e+00    4.946186e-01   9.067344e-03
  3.853931e+00    5.072638e-01   9.201651e-03
  3.856141e+00    5.114121e-01   9.258596e-03
  3.858352e+00    5.084284e-01   9.251090e-03
  3.860562e+00    5.001315e-01   9.194708e-03
  3.862772e+00    4.871143e-01   9.093639e-03
  3.864983e+00    4.873695e-01   9.115685e-03
  3.867193e+00    4.733902e-01   9.003323e-03
  3.869404e+00    4.857204e-01   9.139421e-03
  3.871614e+00    4.951290e-01   9.247560e-03
  3.873825e+00    4.766817e-01   9.093680e-03
  3.876035e+00    4.823946e-01   9.168233e-03
  3.878246e+00    4.986443e-01   9.347432e-03
  3.880456e+00    5.128616e-01   9.509264e-03
  3.882667e+00    4.913607e-01   9.337188e-03
  3.884877e+00    4.957573e-01   9.408657e-03
  3.887087e+00    5.078741e-01   9.553382e-03
  3.889298e+00    4.995979e-01   9.505917e-03
  3.891508e+00    4.601123e-01   9.152053e-03
  3.893719e+00    4.997498e-01   9.569364e-03
  3.895929e+00    4.925347e-01   9.531564e-03
  3.898140e+00    4.926093e-01   9.564022e-03
  3.900350e+00    4.947579e-01   9.617184e-03
  3.902561e+00    4.883682e-01   9.587134e-03
  3.904771e+00    4.765869e-01   9.503187e-03
  3.906982e+00    4.990457e-01   9.757975e-03
  3.909192e+00    4.955437e-01   9.757378e-03
  3.911403e+00    4.885088e-01   9.721853e-03
  3.913613e+00    4.945360e-01   9.816166e-03
  3.915823e+00    4.914063e-01   9.819907e-03
  3.918034e+00    4.791384e-01   9.731567e-03
  3.920244e+00    4.867202e-01   9.843820e-03
  3.922455e+00    4.991798e-01   1.000564e-02
  3.924665e+00    4.847006e-01   9.895655e-03
  3.926876e+00    5.137841e-01   1.022629e-02
  3.929086e+00    5.064791e-01   1.019145e-02
  3.931297e+00    5.174578e-01   1.033716e-02
  3.933507e+00    5.025485e-01   1.021661e-02
  3.935718e+00    4.722923e-01   9.932551e-03
  3.937928e+00    4.483345e-01   9.705561e-03
  3.940138e+00    4.661360e-01   9.924976e-03
  3.942349e+00    4.839320e-01   1.014249e-02
  3.944559e+00    4.749046e-01   1.007714e-02
  3.946770e+00    4.914205e-01   1.028113e-02
  3.948980e+00    4.790776e-01   1.018164e-02
  3.951191e+00    4.986100e-01   1.041842e-02
  3.953401e+00    4.795278e-01   1.024822e-02
  3.955612e+00    4.960450e-01   1.045519e-02
  3.957822e+00    4.811557e-01   1.032864e-02
  3.960033e+00    4.865384e-01   1.041888e-02
  3.962243e+00    4.682971e-01   1.025393e-02
  3.964453e+00    4.621488e-01   1.021873e-02
  3.966664e+00    4.824062e-01   1.047347e-02
  3.968874e+00    4.940053e-01   1.062733e-02
  3.971085e+00    4.893990e-01   1.059970e-02
  3.973295e+00    4.746257e-01   1.045979e-02
  3.975506e+00    4.721589e-01   1.045377e-02
  3.977716e+00    4.770041e-01   1.052911e-02
  3.979927e+00    4.609397e-01   1.037189e-02
  3.982137e+00    4.603613e-01   1.038709e-02
  3.984348e+00    4.599776e-01   1.040462e-02
  3.986558e+00    5.085315e-01   1.096287e-02
  3.988768e+00    5.232731e-01   1.114456e-02
  3.990979e+00    4.985533e-01   1.090124e-02
  3.993189e+00    5.041389e-01   1.098568e-02
  3.995400e+00    4.902160e-01   1.085647e-02
  3.997610e+00    5.185061e-01   1.119624e-02
  3.999821e+00    4.811401e-01   1.082271e-02
  4.002031e+00    4.692106e-01   1.072540e-02
  4.004242e+00    4.608421e-01   1.066685e-02
  4.006452e+00    4.928938e-01   1.107123e-02
  4.008663e+00    4.857612e-01   1.103093e-02
  4.010873e+00    4.779184e-01   1.098122e-02
  4.013084e+00    4.687877e-01   1.091608e-02
  4.015294e+00    4.960874e-01   1.127080e-02
  4.017504e+00    4.943955e-01   1.129393e-02
  4.019715e+00    5.047560e-01   1.145509e-02
  4.021925e+00    4.904745e-01   1.133509e-02
  4.024136e+00    4.957574e-01   1.144017e-02
  4.026346e+00    4.962094e-01   1.149011e-02
  4.028557e+00    4.753162e-01   1.128949e-02
  4.030767e+00    4.654867e-01   1.121703e-02
  4.032978e+00    4.724454e-01   1.134623e-02
  4.035188e+00    4.604359e-01   1.124616e-02
  4.037399e+00    4.937264e-01   1.169369e-02
  4.039609e+00    4.713582e-01   1.147291e-02
  4.041819e+00    4.651672e-01   1.144522e-02
  4.044030e+00    4.854070e-01   1.174141e-02
  4.046240e+00    4.753232e-01   1.166834e-02
  4.048451e+00    4.721620e-01   1.167978e-02
  4.050661e+00    4.820544e-01   1.185298e-02
  4.052872e+00    4.742591e-01   1.180902e-02
  4.055082e+00    4.589163e-01   1.166863e-02
  4.057293e+00    4.629155e-01   1.177196e-02
  4.059503e+00    4.510501e-01   1.167289e-02
  4.061714e+00    4.834305e-01   1.214122e-02
  4.063924e+00    4.886735e-01   1.226401e-02
  4.066134e+00    4.688045e-01   1.206877e-02
  4.068345e+00    4.562359e-01   1.196323e-02
  4.070555e+00    5.101045e-01   1.271065e-02
  4.072766e+00    5.137829e-01   1.281945e-02
  4.074976e+00    4.789988e-01   1.243947e-02
  4.077187e+00    4.940214e-01   1.269591e-02
  4.079397e+00    4.883800e-01   1.268755e-02
  4.081608e+00    5.076244e-01   1.300244e-02
  4.083818e+00    4.993574e-01   1.296336e-02
  4.086029e+00    4.727384e-01   1.267946e-02
  4.088239e+00    4.804268e-01   1.285093e-02
  4.090449e+00    5.095526e-01   1.330658e-02
  4.092660e+00    5.085569e-01   1.336675e-02
  4.094870e+00    4.691880e-01   1.291047e-02
  4.097081e+00    4.483647e-01   1.268959e-02
  4.099291e+00    4.574227e-01   1.287023e-02
  4.101502e+00    4.634007e-01   1.300254e-02
  4.103712e+00    4.557512e-01   1.294269e-02
  4.105923e+00    4.885693e-01   1.345244e-02
  4.108133e+00    4.593365e-01   1.309431e-02
  4.110344e+00    4.615770e-01   1.317622e-02
  4.112554e+00    4.986830e-01   1.374953e-02
  4.114764e+00    4.885785e-01   1.366451e-02
  4.116975e+00    4.549680e-01   1.323802e-02
  4.119185e+00    4.567998e-01   1.331850e-02
  4.121396e+00    4.448780e-01   1.319786e-02
  4.123606e+00    4.567201e-01   1.342715e-02
  4.125817e+00    4.452854e-01   1.331358e-02
  4.128027e+00    4.553422e-01   1.351979e-02
  4.130238e+00    4.423284e-01   1.338247e-02
  4.132448e+00    4.499265e-01   1.355529e-02
  4.134659e+00    4.809903e-01   1.407567e-02
  4.136869e+00    4.784581e-01   1.410146e-02
  4.139080e+00    4.646113e-01   1.395826e-02
  4.141290e+00    4.798733e-01   1.424868e-02
  4.143500e+00    4.811669e-01   1.433353e-02
  4.145711e+00    4.551730e-01   1.400645e-02
  4.147921e+00    4.343636e-01   1.374488e-02
  4.150132e+00    4.746448e-01   1.443685e-02
  4.152342e+00    4.954189e-01   1.482075e-02
  4.154553e+00    5.086681e-01   1.508922e-02
  4.156763e+00    5.120982e-01   1.521484e-02
  4.158974e+00    4.696298e-01   1.464372e-02
  4.161184e+00    4.064184e-01   1.368988e-02
  4.163395e+00    4.531384e-01   1.452931e-02
  4.165605e+00    4.544366e-01   1.462565e-02
  4.167815e+00    5.172786e-01   1.568576e-02
  4.170026e+00    4.795276e-01   1.518209e-02
  4.172236e+00    5.115944e-01   1.576628e-02
  4.174447e+00    4.939881e-01   1.557688e-02
  4.176657e+00    3.940440e-01   1.398819e-02
  4.178868e+00    5.338022e-01   1.637289e-02
  4.181078e+00    4.902472e-01   1.577943e-02
  4.183289e+00    4.700873e-01   1.553997e-02
  4.185499e+00    4.720547e-01   1.566414e-02
  4.187710e+00    5.340706e-01   1.675909e-02
  4.189920e+00    4.681249e-01   1.578484e-02
  4.192130e+00    4.861369e-01   1.618394e-02
  4.194341e+00    5.031046e-01   1.656480e-02
  4.196551e+00    5.237883e-01   1.700902e-02
  4.198762e+00    4.840122e-01   1.645414e-02
  4.200972e+00    4.661238e-01   1.625187e-02
  4.203183e+00    4.157030e-01   1.544891e-02
  4.205393e+00    4.283964e-01   1.578732e-02
  4.207604e+00    4.035209e-01   1.542677e-02
  4.209814e+00    4.942446e-01   1.718987e-02
  4.212025e+00    4.498495e-01   1.651606e-02
  4.214235e+00    4.656796e-01   1.692347e-02
  4.216445e+00    4.526902e-01   1.680617e-02
  4.218656e+00    4.299858e-01   1.650203e-02
  4.220866e+00    4.716864e-01   1.741194e-02
  4.223077e+00    5.404673e-01   1.878126e-02
  4.225287e+00    4.725435e-01   1.769979e-02
  4.227498e+00    5.056996e-01   1.845399e-02
  4.229708e+00    5.127736e-01   1.873331e-02
  4.231919e+00    4.788727e-01   1.825366e-02
  4.234129e+00    5.011026e-01   1.882902e-02
  4.236340e+00    4.559924e-01   1.811498e-02
  4.238550e+00    4.477254e-01   1.810872e-02
  4.240761e+00    4.652919e-01   1.862384e-02
  4.242971e+00    4.576069e-01   1.863812e-02
  4.245181e+00    4.427206e-01   1.850455e-02
  4.247392e+00    4.905705e-01   1.966130e-02
  4.249602e+00    4.662111e-01   1.935742e-02
  4.251813e+00    4.092821e-01   1.831568e-02
  4.254023e+00    4.089566e-01   1.849303e-02
  4.256234e+00    4.461712e-01   1.952228e-02
  4.258444e+00    4.516271e-01   1.984693e-02
  4.260655e+00    4.732219e-01   2.053946e-02
  4.262865e+00    5.379664e-01   2.214729e-02
  4.265076e+00    4.769159e-01   2.109041e-02
  4.267286e+00    4.681719e-01   2.114394e-02
  4.269496e+00    4.616721e-01   2.125309e-02
  4.271707e+00    4.907967e-01   2.218352e-02
  4.273917e+00    4.994774e-01   2.266829e-02
  4.276128e+00    4.791153e-01   2.249645e-02
  4.278338e+00    4.463090e-01   2.200232e-02
  4.280549e+00    4.338848e-01   2.200512e-02
  4.282759e+00    4.451113e-01   2.260823e-02
  4.284970e+00    5.478410e-01   2.545317e-02
  4.287180e+00    4.304050e-01   2.283129e-02
  4.289391e+00    4.875893e-01   2.448287e-02
  4.291601e+00    4.819539e-01   2.453583e-02
  4.293811e+00    4.684638e-01   2.437829e-02
  4.296022e+00    5.384223e-01   2.634588e-02
  4.298232e+00    4.499817e-01   2.428700e-02
  4.300443e+00    4.200430e-01   2.365834e-02
  4.302653e+00    5.884169e-01   2.824375e-02
  4.304864e+00    5.324733e-01   2.710090e-02
  4.307074e+00    4.535961e-01   2.523772e-02
  4.309285e+00    5.534174e-01   2.813011e-02
  4.311495e+00    4.639946e-01   2.599820e-02
  4.313706e+00    4.428580e-01   2.563784e-02
  4.315916e+00    4.636727e-01   2.649122e-02
  4.318126e+00    4.534493e-01   2.645712e-02
  4.320337e+00    4.068665e-01   2.531479e-02
  4.322547e+00    4.990835e-01   2.833464e-02
  4.324758e+00    5.052299e-01   2.880523e-02
  4.326968e+00    4.510805e-01   2.752329e-02
  4.329179e+00    6.059303e-01   3.225189e-02
  4.331389e+00    5.237113e-01   3.033013e-02
  4.333600e+00    4.775101e-01   2.930681e-02
  4.335810e+00    4.993578e-01   3.032598e-02
  4.338021e+00    4.764088e-01   3.000069e-02
  4.340231e+00    4.497703e-01   2.951583e-02
  4.342442e+00    4.428589e-01   2.968043e-02
  4.344652e+00    3.990198e-01   2.855601e-02
  4.346862e+00    4.526132e-01   3.083823e-02
  4.349073e+00    5.177782e-01   3.346473e-02
  4.351283e+00    4.640366e-01   3.215355e-02
  4.353494e+00    5.675009e-01   3.610650e-02
  4.355704e+00    5.152941e-01   3.496093e-02
  4.357915e+00    4.579676e-01   3.350718e-02
  4.360125e+00    3.978624e-01   3.176353e-02
  4.362336e+00    6.121703e-01   4.011906e-02
  4.364546e+00    4.615656e-01   3.546926e-02
  4.366757e+00    4.533911e-01   3.585565e-02
  4.368967e+00    2.900555e-01   2.924917e-02
  4.371177e+00    5.024708e-01   3.931576e-02
  4.373388e+00    4.372423e-01   3.749681e-02
  4.375598e+00    3.388919e-01   3.376419e-02
  4.377809e+00    4.870617e-01   4.149870e-02
  4.380019e+00    5.394521e-01   4.477468e-02
  4.382230e+00    2.750888e-01   3.286703e-02
  4.384440e+00    3.243560e-01   3.671342e-02
  4.386651e+00    3.907401e-01   4.153983e-02
  4.388861e+00    4.123414e-01   4.410443e-02
  4.391072e+00    4.414394e-01   4.723754e-02
  4.393282e+00    5.119333e-01   5.283616e-02
  4.395492e+00    5.107871e-01   5.496880e-02
  4.397703e+00    4.545398e-01   5.422858e-02
  4.399913e+00    3.707556e-01   5.145060e-02
  4.402124e+00    4.035996e-01   5.672513e-02
  4.404334e+00    4.423522e-01   6.312751e-02
  4.406545e+00    2.268364e-01   4.857177e-02
  4.408755e+00    3.784856e-01   6.804178e-02
  4.410966e+00    3.425025e-01   7.163826e-02
  4.413176e+00    4.176298e-01   8.953387e-02
  4.415387e+00   -3.717227e-01            nan
  4.417597e+00   -2.013680e+00            nan
  4.419807e+00   -3.766224e-01            nan
