# == pyFAI calibration ==
# Distance Sample to Detector: 0.216 m
# PONI: 1.166e-01, 1.308e-01 m
# Rotations: 0.000000 0.000000 0.000000 rad
# 
# == Fit2d calibration ==
# Distance Sample-beamCenter: 216.000 mm
# Center: x=1744.293, y=1555.000 pix
# Tilt: 0.000 deg  TiltPlanRot: 0.000 deg
# 
# Detector Eiger 9M	 PixelSize= 7.500e-05, 7.500e-05 m
#    Detector has a mask: True 
#    Detector has a dark current: False 
#    detector has a flat field: False 
# 
# Wavelength: 9.8e-11 m
# Mask applied: from detector
# Dark current applied: False
# Flat field applied: False
# Polarization factor: None
# Normalization factor: 1.0
# 
# Headers of the input frame:
# {
# "_array_data.header_convention": "SLS_1.0",
# "_array_data.header_contents": "# Detector: Dectris Eiger 9M, S/N E-18-0102\r\n# Pixel_size 75e-6 m x 75e-6 m\r\n# Silicon sensor, thickness 0.000450 m\r\n# Exposure_time 0.024997 s\r\n# Exposure_period 0.025000 s\r\n# Count_cutoff 62318 counts\r\n# Wavelength 0.980106 A\r\n# Detector_distance 0.215992 m\r\n# Beam_xy (1555, 1744) pixels\r\n# Start_angle 0.000000 deg.\r\n# Angle_increment 0.000000 deg.",
# "Content-Type": "application/octet-stream;",
# "conversions": "x-CBF_BYTE_OFFSET",
# "Content-Transfer-Encoding": "BINARY",
# "X-Binary-Size": "10166604",
# "X-Binary-ID": "1",
# "X-Binary-Element-Type": "signed 32-bit integer",
# "X-Binary-Element-Byte-Order": "LITTLE_ENDIAN",
# "Content-MD5": "ncp7eQPZuCVgbkQ40e5w/Q==",
# "X-Binary-Number-of-Elements": "10166590",
# "X-Binary-Size-Fastest-Dimension": "3110",
# "X-Binary-Size-Second-Dimension": "3269",
# "X-Binary-Size-Padding": "4095"
# }
# --> H:/Proxima2a_2019-04-05/RAW_DATA/C5_gel17_position5/C5_mesh_1_data.cbf/C5_mesh_1_data.cbf000058.dat
#        q_A^-1              I           sigma 
  1.105228e-03    1.676878e+00   7.007090e-01
  3.315685e-03    1.519644e+00   4.055238e-01
  5.526141e-03    1.423241e+00   3.034669e-01
  7.736597e-03    1.441945e+00   2.580444e-01
  9.947054e-03    1.363319e+00   2.211950e-01
  1.215751e-02    1.167043e+00   1.850598e-01
  1.436797e-02    1.188377e+00   1.717722e-01
  1.657842e-02    1.298822e+00   1.671550e-01
  1.878888e-02    1.228233e+00   1.526876e-01
  2.099934e-02    1.305506e+00   1.489332e-01
  2.320979e-02    1.535751e+00   1.536361e-01
  2.542025e-02    1.505202e+00   1.453473e-01
  2.763070e-02    1.275093e+00   1.283102e-01
  2.984116e-02    1.370679e+00   1.280101e-01
  3.205162e-02    1.447869e+00   1.269553e-01
  3.426207e-02    1.390438e+00   1.203236e-01
  3.647253e-02    1.484075e+00   1.204807e-01
  3.868299e-02    1.454925e+00   1.158420e-01
  4.089344e-02    1.341014e+00   1.081676e-01
  4.310390e-02    1.370554e+00   1.065055e-01
  4.531436e-02    1.445065e+00   1.066619e-01
  4.752481e-02    1.478290e+00   1.053413e-01
  4.973527e-02    1.442786e+00   1.017309e-01
  5.194572e-02    1.458761e+00   1.000910e-01
  5.415618e-02    1.412419e+00   9.645408e-02
  5.636664e-02    1.289582e+00   9.034199e-02
  5.857709e-02    1.426949e+00   9.322208e-02
  6.078755e-02    1.401862e+00   9.070057e-02
  6.299801e-02    1.395362e+00   8.888733e-02
  6.520846e-02    1.450230e+00   8.906952e-02
  6.741892e-02    1.448282e+00   8.753393e-02
  6.962938e-02    1.501547e+00   8.770733e-02
  7.183983e-02    1.478977e+00   8.569445e-02
  7.405029e-02    1.521071e+00   8.559651e-02
  7.626074e-02    1.429548e+00   8.176921e-02
  7.847120e-02    1.396679e+00   7.967503e-02
  8.068166e-02    1.458091e+00   8.028431e-02
  8.289211e-02    1.419798e+00   7.815917e-02
  8.510257e-02    1.434011e+00   7.752211e-02
  8.731303e-02    1.537520e+00   7.924560e-02
  8.952348e-02    1.520991e+00   7.784145e-02
  9.173394e-02    1.506893e+00   7.653765e-02
  9.394439e-02    1.523672e+00   7.604926e-02
  9.615485e-02    1.479634e+00   7.407418e-02
  9.836531e-02    1.439514e+00   7.223545e-02
  1.005758e-01    1.440008e+00   7.144994e-02
  1.027862e-01    1.526192e+00   7.275996e-02
  1.049967e-01    1.452690e+00   7.023384e-02
  1.072071e-01    1.516493e+00   7.101513e-02
  1.094176e-01    1.530154e+00   7.060899e-02
  1.116280e-01    1.574657e+00   7.091412e-02
  1.138385e-01    1.445963e+00   6.729022e-02
  1.160490e-01    1.497610e+00   6.782524e-02
  1.182594e-01    1.443779e+00   6.596837e-02
  1.204699e-01    1.457788e+00   6.567618e-02
  1.226803e-01    1.440356e+00   6.468883e-02
  1.248908e-01    1.456976e+00   6.448188e-02
  1.271012e-01    1.472639e+00   6.426009e-02
  1.293117e-01    1.654656e+00   6.753013e-02
  1.315222e-01    1.691867e+00   6.770744e-02
  1.337326e-01    1.471500e+00   6.261896e-02
  1.359431e-01    1.602510e+00   6.538529e-02
  1.381535e-01    1.587433e+00   6.595054e-02
  1.403640e-01    1.485953e+00   6.408320e-02
  1.425744e-01    1.616220e+00   6.693990e-02
  1.447849e-01    1.584498e+00   6.629501e-02
  1.469953e-01    1.618744e+00   6.696562e-02
  1.492058e-01    1.630128e+00   6.712260e-02
  1.514163e-01    1.522877e+00   6.476922e-02
  1.536267e-01    1.613842e+00   6.654536e-02
  1.558372e-01    1.663210e+00   6.740638e-02
  1.580476e-01    1.656570e+00   6.710847e-02
  1.602581e-01    1.627427e+00   6.634662e-02
  1.624685e-01    1.670950e+00   6.704386e-02
  1.646790e-01    1.700690e+00   6.744365e-02
  1.668895e-01    1.687171e+00   6.698105e-02
  1.690999e-01    1.730204e+00   6.762619e-02
  1.713104e-01    1.691128e+00   6.665069e-02
  1.735208e-01    1.795383e+00   6.846084e-02
  1.757313e-01    1.796687e+00   6.827109e-02
  1.779417e-01    1.782503e+00   6.777930e-02
  1.801522e-01    1.799134e+00   6.787787e-02
  1.823626e-01    1.829040e+00   6.821184e-02
  1.845731e-01    1.911577e+00   6.950805e-02
  1.867836e-01    1.960400e+00   7.015253e-02
  1.889940e-01    2.048450e+00   7.147632e-02
  1.912045e-01    2.077905e+00   7.174800e-02
  1.934149e-01    2.016236e+00   7.043876e-02
  1.956254e-01    1.882392e+00   6.783616e-02
  1.978358e-01    1.987517e+00   6.946574e-02
  2.000463e-01    2.033393e+00   7.003005e-02
  2.022568e-01    2.010465e+00   6.940554e-02
  2.044672e-01    2.008305e+00   6.913061e-02
  2.066777e-01    2.038818e+00   6.942262e-02
  2.088881e-01    2.064165e+00   6.962426e-02
  2.110986e-01    2.007988e+00   6.843485e-02
  2.133090e-01    1.991957e+00   6.793953e-02
  2.155195e-01    1.951618e+00   6.702504e-02
  2.177300e-01    1.865534e+00   6.501535e-02
  2.199404e-01    1.913976e+00   6.411880e-02
  2.221509e-01    1.915449e+00   6.309021e-02
  2.243613e-01    1.973765e+00   6.323148e-02
  2.265718e-01    2.038386e+00   6.355000e-02
  2.287822e-01    2.078288e+00   6.353386e-02
  2.309927e-01    2.002490e+00   6.179639e-02
  2.332031e-01    2.146539e+00   6.343284e-02
  2.354136e-01    2.109912e+00   6.237963e-02
  2.376241e-01    2.192769e+00   6.309906e-02
  2.398345e-01    2.203540e+00   6.278573e-02
  2.420450e-01    2.132781e+00   6.132799e-02
  2.442554e-01    2.158733e+00   6.127492e-02
  2.464659e-01    2.116640e+00   6.026722e-02
  2.486763e-01    2.154067e+00   6.039806e-02
  2.508868e-01    2.164771e+00   6.016601e-02
  2.530973e-01    2.155588e+00   5.966604e-02
  2.553077e-01    2.075080e+00   5.818610e-02
  2.575182e-01    2.125706e+00   5.854319e-02
  2.597286e-01    2.064703e+00   5.736165e-02
  2.619391e-01    2.021633e+00   5.643343e-02
  2.641495e-01    2.005312e+00   5.589410e-02
  2.663600e-01    1.988037e+00   5.534676e-02
  2.685704e-01    2.066934e+00   5.612839e-02
  2.707809e-01    2.110573e+00   5.641679e-02
  2.729914e-01    1.968349e+00   5.419883e-02
  2.752018e-01    2.019209e+00   5.460887e-02
  2.774123e-01    2.024330e+00   5.439875e-02
  2.796227e-01    2.055434e+00   5.454396e-02
  2.818332e-01    2.005422e+00   5.360755e-02
  2.840436e-01    1.982869e+00   5.304686e-02
  2.862541e-01    1.884267e+00   5.146254e-02
  2.884646e-01    1.886025e+00   5.124217e-02
  2.906750e-01    1.968501e+00   5.210240e-02
  2.928855e-01    2.009374e+00   5.239661e-02
  2.950959e-01    2.000400e+00   5.203933e-02
  2.973064e-01    2.028287e+00   5.216530e-02
  2.995168e-01    1.911912e+00   5.041730e-02
  3.017273e-01    1.921894e+00   5.032589e-02
  3.039377e-01    1.895458e+00   4.975968e-02
  3.061482e-01    2.026815e+00   5.123245e-02
  3.083587e-01    1.919760e+00   4.964525e-02
  3.105691e-01    1.921888e+00   4.946057e-02
  3.127796e-01    1.947973e+00   4.958575e-02
  3.149900e-01    1.877422e+00   4.847673e-02
  3.172005e-01    1.860777e+00   4.806397e-02
  3.194109e-01    1.867030e+00   4.794592e-02
  3.216214e-01    1.948936e+00   4.878643e-02
  3.238319e-01    1.897984e+00   4.795376e-02
  3.260423e-01    1.915658e+00   4.798460e-02
  3.282528e-01    1.912581e+00   4.775519e-02
  3.304632e-01    1.820885e+00   4.641585e-02
  3.326737e-01    1.849677e+00   4.659880e-02
  3.348841e-01    1.880263e+00   4.680036e-02
  3.370946e-01    1.857035e+00   4.633537e-02
  3.393050e-01    1.907067e+00   4.677754e-02
  3.415155e-01    1.834917e+00   4.571163e-02
  3.437260e-01    1.786813e+00   4.494125e-02
  3.459364e-01    1.883898e+00   4.597534e-02
  3.481469e-01    1.819937e+00   4.502319e-02
  3.503573e-01    1.844532e+00   4.516128e-02
  3.525678e-01    1.812079e+00   4.460271e-02
  3.547782e-01    1.793590e+00   4.421419e-02
  3.569887e-01    1.830828e+00   4.451253e-02
  3.591992e-01    1.832077e+00   4.437016e-02
  3.614096e-01    1.890143e+00   4.491154e-02
  3.636201e-01    1.842010e+00   4.418023e-02
  3.658305e-01    1.781524e+00   4.330057e-02
  3.680410e-01    1.877155e+00   4.429469e-02
  3.702514e-01    1.845678e+00   4.377405e-02
  3.724619e-01    1.835065e+00   4.349937e-02
  3.746724e-01    1.816811e+00   4.313807e-02
  3.768828e-01    1.820498e+00   4.303649e-02
  3.790933e-01    1.808065e+00   4.274955e-02
  3.813037e-01    1.788361e+00   4.237685e-02
  3.835142e-01    1.796931e+00   4.233877e-02
  3.857246e-01    1.822112e+00   4.249639e-02
  3.879351e-01    1.825185e+00   4.239457e-02
  3.901455e-01    1.767805e+00   4.159000e-02
  3.923560e-01    1.833651e+00   4.222285e-02
  3.945665e-01    1.871718e+00   4.252362e-02
  3.967769e-01    1.809567e+00   4.168072e-02
  3.989874e-01    1.743957e+00   4.079036e-02
  4.011978e-01    1.784130e+00   4.113059e-02
  4.034083e-01    1.788105e+00   4.104999e-02
  4.056187e-01    1.783009e+00   4.086519e-02
  4.078292e-01    1.818390e+00   4.114375e-02
  4.100397e-01    1.812925e+00   4.095645e-02
  4.122501e-01    1.829898e+00   4.102462e-02
  4.144606e-01    1.777456e+00   4.031259e-02
  4.166710e-01    1.793174e+00   4.037005e-02
  4.188815e-01    1.806064e+00   4.039520e-02
  4.210919e-01    1.797464e+00   4.018083e-02
  4.233024e-01    1.747218e+00   3.949871e-02
  4.255128e-01    1.814203e+00   4.013239e-02
  4.277233e-01    1.811386e+00   3.998603e-02
  4.299338e-01    1.739085e+00   3.906713e-02
  4.321442e-01    1.765681e+00   3.925209e-02
  4.343547e-01    1.706896e+00   3.848401e-02
  4.365651e-01    1.781300e+00   3.920213e-02
  4.387756e-01    1.756437e+00   3.881859e-02
  4.409860e-01    1.782300e+00   3.899499e-02
  4.431965e-01    1.785824e+00   3.892560e-02
  4.454070e-01    1.809793e+00   3.907693e-02
  4.476174e-01    1.772038e+00   3.856103e-02
  4.498279e-01    1.672403e+00   3.735934e-02
  4.520383e-01    1.723380e+00   3.782036e-02
  4.542488e-01    1.720024e+00   3.768165e-02
  4.564592e-01    1.720987e+00   3.759106e-02
  4.586697e-01    1.753376e+00   3.784245e-02
  4.608801e-01    1.718217e+00   3.736078e-02
  4.630906e-01    1.693925e+00   3.699752e-02
  4.653011e-01    1.720970e+00   3.719361e-02
  4.675115e-01    1.717884e+00   3.706240e-02
  4.697220e-01    1.673998e+00   3.649015e-02
  4.719324e-01    1.687943e+00   3.654701e-02
  4.741429e-01    1.698614e+00   3.656790e-02
  4.763533e-01    1.713865e+00   3.663752e-02
  4.785638e-01    1.733346e+00   3.674999e-02
  4.807743e-01    1.712119e+00   3.643138e-02
  4.829847e-01    1.664165e+00   3.582683e-02
  4.851952e-01    1.711396e+00   3.623973e-02
  4.874056e-01    1.678322e+00   3.579737e-02
  4.896161e-01    1.733651e+00   3.629240e-02
  4.918265e-01    1.727852e+00   3.614169e-02
  4.940370e-01    1.679737e+00   3.554695e-02
  4.962475e-01    1.736844e+00   3.605687e-02
  4.984579e-01    1.702474e+00   3.561037e-02
  5.006684e-01    1.714435e+00   3.564810e-02
  5.028788e-01    1.720801e+00   3.562770e-02
  5.050893e-01    1.688399e+00   3.520483e-02
  5.072997e-01    1.679220e+00   3.502422e-02
  5.095102e-01    1.643865e+00   3.457056e-02
  5.117206e-01    1.640156e+00   3.444941e-02
  5.139311e-01    1.674243e+00   3.472317e-02
  5.161416e-01    1.717583e+00   3.508663e-02
  5.183520e-01    1.659953e+00   3.441102e-02
  5.205625e-01    1.657113e+00   3.430100e-02
  5.227729e-01    1.670189e+00   3.435577e-02
  5.249834e-01    1.671483e+00   3.428927e-02
  5.271938e-01    1.706570e+00   3.456646e-02
  5.294043e-01    1.752403e+00   3.494671e-02
  5.316148e-01    1.790755e+00   3.524615e-02
  5.338252e-01    1.754351e+00   3.480634e-02
  5.360357e-01    1.733844e+00   3.452352e-02
  5.382461e-01    1.744871e+00   3.455484e-02
  5.404566e-01    1.760213e+00   3.462745e-02
  5.426670e-01    1.752824e+00   3.447682e-02
  5.448775e-01    1.746780e+00   3.434046e-02
  5.470879e-01    1.700608e+00   3.380799e-02
  5.492984e-01    1.731212e+00   3.403497e-02
  5.515089e-01    1.801107e+00   3.463824e-02
  5.537193e-01    1.759505e+00   3.416045e-02
  5.559298e-01    1.758472e+00   3.407551e-02
  5.581402e-01    1.802915e+00   3.442802e-02
  5.603507e-01    1.789647e+00   3.422649e-02
  5.625611e-01    1.783840e+00   3.409674e-02
  5.647716e-01    1.738153e+00   3.358422e-02
  5.669821e-01    1.716721e+00   3.330455e-02
  5.691925e-01    1.789381e+00   3.392905e-02
  5.714030e-01    1.806932e+00   3.402238e-02
  5.736134e-01    1.729048e+00   3.321028e-02
  5.758239e-01    1.681137e+00   3.267703e-02
  5.780343e-01    1.704569e+00   3.283437e-02
  5.802448e-01    1.697026e+00   3.269305e-02
  5.824552e-01    1.705971e+00   3.271033e-02
  5.846657e-01    1.676869e+00   3.236253e-02
  5.868762e-01    1.686318e+00   3.238600e-02
  5.890866e-01    1.651815e+00   3.198648e-02
  5.912971e-01    1.685076e+00   3.224002e-02
  5.935075e-01    1.648188e+00   3.181930e-02
  5.957180e-01    1.646587e+00   3.173857e-02
  5.979284e-01    1.673122e+00   3.192799e-02
  6.001389e-01    1.618507e+00   3.133861e-02
  6.023494e-01    1.662519e+00   3.169733e-02
  6.045598e-01    1.715621e+00   3.213404e-02
  6.067703e-01    1.666240e+00   3.160452e-02
  6.089807e-01    1.688888e+00   3.175461e-02
  6.111912e-01    1.670121e+00   3.151463e-02
  6.134016e-01    1.654225e+00   3.130174e-02
  6.156121e-01    1.680873e+00   3.149012e-02
  6.178226e-01    1.691991e+00   3.153156e-02
  6.200330e-01    1.712145e+00   3.165622e-02
  6.222435e-01    1.709715e+00   3.157109e-02
  6.244539e-01    1.705535e+00   3.147072e-02
  6.266644e-01    1.738807e+00   3.171423e-02
  6.288748e-01    1.733713e+00   3.160611e-02
  6.310853e-01    1.726612e+00   3.148008e-02
  6.332957e-01    1.771153e+00   3.182195e-02
  6.355062e-01    1.813278e+00   3.213563e-02
  6.377167e-01    1.730720e+00   3.133533e-02
  6.399271e-01    1.686863e+00   3.087645e-02
  6.421376e-01    1.713092e+00   3.105618e-02
  6.443480e-01    1.726409e+00   3.111735e-02
  6.465585e-01    1.723299e+00   3.103043e-02
  6.487689e-01    1.693447e+00   3.070240e-02
  6.509794e-01    1.663319e+00   3.037068e-02
  6.531899e-01    1.641568e+00   3.011470e-02
  6.554003e-01    1.638507e+00   3.003005e-02
  6.576108e-01    1.626309e+00   2.986235e-02
  6.598212e-01    1.627091e+00   2.981404e-02
  6.620317e-01    1.670136e+00   3.014983e-02
  6.642421e-01    1.621004e+00   2.964811e-02
  6.664526e-01    1.639385e+00   2.976078e-02
  6.686630e-01    1.629826e+00   2.961904e-02
  6.708735e-01    1.615758e+00   2.943682e-02
  6.730840e-01    1.571496e+00   2.897790e-02
  6.752944e-01    1.583465e+00   2.903515e-02
  6.775049e-01    1.609929e+00   2.922359e-02
  6.797153e-01    1.615557e+00   2.922164e-02
  6.819258e-01    1.623298e+00   2.923872e-02
  6.841362e-01    1.646018e+00   2.938971e-02
  6.863467e-01    1.607280e+00   2.898978e-02
  6.885572e-01    1.605881e+00   2.892525e-02
  6.907676e-01    1.624833e+00   2.904328e-02
  6.929781e-01    1.601342e+00   2.878134e-02
  6.951885e-01    1.589994e+00   2.862837e-02
  6.973990e-01    1.604240e+00   2.870550e-02
  6.996094e-01    1.600598e+00   2.862245e-02
  7.018199e-01    1.586040e+00   2.844199e-02
  7.040303e-01    1.586997e+00   2.840058e-02
  7.062408e-01    1.604634e+00   2.850794e-02
  7.084513e-01    1.577277e+00   2.821472e-02
  7.106617e-01    1.570651e+00   2.810647e-02
  7.128722e-01    1.579584e+00   2.813752e-02
  7.150826e-01    1.565970e+00   2.796770e-02
  7.172931e-01    1.586412e+00   2.810114e-02
  7.195035e-01    1.565129e+00   2.786400e-02
  7.217140e-01    1.582404e+00   2.806695e-02
  7.239245e-01    1.560483e+00   2.809756e-02
  7.261349e-01    1.579151e+00   2.837390e-02
  7.283454e-01    1.599877e+00   2.863248e-02
  7.305558e-01    1.567255e+00   2.839292e-02
  7.327663e-01    1.590745e+00   2.864762e-02
  7.349767e-01    1.603263e+00   2.877663e-02
  7.371872e-01    1.618391e+00   2.890076e-02
  7.393976e-01    1.559369e+00   2.835467e-02
  7.416081e-01    1.555546e+00   2.830382e-02
  7.438186e-01    1.548641e+00   2.809780e-02
  7.460290e-01    1.581080e+00   2.809571e-02
  7.482395e-01    1.613053e+00   2.820512e-02
  7.504499e-01    1.626726e+00   2.818592e-02
  7.526604e-01    1.598480e+00   2.782271e-02
  7.548708e-01    1.590098e+00   2.765980e-02
  7.570813e-01    1.585975e+00   2.757277e-02
  7.592918e-01    1.583943e+00   2.751981e-02
  7.615022e-01    1.589211e+00   2.753159e-02
  7.637127e-01    1.586320e+00   2.747363e-02
  7.659231e-01    1.584731e+00   2.742776e-02
  7.681336e-01    1.598298e+00   2.751308e-02
  7.703440e-01    1.622310e+00   2.768729e-02
  7.725545e-01    1.622948e+00   2.766138e-02
  7.747650e-01    1.600977e+00   2.743502e-02
  7.769754e-01    1.572899e+00   2.714068e-02
  7.791859e-01    1.605412e+00   2.736576e-02
  7.813963e-01    1.600415e+00   2.727021e-02
  7.836068e-01    1.594993e+00   2.717178e-02
  7.858172e-01    1.621827e+00   2.734819e-02
  7.880277e-01    1.612523e+00   2.721776e-02
  7.902381e-01    1.585287e+00   2.693788e-02
  7.924486e-01    1.645620e+00   2.739485e-02
  7.946591e-01    1.642489e+00   2.731987e-02
  7.968695e-01    1.625587e+00   2.713029e-02
  7.990800e-01    1.651505e+00   2.729686e-02
  8.012904e-01    1.632605e+00   2.709325e-02
  8.035009e-01    1.678974e+00   2.742642e-02
  8.057113e-01    1.734253e+00   2.782606e-02
  8.079218e-01    1.756320e+00   2.795422e-02
  8.101323e-01    1.700275e+00   2.745791e-02
  8.123427e-01    1.671053e+00   2.717449e-02
  8.145532e-01    1.674773e+00   2.715820e-02
  8.167636e-01    1.681431e+00   2.716635e-02
  8.189741e-01    1.681946e+00   2.712524e-02
  8.211845e-01    1.636139e+00   2.670846e-02
  8.233950e-01    1.668216e+00   2.692514e-02
  8.256054e-01    1.657152e+00   2.679126e-02
  8.278159e-01    1.666560e+00   2.682282e-02
  8.300264e-01    1.710702e+00   2.713170e-02
  8.322368e-01    1.712066e+00   2.709845e-02
  8.344473e-01    1.700354e+00   2.696141e-02
  8.366577e-01    1.688626e+00   2.682506e-02
  8.388682e-01    1.657986e+00   2.653809e-02
  8.410786e-01    1.664413e+00   2.654707e-02
  8.432891e-01    1.766424e+00   2.730504e-02
  8.454996e-01    1.876115e+00   2.809556e-02
  8.477100e-01    1.745848e+00   2.705965e-02
  8.499205e-01    1.635981e+00   2.615320e-02
  8.521309e-01    1.617213e+00   2.596221e-02
  8.543414e-01    1.630018e+00   2.602412e-02
  8.565518e-01    1.670775e+00   2.630644e-02
  8.587623e-01    1.661947e+00   2.619602e-02
  8.609727e-01    1.597928e+00   2.564669e-02
  8.631832e-01    1.573840e+00   2.541338e-02
  8.653937e-01    1.627266e+00   2.580142e-02
  8.676041e-01    1.620677e+00   2.571029e-02
  8.698146e-01    1.672831e+00   2.608075e-02
  8.720250e-01    1.771845e+00   2.680060e-02
  8.742355e-01    1.708437e+00   2.627669e-02
  8.764459e-01    1.604347e+00   2.542475e-02
  8.786564e-01    1.593176e+00   2.529830e-02
  8.808669e-01    1.600933e+00   2.532136e-02
  8.830773e-01    1.610007e+00   2.535478e-02
  8.852878e-01    1.638518e+00   2.553997e-02
  8.874982e-01    1.658661e+00   2.565916e-02
  8.897087e-01    1.659805e+00   2.562966e-02
  8.919191e-01    1.649467e+00   2.551138e-02
  8.941296e-01    1.668682e+00   2.562146e-02
  8.963401e-01    1.624217e+00   2.524113e-02
  8.985505e-01    1.601639e+00   2.502806e-02
  9.007610e-01    1.615829e+00   2.510178e-02
  9.029714e-01    1.640290e+00   2.525477e-02
  9.051819e-01    1.619454e+00   2.505642e-02
  9.073923e-01    1.596884e+00   2.484466e-02
  9.096028e-01    1.571504e+00   2.461184e-02
  9.118132e-01    1.583124e+00   2.466662e-02
  9.140237e-01    1.597564e+00   2.474228e-02
  9.162342e-01    1.600351e+00   2.472928e-02
  9.184446e-01    1.600237e+00   2.469265e-02
  9.206551e-01    1.556070e+00   2.431441e-02
  9.228655e-01    1.572292e+00   2.440586e-02
  9.250760e-01    1.618619e+00   2.472727e-02
  9.272864e-01    1.609289e+00   2.462159e-02
  9.294969e-01    1.585126e+00   2.440042e-02
  9.317074e-01    1.613520e+00   2.458320e-02
  9.339178e-01    1.624388e+00   2.463217e-02
  9.361283e-01    1.622409e+00   2.458086e-02
  9.383387e-01    1.655361e+00   2.479547e-02
  9.405492e-01    1.659914e+00   2.479487e-02
  9.427596e-01    1.667237e+00   2.481373e-02
  9.449701e-01    1.658072e+00   2.471181e-02
  9.471805e-01    1.684308e+00   2.487127e-02
  9.493910e-01    1.675782e+00   2.477421e-02
  9.516015e-01    1.669589e+00   2.469385e-02
  9.538119e-01    1.677306e+00   2.471695e-02
  9.560224e-01    1.686411e+00   2.474904e-02
  9.582328e-01    1.716461e+00   2.493508e-02
  9.604433e-01    1.758051e+00   2.519962e-02
  9.626537e-01    1.761973e+00   2.519382e-02
  9.648642e-01    1.764941e+00   2.518046e-02
  9.670747e-01    1.781481e+00   2.526330e-02
  9.692851e-01    1.806396e+00   2.540553e-02
  9.714956e-01    1.805655e+00   2.536451e-02
  9.737060e-01    1.801211e+00   2.530001e-02
  9.759165e-01    1.807950e+00   2.531154e-02
  9.781269e-01    1.837105e+00   2.548143e-02
  9.803374e-01    1.824960e+00   2.536195e-02
  9.825478e-01    1.814035e+00   2.525256e-02
  9.847583e-01    1.821192e+00   2.526797e-02
  9.869688e-01    1.801149e+00   2.509491e-02
  9.891792e-01    1.777691e+00   2.489782e-02
  9.913897e-01    1.770447e+00   2.481351e-02
  9.936001e-01    1.741775e+00   2.457955e-02
  9.958106e-01    1.705178e+00   2.428690e-02
  9.980210e-01    1.651917e+00   2.387356e-02
  1.000231e+00    1.670052e+00   2.413574e-02
  1.002442e+00    1.667710e+00   2.424696e-02
  1.004652e+00    1.649062e+00   2.417830e-02
  1.006863e+00    1.606789e+00   2.391589e-02
  1.009073e+00    1.630650e+00   2.412969e-02
  1.011284e+00    1.607451e+00   2.398948e-02
  1.013494e+00    1.544829e+00   2.354088e-02
  1.015705e+00    1.522437e+00   2.339170e-02
  1.017915e+00    1.557367e+00   2.367483e-02
  1.020126e+00    1.560256e+00   2.371280e-02
  1.022336e+00    1.580060e+00   2.387458e-02
  1.024547e+00    1.548032e+00   2.364260e-02
  1.026757e+00    1.523673e+00   2.346412e-02
  1.028967e+00    1.550974e+00   2.368112e-02
  1.031178e+00    1.503741e+00   2.332383e-02
  1.033388e+00    1.489127e+00   2.321521e-02
  1.035599e+00    1.488416e+00   2.321305e-02
  1.037809e+00    1.471224e+00   2.308178e-02
  1.040020e+00    1.483798e+00   2.318148e-02
  1.042230e+00    1.481935e+00   2.316883e-02
  1.044441e+00    1.489366e+00   2.322663e-02
  1.046651e+00    1.479042e+00   2.314616e-02
  1.048862e+00    1.467522e+00   2.305506e-02
  1.051072e+00    1.484436e+00   2.318518e-02
  1.053282e+00    1.464384e+00   2.302714e-02
  1.055493e+00    1.460645e+00   2.299345e-02
  1.057703e+00    1.479363e+00   2.313881e-02
  1.059914e+00    1.455152e+00   2.294449e-02
  1.062124e+00    1.462894e+00   2.300139e-02
  1.064335e+00    1.483165e+00   2.315680e-02
  1.066545e+00    1.438387e+00   2.279864e-02
  1.068756e+00    1.461376e+00   2.297639e-02
  1.070966e+00    1.478947e+00   2.310757e-02
  1.073177e+00    1.463093e+00   2.297735e-02
  1.075387e+00    1.460373e+00   2.295076e-02
  1.077597e+00    1.440667e+00   2.278823e-02
  1.079808e+00    1.422684e+00   2.251469e-02
  1.082018e+00    1.428520e+00   2.237399e-02
  1.084229e+00    1.414224e+00   2.215346e-02
  1.086439e+00    1.417032e+00   2.208916e-02
  1.088650e+00    1.447115e+00   2.224691e-02
  1.090860e+00    1.433720e+00   2.207659e-02
  1.093071e+00    1.416287e+00   2.188050e-02
  1.095281e+00    1.438085e+00   2.199115e-02
  1.097492e+00    1.432917e+00   2.189693e-02
  1.099702e+00    1.432603e+00   2.184326e-02
  1.101912e+00    1.429561e+00   2.177139e-02
  1.104123e+00    1.435048e+00   2.176492e-02
  1.106333e+00    1.399185e+00   2.144736e-02
  1.108544e+00    1.430055e+00   2.163836e-02
  1.110754e+00    1.441109e+00   2.167862e-02
  1.112965e+00    1.437009e+00   2.160701e-02
  1.115175e+00    1.405580e+00   2.132845e-02
  1.117386e+00    1.381270e+00   2.110441e-02
  1.119596e+00    1.405662e+00   2.125213e-02
  1.121807e+00    1.534665e+00   2.216539e-02
  1.124017e+00    1.571322e+00   2.238991e-02
  1.126228e+00    1.483750e+00   2.172030e-02
  1.128438e+00    1.421965e+00   2.122622e-02
  1.130648e+00    1.409407e+00   2.109781e-02
  1.132859e+00    1.593176e+00   2.239434e-02
  1.135069e+00    1.896135e+00   2.439051e-02
  1.137280e+00    1.916428e+00   2.448205e-02
  1.139490e+00    1.674414e+00   2.284774e-02
  1.141701e+00    1.521881e+00   2.174746e-02
  1.143911e+00    1.488388e+00   2.147375e-02
  1.146122e+00    1.460537e+00   2.123899e-02
  1.148332e+00    1.415186e+00   2.087434e-02
  1.150543e+00    1.387876e+00   2.064100e-02
  1.152753e+00    1.367471e+00   2.045795e-02
  1.154963e+00    1.369760e+00   2.044407e-02
  1.157174e+00    1.376139e+00   2.046142e-02
  1.159384e+00    1.358480e+00   2.030003e-02
  1.161595e+00    1.373173e+00   2.037960e-02
  1.163805e+00    1.422932e+00   2.071572e-02
  1.166016e+00    1.458338e+00   2.094150e-02
  1.168226e+00    1.519893e+00   2.134832e-02
  1.170437e+00    1.653302e+00   2.223405e-02
  1.172647e+00    1.678927e+00   2.237373e-02
  1.174858e+00    1.525579e+00   2.129780e-02
  1.177068e+00    1.433615e+00   2.061689e-02
  1.179278e+00    1.384306e+00   2.023041e-02
  1.181489e+00    1.357525e+00   2.000675e-02
  1.183699e+00    1.374082e+00   2.010068e-02
  1.185910e+00    1.354279e+00   1.992755e-02
  1.188120e+00    1.384936e+00   2.012489e-02
  1.190331e+00    1.387139e+00   2.011380e-02
  1.192541e+00    1.390183e+00   2.010814e-02
  1.194752e+00    1.356928e+00   1.983909e-02
  1.196962e+00    1.356901e+00   1.981309e-02
  1.199173e+00    1.375920e+00   1.992470e-02
  1.201383e+00    1.379778e+00   1.992517e-02
  1.203593e+00    1.368594e+00   1.981927e-02
  1.205804e+00    1.368224e+00   1.979049e-02
  1.208014e+00    1.355491e+00   1.967128e-02
  1.210225e+00    1.348635e+00   1.959616e-02
  1.212435e+00    1.318385e+00   1.935064e-02
  1.214646e+00    1.353000e+00   1.957688e-02
  1.216856e+00    1.359125e+00   1.959559e-02
  1.219067e+00    1.368230e+00   1.963648e-02
  1.221277e+00    1.340670e+00   1.941279e-02
  1.223488e+00    1.346447e+00   1.942883e-02
  1.225698e+00    1.369465e+00   1.956712e-02
  1.227909e+00    1.343781e+00   1.935266e-02
  1.230119e+00    1.344719e+00   1.932763e-02
  1.232329e+00    1.341134e+00   1.927122e-02
  1.234540e+00    1.339869e+00   1.923196e-02
  1.236750e+00    1.350309e+00   1.927646e-02
  1.238961e+00    1.355615e+00   1.928729e-02
  1.241171e+00    1.350302e+00   1.922526e-02
  1.243382e+00    1.352948e+00   1.922055e-02
  1.245592e+00    1.352898e+00   1.919607e-02
  1.247803e+00    1.339895e+00   1.908003e-02
  1.250013e+00    1.344931e+00   1.909236e-02
  1.252224e+00    1.352736e+00   1.912439e-02
  1.254434e+00    1.355225e+00   1.911821e-02
  1.256644e+00    1.353182e+00   1.908054e-02
  1.258855e+00    1.344603e+00   1.899676e-02
  1.261065e+00    1.331534e+00   1.888099e-02
  1.263276e+00    1.335899e+00   1.888910e-02
  1.265486e+00    1.329254e+00   1.881935e-02
  1.267697e+00    1.338754e+00   1.886357e-02
  1.269907e+00    1.344490e+00   1.888128e-02
  1.272118e+00    1.337591e+00   1.881031e-02
  1.274328e+00    1.365237e+00   1.898084e-02
  1.276539e+00    1.347044e+00   1.883119e-02
  1.278749e+00    1.369319e+00   1.896380e-02
  1.280959e+00    1.360141e+00   1.887753e-02
  1.283170e+00    1.342053e+00   1.872922e-02
  1.285380e+00    1.331146e+00   1.863066e-02
  1.287591e+00    1.343285e+00   1.869343e-02
  1.289801e+00    1.325679e+00   1.854950e-02
  1.292012e+00    1.332055e+00   1.857706e-02
  1.294222e+00    1.347662e+00   1.866936e-02
  1.296433e+00    1.360777e+00   1.874431e-02
  1.298643e+00    1.369439e+00   1.878729e-02
  1.300854e+00    1.355985e+00   1.867833e-02
  1.303064e+00    1.352175e+00   1.863282e-02
  1.305274e+00    1.367623e+00   1.871737e-02
  1.307485e+00    1.366128e+00   1.868548e-02
  1.309695e+00    1.366397e+00   1.866494e-02
  1.311906e+00    1.373052e+00   1.868845e-02
  1.314116e+00    1.370404e+00   1.864947e-02
  1.316327e+00    1.383703e+00   1.871778e-02
  1.318537e+00    1.364818e+00   1.856762e-02
  1.320748e+00    1.342113e+00   1.839103e-02
  1.322958e+00    1.364553e+00   1.852351e-02
  1.325169e+00    1.354794e+00   1.843609e-02
  1.327379e+00    1.384610e+00   1.861576e-02
  1.329589e+00    1.386240e+00   1.860538e-02
  1.331800e+00    1.370703e+00   1.847996e-02
  1.334010e+00    1.374595e+00   1.848534e-02
  1.336221e+00    1.374851e+00   1.846512e-02
  1.338431e+00    1.353104e+00   1.829761e-02
  1.340642e+00    1.325322e+00   1.817235e-02
  1.342852e+00    1.353749e+00   1.846702e-02
  1.345063e+00    1.369708e+00   1.862540e-02
  1.347273e+00    1.316774e+00   1.829678e-02
  1.349484e+00    1.343940e+00   1.851214e-02
  1.351694e+00    1.351472e+00   1.858668e-02
  1.353905e+00    1.345548e+00   1.856386e-02
  1.356115e+00    1.345524e+00   1.857872e-02
  1.358325e+00    1.333330e+00   1.850756e-02
  1.360536e+00    1.343785e+00   1.859160e-02
  1.362746e+00    1.346807e+00   1.862203e-02
  1.364957e+00    1.364811e+00   1.875379e-02
  1.367167e+00    1.336879e+00   1.856805e-02
  1.369378e+00    1.295861e+00   1.828686e-02
  1.371588e+00    1.298845e+00   1.831296e-02
  1.373799e+00    1.306867e+00   1.837303e-02
  1.376009e+00    1.306865e+00   1.837640e-02
  1.378220e+00    1.306159e+00   1.837392e-02
  1.380430e+00    1.296298e+00   1.830710e-02
  1.382640e+00    1.290082e+00   1.826405e-02
  1.384851e+00    1.301369e+00   1.834464e-02
  1.387061e+00    1.277943e+00   1.817909e-02
  1.389272e+00    1.300273e+00   1.833740e-02
  1.391482e+00    1.308405e+00   1.839399e-02
  1.393693e+00    1.292815e+00   1.828323e-02
  1.395903e+00    1.273360e+00   1.814362e-02
  1.398114e+00    1.279699e+00   1.818736e-02
  1.400324e+00    1.268694e+00   1.810686e-02
  1.402535e+00    1.246325e+00   1.794424e-02
  1.404745e+00    1.258652e+00   1.803040e-02
  1.406955e+00    1.295195e+00   1.828756e-02
  1.409166e+00    1.286853e+00   1.822526e-02
  1.411376e+00    1.276046e+00   1.814543e-02
  1.413587e+00    1.273029e+00   1.812017e-02
  1.415797e+00    1.246768e+00   1.792879e-02
  1.418008e+00    1.262852e+00   1.800229e-02
  1.420218e+00    1.277928e+00   1.795925e-02
  1.422429e+00    1.257454e+00   1.772990e-02
  1.424639e+00    1.288614e+00   1.788306e-02
  1.426850e+00    1.291295e+00   1.784652e-02
  1.429060e+00    1.265498e+00   1.761845e-02
  1.431270e+00    1.291782e+00   1.775577e-02
  1.433481e+00    1.298558e+00   1.776088e-02
  1.435691e+00    1.283068e+00   1.761602e-02
  1.437902e+00    1.257738e+00   1.740496e-02
  1.440112e+00    1.281194e+00   1.753101e-02
  1.442323e+00    1.268761e+00   1.741271e-02
  1.444533e+00    1.296159e+00   1.756683e-02
  1.446744e+00    1.298667e+00   1.755236e-02
  1.448954e+00    1.263955e+00   1.728606e-02
  1.451165e+00    1.269215e+00   1.729224e-02
  1.453375e+00    1.281639e+00   1.734848e-02
  1.455586e+00    1.267885e+00   1.722703e-02
  1.457796e+00    1.249106e+00   1.707167e-02
  1.460006e+00    1.262994e+00   1.713915e-02
  1.462217e+00    1.279612e+00   1.722521e-02
  1.464427e+00    1.244595e+00   1.696253e-02
  1.466638e+00    1.283908e+00   1.720287e-02
  1.468848e+00    1.256987e+00   1.699637e-02
  1.471059e+00    1.236158e+00   1.683019e-02
  1.473269e+00    1.283215e+00   1.712300e-02
  1.475480e+00    1.293517e+00   1.716763e-02
  1.477690e+00    1.269691e+00   1.698493e-02
  1.479901e+00    1.250239e+00   1.683065e-02
  1.482111e+00    1.270636e+00   1.694403e-02
  1.484321e+00    1.290828e+00   1.705478e-02
  1.486532e+00    1.314822e+00   1.718982e-02
  1.488742e+00    1.305389e+00   1.710505e-02
  1.490953e+00    1.266947e+00   1.682868e-02
  1.493163e+00    1.271170e+00   1.683433e-02
  1.495374e+00    1.285187e+00   1.690523e-02
  1.497584e+00    1.245489e+00   1.662058e-02
  1.499795e+00    1.268201e+00   1.674971e-02
  1.502005e+00    1.264430e+00   1.670307e-02
  1.504216e+00    1.287993e+00   1.683670e-02
  1.506426e+00    1.291053e+00   1.683561e-02
  1.508636e+00    1.288774e+00   1.680006e-02
  1.510847e+00    1.281070e+00   1.672773e-02
  1.513057e+00    1.249243e+00   1.649361e-02
  1.515268e+00    1.241916e+00   1.641958e-02
  1.517478e+00    1.243685e+00   1.640623e-02
  1.519689e+00    1.249343e+00   1.641859e-02
  1.521899e+00    1.249662e+00   1.639761e-02
  1.524110e+00    1.263391e+00   1.646702e-02
  1.526320e+00    1.281695e+00   1.656605e-02
  1.528531e+00    1.303608e+00   1.668690e-02
  1.530741e+00    1.268214e+00   1.643955e-02
  1.532951e+00    1.274600e+00   1.646108e-02
  1.535162e+00    1.262681e+00   1.647099e-02
  1.537372e+00    1.266482e+00   1.656314e-02
  1.539583e+00    1.253992e+00   1.651558e-02
  1.541793e+00    1.238008e+00   1.641691e-02
  1.544004e+00    1.227048e+00   1.634432e-02
  1.546214e+00    1.206058e+00   1.620245e-02
  1.548425e+00    1.203681e+00   1.618671e-02
  1.550635e+00    1.224336e+00   1.633462e-02
  1.552846e+00    1.232936e+00   1.640148e-02
  1.555056e+00    1.250907e+00   1.647901e-02
  1.557266e+00    1.227836e+00   1.621664e-02
  1.559477e+00    1.240392e+00   1.624030e-02
  1.561687e+00    1.268133e+00   1.638995e-02
  1.563898e+00    1.244203e+00   1.621743e-02
  1.566108e+00    1.222700e+00   1.606086e-02
  1.568319e+00    1.230676e+00   1.609761e-02
  1.570529e+00    1.238339e+00   1.612258e-02
  1.572740e+00    1.252978e+00   1.618990e-02
  1.574950e+00    1.246298e+00   1.612034e-02
  1.577161e+00    1.280786e+00   1.631602e-02
  1.579371e+00    1.247361e+00   1.607803e-02
  1.581582e+00    1.234412e+00   1.597467e-02
  1.583792e+00    1.233819e+00   1.595286e-02
  1.586002e+00    1.246364e+00   1.601614e-02
  1.588213e+00    1.233969e+00   1.591914e-02
  1.590423e+00    1.232080e+00   1.588696e-02
  1.592634e+00    1.249077e+00   1.597451e-02
  1.594844e+00    1.238057e+00   1.588254e-02
  1.597055e+00    1.222112e+00   1.575959e-02
  1.599265e+00    1.243510e+00   1.587624e-02
  1.601476e+00    1.226860e+00   1.574938e-02
  1.603686e+00    1.253379e+00   1.589884e-02
  1.605897e+00    1.227648e+00   1.571472e-02
  1.608107e+00    1.243628e+00   1.579705e-02
  1.610317e+00    1.248917e+00   1.581123e-02
  1.612528e+00    1.210168e+00   1.554503e-02
  1.614738e+00    1.185323e+00   1.536603e-02
  1.616949e+00    1.190759e+00   1.538252e-02
  1.619159e+00    1.228224e+00   1.560388e-02
  1.621370e+00    1.233008e+00   1.561568e-02
  1.623580e+00    1.209721e+00   1.544922e-02
  1.625791e+00    1.182889e+00   1.525887e-02
  1.628001e+00    1.181163e+00   1.522961e-02
  1.630212e+00    1.187452e+00   1.525242e-02
  1.632422e+00    1.173919e+00   1.514742e-02
  1.634632e+00    1.159567e+00   1.503743e-02
  1.636843e+00    1.154169e+00   1.498500e-02
  1.639053e+00    1.151214e+00   1.494869e-02
  1.641264e+00    1.153928e+00   1.494931e-02
  1.643474e+00    1.152058e+00   1.491990e-02
  1.645685e+00    1.143485e+00   1.484771e-02
  1.647895e+00    1.138775e+00   1.480062e-02
  1.650106e+00    1.122041e+00   1.467471e-02
  1.652316e+00    1.096041e+00   1.448758e-02
  1.654527e+00    1.124276e+00   1.465644e-02
  1.656737e+00    1.121843e+00   1.462414e-02
  1.658947e+00    1.102486e+00   1.448134e-02
  1.661158e+00    1.118283e+00   1.456853e-02
  1.663368e+00    1.107221e+00   1.448038e-02
  1.665579e+00    1.099701e+00   1.441511e-02
  1.667789e+00    1.087832e+00   1.432110e-02
  1.670000e+00    1.108016e+00   1.443787e-02
  1.672210e+00    1.093069e+00   1.432440e-02
  1.674421e+00    1.081229e+00   1.423146e-02
  1.676631e+00    1.074901e+00   1.417406e-02
  1.678842e+00    1.070005e+00   1.412619e-02
  1.681052e+00    1.074878e+00   1.414305e-02
  1.683263e+00    1.067816e+00   1.408155e-02
  1.685473e+00    1.059940e+00   1.401453e-02
  1.687683e+00    1.085587e+00   1.416765e-02
  1.689894e+00    1.040721e+00   1.385631e-02
  1.692104e+00    1.047805e+00   1.388867e-02
  1.694315e+00    1.045373e+00   1.385821e-02
  1.696525e+00    1.046435e+00   1.385028e-02
  1.698736e+00    1.048134e+00   1.384679e-02
  1.700946e+00    1.070669e+00   1.397968e-02
  1.703157e+00    1.036962e+00   1.374335e-02
  1.705367e+00    1.038243e+00   1.373744e-02
  1.707578e+00    1.017261e+00   1.358358e-02
  1.709788e+00    1.016339e+00   1.356348e-02
  1.711998e+00    1.016626e+00   1.355059e-02
  1.714209e+00    9.938281e-01   1.338367e-02
  1.716419e+00    1.025338e+00   1.357995e-02
  1.718630e+00    1.027683e+00   1.358127e-02
  1.720840e+00    1.009714e+00   1.344795e-02
  1.723051e+00    9.943132e-01   1.333134e-02
  1.725261e+00    9.788347e-01   1.321279e-02
  1.727472e+00    1.000105e+00   1.334153e-02
  1.729682e+00    9.803631e-01   1.319597e-02
  1.731893e+00    9.836066e-01   1.320407e-02
  1.734103e+00    9.860351e-01   1.320672e-02
  1.736313e+00    9.922367e-01   1.323427e-02
  1.738524e+00    9.968833e-01   1.325143e-02
  1.740734e+00    9.878628e-01   1.317772e-02
  1.742945e+00    9.972385e-01   1.322664e-02
  1.745155e+00    9.888041e-01   1.315719e-02
  1.747366e+00    9.745936e-01   1.304857e-02
  1.749576e+00    9.859942e-01   1.311100e-02
  1.751787e+00    9.885919e-01   1.311487e-02
  1.753997e+00    9.915584e-01   1.312108e-02
  1.756208e+00    9.586912e-01   1.288871e-02
  1.758418e+00    9.480012e-01   1.280367e-02
  1.760628e+00    9.563617e-01   1.284676e-02
  1.762839e+00    9.439220e-01   1.274985e-02
  1.765049e+00    9.741769e-01   1.293937e-02
  1.767260e+00    9.502052e-01   1.276645e-02
  1.769470e+00    9.417619e-01   1.269670e-02
  1.771681e+00    9.310780e-01   1.261147e-02
  1.773891e+00    9.463847e-01   1.270169e-02
  1.776102e+00    9.583968e-01   1.276910e-02
  1.778312e+00    9.547578e-01   1.273205e-02
  1.780523e+00    9.420237e-01   1.263412e-02
  1.782733e+00    9.515753e-01   1.268523e-02
  1.784944e+00    9.691845e-01   1.278894e-02
  1.787154e+00    9.479519e-01   1.263547e-02
  1.789364e+00    9.551234e-01   1.267051e-02
  1.791575e+00    9.293326e-01   1.248574e-02
  1.793785e+00    9.037792e-01   1.230059e-02
  1.795996e+00    9.327689e-01   1.248371e-02
  1.798206e+00    9.118831e-01   1.233071e-02
  1.800417e+00    8.814481e-01   1.211073e-02
  1.802627e+00    8.816375e-01   1.210031e-02
  1.804838e+00    9.264023e-01   1.239149e-02
  1.807048e+00    9.468208e-01   1.251420e-02
  1.809259e+00    9.689316e-01   1.264544e-02
  1.811469e+00    9.341856e-01   1.240145e-02
  1.813679e+00    8.970907e-01   1.213777e-02
  1.815890e+00    8.847952e-01   1.203968e-02
  1.818100e+00    8.973891e-01   1.210992e-02
  1.820311e+00    9.010366e-01   1.211971e-02
  1.822521e+00    9.058549e-01   1.213709e-02
  1.824732e+00    8.761924e-01   1.192201e-02
  1.826942e+00    8.602793e-01   1.180112e-02
  1.829153e+00    8.574008e-01   1.176984e-02
  1.831363e+00    8.705216e-01   1.184761e-02
  1.833574e+00    8.944397e-01   1.199750e-02
  1.835784e+00    8.888544e-01   1.194851e-02
  1.837994e+00    8.774292e-01   1.185975e-02
  1.840205e+00    8.839235e-01   1.189233e-02
  1.842415e+00    8.747888e-01   1.181894e-02
  1.844626e+00    8.745751e-01   1.180590e-02
  1.846836e+00    8.907149e-01   1.190276e-02
  1.849047e+00    9.039118e-01   1.197876e-02
  1.851257e+00    8.817306e-01   1.182121e-02
  1.853468e+00    8.666540e-01   1.171088e-02
  1.855678e+00    8.536007e-01   1.161351e-02
  1.857889e+00    8.534439e-01   1.160397e-02
  1.860099e+00    8.426661e-01   1.152190e-02
  1.862309e+00    8.472463e-01   1.154471e-02
  1.864520e+00    8.626443e-01   1.164053e-02
  1.866730e+00    8.540388e-01   1.157296e-02
  1.868941e+00    8.375226e-01   1.144965e-02
  1.871151e+00    8.513772e-01   1.153257e-02
  1.873362e+00    8.392572e-01   1.143893e-02
  1.875572e+00    8.412119e-01   1.144135e-02
  1.877783e+00    8.378715e-01   1.140726e-02
  1.879993e+00    8.229290e-01   1.129408e-02
  1.882204e+00    8.342014e-01   1.136034e-02
  1.884414e+00    8.307706e-01   1.132598e-02
  1.886624e+00    8.377006e-01   1.136206e-02
  1.888835e+00    8.551264e-01   1.146860e-02
  1.891045e+00    8.463817e-01   1.139887e-02
  1.893256e+00    8.316454e-01   1.128816e-02
  1.895466e+00    8.331966e-01   1.128754e-02
  1.897677e+00    8.345116e-01   1.128553e-02
  1.899887e+00    8.516667e-01   1.138983e-02
  1.902098e+00    8.557169e-01   1.140590e-02
  1.904308e+00    8.408062e-01   1.129543e-02
  1.906519e+00    8.469316e-01   1.132556e-02
  1.908729e+00    8.401297e-01   1.126932e-02
  1.910940e+00    8.317305e-01   1.120168e-02
  1.913150e+00    8.300250e-01   1.117957e-02
  1.915360e+00    8.374858e-01   1.121901e-02
  1.917571e+00    8.302214e-01   1.115932e-02
  1.919781e+00    8.280256e-01   1.113383e-02
  1.921992e+00    8.155856e-01   1.103929e-02
  1.924202e+00    8.085899e-01   1.098112e-02
  1.926413e+00    8.102469e-01   1.098212e-02
  1.928623e+00    8.121513e-01   1.098447e-02
  1.930834e+00    8.261204e-01   1.106802e-02
  1.933044e+00    8.722217e-01   1.136160e-02
  1.935255e+00    8.446492e-01   1.117005e-02
  1.937465e+00    8.118829e-01   1.094083e-02
  1.939675e+00    7.903395e-01   1.078396e-02
  1.941886e+00    8.003944e-01   1.084206e-02
  1.944096e+00    8.157620e-01   1.093541e-02
  1.946307e+00    8.069632e-01   1.086589e-02
  1.948517e+00    8.010999e-01   1.081590e-02
  1.950728e+00    8.165217e-01   1.090914e-02
  1.952938e+00    8.233254e-01   1.094425e-02
  1.955149e+00    8.129293e-01   1.086461e-02
  1.957359e+00    8.074591e-01   1.081786e-02
  1.959570e+00    7.947869e-01   1.072179e-02
  1.961780e+00    7.887034e-01   1.067077e-02
  1.963990e+00    7.930644e-01   1.069011e-02
  1.966201e+00    8.037052e-01   1.075144e-02
  1.968411e+00    8.168777e-01   1.082885e-02
  1.970622e+00    8.118927e-01   1.078555e-02
  1.972832e+00    7.689551e-01   1.048660e-02
  1.975043e+00    7.755358e-01   1.052140e-02
  1.977253e+00    7.727242e-01   1.049244e-02
  1.979464e+00    7.854057e-01   1.056813e-02
  1.981674e+00    8.002784e-01   1.065736e-02
  1.983885e+00    7.910249e-01   1.058549e-02
  1.986095e+00    7.914100e-01   1.057829e-02
  1.988305e+00    7.789799e-01   1.048500e-02
  1.990516e+00    7.772573e-01   1.046349e-02
  1.992726e+00    7.803041e-01   1.047428e-02
  1.994937e+00    8.037981e-01   1.062050e-02
  1.997147e+00    7.727194e-01   1.040348e-02
  1.999358e+00    7.311327e-01   1.011006e-02
  2.001568e+00    7.479097e-01   1.021475e-02
  2.003779e+00    7.583907e-01   1.027429e-02
  2.005989e+00    7.567129e-01   1.025100e-02
  2.008200e+00    7.699342e-01   1.032864e-02
  2.010410e+00    7.750239e-01   1.035095e-02
  2.012621e+00    7.506297e-01   1.017518e-02
  2.014831e+00    7.506505e-01   1.016395e-02
  2.017041e+00    7.689868e-01   1.027695e-02
  2.019252e+00    7.725062e-01   1.029045e-02
  2.021462e+00    7.454032e-01   1.009894e-02
  2.023673e+00    7.552321e-01   1.015594e-02
  2.025883e+00    7.846228e-01   1.034203e-02
  2.028094e+00    7.646850e-01   1.020016e-02
  2.030304e+00    7.669145e-01   1.020542e-02
  2.032515e+00    7.501447e-01   1.008401e-02
  2.034725e+00    7.546244e-01   1.010464e-02
  2.036936e+00    7.696164e-01   1.019512e-02
  2.039146e+00    7.635646e-01   1.014536e-02
  2.041356e+00    7.570806e-01   1.009253e-02
  2.043567e+00    7.544882e-01   1.006595e-02
  2.045777e+00    7.436965e-01   9.984503e-03
  2.047988e+00    7.773948e-01   1.019870e-02
  2.050198e+00    7.599677e-01   1.007530e-02
  2.052409e+00    7.487286e-01   9.992862e-03
  2.054619e+00    7.425535e-01   9.944255e-03
  2.056830e+00    7.365301e-01   9.896718e-03
  2.059040e+00    7.462472e-01   9.954311e-03
  2.061251e+00    7.384966e-01   9.895288e-03
  2.063461e+00    7.348008e-01   9.862971e-03
  2.065671e+00    7.553568e-01   9.991211e-03
  2.067882e+00    7.378221e-01   9.865653e-03
  2.070092e+00    7.285976e-01   9.794688e-03
  2.072303e+00    7.526411e-01   9.945796e-03
  2.074513e+00    7.545371e-01   9.948955e-03
  2.076724e+00    7.497141e-01   9.907624e-03
  2.078934e+00    7.536098e-01   9.924244e-03
  2.081145e+00    7.348332e-01   9.790823e-03
  2.083355e+00    7.285562e-01   9.739798e-03
  2.085566e+00    7.300211e-01   9.740766e-03
  2.087776e+00    7.118813e-01   9.609643e-03
  2.089986e+00    7.217917e-01   9.667610e-03
  2.092197e+00    7.117347e-01   9.591242e-03
  2.094407e+00    7.215568e-01   9.648029e-03
  2.096618e+00    7.440454e-01   9.788288e-03
  2.098828e+00    7.430815e-01   9.772593e-03
  2.101039e+00    7.354186e-01   9.713072e-03
  2.103249e+00    7.362328e-01   9.709757e-03
  2.105460e+00    7.133096e-01   9.548482e-03
  2.107670e+00    7.205209e-01   9.587947e-03
  2.109881e+00    7.225040e-01   9.591978e-03
  2.112091e+00    7.316562e-01   9.643534e-03
  2.114301e+00    7.317340e-01   9.635218e-03
  2.116512e+00    7.149504e-01   9.515340e-03
  2.118722e+00    7.030314e-01   9.426978e-03
  2.120933e+00    7.045247e-01   9.428218e-03
  2.123143e+00    7.004603e-01   9.392181e-03
  2.125354e+00    7.261925e-01   9.554577e-03
  2.127564e+00    7.060856e-01   9.412710e-03
  2.129775e+00    7.025101e-01   9.380188e-03
  2.131985e+00    7.080660e-01   9.408194e-03
  2.134196e+00    7.156971e-01   9.450153e-03
  2.136406e+00    7.100622e-01   9.404156e-03
  2.138617e+00    7.059579e-01   9.368499e-03
  2.140827e+00    6.980075e-01   9.331535e-03
  2.143037e+00    7.009685e-01   9.396587e-03
  2.145248e+00    7.087969e-01   9.470953e-03
  2.147458e+00    7.020941e-01   9.441188e-03
  2.149669e+00    6.859708e-01   9.343857e-03
  2.151879e+00    7.037963e-01   9.473709e-03
  2.154090e+00    6.972533e-01   9.436872e-03
  2.156300e+00    6.946843e-01   9.426042e-03
  2.158511e+00    7.026477e-01   9.485225e-03
  2.160721e+00    6.978124e-01   9.457366e-03
  2.162932e+00    6.817780e-01   9.351766e-03
  2.165142e+00    6.828595e-01   9.362164e-03
  2.167352e+00    6.816370e-01   9.356668e-03
  2.169563e+00    6.772376e-01   9.328346e-03
  2.171773e+00    7.020873e-01   9.500403e-03
  2.173984e+00    6.965441e-01   9.464251e-03
  2.176194e+00    6.903397e-01   9.423211e-03
  2.178405e+00    6.858206e-01   9.392998e-03
  2.180615e+00    6.783948e-01   9.342689e-03
  2.182826e+00    6.790551e-01   9.347892e-03
  2.185036e+00    7.011192e-01   9.498614e-03
  2.187247e+00    6.860771e-01   9.396118e-03
  2.189457e+00    6.807611e-01   9.359241e-03
  2.191667e+00    6.703680e-01   9.287347e-03
  2.193878e+00    6.714900e-01   9.294544e-03
  2.196088e+00    6.898986e-01   9.420409e-03
  2.198299e+00    6.849763e-01   9.385643e-03
  2.200509e+00    6.928760e-01   9.438567e-03
  2.202720e+00    6.805395e-01   9.352997e-03
  2.204930e+00    6.816486e-01   9.359379e-03
  2.207141e+00    6.817030e-01   9.358632e-03
  2.209351e+00    6.884458e-01   9.402918e-03
  2.211562e+00    6.790298e-01   9.336761e-03
  2.213772e+00    6.784545e-01   9.277271e-03
  2.215982e+00    6.640985e-01   9.134763e-03
  2.218193e+00    6.761923e-01   9.187922e-03
  2.220403e+00    6.709571e-01   9.127761e-03
  2.222614e+00    6.805401e-01   9.171672e-03
  2.224824e+00    6.653214e-01   9.049277e-03
  2.227035e+00    6.688436e-01   9.055796e-03
  2.229245e+00    6.819299e-01   9.126864e-03
  2.231456e+00    6.761827e-01   9.072661e-03
  2.233666e+00    6.859679e-01   9.122785e-03
  2.235877e+00    6.937101e-01   9.159636e-03
  2.238087e+00    6.887240e-01   9.112978e-03
  2.240298e+00    6.895453e-01   9.104456e-03
  2.242508e+00    6.621868e-01   8.906946e-03
  2.244718e+00    6.860724e-01   9.050146e-03
  2.246929e+00    6.787610e-01   8.987260e-03
  2.249139e+00    6.745834e-01   8.947136e-03
  2.251350e+00    6.556026e-01   8.808729e-03
  2.253560e+00    6.705289e-01   8.896860e-03
  2.255771e+00    6.600932e-01   8.815989e-03
  2.257981e+00    6.586903e-01   8.795477e-03
  2.260192e+00    6.728178e-01   8.878135e-03
  2.262402e+00    6.729299e-01   8.867951e-03
  2.264613e+00    6.596788e-01   8.769397e-03
  2.266823e+00    6.769762e-01   8.873119e-03
  2.269033e+00    6.824369e-01   8.898301e-03
  2.271244e+00    6.638501e-01   8.765898e-03
  2.273454e+00    6.614975e-01   8.740090e-03
  2.275665e+00    6.532202e-01   8.674997e-03
  2.277875e+00    6.618297e-01   8.722026e-03
  2.280086e+00    6.719086e-01   8.778091e-03
  2.282296e+00    6.480882e-01   8.611745e-03
  2.284507e+00    6.654887e-01   8.716401e-03
  2.286717e+00    6.663518e-01   8.712527e-03
  2.288928e+00    6.574043e-01   8.643975e-03
  2.291138e+00    6.609961e-01   8.658104e-03
  2.293348e+00    6.452323e-01   8.544772e-03
  2.295559e+00    6.525353e-01   8.583682e-03
  2.297769e+00    6.550654e-01   8.591084e-03
  2.299980e+00    6.579265e-01   8.600444e-03
  2.302190e+00    6.452045e-01   8.507814e-03
  2.304401e+00    6.597134e-01   8.593562e-03
  2.306611e+00    6.599450e-01   8.585826e-03
  2.308822e+00    6.745216e-01   8.671598e-03
  2.311032e+00    6.430411e-01   8.460416e-03
  2.313243e+00    6.365838e-01   8.411617e-03
  2.315453e+00    6.363191e-01   8.402362e-03
  2.317663e+00    6.437346e-01   8.442084e-03
  2.319874e+00    6.569954e-01   8.519791e-03
  2.322084e+00    6.388589e-01   8.392472e-03
  2.324295e+00    6.393731e-01   8.387649e-03
  2.326505e+00    6.343678e-01   8.345764e-03
  2.328716e+00    6.476194e-01   8.423914e-03
  2.330926e+00    6.518350e-01   8.442424e-03
  2.333137e+00    6.431098e-01   8.377362e-03
  2.335347e+00    6.313677e-01   8.291733e-03
  2.337558e+00    6.355729e-01   8.311073e-03
  2.339768e+00    6.375389e-01   8.315395e-03
  2.341979e+00    6.433517e-01   8.344792e-03
  2.344189e+00    6.442678e-01   8.342315e-03
  2.346399e+00    6.245248e-01   8.205084e-03
  2.348610e+00    6.300078e-01   8.232582e-03
  2.350820e+00    6.361339e-01   8.264326e-03
  2.353031e+00    6.410556e-01   8.287922e-03
  2.355241e+00    6.420148e-01   8.285999e-03
  2.357452e+00    6.319717e-01   8.212525e-03
  2.359662e+00    6.286244e-01   8.182527e-03
  2.361873e+00    6.350621e-01   8.216068e-03
  2.364083e+00    6.390693e-01   8.233899e-03
  2.366294e+00    6.251362e-01   8.135555e-03
  2.368504e+00    6.326094e-01   8.175912e-03
  2.370714e+00    6.340569e-01   8.177162e-03
  2.372925e+00    6.287242e-01   8.134625e-03
  2.375135e+00    6.290964e-01   8.128947e-03
  2.377346e+00    6.208933e-01   8.067846e-03
  2.379556e+00    6.214668e-01   8.063679e-03
  2.381767e+00    6.190968e-01   8.040447e-03
  2.383977e+00    6.212796e-01   8.046659e-03
  2.386188e+00    6.214871e-01   8.040093e-03
  2.388398e+00    6.103864e-01   7.960055e-03
  2.390609e+00    6.062658e-01   7.925465e-03
  2.392819e+00    6.220651e-01   8.020286e-03
  2.395029e+00    6.141716e-01   7.961568e-03
  2.397240e+00    6.175789e-01   7.975739e-03
  2.399450e+00    6.282936e-01   8.036733e-03
  2.401661e+00    6.213725e-01   7.984600e-03
  2.403871e+00    6.020774e-01   7.851966e-03
  2.406082e+00    6.078023e-01   7.881776e-03
  2.408292e+00    6.113464e-01   7.896914e-03
  2.410503e+00    6.037992e-01   7.840574e-03
  2.412713e+00    5.888117e-01   7.734960e-03
  2.414924e+00    5.971997e-01   7.782434e-03
  2.417134e+00    6.031765e-01   7.813652e-03
  2.419344e+00    5.900158e-01   7.720619e-03
  2.421555e+00    5.910072e-01   7.719654e-03
  2.423765e+00    5.938278e-01   7.730689e-03
  2.425976e+00    6.012238e-01   7.770880e-03
  2.428186e+00    5.786638e-01   7.616588e-03
  2.430397e+00    5.846570e-01   7.648525e-03
  2.432607e+00    6.016088e-01   7.751292e-03
  2.434818e+00    5.904514e-01   7.671591e-03
  2.437028e+00    5.774473e-01   7.579570e-03
  2.439239e+00    5.855908e-01   7.625236e-03
  2.441449e+00    5.899702e-01   7.646512e-03
  2.443659e+00    5.869159e-01   7.619370e-03
  2.445870e+00    5.854011e-01   7.621739e-03
  2.448080e+00    5.874841e-01   7.670220e-03
  2.450291e+00    5.647461e-01   7.536754e-03
  2.452501e+00    5.595892e-01   7.513272e-03
  2.454712e+00    5.484613e-01   7.446416e-03
  2.456922e+00    5.599221e-01   7.530381e-03
  2.459133e+00    5.507267e-01   7.473644e-03
  2.461343e+00    5.644597e-01   7.570583e-03
  2.463554e+00    5.629999e-01   7.564260e-03
  2.465764e+00    5.727471e-01   7.632631e-03
  2.467975e+00    5.586577e-01   7.540440e-03
  2.470185e+00    5.657186e-01   7.590210e-03
  2.472395e+00    5.606710e-01   7.557508e-03
  2.474606e+00    5.604247e-01   7.557413e-03
  2.476816e+00    5.543967e-01   7.517403e-03
  2.479027e+00    5.539705e-01   7.515361e-03
  2.481237e+00    5.525417e-01   7.505943e-03
  2.483448e+00    5.547082e-01   7.520947e-03
  2.485658e+00    5.397559e-01   7.418747e-03
  2.487869e+00    5.475545e-01   7.472192e-03
  2.490079e+00    5.414183e-01   7.429679e-03
  2.492290e+00    5.393891e-01   7.415312e-03
  2.494500e+00    5.502297e-01   7.488714e-03
  2.496710e+00    5.380829e-01   7.404906e-03
  2.498921e+00    5.277995e-01   7.332826e-03
  2.501131e+00    5.333403e-01   7.370247e-03
  2.503342e+00    5.247701e-01   7.309549e-03
  2.505552e+00    5.401241e-01   7.414560e-03
  2.507763e+00    5.319603e-01   7.356904e-03
  2.509973e+00    5.451303e-01   7.445992e-03
  2.512184e+00    5.304553e-01   7.343474e-03
  2.514394e+00    5.338641e-01   7.357609e-03
  2.516605e+00    5.322200e-01   7.298949e-03
  2.518815e+00    5.222500e-01   7.202047e-03
  2.521025e+00    5.223637e-01   7.181918e-03
  2.523236e+00    5.285692e-01   7.206421e-03
  2.525446e+00    5.207128e-01   7.137137e-03
  2.527657e+00    5.177230e-01   7.102104e-03
  2.529867e+00    5.244994e-01   7.134284e-03
  2.532078e+00    5.163108e-01   7.063441e-03
  2.534288e+00    5.102584e-01   7.008230e-03
  2.536499e+00    5.122671e-01   7.010221e-03
  2.538709e+00    5.228488e-01   7.071259e-03
  2.540920e+00    5.186599e-01   7.032306e-03
  2.543130e+00    5.095741e-01   6.960208e-03
  2.545340e+00    5.232722e-01   7.043081e-03
  2.547551e+00    5.244648e-01   7.041140e-03
  2.549761e+00    5.147044e-01   6.965812e-03
  2.551972e+00    5.145112e-01   6.955206e-03
  2.554182e+00    5.187639e-01   6.974742e-03
  2.556393e+00    5.283495e-01   7.029717e-03
  2.558603e+00    5.272673e-01   7.013401e-03
  2.560814e+00    5.175180e-01   6.939569e-03
  2.563024e+00    5.148791e-01   6.913308e-03
  2.565235e+00    5.020354e-01   6.817189e-03
  2.567445e+00    5.114269e-01   6.871158e-03
  2.569656e+00    5.236300e-01   6.942874e-03
  2.571866e+00    5.234502e-01   6.932263e-03
  2.574076e+00    5.167799e-01   6.878700e-03
  2.576287e+00    5.169032e-01   6.871158e-03
  2.578497e+00    5.367792e-01   6.994039e-03
  2.580708e+00    5.295057e-01   6.938303e-03
  2.582918e+00    5.189657e-01   6.861097e-03
  2.585129e+00    5.171141e-01   6.841078e-03
  2.587339e+00    5.193197e-01   6.847936e-03
  2.589550e+00    5.120656e-01   6.792398e-03
  2.591760e+00    5.099589e-01   6.770685e-03
  2.593971e+00    5.158964e-01   6.802420e-03
  2.596181e+00    5.257699e-01   6.860907e-03
  2.598391e+00    5.124924e-01   6.768533e-03
  2.600602e+00    5.157913e-01   6.784312e-03
  2.602812e+00    5.068840e-01   6.717991e-03
  2.605023e+00    5.112346e-01   6.739540e-03
  2.607233e+00    5.178325e-01   6.775697e-03
  2.609444e+00    5.166769e-01   6.760840e-03
  2.611654e+00    5.096235e-01   6.707188e-03
  2.613865e+00    5.126087e-01   6.719724e-03
  2.616075e+00    5.084679e-01   6.685373e-03
  2.618286e+00    4.949939e-01   6.589292e-03
  2.620496e+00    4.993660e-01   6.611647e-03
  2.622706e+00    4.951396e-01   6.577928e-03
  2.624917e+00    5.054434e-01   6.640168e-03
  2.627127e+00    4.903066e-01   6.534311e-03
  2.629338e+00    4.909133e-01   6.532472e-03
  2.631548e+00    4.960429e-01   6.560365e-03
  2.633759e+00    4.968511e-01   6.558612e-03
  2.635969e+00    5.038007e-01   6.597620e-03
  2.638180e+00    5.011018e-01   6.572950e-03
  2.640390e+00    5.024264e-01   6.575001e-03
  2.642601e+00    5.122545e-01   6.632264e-03
  2.644811e+00    5.041214e-01   6.572319e-03
  2.647021e+00    4.931460e-01   6.493853e-03
  2.649232e+00    4.821161e-01   6.414212e-03
  2.651442e+00    4.914775e-01   6.469738e-03
  2.653653e+00    4.888756e-01   6.445867e-03
  2.655863e+00    4.987325e-01   6.503832e-03
  2.658074e+00    4.988601e-01   6.498047e-03
  2.660284e+00    5.133429e-01   6.585245e-03
  2.662495e+00    4.967165e-01   6.470986e-03
  2.664705e+00    4.909385e-01   6.426700e-03
  2.666916e+00    4.878995e-01   6.400365e-03
  2.669126e+00    4.933313e-01   6.429464e-03
  2.671337e+00    4.902036e-01   6.402496e-03
  2.673547e+00    5.003513e-01   6.462022e-03
  2.675757e+00    4.861874e-01   6.363503e-03
  2.677968e+00    4.926223e-01   6.398959e-03
  2.680178e+00    5.012870e-01   6.448548e-03
  2.682389e+00    4.973563e-01   6.416785e-03
  2.684599e+00    4.987297e-01   6.419427e-03
  2.686810e+00    4.764891e-01   6.268170e-03
  2.689020e+00    4.735380e-01   6.242528e-03
  2.691231e+00    4.933965e-01   6.365776e-03
  2.693441e+00    4.990334e-01   6.395854e-03
  2.695652e+00    4.975852e-01   6.379991e-03
  2.697862e+00    4.979982e-01   6.376250e-03
  2.700072e+00    4.906064e-01   6.322663e-03
  2.702283e+00    4.887269e-01   6.304326e-03
  2.704493e+00    4.961155e-01   6.345470e-03
  2.706704e+00    4.917690e-01   6.311181e-03
  2.708914e+00    4.774062e-01   6.212451e-03
  2.711125e+00    4.790572e-01   6.216976e-03
  2.713335e+00    4.859225e-01   6.255288e-03
  2.715546e+00    4.788912e-01   6.203467e-03
  2.717756e+00    4.725820e-01   6.156653e-03
  2.719967e+00    4.779549e-01   6.185399e-03
  2.722177e+00    4.705724e-01   6.131419e-03
  2.724387e+00    4.812323e-01   6.194385e-03
  2.726598e+00    4.844320e-01   6.208898e-03
  2.728808e+00    4.762975e-01   6.150458e-03
  2.731019e+00    4.808391e-01   6.173613e-03
  2.733229e+00    4.777426e-01   6.147939e-03
  2.735440e+00    4.731022e-01   6.111796e-03
  2.737650e+00    4.895350e-01   6.210989e-03
  2.739861e+00    4.875452e-01   6.192260e-03
  2.742071e+00    4.805748e-01   6.142101e-03
  2.744282e+00    4.974622e-01   6.242752e-03
  2.746492e+00    4.727247e-01   6.079595e-03
  2.748702e+00    4.669178e-01   6.036303e-03
  2.750913e+00    4.742446e-01   6.077739e-03
  2.753123e+00    4.796509e-01   6.106165e-03
  2.755334e+00    4.790929e-01   6.096574e-03
  2.757544e+00    4.767503e-01   6.075919e-03
  2.759755e+00    4.760270e-01   6.065452e-03
  2.761965e+00    4.821934e-01   6.098615e-03
  2.764176e+00    4.868202e-01   6.121784e-03
  2.766386e+00    4.710879e-01   6.016318e-03
  2.768597e+00    4.774526e-01   6.050959e-03
  2.770807e+00    4.869384e-01   6.104860e-03
  2.773017e+00    4.785979e-01   6.046382e-03
  2.775228e+00    4.774167e-01   6.033131e-03
  2.777438e+00    4.700171e-01   5.980466e-03
  2.779649e+00    4.604738e-01   5.913628e-03
  2.781859e+00    4.766099e-01   6.010602e-03
  2.784070e+00    4.790749e-01   6.020248e-03
  2.786280e+00    4.765503e-01   5.998613e-03
  2.788491e+00    4.766307e-01   5.993278e-03
  2.790701e+00    4.734114e-01   5.967381e-03
  2.792912e+00    4.706799e-01   5.944199e-03
  2.795122e+00    4.800701e-01   5.997465e-03
  2.797333e+00    4.807236e-01   5.995939e-03
  2.799543e+00    4.761766e-01   5.961644e-03
  2.801753e+00    4.745284e-01   5.945486e-03
  2.803964e+00    4.642629e-01   5.875214e-03
  2.806174e+00    4.790236e-01   5.961707e-03
  2.808385e+00    4.762667e-01   5.937732e-03
  2.810595e+00    4.795306e-01   5.951134e-03
  2.812806e+00    4.811282e-01   5.954387e-03
  2.815016e+00    4.742606e-01   5.906996e-03
  2.817227e+00    4.791856e-01   5.963646e-03
  2.819437e+00    4.800963e-01   5.980480e-03
  2.821648e+00    4.803793e-01   5.984539e-03
  2.823858e+00    4.771549e-01   5.969785e-03
  2.826068e+00    4.737601e-01   5.953489e-03
  2.828279e+00    4.716655e-01   5.944356e-03
  2.830489e+00    4.589060e-01   5.866688e-03
  2.832700e+00    4.629685e-01   5.895125e-03
  2.834910e+00    4.732925e-01   5.962563e-03
  2.837121e+00    4.740788e-01   5.969223e-03
  2.839331e+00    4.668782e-01   5.924963e-03
  2.841542e+00    4.703552e-01   5.947981e-03
  2.843752e+00    4.696558e-01   5.944355e-03
  2.845963e+00    4.741881e-01   5.973344e-03
  2.848173e+00    4.774466e-01   5.993943e-03
  2.850383e+00    4.639073e-01   5.908627e-03
  2.852594e+00    4.766978e-01   5.989446e-03
  2.854804e+00    4.699265e-01   5.946255e-03
  2.857015e+00    4.538253e-01   5.843077e-03
  2.859225e+00    4.689932e-01   5.939658e-03
  2.861436e+00    4.528874e-01   5.836138e-03
  2.863646e+00    4.636954e-01   5.905395e-03
  2.865857e+00    4.719591e-01   5.958138e-03
  2.868067e+00    4.612469e-01   5.890351e-03
  2.870278e+00    4.628462e-01   5.900202e-03
  2.872488e+00    4.547634e-01   5.847306e-03
  2.874698e+00    4.629004e-01   5.898341e-03
  2.876909e+00    4.720083e-01   5.954745e-03
  2.879119e+00    4.530226e-01   5.832161e-03
  2.881330e+00    4.642659e-01   5.902606e-03
  2.883540e+00    4.563144e-01   5.850466e-03
  2.885751e+00    4.590230e-01   5.866156e-03
  2.887961e+00    4.693398e-01   5.929824e-03
  2.890172e+00    4.688004e-01   5.924792e-03
  2.892382e+00    4.717024e-01   5.941278e-03
  2.894593e+00    4.690461e-01   5.922696e-03
  2.896803e+00    4.590728e-01   5.857423e-03
  2.899014e+00    4.512182e-01   5.805198e-03
  2.901224e+00    4.609889e-01   5.865719e-03
  2.903434e+00    4.513202e-01   5.801954e-03
  2.905645e+00    4.572484e-01   5.837710e-03
  2.907855e+00    4.657843e-01   5.889835e-03
  2.910066e+00    4.653225e-01   5.884829e-03
  2.912276e+00    4.606313e-01   5.852972e-03
  2.914487e+00    4.595199e-01   5.843429e-03
  2.916697e+00    4.611432e-01   5.851521e-03
  2.918908e+00    4.599172e-01   5.841735e-03
  2.921118e+00    4.541463e-01   5.802275e-03
  2.923329e+00    4.537032e-01   5.797141e-03
  2.925539e+00    4.559818e-01   5.809403e-03
  2.927749e+00    4.635768e-01   5.855265e-03
  2.929960e+00    4.560227e-01   5.804583e-03
  2.932170e+00    4.448190e-01   5.730544e-03
  2.934381e+00    4.528490e-01   5.779597e-03
  2.936591e+00    4.547085e-01   5.788881e-03
  2.938802e+00    4.392471e-01   5.686969e-03
  2.941012e+00    4.386208e-01   5.680594e-03
  2.943223e+00    4.519352e-01   5.763489e-03
  2.945433e+00    4.569496e-01   5.791647e-03
  2.947644e+00    4.513674e-01   5.752035e-03
  2.949854e+00    4.516892e-01   5.749837e-03
  2.952064e+00    4.541623e-01   5.761337e-03
  2.954275e+00    4.631625e-01   5.813693e-03
  2.956485e+00    4.579353e-01   5.776597e-03
  2.958696e+00    4.659076e-01   5.822223e-03
  2.960906e+00    4.621691e-01   5.794627e-03
  2.963117e+00    4.556714e-01   5.749241e-03
  2.965327e+00    4.552819e-01   5.742883e-03
  2.967538e+00    4.592676e-01   5.765036e-03
  2.969748e+00    4.614657e-01   5.775982e-03
  2.971959e+00    4.592075e-01   5.758677e-03
  2.974169e+00    4.658331e-01   5.797451e-03
  2.976379e+00    4.501387e-01   5.696063e-03
  2.978590e+00    4.494204e-01   5.688380e-03
  2.980800e+00    4.464152e-01   5.666564e-03
  2.983011e+00    4.551638e-01   5.719009e-03
  2.985221e+00    4.645075e-01   5.774237e-03
  2.987432e+00    4.520408e-01   5.693111e-03
  2.989642e+00    4.430102e-01   5.633376e-03
  2.991853e+00    4.477910e-01   5.660402e-03
  2.994063e+00    4.651072e-01   5.765889e-03
  2.996274e+00    4.614429e-01   5.739922e-03
  2.998484e+00    4.618473e-01   5.739712e-03
  3.000694e+00    4.591250e-01   5.719292e-03
  3.002905e+00    4.594643e-01   5.718464e-03
  3.005115e+00    4.534980e-01   5.678208e-03
  3.007326e+00    4.522783e-01   5.667439e-03
  3.009536e+00    4.433946e-01   5.608265e-03
  3.011747e+00    4.577365e-01   5.695337e-03
  3.013957e+00    4.544534e-01   5.671672e-03
  3.016168e+00    4.428832e-01   5.595802e-03
  3.018378e+00    4.463098e-01   5.614366e-03
  3.020589e+00    4.494230e-01   5.630738e-03
  3.022799e+00    4.487462e-01   5.623331e-03
  3.025010e+00    4.439061e-01   5.589718e-03
  3.027220e+00    4.592379e-01   5.682288e-03
  3.029430e+00    4.601010e-01   5.684361e-03
  3.031641e+00    4.567023e-01   5.660174e-03
  3.033851e+00    4.519188e-01   5.626933e-03
  3.036062e+00    4.526085e-01   5.628437e-03
  3.038272e+00    4.578442e-01   5.657307e-03
  3.040483e+00    4.462067e-01   5.581744e-03
  3.042693e+00    4.336635e-01   5.499532e-03
  3.044904e+00    4.465731e-01   5.576768e-03
  3.047114e+00    4.502799e-01   5.595069e-03
  3.049325e+00    4.540398e-01   5.613983e-03
  3.051535e+00    4.516709e-01   5.594906e-03
  3.053745e+00    4.518381e-01   5.591196e-03
  3.055956e+00    4.401088e-01   5.513629e-03
  3.058166e+00    4.468827e-01   5.551639e-03
  3.060377e+00    4.567140e-01   5.607583e-03
  3.062587e+00    4.542668e-01   5.587888e-03
  3.064798e+00    4.464268e-01   5.535218e-03
  3.067008e+00    4.551285e-01   5.584147e-03
  3.069219e+00    4.497373e-01   5.546460e-03
  3.071429e+00    4.460787e-01   5.520361e-03
  3.073640e+00    4.460465e-01   5.516837e-03
  3.075850e+00    4.463303e-01   5.515031e-03
  3.078060e+00    4.413837e-01   5.481285e-03
  3.080271e+00    4.548585e-01   5.560838e-03
  3.082481e+00    4.465668e-01   5.506492e-03
  3.084692e+00    4.491892e-01   5.519238e-03
  3.086902e+00    4.534859e-01   5.542316e-03
  3.089113e+00    4.452243e-01   5.488051e-03
  3.091323e+00    4.587577e-01   5.567397e-03
  3.093534e+00    4.573068e-01   5.555198e-03
  3.095744e+00    4.493567e-01   5.503308e-03
  3.097955e+00    4.478762e-01   5.490702e-03
  3.100165e+00    4.485722e-01   5.491604e-03
  3.102375e+00    4.484122e-01   5.487216e-03
  3.104586e+00    4.459608e-01   5.468707e-03
  3.106796e+00    4.390687e-01   5.422786e-03
  3.109007e+00    4.533171e-01   5.506832e-03
  3.111217e+00    4.492677e-01   5.478476e-03
  3.113428e+00    4.432973e-01   5.438558e-03
  3.115638e+00    4.344405e-01   5.380750e-03
  3.117849e+00    4.498538e-01   5.471610e-03
  3.120059e+00    4.451195e-01   5.439307e-03
  3.122270e+00    4.451223e-01   5.436039e-03
  3.124480e+00    4.585563e-01   5.513738e-03
  3.126691e+00    4.558709e-01   5.493951e-03
  3.128901e+00    4.478819e-01   5.442480e-03
  3.131111e+00    4.438527e-01   5.414091e-03
  3.133322e+00    4.467472e-01   5.428272e-03
  3.135532e+00    4.404579e-01   5.386529e-03
  3.137743e+00    4.396197e-01   5.377946e-03
  3.139953e+00    4.508616e-01   5.442549e-03
  3.142164e+00    4.312492e-01   5.334742e-03
  3.144374e+00    4.346333e-01   5.383752e-03
  3.146585e+00    4.487097e-01   5.484920e-03
  3.148795e+00    4.341125e-01   5.405655e-03
  3.151006e+00    4.406695e-01   5.454840e-03
  3.153216e+00    4.390112e-01   5.451687e-03
  3.155426e+00    4.337229e-01   5.425029e-03
  3.157637e+00    4.336588e-01   5.430069e-03
  3.159847e+00    4.436606e-01   5.497249e-03
  3.162058e+00    4.474101e-01   5.524893e-03
  3.164268e+00    4.401324e-01   5.483838e-03
  3.166479e+00    4.403126e-01   5.488623e-03
  3.168689e+00    4.271895e-01   5.409513e-03
  3.170900e+00    4.331701e-01   5.450409e-03
  3.173110e+00    4.390414e-01   5.490100e-03
  3.175321e+00    4.329153e-01   5.454136e-03
  3.177531e+00    4.386776e-01   5.493046e-03
  3.179741e+00    4.434809e-01   5.525138e-03
  3.181952e+00    4.371378e-01   5.487582e-03
  3.184162e+00    4.449449e-01   5.538586e-03
  3.186373e+00    4.409409e-01   5.515209e-03
  3.188583e+00    4.366696e-01   5.490229e-03
  3.190794e+00    4.348108e-01   5.480271e-03
  3.193004e+00    4.403448e-01   5.516286e-03
  3.195215e+00    4.487722e-01   5.570347e-03
  3.197425e+00    4.410465e-01   5.523409e-03
  3.199636e+00    4.460280e-01   5.553741e-03
  3.201846e+00    4.387605e-01   5.507707e-03
  3.204056e+00    4.348802e-01   5.484167e-03
  3.206267e+00    4.480972e-01   5.567764e-03
  3.208477e+00    4.314930e-01   5.464556e-03
  3.210688e+00    4.311429e-01   5.463169e-03
  3.212898e+00    4.363160e-01   5.496415e-03
  3.215109e+00    4.427071e-01   5.537305e-03
  3.217319e+00    4.380068e-01   5.508467e-03
  3.219530e+00    4.290839e-01   5.452461e-03
  3.221740e+00    4.351227e-01   5.491254e-03
  3.223951e+00    4.376799e-01   5.507850e-03
  3.226161e+00    4.397082e-01   5.520785e-03
  3.228372e+00    4.293347e-01   5.455796e-03
  3.230582e+00    4.272284e-01   5.442540e-03
  3.232792e+00    4.439281e-01   5.548120e-03
  3.235003e+00    4.364676e-01   5.501546e-03
  3.237213e+00    4.350978e-01   5.493022e-03
  3.239424e+00    4.207024e-01   5.401384e-03
  3.241634e+00    4.231174e-01   5.416985e-03
  3.243845e+00    4.277210e-01   5.446431e-03
  3.246055e+00    4.323780e-01   5.475744e-03
  3.248266e+00    4.288224e-01   5.453375e-03
  3.250476e+00    4.417848e-01   5.534877e-03
  3.252687e+00    4.409701e-01   5.529685e-03
  3.254897e+00    4.344363e-01   5.488464e-03
  3.257107e+00    4.202505e-01   5.397792e-03
  3.259318e+00    4.152361e-01   5.365258e-03
  3.261528e+00    4.302160e-01   5.461049e-03
  3.263739e+00    4.102165e-01   5.332041e-03
  3.265949e+00    4.258417e-01   5.432519e-03
  3.268160e+00    4.205368e-01   5.398167e-03
  3.270370e+00    4.308185e-01   5.463250e-03
  3.272581e+00    4.338664e-01   5.482244e-03
  3.274791e+00    4.345979e-01   5.486349e-03
  3.277002e+00    4.254218e-01   5.427552e-03
  3.279212e+00    4.292706e-01   5.451667e-03
  3.281422e+00    4.221292e-01   5.405555e-03
  3.283633e+00    4.267018e-01   5.434064e-03
  3.285843e+00    4.322828e-01   5.469150e-03
  3.288054e+00    4.318045e-01   5.465185e-03
  3.290264e+00    4.139201e-01   5.350498e-03
  3.292475e+00    4.194524e-01   5.385289e-03
  3.294685e+00    4.337312e-01   5.475547e-03
  3.296896e+00    4.316122e-01   5.461400e-03
  3.299106e+00    4.249903e-01   5.418793e-03
  3.301317e+00    4.302438e-01   5.451135e-03
  3.303527e+00    4.225494e-01   5.401715e-03
  3.305737e+00    4.309495e-01   5.454072e-03
  3.307948e+00    4.273035e-01   5.430295e-03
  3.310158e+00    4.232644e-01   5.403714e-03
  3.312369e+00    4.232297e-01   5.402605e-03
  3.314579e+00    4.311227e-01   5.451822e-03
  3.316790e+00    4.293982e-01   5.440217e-03
  3.319000e+00    4.161389e-01   5.354388e-03
  3.321211e+00    4.211703e-01   5.386025e-03
  3.323421e+00    4.250655e-01   5.409694e-03
  3.325632e+00    4.100512e-01   5.312405e-03
  3.327842e+00    4.224669e-01   5.391315e-03
  3.330052e+00    4.264747e-01   5.415754e-03
  3.332263e+00    4.173741e-01   5.356664e-03
  3.334473e+00    4.179242e-01   5.359260e-03
  3.336684e+00    4.270114e-01   5.415950e-03
  3.338894e+00    4.256319e-01   5.406354e-03
  3.341105e+00    4.222120e-01   5.383369e-03
  3.343315e+00    4.368165e-01   5.474525e-03
  3.345526e+00    4.194407e-01   5.363652e-03
  3.347736e+00    4.196046e-01   5.363273e-03
  3.349947e+00    4.225044e-01   5.380841e-03
  3.352157e+00    4.275789e-01   5.411892e-03
  3.354368e+00    4.273805e-01   5.409304e-03
  3.356578e+00    4.377796e-01   5.473696e-03
  3.358788e+00    4.253004e-01   5.393788e-03
  3.360999e+00    4.188409e-01   5.351400e-03
  3.363209e+00    4.199798e-01   5.357662e-03
  3.365420e+00    4.225356e-01   5.372415e-03
  3.367630e+00    4.081824e-01   5.279369e-03
  3.369841e+00    4.268958e-01   5.397583e-03
  3.372051e+00    4.137105e-01   5.311612e-03
  3.374262e+00    4.200106e-01   5.349448e-03
  3.376472e+00    4.199204e-01   5.346436e-03
  3.378683e+00    3.950628e-01   5.183323e-03
  3.380893e+00    4.169766e-01   5.322787e-03
  3.383103e+00    4.115386e-01   5.285288e-03
  3.385314e+00    4.139104e-01   5.298266e-03
  3.387524e+00    4.241838e-01   5.360859e-03
  3.389735e+00    4.088176e-01   5.260256e-03
  3.391945e+00    4.094508e-01   5.260645e-03
  3.394156e+00    4.067478e-01   5.239090e-03
  3.396366e+00    4.049355e-01   5.224021e-03
  3.398577e+00    3.973193e-01   5.171650e-03
  3.400787e+00    4.109083e-01   5.271283e-03
  3.402998e+00    4.056301e-01   5.275155e-03
  3.405208e+00    4.131378e-01   5.344612e-03
  3.407418e+00    3.945110e-01   5.238406e-03
  3.409629e+00    3.963562e-01   5.264522e-03
  3.411839e+00    3.827258e-01   5.184729e-03
  3.414050e+00    3.961032e-01   5.285532e-03
  3.416260e+00    3.959817e-01   5.294396e-03
  3.418471e+00    3.885605e-01   5.253909e-03
  3.420681e+00    3.667075e-01   5.112220e-03
  3.422892e+00    3.835973e-01   5.236575e-03
  3.425102e+00    3.827209e-01   5.238317e-03
  3.427313e+00    3.753054e-01   5.194389e-03
  3.429523e+00    3.948596e-01   5.335111e-03
  3.431733e+00    3.879565e-01   5.294970e-03
  3.433944e+00    3.863598e-01   5.290555e-03
  3.436154e+00    3.985339e-01   5.379630e-03
  3.438365e+00    3.760762e-01   5.231770e-03
  3.440575e+00    3.663740e-01   5.169638e-03
  3.442786e+00    3.725158e-01   5.218343e-03
  3.444996e+00    3.807591e-01   5.281292e-03
  3.447207e+00    3.662730e-01   5.185092e-03
  3.449417e+00    3.638805e-01   5.208511e-03
  3.451628e+00    3.595223e-01   5.206303e-03
  3.453838e+00    3.699217e-01   5.302273e-03
  3.456049e+00    3.806038e-01   5.402634e-03
  3.458259e+00    3.577342e-01   5.259510e-03
  3.460469e+00    3.425683e-01   5.165894e-03
  3.462680e+00    3.721786e-01   5.403755e-03
  3.464890e+00    3.826518e-01   5.497464e-03
  3.467101e+00    3.844808e-01   5.528445e-03
  3.469311e+00    3.780238e-01   5.498542e-03
  3.471522e+00    3.685980e-01   5.445829e-03
  3.473732e+00    3.822712e-01   5.561933e-03
  3.475943e+00    3.952395e-01   5.671419e-03
  3.478153e+00    4.132630e-01   5.815260e-03
  3.480364e+00    4.081771e-01   5.794795e-03
  3.482574e+00    4.113689e-01   5.832890e-03
  3.484784e+00    4.380066e-01   6.034102e-03
  3.486995e+00    4.457445e-01   6.102854e-03
  3.489205e+00    4.256277e-01   5.978222e-03
  3.491416e+00    4.324977e-01   6.041295e-03
  3.493626e+00    4.493487e-01   6.172712e-03
  3.495837e+00    4.261075e-01   6.025447e-03
  3.498047e+00    4.646933e-01   6.307176e-03
  3.500258e+00    4.521557e-01   6.236095e-03
  3.502468e+00    4.640186e-01   6.331943e-03
  3.504679e+00    4.645173e-01   6.349893e-03
  3.506889e+00    4.849954e-01   6.503093e-03
  3.509099e+00    4.657951e-01   6.387343e-03
  3.511310e+00    4.694687e-01   6.426834e-03
  3.513520e+00    4.764650e-01   6.488878e-03
  3.515731e+00    4.872034e-01   6.576001e-03
  3.517941e+00    4.862840e-01   6.584087e-03
  3.520152e+00    4.929623e-01   6.643438e-03
  3.522362e+00    4.936618e-01   6.662525e-03
  3.524573e+00    5.122039e-01   6.800859e-03
  3.526783e+00    5.075712e-01   6.783355e-03
  3.528994e+00    5.130663e-01   6.832177e-03
  3.531204e+00    5.079006e-01   6.809981e-03
  3.533414e+00    5.023749e-01   6.784638e-03
  3.535625e+00    5.369133e-01   7.026468e-03
  3.537835e+00    5.328185e-01   7.011748e-03
  3.540046e+00    5.304339e-01   7.004927e-03
  3.542256e+00    5.340404e-01   7.036197e-03
  3.544467e+00    5.300805e-01   7.017676e-03
  3.546677e+00    5.358821e-01   7.063525e-03
  3.548888e+00    5.305610e-01   7.035839e-03
  3.551098e+00    5.365366e-01   7.082645e-03
  3.553309e+00    5.342674e-01   7.075808e-03
  3.555519e+00    5.396665e-01   7.122785e-03
  3.557729e+00    5.398490e-01   7.135782e-03
  3.559940e+00    5.261589e-01   7.056119e-03
  3.562150e+00    5.420116e-01   7.173458e-03
  3.564361e+00    5.318212e-01   7.118939e-03
  3.566571e+00    5.447377e-01   7.218812e-03
  3.568782e+00    5.508615e-01   7.273616e-03
  3.570992e+00    5.271000e-01   7.128622e-03
  3.573203e+00    5.549975e-01   7.329213e-03
  3.575413e+00    5.610267e-01   7.383060e-03
  3.577624e+00    5.318250e-01   7.202391e-03
  3.579834e+00    5.329370e-01   7.223768e-03
  3.582045e+00    5.252722e-01   7.185498e-03
  3.584255e+00    5.230542e-01   7.184228e-03
  3.586465e+00    5.350935e-01   7.280326e-03
  3.588676e+00    5.564840e-01   7.438893e-03
  3.590886e+00    5.496374e-01   7.406879e-03
  3.593097e+00    5.453722e-01   7.392704e-03
  3.595307e+00    5.581645e-01   7.493124e-03
  3.597518e+00    5.436607e-01   7.409476e-03
  3.599728e+00    5.310243e-01   7.336867e-03
  3.601939e+00    5.442618e-01   7.441921e-03
  3.604149e+00    5.427276e-01   7.445947e-03
  3.606360e+00    5.281979e-01   7.359674e-03
  3.608570e+00    5.199400e-01   7.315831e-03
  3.610780e+00    5.388739e-01   7.458951e-03
  3.612991e+00    5.322953e-01   7.423278e-03
  3.615201e+00    5.461674e-01   7.529256e-03
  3.617412e+00    5.668619e-01   7.678120e-03
  3.619622e+00    5.258006e-01   7.400700e-03
  3.621833e+00    5.236577e-01   7.392234e-03
  3.624043e+00    5.275592e-01   7.429154e-03
  3.626254e+00    5.393387e-01   7.521382e-03
  3.628464e+00    5.209424e-01   7.402862e-03
  3.630675e+00    5.347176e-01   7.514199e-03
  3.632885e+00    5.396732e-01   7.563482e-03
  3.635095e+00    5.584914e-01   7.708908e-03
  3.637306e+00    5.648872e-01   7.767778e-03
  3.639516e+00    5.376990e-01   7.593080e-03
  3.641727e+00    5.462727e-01   7.668180e-03
  3.643937e+00    5.154276e-01   7.462780e-03
  3.646148e+00    5.350037e-01   7.617841e-03
  3.648358e+00    5.474308e-01   7.720860e-03
  3.650569e+00    5.456255e-01   7.723064e-03
  3.652779e+00    5.259709e-01   7.597325e-03
  3.654990e+00    5.420043e-01   7.727278e-03
  3.657200e+00    5.380107e-01   7.713723e-03
  3.659410e+00    5.196889e-01   7.596062e-03
  3.661621e+00    5.334368e-01   7.711000e-03
  3.663831e+00    5.253467e-01   7.667306e-03
  3.666042e+00    5.384339e-01   7.777492e-03
  3.668252e+00    5.198512e-01   7.657205e-03
  3.670463e+00    5.043979e-01   7.557369e-03
  3.672673e+00    5.235730e-01   7.714950e-03
  3.674884e+00    5.276325e-01   7.760186e-03
  3.677094e+00    5.360054e-01   7.837119e-03
  3.679305e+00    5.250998e-01   7.772442e-03
  3.681515e+00    5.533187e-01   7.994537e-03
  3.683726e+00    5.233791e-01   7.790934e-03
  3.685936e+00    5.421886e-01   7.945597e-03
  3.688146e+00    5.130050e-01   7.744371e-03
  3.690357e+00    5.243919e-01   7.845716e-03
  3.692567e+00    5.373327e-01   7.958204e-03
  3.694778e+00    5.396951e-01   7.991937e-03
  3.696988e+00    5.307459e-01   7.941465e-03
  3.699199e+00    5.300971e-01   7.952931e-03
  3.701409e+00    5.182649e-01   7.879908e-03
  3.703620e+00    5.170782e-01   7.887109e-03
  3.705830e+00    5.129215e-01   7.871538e-03
  3.708041e+00    5.281935e-01   8.004509e-03
  3.710251e+00    5.151168e-01   7.921416e-03
  3.712461e+00    5.253102e-01   8.016156e-03
  3.714672e+00    5.039299e-01   7.867824e-03
  3.716882e+00    5.118219e-01   7.945688e-03
  3.719093e+00    5.217522e-01   8.039612e-03
  3.721303e+00    5.261186e-01   8.090215e-03
  3.723514e+00    5.119504e-01   7.997696e-03
  3.725724e+00    5.180084e-01   8.062045e-03
  3.727935e+00    4.984995e-01   7.925891e-03
  3.730145e+00    5.307749e-01   8.195969e-03
  3.732356e+00    5.266934e-01   8.182170e-03
  3.734566e+00    5.188435e-01   8.138499e-03
  3.736776e+00    5.317777e-01   8.257414e-03
  3.738987e+00    5.241426e-01   8.215839e-03
  3.741197e+00    5.189040e-01   8.192752e-03
  3.743408e+00    5.109934e-01   8.148094e-03
  3.745618e+00    5.261914e-01   8.286903e-03
  3.747829e+00    4.980723e-01   8.080340e-03
  3.750039e+00    5.086908e-01   8.184286e-03
  3.752250e+00    5.132914e-01   8.239746e-03
  3.754460e+00    5.134990e-01   8.260034e-03
  3.756671e+00    5.103191e-01   8.253202e-03
  3.758881e+00    5.008783e-01   8.195065e-03
  3.761091e+00    4.933849e-01   8.152306e-03
  3.763302e+00    5.099126e-01   8.306879e-03
  3.765512e+00    4.998062e-01   8.243270e-03
  3.767723e+00    4.979514e-01   8.247077e-03
  3.769933e+00    5.055036e-01   8.328780e-03
  3.772144e+00    4.941202e-01   8.253750e-03
  3.774354e+00    4.825001e-01   8.175538e-03
  3.776565e+00    5.110767e-01   8.434094e-03
  3.778775e+00    4.990171e-01   8.353859e-03
  3.780986e+00    5.037186e-01   8.413383e-03
  3.783196e+00    5.224575e-01   8.589124e-03
  3.785407e+00    5.132364e-01   8.533612e-03
  3.787617e+00    5.102376e-01   8.529527e-03
  3.789827e+00    5.053748e-01   8.509410e-03
  3.792038e+00    5.146337e-01   8.608083e-03
  3.794248e+00    4.942865e-01   8.457217e-03
  3.796459e+00    4.947963e-01   8.482749e-03
  3.798669e+00    5.112303e-01   8.644135e-03
  3.800880e+00    5.178397e-01   8.721602e-03
  3.803090e+00    5.074611e-01   8.655776e-03
  3.805301e+00    5.003369e-01   8.616888e-03
  3.807511e+00    5.035257e-01   8.666360e-03
  3.809722e+00    4.915446e-01   8.584727e-03
  3.811932e+00    5.097315e-01   8.764460e-03
  3.814142e+00    5.247157e-01   8.915886e-03
  3.816353e+00    5.146541e-01   8.853173e-03
  3.818563e+00    4.847319e-01   8.614740e-03
  3.820774e+00    4.863766e-01   8.652182e-03
  3.822984e+00    5.084991e-01   8.870393e-03
  3.825195e+00    5.024936e-01   8.841735e-03
  3.827405e+00    4.749070e-01   8.618906e-03
  3.829616e+00    4.781182e-01   8.671595e-03
  3.831826e+00    4.874124e-01   8.779374e-03
  3.834037e+00    5.040327e-01   8.952486e-03
  3.836247e+00    5.060094e-01   8.994984e-03
  3.838457e+00    4.994610e-01   8.961634e-03
  3.840668e+00    5.177109e-01   9.149682e-03
  3.842878e+00    4.932908e-01   8.956679e-03
  3.845089e+00    4.919966e-01   8.970419e-03
  3.847299e+00    4.934527e-01   9.009447e-03
  3.849510e+00    5.071906e-01   9.160041e-03
  3.851720e+00    5.041716e-01   9.154567e-03
  3.853931e+00    4.887302e-01   9.031961e-03
  3.856141e+00    5.115668e-01   9.260042e-03
  3.858352e+00    4.943012e-01   9.121585e-03
  3.860562e+00    4.966928e-01   9.163079e-03
  3.862772e+00    4.973566e-01   9.188784e-03
  3.864983e+00    4.805859e-01   9.051974e-03
  3.867193e+00    4.896903e-01   9.156949e-03
  3.869404e+00    5.022121e-01   9.293349e-03
  3.871614e+00    4.804982e-01   9.109930e-03
  3.873825e+00    4.891939e-01   9.212185e-03
  3.876035e+00    4.862767e-01   9.205161e-03
  3.878246e+00    4.818270e-01   9.188408e-03
  3.880456e+00    4.882768e-01   9.278575e-03
  3.882667e+00    4.821431e-01   9.249107e-03
  3.884877e+00    5.029772e-01   9.476956e-03
  3.887087e+00    5.120028e-01   9.592165e-03
  3.889298e+00    4.958779e-01   9.470444e-03
  3.891508e+00    5.039303e-01   9.577897e-03
  3.893719e+00    4.924556e-01   9.499358e-03
  3.895929e+00    4.847288e-01   9.455674e-03
  3.898140e+00    4.894471e-01   9.533334e-03
  3.900350e+00    5.042989e-01   9.709392e-03
  3.902561e+00    5.007184e-01   9.707605e-03
  3.904771e+00    4.934594e-01   9.669980e-03
  3.906982e+00    4.698770e-01   9.468541e-03
  3.909192e+00    4.835066e-01   9.638147e-03
  3.911403e+00    5.066941e-01   9.901129e-03
  3.913613e+00    4.936636e-01   9.807465e-03
  3.915823e+00    5.195078e-01   1.009683e-02
  3.918034e+00    4.783292e-01   9.723339e-03
  3.920244e+00    4.592719e-01   9.562287e-03
  3.922455e+00    4.795428e-01   9.806762e-03
  3.924665e+00    4.843584e-01   9.892204e-03
  3.926876e+00    4.657814e-01   9.736905e-03
  3.929086e+00    4.846850e-01   9.969759e-03
  3.931297e+00    4.804080e-01   9.960208e-03
  3.933507e+00    4.750946e-01   9.933573e-03
  3.935718e+00    4.882252e-01   1.009864e-02
  3.937928e+00    4.946658e-01   1.019475e-02
  3.940138e+00    4.810337e-01   1.008242e-02
  3.942349e+00    5.010719e-01   1.032053e-02
  3.944559e+00    5.138711e-01   1.048238e-02
  3.946770e+00    4.966452e-01   1.033564e-02
  3.948980e+00    4.723213e-01   1.010970e-02
  3.951191e+00    4.673692e-01   1.008669e-02
  3.953401e+00    4.904463e-01   1.036425e-02
  3.955612e+00    4.745713e-01   1.022633e-02
  3.957822e+00    5.175254e-01   1.071191e-02
  3.960033e+00    4.883465e-01   1.043820e-02
  3.962243e+00    4.839744e-01   1.042420e-02
  3.964453e+00    4.646493e-01   1.024627e-02
  3.966664e+00    4.924683e-01   1.058218e-02
  3.968874e+00    4.879274e-01   1.056182e-02
  3.971085e+00    4.799323e-01   1.049661e-02
  3.973295e+00    4.832762e-01   1.055464e-02
  3.975506e+00    4.866954e-01   1.061352e-02
  3.977716e+00    4.792027e-01   1.055335e-02
  3.979927e+00    4.808280e-01   1.059322e-02
  3.982137e+00    5.006716e-01   1.083231e-02
  3.984348e+00    4.808187e-01   1.063775e-02
  3.986558e+00    5.121089e-01   1.100140e-02
  3.988768e+00    4.728950e-01   1.059459e-02
  3.990979e+00    4.202864e-01   1.000906e-02
  3.993189e+00    4.642690e-01   1.054226e-02
  3.995400e+00    5.073445e-01   1.104458e-02
  3.997610e+00    4.914791e-01   1.090052e-02
  3.999821e+00    4.788416e-01   1.079680e-02
  4.002031e+00    4.975387e-01   1.104434e-02
  4.004242e+00    4.890623e-01   1.098869e-02
  4.006452e+00    4.530554e-01   1.061440e-02
  4.008663e+00    4.785565e-01   1.094873e-02
  4.010873e+00    4.945715e-01   1.117093e-02
  4.013084e+00    4.799439e-01   1.104512e-02
  4.015294e+00    5.184848e-01   1.152257e-02
  4.017504e+00    4.754465e-01   1.107541e-02
  4.019715e+00    4.618097e-01   1.095690e-02
  4.021925e+00    4.926321e-01   1.135997e-02
  4.024136e+00    4.771477e-01   1.122351e-02
  4.026346e+00    4.612724e-01   1.107817e-02
  4.028557e+00    4.708823e-01   1.123671e-02
  4.030767e+00    4.790522e-01   1.137927e-02
  4.032978e+00    4.812321e-01   1.145126e-02
  4.035188e+00    4.726973e-01   1.139488e-02
  4.037399e+00    4.789338e-01   1.151724e-02
  4.039609e+00    4.860725e-01   1.165051e-02
  4.041819e+00    4.758983e-01   1.157638e-02
  4.044030e+00    4.949012e-01   1.185578e-02
  4.046240e+00    4.678945e-01   1.157685e-02
  4.048451e+00    4.688932e-01   1.163935e-02
  4.050661e+00    4.817636e-01   1.184921e-02
  4.052872e+00    5.011817e-01   1.213968e-02
  4.055082e+00    4.828752e-01   1.196925e-02
  4.057293e+00    4.836054e-01   1.203214e-02
  4.059503e+00    5.034213e-01   1.233207e-02
  4.061714e+00    4.644264e-01   1.190025e-02
  4.063924e+00    5.039995e-01   1.245479e-02
  4.066134e+00    4.691804e-01   1.207357e-02
  4.068345e+00    4.484078e-01   1.186009e-02
  4.070555e+00    4.752436e-01   1.226870e-02
  4.072766e+00    4.988216e-01   1.263131e-02
  4.074976e+00    5.049551e-01   1.277207e-02
  4.077187e+00    5.005824e-01   1.277996e-02
  4.079397e+00    4.811818e-01   1.259384e-02
  4.081608e+00    4.823422e-01   1.267455e-02
  4.083818e+00    4.933483e-01   1.288493e-02
  4.086029e+00    4.896106e-01   1.290372e-02
  4.088239e+00    4.873521e-01   1.294344e-02
  4.090449e+00    4.754562e-01   1.285368e-02
  4.092660e+00    4.522004e-01   1.260425e-02
  4.094870e+00    4.994097e-01   1.331962e-02
  4.097081e+00    4.869385e-01   1.322440e-02
  4.099291e+00    4.782633e-01   1.316018e-02
  4.101502e+00    4.901279e-01   1.337217e-02
  4.103712e+00    4.988391e-01   1.354067e-02
  4.105923e+00    5.145735e-01   1.380589e-02
  4.108133e+00    5.067753e-01   1.375370e-02
  4.110344e+00    4.646867e-01   1.322061e-02
  4.112554e+00    4.511194e-01   1.307764e-02
  4.114764e+00    4.853305e-01   1.361882e-02
  4.116975e+00    4.562263e-01   1.325627e-02
  4.119185e+00    4.722993e-01   1.354261e-02
  4.121396e+00    5.069834e-01   1.408882e-02
  4.123606e+00    5.384942e-01   1.457979e-02
  4.125817e+00    4.649550e-01   1.360438e-02
  4.128027e+00    5.098326e-01   1.430599e-02
  4.130238e+00    4.955761e-01   1.416489e-02
  4.132448e+00    4.949335e-01   1.421723e-02
  4.134659e+00    4.789282e-01   1.404555e-02
  4.136869e+00    5.057214e-01   1.449757e-02
  4.139080e+00    4.418084e-01   1.361163e-02
  4.141290e+00    5.219144e-01   1.485955e-02
  4.143500e+00    5.009043e-01   1.462467e-02
  4.145711e+00    4.989978e-01   1.466507e-02
  4.147921e+00    4.899808e-01   1.459855e-02
  4.150132e+00    4.840263e-01   1.457877e-02
  4.152342e+00    4.929222e-01   1.478349e-02
  4.154553e+00    5.057268e-01   1.504543e-02
  4.156763e+00    5.113810e-01   1.520417e-02
  4.158974e+00    4.775048e-01   1.476584e-02
  4.161184e+00    4.671564e-01   1.467743e-02
  4.163395e+00    5.142959e-01   1.547852e-02
  4.165605e+00    5.351920e-01   1.587225e-02
  4.167815e+00    5.111880e-01   1.559298e-02
  4.170026e+00    5.142406e-01   1.572204e-02
  4.172236e+00    5.072303e-01   1.569892e-02
  4.174447e+00    4.618878e-01   1.506229e-02
  4.176657e+00    4.568170e-01   1.506125e-02
  4.178868e+00    4.685576e-01   1.533967e-02
  4.181078e+00    4.692609e-01   1.543794e-02
  4.183289e+00    4.801369e-01   1.570507e-02
  4.185499e+00    4.669747e-01   1.557987e-02
  4.187710e+00    5.106926e-01   1.638797e-02
  4.189920e+00    5.276591e-01   1.675873e-02
  4.192130e+00    4.696794e-01   1.590746e-02
  4.194341e+00    4.999949e-01   1.651367e-02
  4.196551e+00    4.699856e-01   1.611176e-02
  4.198762e+00    4.572552e-01   1.599299e-02
  4.200972e+00    5.057076e-01   1.692765e-02
  4.203183e+00    4.686074e-01   1.640264e-02
  4.205393e+00    4.799573e-01   1.671036e-02
  4.207604e+00    4.748048e-01   1.673400e-02
  4.209814e+00    4.476367e-01   1.635942e-02
  4.212025e+00    4.413065e-01   1.635849e-02
  4.214235e+00    4.999588e-01   1.753496e-02
  4.216445e+00    4.826735e-01   1.735381e-02
  4.218656e+00    4.767978e-01   1.737728e-02
  4.220866e+00    5.092898e-01   1.809247e-02
  4.223077e+00    5.086824e-01   1.822097e-02
  4.225287e+00    5.067346e-01   1.832882e-02
  4.227498e+00    4.983923e-01   1.832005e-02
  4.229708e+00    4.930216e-01   1.836910e-02
  4.231919e+00    5.210139e-01   1.903997e-02
  4.234129e+00    4.885259e-01   1.859115e-02
  4.236340e+00    4.465903e-01   1.792743e-02
  4.238550e+00    4.719757e-01   1.859250e-02
  4.240761e+00    4.997559e-01   1.930094e-02
  4.242971e+00    4.867528e-01   1.922263e-02
  4.245181e+00    4.799460e-01   1.926716e-02
  4.247392e+00    4.599211e-01   1.903712e-02
  4.249602e+00    4.771067e-01   1.958218e-02
  4.251813e+00    4.641632e-01   1.950519e-02
  4.254023e+00    3.908726e-01   1.807960e-02
  4.256234e+00    4.841690e-01   2.033636e-02
  4.258444e+00    5.447417e-01   2.179698e-02
  4.260655e+00    4.924715e-01   2.095310e-02
  4.262865e+00    4.508141e-01   2.027415e-02
  4.265076e+00    4.868869e-01   2.130973e-02
  4.267286e+00    4.569792e-01   2.088957e-02
  4.269496e+00    4.723310e-01   2.149707e-02
  4.271707e+00    4.897258e-01   2.215894e-02
  4.273917e+00    4.675578e-01   2.193225e-02
  4.276128e+00    5.108821e-01   2.323029e-02
  4.278338e+00    4.339056e-01   2.169459e-02
  4.280549e+00    4.942893e-01   2.348677e-02
  4.282759e+00    4.790703e-01   2.345522e-02
  4.284970e+00    5.219826e-01   2.484495e-02
  4.287180e+00    5.739825e-01   2.636570e-02
  4.289391e+00    4.858986e-01   2.444017e-02
  4.291601e+00    4.626766e-01   2.404036e-02
  4.293811e+00    4.434123e-01   2.371751e-02
  4.296022e+00    4.969645e-01   2.531153e-02
  4.298232e+00    4.837400e-01   2.518099e-02
  4.300443e+00    5.139887e-01   2.617102e-02
  4.302653e+00    4.618274e-01   2.502222e-02
  4.304864e+00    4.996097e-01   2.625085e-02
  4.307074e+00    3.960769e-01   2.358328e-02
  4.309285e+00    4.897425e-01   2.646205e-02
  4.311495e+00    4.127376e-01   2.452051e-02
  4.313706e+00    4.667881e-01   2.632083e-02
  4.315916e+00    4.994969e-01   2.749627e-02
  4.318126e+00    4.699997e-01   2.693501e-02
  4.320337e+00    4.534501e-01   2.672490e-02
  4.322547e+00    5.240027e-01   2.903274e-02
  4.324758e+00    4.520706e-01   2.724821e-02
  4.326968e+00    5.213123e-01   2.958821e-02
  4.329179e+00    5.187109e-01   2.984083e-02
  4.331389e+00    4.194680e-01   2.714447e-02
  4.333600e+00    4.466787e-01   2.834420e-02
  4.335810e+00    4.286698e-01   2.809865e-02
  4.338021e+00    4.974028e-01   3.065455e-02
  4.340231e+00    3.925346e-01   2.757304e-02
  4.342442e+00    4.599770e-01   3.024853e-02
  4.344652e+00    4.938437e-01   3.176836e-02
  4.346862e+00    4.429692e-01   3.050891e-02
  4.349073e+00    4.349068e-01   3.067048e-02
  4.351283e+00    2.544025e-01   2.380819e-02
  4.353494e+00    3.339095e-01   2.769492e-02
  4.355704e+00    4.695893e-01   3.337416e-02
  4.357915e+00    4.843504e-01   3.445787e-02
  4.360125e+00    5.474325e-01   3.725922e-02
  4.362336e+00    4.280173e-01   3.354711e-02
  4.364546e+00    4.685099e-01   3.573414e-02
  4.366757e+00    5.688117e-01   4.016017e-02
  4.368967e+00    4.644968e-01   3.701422e-02
  4.371177e+00    5.109726e-01   3.964780e-02
  4.373388e+00    4.640128e-01   3.862734e-02
  4.375598e+00    3.680815e-01   3.518650e-02
  4.377809e+00    5.014478e-01   4.210855e-02
  4.380019e+00    4.461802e-01   4.072164e-02
  4.382230e+00    3.139468e-01   3.510939e-02
  4.384440e+00    3.997925e-01   4.076103e-02
  4.386651e+00    3.800475e-01   4.096888e-02
  4.388861e+00    4.349681e-01   4.529644e-02
  4.391072e+00    5.145656e-01   5.099949e-02
  4.393282e+00    4.039167e-01   4.693510e-02
  4.395492e+00    3.634228e-01   4.636605e-02
  4.397703e+00    2.926269e-01   4.350806e-02
  4.399913e+00    4.641503e-01   5.757115e-02
  4.402124e+00    3.244852e-01   5.085963e-02
  4.404334e+00    6.029789e-01   7.370490e-02
  4.406545e+00    2.442002e-01   5.039373e-02
  4.408755e+00    2.679518e-01   5.724855e-02
  4.410966e+00    3.610734e-01   7.355465e-02
  4.413176e+00    2.290665e-01   6.632576e-02
  4.415387e+00   -8.393920e-01            nan
  4.417597e+00   -1.909909e+00            nan
  4.419807e+00   -3.766224e-01            nan
