# == pyFAI calibration ==
# Distance Sample to Detector: 0.216 m
# PONI: 1.166e-01, 1.308e-01 m
# Rotations: 0.000000 0.000000 0.000000 rad
# 
# == Fit2d calibration ==
# Distance Sample-beamCenter: 216.000 mm
# Center: x=1744.293, y=1555.000 pix
# Tilt: 0.000 deg  TiltPlanRot: 0.000 deg
# 
# Detector Eiger 9M	 PixelSize= 7.500e-05, 7.500e-05 m
#    Detector has a mask: True 
#    Detector has a dark current: False 
#    detector has a flat field: False 
# 
# Wavelength: 9.8e-11 m
# Mask applied: from detector
# Dark current applied: False
# Flat field applied: False
# Polarization factor: None
# Normalization factor: 1.0
# 
# Headers of the input frame:
# {
# "_array_data.header_convention": "SLS_1.0",
# "_array_data.header_contents": "# Detector: Dectris Eiger 9M, S/N E-18-0102\r\n# Pixel_size 75e-6 m x 75e-6 m\r\n# Silicon sensor, thickness 0.000450 m\r\n# Exposure_time 0.024997 s\r\n# Exposure_period 0.025000 s\r\n# Count_cutoff 62318 counts\r\n# Wavelength 0.980106 A\r\n# Detector_distance 0.215992 m\r\n# Beam_xy (1555, 1744) pixels\r\n# Start_angle 0.000000 deg.\r\n# Angle_increment 0.000000 deg.",
# "Content-Type": "application/octet-stream;",
# "conversions": "x-CBF_BYTE_OFFSET",
# "Content-Transfer-Encoding": "BINARY",
# "X-Binary-Size": "10166594",
# "X-Binary-ID": "1",
# "X-Binary-Element-Type": "signed 32-bit integer",
# "X-Binary-Element-Byte-Order": "LITTLE_ENDIAN",
# "Content-MD5": "fq64/CoSIGbGNKCJY16MOg==",
# "X-Binary-Number-of-Elements": "10166590",
# "X-Binary-Size-Fastest-Dimension": "3110",
# "X-Binary-Size-Second-Dimension": "3269",
# "X-Binary-Size-Padding": "4095"
# }
# --> H:/Proxima2a_2019-04-05/RAW_DATA/C5_gel17_position5/C5_mesh_1_data.cbf/C5_mesh_1_data.cbf000020.dat
#        q_A^-1              I           sigma 
  1.105228e-03    1.219946e+00   5.976642e-01
  3.315685e-03    1.540986e+00   4.083615e-01
  5.526141e-03    1.471914e+00   3.086124e-01
  7.736597e-03    1.397072e+00   2.539976e-01
  9.947054e-03    1.218730e+00   2.091368e-01
  1.215751e-02    1.268609e+00   1.929445e-01
  1.436797e-02    1.395273e+00   1.861254e-01
  1.657842e-02    1.302233e+00   1.673743e-01
  1.878888e-02    1.461460e+00   1.665547e-01
  2.099934e-02    1.456830e+00   1.573281e-01
  2.320979e-02    1.267439e+00   1.395714e-01
  2.542025e-02    1.451589e+00   1.427353e-01
  2.763070e-02    1.440366e+00   1.363725e-01
  2.984116e-02    1.380233e+00   1.284555e-01
  3.205162e-02    1.450860e+00   1.270863e-01
  3.426207e-02    1.368123e+00   1.193541e-01
  3.647253e-02    1.511897e+00   1.216048e-01
  3.868299e-02    1.570948e+00   1.203723e-01
  4.089344e-02    1.540748e+00   1.159435e-01
  4.310390e-02    1.392885e+00   1.073697e-01
  4.531436e-02    1.318739e+00   1.018932e-01
  4.752481e-02    1.367486e+00   1.013165e-01
  4.973527e-02    1.342244e+00   9.812227e-02
  5.194572e-02    1.342334e+00   9.601372e-02
  5.415618e-02    1.318522e+00   9.319284e-02
  5.636664e-02    1.310560e+00   9.107381e-02
  5.857709e-02    1.496880e+00   9.547906e-02
  6.078755e-02    1.523955e+00   9.456782e-02
  6.299801e-02    1.450778e+00   9.063523e-02
  6.520846e-02    1.471035e+00   8.970615e-02
  6.741892e-02    1.485688e+00   8.865714e-02
  6.962938e-02    1.428070e+00   8.553447e-02
  7.183983e-02    1.394459e+00   8.320988e-02
  7.405029e-02    1.464569e+00   8.399167e-02
  7.626074e-02    1.491137e+00   8.351205e-02
  7.847120e-02    1.502034e+00   8.262545e-02
  8.068166e-02    1.394207e+00   7.850583e-02
  8.289211e-02    1.548829e+00   8.163350e-02
  8.510257e-02    1.609795e+00   8.213622e-02
  8.731303e-02    1.442973e+00   7.677043e-02
  8.952348e-02    1.471400e+00   7.656192e-02
  9.173394e-02    1.615191e+00   7.924024e-02
  9.394439e-02    1.509540e+00   7.569578e-02
  9.615485e-02    1.565950e+00   7.620415e-02
  9.836531e-02    1.549988e+00   7.495605e-02
  1.005758e-01    1.488763e+00   7.264943e-02
  1.027862e-01    1.475405e+00   7.153909e-02
  1.049967e-01    1.479170e+00   7.087108e-02
  1.072071e-01    1.522008e+00   7.114415e-02
  1.094176e-01    1.516366e+00   7.029015e-02
  1.116280e-01    1.583118e+00   7.110438e-02
  1.138385e-01    1.503323e+00   6.861191e-02
  1.160490e-01    1.511555e+00   6.814029e-02
  1.182594e-01    1.523096e+00   6.775620e-02
  1.204699e-01    1.464331e+00   6.582339e-02
  1.226803e-01    1.571308e+00   6.756550e-02
  1.248908e-01    1.517795e+00   6.581398e-02
  1.271012e-01    1.569101e+00   6.633132e-02
  1.293117e-01    1.631489e+00   6.705575e-02
  1.315222e-01    1.623353e+00   6.632230e-02
  1.337326e-01    1.617446e+00   6.565090e-02
  1.359431e-01    1.613069e+00   6.560037e-02
  1.381535e-01    1.613715e+00   6.649422e-02
  1.403640e-01    1.540881e+00   6.525689e-02
  1.425744e-01    1.532736e+00   6.518814e-02
  1.447849e-01    1.574629e+00   6.608822e-02
  1.469953e-01    1.590083e+00   6.637014e-02
  1.492058e-01    1.688617e+00   6.831616e-02
  1.514163e-01    1.625461e+00   6.691515e-02
  1.536267e-01    1.597387e+00   6.620525e-02
  1.558372e-01    1.678067e+00   6.770679e-02
  1.580476e-01    1.643497e+00   6.684314e-02
  1.602581e-01    1.579691e+00   6.536632e-02
  1.624685e-01    1.621025e+00   6.603470e-02
  1.646790e-01    1.656261e+00   6.655686e-02
  1.668895e-01    1.697275e+00   6.718130e-02
  1.690999e-01    1.714784e+00   6.732419e-02
  1.713104e-01    1.667202e+00   6.617750e-02
  1.735208e-01    1.772599e+00   6.802507e-02
  1.757313e-01    1.832949e+00   6.895658e-02
  1.779417e-01    1.839933e+00   6.886252e-02
  1.801522e-01    1.932963e+00   7.035714e-02
  1.823626e-01    1.957369e+00   7.056424e-02
  1.845731e-01    1.983545e+00   7.080439e-02
  1.867836e-01    1.912733e+00   6.929442e-02
  1.889940e-01    1.894915e+00   6.874552e-02
  1.912045e-01    1.996830e+00   7.033431e-02
  1.934149e-01    2.023974e+00   7.057379e-02
  1.956254e-01    2.070990e+00   7.115331e-02
  1.978358e-01    2.073975e+00   7.096058e-02
  2.000463e-01    2.016083e+00   6.973132e-02
  2.022568e-01    1.941642e+00   6.820726e-02
  2.044672e-01    1.936512e+00   6.788373e-02
  2.066777e-01    1.992586e+00   6.863099e-02
  2.088881e-01    1.936133e+00   6.743046e-02
  2.110986e-01    1.958163e+00   6.758045e-02
  2.133090e-01    1.947332e+00   6.717421e-02
  2.155195e-01    1.947583e+00   6.695568e-02
  2.177300e-01    2.039980e+00   6.798722e-02
  2.199404e-01    1.951970e+00   6.475209e-02
  2.221509e-01    1.946316e+00   6.359650e-02
  2.243613e-01    2.045369e+00   6.436823e-02
  2.265718e-01    2.089067e+00   6.433519e-02
  2.287822e-01    2.147240e+00   6.457919e-02
  2.309927e-01    2.195396e+00   6.470449e-02
  2.332031e-01    2.130899e+00   6.320135e-02
  2.354136e-01    2.163811e+00   6.317135e-02
  2.376241e-01    2.198822e+00   6.318612e-02
  2.398345e-01    2.174922e+00   6.237669e-02
  2.420450e-01    2.108532e+00   6.097835e-02
  2.442554e-01    2.103043e+00   6.047940e-02
  2.464659e-01    2.118240e+00   6.028998e-02
  2.486763e-01    2.156508e+00   6.043229e-02
  2.508868e-01    2.171450e+00   6.025874e-02
  2.530973e-01    2.169460e+00   5.985771e-02
  2.553077e-01    2.101778e+00   5.855921e-02
  2.575182e-01    2.149311e+00   5.886732e-02
  2.597286e-01    2.079239e+00   5.756322e-02
  2.619391e-01    2.102262e+00   5.754778e-02
  2.641495e-01    2.130836e+00   5.761692e-02
  2.663600e-01    2.064255e+00   5.639775e-02
  2.685704e-01    2.091302e+00   5.645830e-02
  2.707809e-01    2.044893e+00   5.553202e-02
  2.729914e-01    2.032671e+00   5.507728e-02
  2.752018e-01    1.940383e+00   5.353235e-02
  2.774123e-01    2.025559e+00   5.441528e-02
  2.796227e-01    2.044440e+00   5.439790e-02
  2.818332e-01    1.925186e+00   5.252419e-02
  2.840436e-01    1.973365e+00   5.291956e-02
  2.862541e-01    1.983382e+00   5.279870e-02
  2.884646e-01    1.948477e+00   5.208368e-02
  2.906750e-01    1.995004e+00   5.245195e-02
  2.928855e-01    1.976826e+00   5.197052e-02
  2.950959e-01    1.970771e+00   5.165249e-02
  2.973064e-01    1.945594e+00   5.109086e-02
  2.995168e-01    1.949196e+00   5.090651e-02
  3.017273e-01    1.914086e+00   5.022355e-02
  3.039377e-01    1.917549e+00   5.004884e-02
  3.061482e-01    1.923697e+00   4.991216e-02
  3.083587e-01    1.887418e+00   4.922527e-02
  3.105691e-01    1.920464e+00   4.944224e-02
  3.127796e-01    1.928040e+00   4.933139e-02
  3.149900e-01    1.943742e+00   4.932551e-02
  3.172005e-01    1.838638e+00   4.777721e-02
  3.194109e-01    1.899359e+00   4.835925e-02
  3.216214e-01    1.889692e+00   4.803922e-02
  3.238319e-01    1.855187e+00   4.741003e-02
  3.260423e-01    1.842363e+00   4.705768e-02
  3.282528e-01    1.909644e+00   4.771851e-02
  3.304632e-01    1.822487e+00   4.643627e-02
  3.326737e-01    1.841043e+00   4.648992e-02
  3.348841e-01    1.888469e+00   4.690236e-02
  3.370946e-01    1.838516e+00   4.610375e-02
  3.393050e-01    1.762022e+00   4.496351e-02
  3.415155e-01    1.800185e+00   4.527691e-02
  3.437260e-01    1.867678e+00   4.594696e-02
  3.459364e-01    1.869607e+00   4.580062e-02
  3.481469e-01    1.812814e+00   4.493500e-02
  3.503573e-01    1.822204e+00   4.488710e-02
  3.525678e-01    1.806832e+00   4.453808e-02
  3.547782e-01    1.786865e+00   4.413123e-02
  3.569887e-01    1.763271e+00   4.368357e-02
  3.591992e-01    1.808921e+00   4.408886e-02
  3.614096e-01    1.817889e+00   4.404479e-02
  3.636201e-01    1.799066e+00   4.366218e-02
  3.658305e-01    1.798270e+00   4.350363e-02
  3.680410e-01    1.789058e+00   4.324280e-02
  3.702514e-01    1.798669e+00   4.321298e-02
  3.724619e-01    1.819659e+00   4.331638e-02
  3.746724e-01    1.801929e+00   4.296103e-02
  3.768828e-01    1.705904e+00   4.166000e-02
  3.790933e-01    1.749565e+00   4.205227e-02
  3.813037e-01    1.779060e+00   4.226651e-02
  3.835142e-01    1.791995e+00   4.228058e-02
  3.857246e-01    1.769500e+00   4.187839e-02
  3.879351e-01    1.738845e+00   4.137969e-02
  3.901455e-01    1.779260e+00   4.172453e-02
  3.923560e-01    1.799417e+00   4.182687e-02
  3.945665e-01    1.776117e+00   4.142340e-02
  3.967769e-01    1.760626e+00   4.111320e-02
  3.989874e-01    1.788926e+00   4.131290e-02
  4.011978e-01    1.785237e+00   4.114338e-02
  4.034083e-01    1.799535e+00   4.118097e-02
  4.056187e-01    1.846827e+00   4.159008e-02
  4.078292e-01    1.830038e+00   4.127532e-02
  4.100397e-01    1.790818e+00   4.070599e-02
  4.122501e-01    1.751131e+00   4.013196e-02
  4.144606e-01    1.793934e+00   4.049902e-02
  4.166710e-01    1.844396e+00   4.094257e-02
  4.188815e-01    1.796230e+00   4.028510e-02
  4.210919e-01    1.747995e+00   3.962404e-02
  4.233024e-01    1.751169e+00   3.954334e-02
  4.255128e-01    1.785634e+00   3.981515e-02
  4.277233e-01    1.816820e+00   4.004594e-02
  4.299338e-01    1.823414e+00   4.000312e-02
  4.321442e-01    1.789293e+00   3.951367e-02
  4.343547e-01    1.744109e+00   3.890128e-02
  4.365651e-01    1.733268e+00   3.866998e-02
  4.387756e-01    1.737740e+00   3.861142e-02
  4.409860e-01    1.794720e+00   3.913063e-02
  4.431965e-01    1.731943e+00   3.833389e-02
  4.454070e-01    1.751749e+00   3.844518e-02
  4.476174e-01    1.733744e+00   3.814209e-02
  4.498279e-01    1.781753e+00   3.856136e-02
  4.520383e-01    1.767599e+00   3.830251e-02
  4.542488e-01    1.665739e+00   3.708226e-02
  4.564592e-01    1.692182e+00   3.727515e-02
  4.586697e-01    1.679352e+00   3.703503e-02
  4.608801e-01    1.707787e+00   3.724720e-02
  4.630906e-01    1.723233e+00   3.731620e-02
  4.653011e-01    1.719540e+00   3.717815e-02
  4.675115e-01    1.746821e+00   3.737325e-02
  4.697220e-01    1.677548e+00   3.652881e-02
  4.719324e-01    1.702712e+00   3.670656e-02
  4.741429e-01    1.752809e+00   3.714668e-02
  4.763533e-01    1.721720e+00   3.672139e-02
  4.785638e-01    1.768561e+00   3.712141e-02
  4.807743e-01    1.704813e+00   3.635358e-02
  4.829847e-01    1.656030e+00   3.573915e-02
  4.851952e-01    1.683597e+00   3.594421e-02
  4.874056e-01    1.680531e+00   3.582091e-02
  4.896161e-01    1.700881e+00   3.594776e-02
  4.918265e-01    1.740384e+00   3.627253e-02
  4.940370e-01    1.645989e+00   3.518805e-02
  4.962475e-01    1.662108e+00   3.527259e-02
  4.984579e-01    1.667801e+00   3.524587e-02
  5.006684e-01    1.670744e+00   3.519094e-02
  5.028788e-01    1.680354e+00   3.520649e-02
  5.050893e-01    1.663773e+00   3.494716e-02
  5.072997e-01    1.659058e+00   3.481332e-02
  5.095102e-01    1.660168e+00   3.474156e-02
  5.117206e-01    1.684788e+00   3.491499e-02
  5.139311e-01    1.615550e+00   3.410913e-02
  5.161416e-01    1.603927e+00   3.390587e-02
  5.183520e-01    1.680448e+00   3.462278e-02
  5.205625e-01    1.665442e+00   3.438711e-02
  5.227729e-01    1.695348e+00   3.461355e-02
  5.249834e-01    1.638657e+00   3.395092e-02
  5.271938e-01    1.651574e+00   3.400492e-02
  5.294043e-01    1.739547e+00   3.481828e-02
  5.316148e-01    1.807152e+00   3.540715e-02
  5.338252e-01    1.813052e+00   3.538385e-02
  5.360357e-01    1.761382e+00   3.479663e-02
  5.382461e-01    1.746153e+00   3.456752e-02
  5.404566e-01    1.766066e+00   3.468498e-02
  5.426670e-01    1.745664e+00   3.440634e-02
  5.448775e-01    1.722453e+00   3.410047e-02
  5.470879e-01    1.822291e+00   3.499661e-02
  5.492984e-01    1.776051e+00   3.447294e-02
  5.515089e-01    1.763306e+00   3.427283e-02
  5.537193e-01    1.744033e+00   3.400992e-02
  5.559298e-01    1.834732e+00   3.480653e-02
  5.581402e-01    1.773302e+00   3.414413e-02
  5.603507e-01    1.801107e+00   3.433589e-02
  5.625611e-01    1.843000e+00   3.465753e-02
  5.647716e-01    1.811425e+00   3.428477e-02
  5.669821e-01    1.800453e+00   3.410709e-02
  5.691925e-01    1.781931e+00   3.385838e-02
  5.714030e-01    1.708304e+00   3.308082e-02
  5.736134e-01    1.698404e+00   3.291466e-02
  5.758239e-01    1.712747e+00   3.298280e-02
  5.780343e-01    1.700485e+00   3.279501e-02
  5.802448e-01    1.694613e+00   3.266979e-02
  5.824552e-01    1.647067e+00   3.214066e-02
  5.846657e-01    1.631677e+00   3.192344e-02
  5.868762e-01    1.668604e+00   3.221547e-02
  5.890866e-01    1.619834e+00   3.167532e-02
  5.912971e-01    1.628728e+00   3.169640e-02
  5.935075e-01    1.646164e+00   3.179974e-02
  5.957180e-01    1.614434e+00   3.142719e-02
  5.979284e-01    1.589710e+00   3.112192e-02
  6.001389e-01    1.697254e+00   3.209192e-02
  6.023494e-01    1.648688e+00   3.156525e-02
  6.045598e-01    1.630976e+00   3.133129e-02
  6.067703e-01    1.662906e+00   3.157288e-02
  6.089807e-01    1.664301e+00   3.152263e-02
  6.111912e-01    1.637747e+00   3.120769e-02
  6.134016e-01    1.660302e+00   3.135918e-02
  6.156121e-01    1.692899e+00   3.160258e-02
  6.178226e-01    1.693864e+00   3.154901e-02
  6.200330e-01    1.706837e+00   3.160711e-02
  6.222435e-01    1.704182e+00   3.151996e-02
  6.244539e-01    1.711915e+00   3.152953e-02
  6.266644e-01    1.724790e+00   3.158614e-02
  6.288748e-01    1.693397e+00   3.123647e-02
  6.310853e-01    1.683216e+00   3.108195e-02
  6.332957e-01    1.677462e+00   3.096887e-02
  6.355062e-01    1.683826e+00   3.096729e-02
  6.377167e-01    1.699308e+00   3.104963e-02
  6.399271e-01    1.706261e+00   3.105349e-02
  6.421376e-01    1.693398e+00   3.087715e-02
  6.443480e-01    1.669557e+00   3.060071e-02
  6.465585e-01    1.697074e+00   3.079339e-02
  6.487689e-01    1.714513e+00   3.089278e-02
  6.509794e-01    1.691135e+00   3.062357e-02
  6.531899e-01    1.640746e+00   3.010718e-02
  6.554003e-01    1.610589e+00   2.977309e-02
  6.576108e-01    1.677106e+00   3.032513e-02
  6.598212e-01    1.631122e+00   2.985095e-02
  6.620317e-01    1.639740e+00   2.987420e-02
  6.642421e-01    1.652682e+00   2.993639e-02
  6.664526e-01    1.625144e+00   2.963125e-02
  6.686630e-01    1.587960e+00   2.923614e-02
  6.708735e-01    1.589225e+00   2.919412e-02
  6.730840e-01    1.621316e+00   2.943365e-02
  6.752944e-01    1.650612e+00   2.964438e-02
  6.775049e-01    1.590641e+00   2.904804e-02
  6.797153e-01    1.611905e+00   2.918858e-02
  6.819258e-01    1.629551e+00   2.929500e-02
  6.841362e-01    1.635187e+00   2.929284e-02
  6.863467e-01    1.586815e+00   2.880466e-02
  6.885572e-01    1.537525e+00   2.830291e-02
  6.907676e-01    1.598728e+00   2.880903e-02
  6.929781e-01    1.566761e+00   2.846888e-02
  6.951885e-01    1.572431e+00   2.846981e-02
  6.973990e-01    1.617138e+00   2.882065e-02
  6.996094e-01    1.652935e+00   2.908663e-02
  7.018199e-01    1.650411e+00   2.901342e-02
  7.040303e-01    1.620788e+00   2.870136e-02
  7.062408e-01    1.589368e+00   2.837201e-02
  7.084513e-01    1.566798e+00   2.812084e-02
  7.106617e-01    1.580067e+00   2.819058e-02
  7.128722e-01    1.569575e+00   2.804824e-02
  7.150826e-01    1.548000e+00   2.780677e-02
  7.172931e-01    1.586625e+00   2.810301e-02
  7.195035e-01    1.562589e+00   2.784140e-02
  7.217140e-01    1.544869e+00   2.773206e-02
  7.239245e-01    1.538382e+00   2.789787e-02
  7.261349e-01    1.598260e+00   2.854505e-02
  7.283454e-01    1.578855e+00   2.844375e-02
  7.305558e-01    1.591091e+00   2.860801e-02
  7.327663e-01    1.584382e+00   2.859029e-02
  7.349767e-01    1.532554e+00   2.813492e-02
  7.371872e-01    1.531915e+00   2.811802e-02
  7.393976e-01    1.514644e+00   2.794507e-02
  7.416081e-01    1.564670e+00   2.838671e-02
  7.438186e-01    1.550780e+00   2.811719e-02
  7.460290e-01    1.547095e+00   2.779213e-02
  7.482395e-01    1.556092e+00   2.770265e-02
  7.504499e-01    1.577572e+00   2.775681e-02
  7.526604e-01    1.566852e+00   2.754608e-02
  7.548708e-01    1.564103e+00   2.743277e-02
  7.570813e-01    1.575308e+00   2.747989e-02
  7.592918e-01    1.572191e+00   2.741754e-02
  7.615022e-01    1.544141e+00   2.713837e-02
  7.637127e-01    1.552636e+00   2.718039e-02
  7.659231e-01    1.551355e+00   2.713739e-02
  7.681336e-01    1.547444e+00   2.707185e-02
  7.703440e-01    1.561558e+00   2.716393e-02
  7.725545e-01    1.567781e+00   2.718718e-02
  7.747650e-01    1.630934e+00   2.769048e-02
  7.769754e-01    1.616964e+00   2.751825e-02
  7.791859e-01    1.593395e+00   2.726316e-02
  7.813963e-01    1.584789e+00   2.713673e-02
  7.836068e-01    1.590275e+00   2.713159e-02
  7.858172e-01    1.560210e+00   2.682364e-02
  7.880277e-01    1.566621e+00   2.682757e-02
  7.902381e-01    1.582035e+00   2.691024e-02
  7.924486e-01    1.595593e+00   2.697524e-02
  7.946591e-01    1.605906e+00   2.701390e-02
  7.968695e-01    1.586643e+00   2.680336e-02
  7.990800e-01    1.590869e+00   2.679105e-02
  8.012904e-01    1.604265e+00   2.685707e-02
  8.035009e-01    1.645787e+00   2.715402e-02
  8.057113e-01    1.602055e+00   2.674450e-02
  8.079218e-01    1.602569e+00   2.670262e-02
  8.101323e-01    1.621308e+00   2.681269e-02
  8.123427e-01    1.620385e+00   2.675934e-02
  8.145532e-01    1.632568e+00   2.681381e-02
  8.167636e-01    1.625234e+00   2.670852e-02
  8.189741e-01    1.621436e+00   2.663283e-02
  8.211845e-01    1.602219e+00   2.643015e-02
  8.233950e-01    1.610283e+00   2.645350e-02
  8.256054e-01    1.641908e+00   2.666772e-02
  8.278159e-01    1.641013e+00   2.661646e-02
  8.300264e-01    1.672586e+00   2.682774e-02
  8.322368e-01    1.696317e+00   2.697353e-02
  8.344473e-01    1.667666e+00   2.670100e-02
  8.366577e-01    1.636633e+00   2.640885e-02
  8.388682e-01    1.634777e+00   2.635168e-02
  8.410786e-01    1.640694e+00   2.635724e-02
  8.432891e-01    1.626464e+00   2.620102e-02
  8.454996e-01    1.614684e+00   2.606463e-02
  8.477100e-01    1.631964e+00   2.616215e-02
  8.499205e-01    1.637998e+00   2.616931e-02
  8.521309e-01    1.596065e+00   2.579191e-02
  8.543414e-01    1.614486e+00   2.589982e-02
  8.565518e-01    1.623018e+00   2.592775e-02
  8.587623e-01    1.623480e+00   2.589107e-02
  8.609727e-01    1.618830e+00   2.581387e-02
  8.631832e-01    1.616772e+00   2.575768e-02
  8.653937e-01    1.640216e+00   2.590389e-02
  8.676041e-01    1.629955e+00   2.578378e-02
  8.698146e-01    1.653937e+00   2.593306e-02
  8.720250e-01    1.632844e+00   2.572791e-02
  8.742355e-01    1.603555e+00   2.545730e-02
  8.764459e-01    1.580723e+00   2.523686e-02
  8.786564e-01    1.573045e+00   2.513797e-02
  8.808669e-01    1.602656e+00   2.533497e-02
  8.830773e-01    1.609156e+00   2.534810e-02
  8.852878e-01    1.614218e+00   2.534985e-02
  8.874982e-01    1.617970e+00   2.534248e-02
  8.897087e-01    1.618630e+00   2.530976e-02
  8.919191e-01    1.589238e+00   2.504130e-02
  8.941296e-01    1.591930e+00   2.502529e-02
  8.963401e-01    1.600360e+00   2.505505e-02
  8.985505e-01    1.596554e+00   2.498832e-02
  9.007610e-01    1.593493e+00   2.492768e-02
  9.029714e-01    1.615199e+00   2.506087e-02
  9.051819e-01    1.595107e+00   2.486735e-02
  9.073923e-01    1.597553e+00   2.484987e-02
  9.096028e-01    1.569791e+00   2.459841e-02
  9.118132e-01    1.605017e+00   2.483660e-02
  9.140237e-01    1.576798e+00   2.458094e-02
  9.162342e-01    1.581341e+00   2.458197e-02
  9.184446e-01    1.587188e+00   2.459176e-02
  9.206551e-01    1.607505e+00   2.471298e-02
  9.228655e-01    1.576947e+00   2.444198e-02
  9.250760e-01    1.573982e+00   2.438393e-02
  9.272864e-01    1.622809e+00   2.472477e-02
  9.294969e-01    1.673693e+00   2.507283e-02
  9.317074e-01    1.634421e+00   2.474193e-02
  9.339178e-01    1.636304e+00   2.472233e-02
  9.361283e-01    1.657061e+00   2.484198e-02
  9.383387e-01    1.651935e+00   2.476981e-02
  9.405492e-01    1.589441e+00   2.426282e-02
  9.427596e-01    1.633100e+00   2.455837e-02
  9.449701e-01    1.667486e+00   2.478186e-02
  9.471805e-01    1.690239e+00   2.491503e-02
  9.493910e-01    1.668531e+00   2.472055e-02
  9.516015e-01    1.687296e+00   2.482446e-02
  9.538119e-01    1.686391e+00   2.478379e-02
  9.560224e-01    1.707751e+00   2.490514e-02
  9.582328e-01    1.725930e+00   2.500376e-02
  9.604433e-01    1.770590e+00   2.528932e-02
  9.626537e-01    1.802485e+00   2.548179e-02
  9.648642e-01    1.818149e+00   2.555722e-02
  9.670747e-01    1.836788e+00   2.565245e-02
  9.692851e-01    1.807102e+00   2.541051e-02
  9.714956e-01    1.825206e+00   2.550146e-02
  9.737060e-01    1.811203e+00   2.537007e-02
  9.759165e-01    1.826197e+00   2.543895e-02
  9.781269e-01    1.808476e+00   2.528212e-02
  9.803374e-01    1.807014e+00   2.523693e-02
  9.825478e-01    1.798805e+00   2.514634e-02
  9.847583e-01    1.789835e+00   2.504950e-02
  9.869688e-01    1.785977e+00   2.498898e-02
  9.891792e-01    1.789586e+00   2.498100e-02
  9.913897e-01    1.732586e+00   2.454676e-02
  9.936001e-01    1.739020e+00   2.456009e-02
  9.958106e-01    1.712659e+00   2.434013e-02
  9.980210e-01    1.652588e+00   2.387842e-02
  1.000231e+00    1.653588e+00   2.401649e-02
  1.002442e+00    1.606772e+00   2.379987e-02
  1.004652e+00    1.608623e+00   2.387997e-02
  1.006863e+00    1.624323e+00   2.404603e-02
  1.009073e+00    1.630906e+00   2.413159e-02
  1.011284e+00    1.613131e+00   2.403181e-02
  1.013494e+00    1.583334e+00   2.383244e-02
  1.015705e+00    1.556181e+00   2.364952e-02
  1.017915e+00    1.535716e+00   2.350971e-02
  1.020126e+00    1.526372e+00   2.345390e-02
  1.022336e+00    1.549487e+00   2.364247e-02
  1.024547e+00    1.573062e+00   2.383295e-02
  1.026757e+00    1.553819e+00   2.369512e-02
  1.028967e+00    1.555156e+00   2.371301e-02
  1.031178e+00    1.535068e+00   2.356554e-02
  1.033388e+00    1.541669e+00   2.362120e-02
  1.035599e+00    1.590005e+00   2.399215e-02
  1.037809e+00    1.551255e+00   2.370128e-02
  1.040020e+00    1.592037e+00   2.401208e-02
  1.042230e+00    1.657978e+00   2.450635e-02
  1.044441e+00    1.730737e+00   2.503805e-02
  1.046651e+00    1.724523e+00   2.499330e-02
  1.048862e+00    1.617500e+00   2.420451e-02
  1.051072e+00    1.564522e+00   2.380241e-02
  1.053282e+00    1.566864e+00   2.381923e-02
  1.055493e+00    1.583085e+00   2.393780e-02
  1.057703e+00    1.553284e+00   2.370987e-02
  1.059914e+00    1.539710e+00   2.360171e-02
  1.062124e+00    1.505274e+00   2.333221e-02
  1.064335e+00    1.559410e+00   2.374451e-02
  1.066545e+00    1.560558e+00   2.374714e-02
  1.068756e+00    1.533722e+00   2.353826e-02
  1.070966e+00    1.510496e+00   2.335274e-02
  1.073177e+00    1.505764e+00   2.331000e-02
  1.075387e+00    1.498906e+00   2.325159e-02
  1.077597e+00    1.500476e+00   2.325643e-02
  1.079808e+00    1.471405e+00   2.289698e-02
  1.082018e+00    1.447776e+00   2.252428e-02
  1.084229e+00    1.469555e+00   2.258267e-02
  1.086439e+00    1.519134e+00   2.287110e-02
  1.088650e+00    1.537602e+00   2.293193e-02
  1.090860e+00    1.525916e+00   2.277534e-02
  1.093071e+00    1.553205e+00   2.291375e-02
  1.095281e+00    1.511168e+00   2.254302e-02
  1.097492e+00    1.487485e+00   2.230997e-02
  1.099702e+00    1.485827e+00   2.224533e-02
  1.101912e+00    1.476641e+00   2.212700e-02
  1.104123e+00    1.457309e+00   2.193308e-02
  1.106333e+00    1.474000e+00   2.201327e-02
  1.108544e+00    1.464232e+00   2.189544e-02
  1.110754e+00    1.431809e+00   2.160856e-02
  1.112965e+00    1.425331e+00   2.151903e-02
  1.115175e+00    1.452335e+00   2.168027e-02
  1.117386e+00    1.442840e+00   2.156966e-02
  1.119596e+00    1.413530e+00   2.131156e-02
  1.121807e+00    1.387275e+00   2.107421e-02
  1.124017e+00    1.376309e+00   2.095448e-02
  1.126228e+00    1.406720e+00   2.114893e-02
  1.128438e+00    1.408196e+00   2.112320e-02
  1.130648e+00    1.388547e+00   2.094111e-02
  1.132859e+00    1.357271e+00   2.067006e-02
  1.135069e+00    1.340138e+00   2.050510e-02
  1.137280e+00    1.381963e+00   2.078972e-02
  1.139490e+00    1.395091e+00   2.085507e-02
  1.141701e+00    1.419883e+00   2.100603e-02
  1.143911e+00    1.377451e+00   2.065800e-02
  1.146122e+00    1.373137e+00   2.059368e-02
  1.148332e+00    1.383706e+00   2.064086e-02
  1.150543e+00    1.368629e+00   2.049738e-02
  1.152753e+00    1.350585e+00   2.033125e-02
  1.154963e+00    1.340228e+00   2.022248e-02
  1.157174e+00    1.333151e+00   2.013929e-02
  1.159384e+00    1.357337e+00   2.029147e-02
  1.161595e+00    1.344560e+00   2.016618e-02
  1.163805e+00    1.347253e+00   2.015733e-02
  1.166016e+00    1.337246e+00   2.005323e-02
  1.168226e+00    1.384133e+00   2.037261e-02
  1.170437e+00    1.400413e+00   2.046310e-02
  1.172647e+00    1.381480e+00   2.029524e-02
  1.174858e+00    1.381071e+00   2.026396e-02
  1.177068e+00    1.395513e+00   2.034105e-02
  1.179278e+00    1.384293e+00   2.023030e-02
  1.181489e+00    1.382954e+00   2.019327e-02
  1.183699e+00    1.373915e+00   2.009945e-02
  1.185910e+00    1.357684e+00   1.995260e-02
  1.188120e+00    1.363816e+00   1.997084e-02
  1.190331e+00    1.381813e+00   2.007516e-02
  1.192541e+00    1.367419e+00   1.994283e-02
  1.194752e+00    1.345630e+00   1.975632e-02
  1.196962e+00    1.344955e+00   1.972568e-02
  1.199173e+00    1.341433e+00   1.967342e-02
  1.201383e+00    1.348422e+00   1.969746e-02
  1.203593e+00    1.327186e+00   1.951714e-02
  1.205804e+00    1.329882e+00   1.951122e-02
  1.208014e+00    1.338473e+00   1.954741e-02
  1.210225e+00    1.347031e+00   1.958450e-02
  1.212435e+00    1.351332e+00   1.959094e-02
  1.214646e+00    1.351900e+00   1.956892e-02
  1.216856e+00    1.347560e+00   1.951205e-02
  1.219067e+00    1.328696e+00   1.935071e-02
  1.221277e+00    1.345774e+00   1.944968e-02
  1.223488e+00    1.361125e+00   1.953446e-02
  1.225698e+00    1.346268e+00   1.940069e-02
  1.227909e+00    1.329694e+00   1.925095e-02
  1.230119e+00    1.325798e+00   1.919116e-02
  1.232329e+00    1.334846e+00   1.922598e-02
  1.234540e+00    1.348658e+00   1.929493e-02
  1.236750e+00    1.329382e+00   1.912652e-02
  1.238961e+00    1.315199e+00   1.899759e-02
  1.241171e+00    1.321218e+00   1.901708e-02
  1.243382e+00    1.340165e+00   1.912952e-02
  1.245592e+00    1.346758e+00   1.915246e-02
  1.247803e+00    1.366400e+00   1.926781e-02
  1.250013e+00    1.378281e+00   1.932762e-02
  1.252224e+00    1.335814e+00   1.900443e-02
  1.254434e+00    1.311778e+00   1.880925e-02
  1.256644e+00    1.310584e+00   1.877782e-02
  1.258855e+00    1.335461e+00   1.893205e-02
  1.261065e+00    1.323367e+00   1.882301e-02
  1.263276e+00    1.342187e+00   1.893347e-02
  1.265486e+00    1.341944e+00   1.890898e-02
  1.267697e+00    1.339261e+00   1.886714e-02
  1.269907e+00    1.302927e+00   1.858716e-02
  1.272118e+00    1.294391e+00   1.850406e-02
  1.274328e+00    1.313254e+00   1.861596e-02
  1.276539e+00    1.308105e+00   1.855702e-02
  1.278749e+00    1.325125e+00   1.865525e-02
  1.280959e+00    1.326172e+00   1.864031e-02
  1.283170e+00    1.340000e+00   1.871487e-02
  1.285380e+00    1.368308e+00   1.888892e-02
  1.287591e+00    1.357657e+00   1.879318e-02
  1.289801e+00    1.348375e+00   1.870762e-02
  1.292012e+00    1.325951e+00   1.853445e-02
  1.294222e+00    1.344831e+00   1.864973e-02
  1.296433e+00    1.349728e+00   1.866806e-02
  1.298643e+00    1.370737e+00   1.879620e-02
  1.300854e+00    1.379967e+00   1.884277e-02
  1.303064e+00    1.341669e+00   1.856031e-02
  1.305274e+00    1.334069e+00   1.848635e-02
  1.307485e+00    1.353432e+00   1.859843e-02
  1.309695e+00    1.381301e+00   1.876647e-02
  1.311906e+00    1.329230e+00   1.838781e-02
  1.314116e+00    1.343237e+00   1.846367e-02
  1.316327e+00    1.392502e+00   1.877720e-02
  1.318537e+00    1.376344e+00   1.864585e-02
  1.320748e+00    1.365597e+00   1.855124e-02
  1.322958e+00    1.339765e+00   1.835449e-02
  1.325169e+00    1.359197e+00   1.846602e-02
  1.327379e+00    1.376078e+00   1.855831e-02
  1.329589e+00    1.378565e+00   1.855382e-02
  1.331800e+00    1.349575e+00   1.833699e-02
  1.334010e+00    1.354077e+00   1.834685e-02
  1.336221e+00    1.367803e+00   1.841773e-02
  1.338431e+00    1.330315e+00   1.814287e-02
  1.340642e+00    1.351724e+00   1.835247e-02
  1.342852e+00    1.342638e+00   1.839108e-02
  1.345063e+00    1.372524e+00   1.864454e-02
  1.347273e+00    1.347944e+00   1.851206e-02
  1.349484e+00    1.344942e+00   1.851904e-02
  1.351694e+00    1.362718e+00   1.866385e-02
  1.353905e+00    1.334489e+00   1.848743e-02
  1.356115e+00    1.334948e+00   1.850555e-02
  1.358325e+00    1.323243e+00   1.843744e-02
  1.360536e+00    1.322083e+00   1.844086e-02
  1.362746e+00    1.310491e+00   1.836925e-02
  1.364957e+00    1.340569e+00   1.858651e-02
  1.367167e+00    1.353163e+00   1.868076e-02
  1.369378e+00    1.343646e+00   1.862099e-02
  1.371588e+00    1.325692e+00   1.850125e-02
  1.373799e+00    1.341170e+00   1.861263e-02
  1.376009e+00    1.296960e+00   1.830663e-02
  1.378220e+00    1.295094e+00   1.829592e-02
  1.380430e+00    1.295780e+00   1.830345e-02
  1.382640e+00    1.276579e+00   1.816822e-02
  1.384851e+00    1.307958e+00   1.839102e-02
  1.387061e+00    1.297045e+00   1.831445e-02
  1.389272e+00    1.281789e+00   1.820661e-02
  1.391482e+00    1.295260e+00   1.830136e-02
  1.393693e+00    1.296485e+00   1.830914e-02
  1.395903e+00    1.281787e+00   1.820356e-02
  1.398114e+00    1.291542e+00   1.827132e-02
  1.400324e+00    1.268060e+00   1.810235e-02
  1.402535e+00    1.251411e+00   1.798081e-02
  1.404745e+00    1.262079e+00   1.805493e-02
  1.406955e+00    1.287193e+00   1.823098e-02
  1.409166e+00    1.277252e+00   1.815714e-02
  1.411376e+00    1.292265e+00   1.826039e-02
  1.413587e+00    1.252391e+00   1.797268e-02
  1.415797e+00    1.263710e+00   1.805017e-02
  1.418008e+00    1.287746e+00   1.817888e-02
  1.420218e+00    1.273378e+00   1.792725e-02
  1.422429e+00    1.263001e+00   1.776897e-02
  1.424639e+00    1.260724e+00   1.768851e-02
  1.426850e+00    1.255883e+00   1.760011e-02
  1.429060e+00    1.226791e+00   1.734692e-02
  1.431270e+00    1.245530e+00   1.743501e-02
  1.433481e+00    1.254125e+00   1.745437e-02
  1.435691e+00    1.262374e+00   1.747337e-02
  1.437902e+00    1.281399e+00   1.756792e-02
  1.440112e+00    1.282361e+00   1.753900e-02
  1.442323e+00    1.273232e+00   1.744336e-02
  1.444533e+00    1.285991e+00   1.749780e-02
  1.446744e+00    1.266466e+00   1.733338e-02
  1.448954e+00    1.258137e+00   1.724622e-02
  1.451165e+00    1.277299e+00   1.734722e-02
  1.453375e+00    1.279948e+00   1.733705e-02
  1.455586e+00    1.277410e+00   1.729160e-02
  1.457796e+00    1.261724e+00   1.715770e-02
  1.460006e+00    1.257489e+00   1.710174e-02
  1.462217e+00    1.272258e+00   1.717565e-02
  1.464427e+00    1.274940e+00   1.716805e-02
  1.466638e+00    1.283960e+00   1.720323e-02
  1.468848e+00    1.266470e+00   1.706035e-02
  1.471059e+00    1.263116e+00   1.701271e-02
  1.473269e+00    1.253209e+00   1.692165e-02
  1.475480e+00    1.261152e+00   1.695149e-02
  1.477690e+00    1.274198e+00   1.701504e-02
  1.479901e+00    1.283187e+00   1.705099e-02
  1.482111e+00    1.271585e+00   1.695035e-02
  1.484321e+00    1.271929e+00   1.692949e-02
  1.486532e+00    1.275008e+00   1.692756e-02
  1.488742e+00    1.249690e+00   1.673614e-02
  1.490953e+00    1.258641e+00   1.677341e-02
  1.493163e+00    1.274381e+00   1.685559e-02
  1.495374e+00    1.268220e+00   1.679327e-02
  1.497584e+00    1.283059e+00   1.686938e-02
  1.499795e+00    1.257143e+00   1.667654e-02
  1.502005e+00    1.248087e+00   1.659478e-02
  1.504216e+00    1.232388e+00   1.646927e-02
  1.506426e+00    1.225499e+00   1.640262e-02
  1.508636e+00    1.234156e+00   1.644021e-02
  1.510847e+00    1.230388e+00   1.639348e-02
  1.513057e+00    1.247065e+00   1.647922e-02
  1.515268e+00    1.259719e+00   1.653685e-02
  1.517478e+00    1.268968e+00   1.657214e-02
  1.519689e+00    1.263822e+00   1.651345e-02
  1.521899e+00    1.257744e+00   1.645057e-02
  1.524110e+00    1.260002e+00   1.644492e-02
  1.526320e+00    1.248255e+00   1.634853e-02
  1.528531e+00    1.246534e+00   1.631752e-02
  1.530741e+00    1.247280e+00   1.630328e-02
  1.532951e+00    1.257569e+00   1.635074e-02
  1.535162e+00    1.260163e+00   1.645456e-02
  1.537372e+00    1.233966e+00   1.634915e-02
  1.539583e+00    1.213373e+00   1.624589e-02
  1.541793e+00    1.224190e+00   1.632501e-02
  1.544004e+00    1.227600e+00   1.634801e-02
  1.546214e+00    1.224989e+00   1.632912e-02
  1.548425e+00    1.200837e+00   1.616759e-02
  1.550635e+00    1.221607e+00   1.631639e-02
  1.552846e+00    1.241067e+00   1.645548e-02
  1.555056e+00    1.256940e+00   1.651870e-02
  1.557266e+00    1.244307e+00   1.632503e-02
  1.559477e+00    1.262022e+00   1.638130e-02
  1.561687e+00    1.240762e+00   1.621212e-02
  1.563898e+00    1.249560e+00   1.625229e-02
  1.566108e+00    1.239431e+00   1.617036e-02
  1.568319e+00    1.246228e+00   1.619900e-02
  1.570529e+00    1.246118e+00   1.617315e-02
  1.572740e+00    1.237546e+00   1.608988e-02
  1.574950e+00    1.277312e+00   1.631967e-02
  1.577161e+00    1.282478e+00   1.632680e-02
  1.579371e+00    1.236882e+00   1.601036e-02
  1.581582e+00    1.242501e+00   1.602690e-02
  1.583792e+00    1.236770e+00   1.597195e-02
  1.586002e+00    1.223780e+00   1.587037e-02
  1.588213e+00    1.251469e+00   1.603161e-02
  1.590423e+00    1.224110e+00   1.583551e-02
  1.592634e+00    1.228301e+00   1.584109e-02
  1.594844e+00    1.235910e+00   1.586876e-02
  1.597055e+00    1.234257e+00   1.583771e-02
  1.599265e+00    1.239809e+00   1.585257e-02
  1.601476e+00    1.244470e+00   1.586203e-02
  1.603686e+00    1.231466e+00   1.575923e-02
  1.605897e+00    1.231755e+00   1.574099e-02
  1.608107e+00    1.233925e+00   1.573531e-02
  1.610317e+00    1.214633e+00   1.559269e-02
  1.612528e+00    1.214488e+00   1.557274e-02
  1.614738e+00    1.191467e+00   1.540581e-02
  1.616949e+00    1.193095e+00   1.539761e-02
  1.619159e+00    1.191214e+00   1.536699e-02
  1.621370e+00    1.195107e+00   1.537380e-02
  1.623580e+00    1.212105e+00   1.546443e-02
  1.625791e+00    1.184456e+00   1.526897e-02
  1.628001e+00    1.159490e+00   1.508925e-02
  1.630212e+00    1.154237e+00   1.503757e-02
  1.632422e+00    1.153820e+00   1.501720e-02
  1.634632e+00    1.155459e+00   1.501075e-02
  1.636843e+00    1.157028e+00   1.500356e-02
  1.639053e+00    1.159889e+00   1.500491e-02
  1.641264e+00    1.149537e+00   1.492085e-02
  1.643474e+00    1.140423e+00   1.484436e-02
  1.645685e+00    1.123446e+00   1.471703e-02
  1.647895e+00    1.133246e+00   1.476465e-02
  1.650106e+00    1.122813e+00   1.467975e-02
  1.652316e+00    1.113117e+00   1.459999e-02
  1.654527e+00    1.130524e+00   1.469711e-02
  1.656737e+00    1.133130e+00   1.469753e-02
  1.658947e+00    1.103135e+00   1.448561e-02
  1.661158e+00    1.123466e+00   1.460225e-02
  1.663368e+00    1.096771e+00   1.441190e-02
  1.665579e+00    1.085034e+00   1.431866e-02
  1.667789e+00    1.115247e+00   1.450041e-02
  1.670000e+00    1.103588e+00   1.440900e-02
  1.672210e+00    1.091524e+00   1.431428e-02
  1.674421e+00    1.087098e+00   1.427003e-02
  1.676631e+00    1.086518e+00   1.425046e-02
  1.678842e+00    1.081388e+00   1.420113e-02
  1.681052e+00    1.089997e+00   1.424216e-02
  1.683263e+00    1.091851e+00   1.423915e-02
  1.685473e+00    1.066558e+00   1.405823e-02
  1.687683e+00    1.062453e+00   1.401587e-02
  1.689894e+00    1.058097e+00   1.397151e-02
  1.692104e+00    1.050766e+00   1.390828e-02
  1.694315e+00    1.052195e+00   1.390337e-02
  1.696525e+00    1.062289e+00   1.395480e-02
  1.698736e+00    1.055025e+00   1.389225e-02
  1.700946e+00    1.064609e+00   1.394004e-02
  1.703157e+00    1.036961e+00   1.374335e-02
  1.705367e+00    1.035749e+00   1.372093e-02
  1.707578e+00    1.030701e+00   1.367300e-02
  1.709788e+00    1.036910e+00   1.370007e-02
  1.711998e+00    1.040244e+00   1.370708e-02
  1.714209e+00    1.030029e+00   1.362526e-02
  1.716419e+00    1.012466e+00   1.349447e-02
  1.718630e+00    1.016898e+00   1.350979e-02
  1.720840e+00    1.009511e+00   1.344660e-02
  1.723051e+00    1.009700e+00   1.343408e-02
  1.725261e+00    1.015295e+00   1.345662e-02
  1.727472e+00    1.024967e+00   1.350633e-02
  1.729682e+00    1.012550e+00   1.341085e-02
  1.731893e+00    1.007611e+00   1.336421e-02
  1.734103e+00    1.000646e+00   1.330422e-02
  1.736313e+00    9.873037e-01   1.320133e-02
  1.738524e+00    9.817798e-01   1.315067e-02
  1.740734e+00    9.689748e-01   1.305112e-02
  1.742945e+00    9.895703e-01   1.317570e-02
  1.745155e+00    9.694685e-01   1.302790e-02
  1.747366e+00    9.479991e-01   1.286931e-02
  1.749576e+00    9.646506e-01   1.296831e-02
  1.751787e+00    9.681236e-01   1.297840e-02
  1.753997e+00    9.884371e-01   1.310041e-02
  1.756208e+00    1.013215e+00   1.325012e-02
  1.758418e+00    1.046072e+00   1.344965e-02
  1.760628e+00    9.998943e-01   1.313590e-02
  1.762839e+00    1.014826e+00   1.322004e-02
  1.765049e+00    9.733967e-01   1.293422e-02
  1.767260e+00    9.579323e-01   1.281823e-02
  1.769470e+00    9.566920e-01   1.279695e-02
  1.771681e+00    9.294949e-01   1.260075e-02
  1.773891e+00    9.599173e-01   1.279218e-02
  1.776102e+00    9.610716e-01   1.278692e-02
  1.778312e+00    9.354616e-01   1.260273e-02
  1.780523e+00    9.429759e-01   1.264050e-02
  1.782733e+00    9.301766e-01   1.254179e-02
  1.784944e+00    9.378318e-01   1.258040e-02
  1.787154e+00    9.430402e-01   1.260267e-02
  1.789364e+00    9.824396e-01   1.285040e-02
  1.791575e+00    1.008018e+00   1.300356e-02
  1.793785e+00    9.500651e-01   1.261166e-02
  1.795996e+00    9.300982e-01   1.246584e-02
  1.798206e+00    9.073806e-01   1.230021e-02
  1.800417e+00    9.355183e-01   1.247665e-02
  1.802627e+00    9.475957e-01   1.254478e-02
  1.804838e+00    9.512427e-01   1.255654e-02
  1.807048e+00    9.374462e-01   1.245212e-02
  1.809259e+00    9.159492e-01   1.229484e-02
  1.811469e+00    9.087071e-01   1.223115e-02
  1.813679e+00    9.003783e-01   1.215999e-02
  1.815890e+00    8.937296e-01   1.210031e-02
  1.818100e+00    8.687240e-01   1.191496e-02
  1.820311e+00    8.769116e-01   1.195634e-02
  1.822521e+00    8.906261e-01   1.203462e-02
  1.824732e+00    8.885362e-01   1.200569e-02
  1.826942e+00    8.963087e-01   1.204570e-02
  1.829153e+00    8.908787e-01   1.199744e-02
  1.831363e+00    8.488456e-01   1.169918e-02
  1.833574e+00    8.713512e-01   1.184163e-02
  1.835784e+00    8.819548e-01   1.190204e-02
  1.837994e+00    8.837701e-01   1.190252e-02
  1.840205e+00    8.982841e-01   1.198854e-02
  1.842415e+00    8.832080e-01   1.187568e-02
  1.844626e+00    8.960225e-01   1.194978e-02
  1.846836e+00    8.934162e-01   1.192081e-02
  1.849047e+00    9.373312e-01   1.219817e-02
  1.851257e+00    9.565874e-01   1.231278e-02
  1.853468e+00    9.108104e-01   1.200552e-02
  1.855678e+00    8.795734e-01   1.178887e-02
  1.857889e+00    8.721046e-01   1.173015e-02
  1.860099e+00    8.587176e-01   1.163112e-02
  1.862309e+00    8.594196e-01   1.162736e-02
  1.864520e+00    8.501284e-01   1.155578e-02
  1.866730e+00    8.456931e-01   1.151626e-02
  1.868941e+00    8.646277e-01   1.163344e-02
  1.871151e+00    8.762812e-01   1.170003e-02
  1.873362e+00    8.945390e-01   1.180965e-02
  1.875572e+00    8.859275e-01   1.174152e-02
  1.877783e+00    8.556401e-01   1.152757e-02
  1.879993e+00    8.495280e-01   1.147516e-02
  1.882204e+00    8.479394e-01   1.145349e-02
  1.884414e+00    8.647581e-01   1.155533e-02
  1.886624e+00    8.413843e-01   1.138705e-02
  1.888835e+00    8.187886e-01   1.122226e-02
  1.891045e+00    8.300888e-01   1.128863e-02
  1.893256e+00    8.312110e-01   1.128520e-02
  1.895466e+00    8.501891e-01   1.140205e-02
  1.897677e+00    8.553013e-01   1.142523e-02
  1.899887e+00    8.530319e-01   1.139898e-02
  1.902098e+00    8.377984e-01   1.128584e-02
  1.904308e+00    8.577411e-01   1.140863e-02
  1.906519e+00    8.354993e-01   1.124886e-02
  1.908729e+00    8.373005e-01   1.125031e-02
  1.910940e+00    8.329496e-01   1.120990e-02
  1.913150e+00    8.137319e-01   1.106931e-02
  1.915360e+00    8.102558e-01   1.103511e-02
  1.917571e+00    7.979159e-01   1.094004e-02
  1.919781e+00    8.245585e-01   1.111048e-02
  1.921992e+00    8.282023e-01   1.112434e-02
  1.924202e+00    8.119365e-01   1.100385e-02
  1.926413e+00    7.941830e-01   1.087270e-02
  1.928623e+00    8.057875e-01   1.094136e-02
  1.930834e+00    7.968724e-01   1.087035e-02
  1.933044e+00    8.011948e-01   1.088918e-02
  1.935255e+00    8.052606e-01   1.090648e-02
  1.937465e+00    8.146594e-01   1.095951e-02
  1.939675e+00    7.851487e-01   1.074848e-02
  1.941886e+00    7.979957e-01   1.082580e-02
  1.944096e+00    8.002979e-01   1.083127e-02
  1.946307e+00    7.885822e-01   1.074143e-02
  1.948517e+00    7.877117e-01   1.072513e-02
  1.950728e+00    8.031402e-01   1.081938e-02
  1.952938e+00    7.976651e-01   1.077236e-02
  1.955149e+00    7.953311e-01   1.074637e-02
  1.957359e+00    7.910225e-01   1.070719e-02
  1.959570e+00    8.045549e-01   1.078746e-02
  1.961780e+00    8.042093e-01   1.077516e-02
  1.963990e+00    7.911537e-01   1.067723e-02
  1.966201e+00    7.893667e-01   1.065510e-02
  1.968411e+00    7.916238e-01   1.066017e-02
  1.970622e+00    7.865844e-01   1.061609e-02
  1.972832e+00    7.802048e-01   1.056304e-02
  1.975043e+00    7.716079e-01   1.049472e-02
  1.977253e+00    7.772925e-01   1.052342e-02
  1.979464e+00    7.798222e-01   1.053051e-02
  1.981674e+00    7.711405e-01   1.046154e-02
  1.983885e+00    7.872518e-01   1.056020e-02
  1.986095e+00    7.849075e-01   1.053476e-02
  1.988305e+00    7.715882e-01   1.043513e-02
  1.990516e+00    7.796886e-01   1.047985e-02
  1.992726e+00    7.767296e-01   1.045026e-02
  1.994937e+00    7.647066e-01   1.035905e-02
  1.997147e+00    7.535592e-01   1.027364e-02
  1.999358e+00    7.719293e-01   1.038830e-02
  2.001568e+00    7.671742e-01   1.034548e-02
  2.003779e+00    7.815825e-01   1.043020e-02
  2.005989e+00    7.487791e-01   1.019714e-02
  2.008200e+00    7.581393e-01   1.024922e-02
  2.010410e+00    7.644540e-01   1.028011e-02
  2.012621e+00    7.500840e-01   1.017147e-02
  2.014831e+00    7.550179e-01   1.019349e-02
  2.017041e+00    7.502465e-01   1.015096e-02
  2.019252e+00    7.457988e-01   1.011099e-02
  2.021462e+00    7.546416e-01   1.016131e-02
  2.023673e+00    7.676402e-01   1.023907e-02
  2.025883e+00    7.660744e-01   1.021905e-02
  2.028094e+00    7.617112e-01   1.018030e-02
  2.030304e+00    7.621329e-01   1.017356e-02
  2.032515e+00    7.609253e-01   1.015620e-02
  2.034725e+00    7.412654e-01   1.001482e-02
  2.036936e+00    7.522033e-01   1.007912e-02
  2.039146e+00    7.586261e-01   1.011249e-02
  2.041356e+00    7.518823e-01   1.005783e-02
  2.043567e+00    7.326595e-01   9.919254e-03
  2.045777e+00    7.359965e-01   9.932688e-03
  2.047988e+00    7.463681e-01   9.993117e-03
  2.050198e+00    7.462208e-01   9.983736e-03
  2.052409e+00    7.617647e-01   1.007948e-02
  2.054619e+00    7.598676e-01   1.005952e-02
  2.056830e+00    7.555614e-01   1.002377e-02
  2.059040e+00    7.536917e-01   1.000383e-02
  2.061251e+00    7.698117e-01   1.010290e-02
  2.063461e+00    7.591105e-01   1.002480e-02
  2.065671e+00    7.606118e-01   1.002591e-02
  2.067882e+00    7.487257e-01   9.938273e-03
  2.070092e+00    7.576537e-01   9.988080e-03
  2.072303e+00    7.542038e-01   9.956139e-03
  2.074513e+00    7.464616e-01   9.895562e-03
  2.076724e+00    7.588677e-01   9.967912e-03
  2.078934e+00    7.458541e-01   9.873069e-03
  2.081145e+00    7.262393e-01   9.733385e-03
  2.083355e+00    7.423328e-01   9.831456e-03
  2.085566e+00    7.441564e-01   9.834603e-03
  2.087776e+00    7.508222e-01   9.868974e-03
  2.089986e+00    7.480754e-01   9.842074e-03
  2.092197e+00    7.264863e-01   9.690109e-03
  2.094407e+00    7.473316e-01   9.818860e-03
  2.096618e+00    7.353607e-01   9.730996e-03
  2.098828e+00    7.369413e-01   9.732134e-03
  2.101039e+00    7.288579e-01   9.669650e-03
  2.103249e+00    7.288699e-01   9.661069e-03
  2.105460e+00    7.244033e-01   9.622453e-03
  2.107670e+00    7.167828e-01   9.563038e-03
  2.109881e+00    7.164963e-01   9.552024e-03
  2.112091e+00    7.296796e-01   9.630493e-03
  2.114301e+00    7.228352e-01   9.576458e-03
  2.116512e+00    7.241778e-01   9.576531e-03
  2.118722e+00    7.358661e-01   9.644606e-03
  2.120933e+00    7.289831e-01   9.590485e-03
  2.123143e+00    7.120709e-01   9.469713e-03
  2.125354e+00    7.027008e-01   9.398762e-03
  2.127564e+00    7.086173e-01   9.429556e-03
  2.129775e+00    6.978177e-01   9.348831e-03
  2.131985e+00    6.985501e-01   9.344739e-03
  2.134196e+00    7.087085e-01   9.403913e-03
  2.136406e+00    6.945232e-01   9.300680e-03
  2.138617e+00    6.911506e-01   9.269727e-03
  2.140827e+00    6.951261e-01   9.312256e-03
  2.143037e+00    6.862687e-01   9.297531e-03
  2.145248e+00    6.993204e-01   9.407426e-03
  2.147458e+00    7.082914e-01   9.482763e-03
  2.149669e+00    6.949569e-01   9.404863e-03
  2.151879e+00    6.867902e-01   9.358558e-03
  2.154090e+00    7.028542e-01   9.474678e-03
  2.156300e+00    7.089439e-01   9.522305e-03
  2.158511e+00    7.015435e-01   9.477763e-03
  2.160721e+00    7.109964e-01   9.546280e-03
  2.162932e+00    7.147753e-01   9.575390e-03
  2.165142e+00    7.376162e-01   9.730290e-03
  2.167352e+00    7.034385e-01   9.505139e-03
  2.169563e+00    6.911147e-01   9.423435e-03
  2.171773e+00    6.892881e-01   9.413419e-03
  2.173984e+00    6.890380e-01   9.413119e-03
  2.176194e+00    6.833177e-01   9.375144e-03
  2.178405e+00    6.988845e-01   9.482046e-03
  2.180615e+00    6.905830e-01   9.426230e-03
  2.182826e+00    7.014839e-01   9.501039e-03
  2.185036e+00    6.843717e-01   9.384481e-03
  2.187247e+00    6.882552e-01   9.411003e-03
  2.189457e+00    7.086838e-01   9.549256e-03
  2.191667e+00    6.864625e-01   9.398180e-03
  2.193878e+00    6.907691e-01   9.427026e-03
  2.196088e+00    6.883668e-01   9.409964e-03
  2.198299e+00    6.746998e-01   9.314964e-03
  2.200509e+00    6.972225e-01   9.468114e-03
  2.202720e+00    6.807903e-01   9.354735e-03
  2.204930e+00    6.606779e-01   9.214292e-03
  2.207141e+00    6.731727e-01   9.299888e-03
  2.209351e+00    6.780115e-01   9.331387e-03
  2.211562e+00    6.790685e-01   9.337022e-03
  2.213772e+00    6.800969e-01   9.288489e-03
  2.215982e+00    6.849570e-01   9.277117e-03
  2.218193e+00    6.786447e-01   9.204571e-03
  2.220403e+00    6.547108e-01   9.016594e-03
  2.222614e+00    6.663405e-01   9.075467e-03
  2.224824e+00    6.575143e-01   8.996024e-03
  2.227035e+00    6.791664e-01   9.125414e-03
  2.229245e+00    6.696612e-01   9.044397e-03
  2.231456e+00    6.715364e-01   9.041426e-03
  2.233666e+00    6.534594e-01   8.904022e-03
  2.235877e+00    6.584818e-01   8.924020e-03
  2.238087e+00    6.592898e-01   8.916127e-03
  2.240298e+00    6.429515e-01   8.791460e-03
  2.242508e+00    6.649922e-01   8.925786e-03
  2.244718e+00    6.660652e-01   8.917212e-03
  2.246929e+00    6.517218e-01   8.806446e-03
  2.249139e+00    6.628988e-01   8.869286e-03
  2.251350e+00    6.585626e-01   8.828606e-03
  2.253560e+00    6.562766e-01   8.801788e-03
  2.255771e+00    6.641974e-01   8.843346e-03
  2.257981e+00    6.677797e-01   8.855966e-03
  2.260192e+00    6.607111e-01   8.797893e-03
  2.262402e+00    6.667423e-01   8.827085e-03
  2.264613e+00    6.551865e-01   8.739495e-03
  2.266823e+00    6.542557e-01   8.722941e-03
  2.269033e+00    6.634129e-01   8.773400e-03
  2.271244e+00    6.563551e-01   8.716268e-03
  2.273454e+00    6.466913e-01   8.641724e-03
  2.275665e+00    6.527517e-01   8.671874e-03
  2.277875e+00    6.691847e-01   8.770371e-03
  2.280086e+00    6.682418e-01   8.754090e-03
  2.282296e+00    6.514671e-01   8.634176e-03
  2.284507e+00    6.570781e-01   8.661150e-03
  2.286717e+00    6.414229e-01   8.548008e-03
  2.288928e+00    6.615574e-01   8.671227e-03
  2.291138e+00    6.487069e-01   8.577240e-03
  2.293348e+00    6.569160e-01   8.621776e-03
  2.295559e+00    6.466410e-01   8.544855e-03
  2.297769e+00    6.482869e-01   8.546496e-03
  2.299980e+00    6.425606e-01   8.499427e-03
  2.302190e+00    6.395051e-01   8.470161e-03
  2.304401e+00    6.415246e-01   8.474263e-03
  2.306611e+00    6.577815e-01   8.571745e-03
  2.308822e+00    6.573200e-01   8.560309e-03
  2.311032e+00    6.611072e-01   8.578426e-03
  2.313243e+00    6.565923e-01   8.542791e-03
  2.315453e+00    6.386266e-01   8.417583e-03
  2.317663e+00    6.498160e-01   8.481869e-03
  2.319874e+00    6.371536e-01   8.390164e-03
  2.322084e+00    6.389773e-01   8.393234e-03
  2.324295e+00    6.344520e-01   8.355312e-03
  2.326505e+00    6.367458e-01   8.361391e-03
  2.328716e+00    6.282967e-01   8.297313e-03
  2.330926e+00    6.263070e-01   8.275440e-03
  2.333137e+00    6.438846e-01   8.382410e-03
  2.335347e+00    6.389848e-01   8.341587e-03
  2.337558e+00    6.251003e-01   8.242344e-03
  2.339768e+00    6.400309e-01   8.331601e-03
  2.341979e+00    6.431748e-01   8.343659e-03
  2.344189e+00    6.372124e-01   8.296509e-03
  2.346399e+00    6.366407e-01   8.284276e-03
  2.348610e+00    6.172084e-01   8.148548e-03
  2.350820e+00    6.162940e-01   8.134427e-03
  2.353031e+00    6.379668e-01   8.267920e-03
  2.355241e+00    6.276448e-01   8.192754e-03
  2.357452e+00    6.297007e-01   8.197736e-03
  2.359662e+00    6.299548e-01   8.191201e-03
  2.361873e+00    6.311048e-01   8.190426e-03
  2.364083e+00    6.278844e-01   8.161527e-03
  2.366294e+00    6.147410e-01   8.067626e-03
  2.368504e+00    6.251834e-01   8.127791e-03
  2.370714e+00    6.237355e-01   8.110322e-03
  2.372925e+00    6.161873e-01   8.053133e-03
  2.375135e+00    6.025072e-01   7.955297e-03
  2.377346e+00    6.182450e-01   8.050610e-03
  2.379556e+00    6.184981e-01   8.044402e-03
  2.381767e+00    6.208142e-01   8.051588e-03
  2.383977e+00    6.226714e-01   8.055678e-03
  2.386188e+00    6.123438e-01   7.980721e-03
  2.388398e+00    6.096632e-01   7.955341e-03
  2.390609e+00    6.013185e-01   7.893072e-03
  2.392819e+00    6.015038e-01   7.886617e-03
  2.395029e+00    6.009877e-01   7.875655e-03
  2.397240e+00    6.088753e-01   7.919342e-03
  2.399450e+00    6.172690e-01   7.965905e-03
  2.401661e+00    5.987047e-01   7.837617e-03
  2.403871e+00    6.112386e-01   7.911464e-03
  2.406082e+00    6.053549e-01   7.865896e-03
  2.408292e+00    6.019651e-01   7.836087e-03
  2.410503e+00    6.098514e-01   7.879762e-03
  2.412713e+00    6.070766e-01   7.854018e-03
  2.414924e+00    5.908925e-01   7.741235e-03
  2.417134e+00    5.862250e-01   7.703087e-03
  2.419344e+00    5.923573e-01   7.735894e-03
  2.421555e+00    6.186477e-01   7.898122e-03
  2.423765e+00    6.029537e-01   7.789866e-03
  2.425976e+00    6.001905e-01   7.764186e-03
  2.428186e+00    5.921724e-01   7.704986e-03
  2.430397e+00    5.954956e-01   7.719087e-03
  2.432607e+00    5.901346e-01   7.677037e-03
  2.434818e+00    5.817609e-01   7.614902e-03
  2.437028e+00    5.855569e-01   7.632618e-03
  2.439239e+00    5.942222e-01   7.681219e-03
  2.441449e+00    6.017325e-01   7.722364e-03
  2.443659e+00    5.846551e-01   7.604679e-03
  2.445870e+00    5.908856e-01   7.657357e-03
  2.448080e+00    5.807249e-01   7.625967e-03
  2.450291e+00    5.746043e-01   7.602246e-03
  2.452501e+00    5.807914e-01   7.654269e-03
  2.454712e+00    5.608522e-01   7.530073e-03
  2.456922e+00    5.755429e-01   7.634702e-03
  2.459133e+00    5.671106e-01   7.583997e-03
  2.461343e+00    5.706987e-01   7.612315e-03
  2.463554e+00    5.704862e-01   7.614389e-03
  2.465764e+00    5.606210e-01   7.551405e-03
  2.467975e+00    5.484331e-01   7.471119e-03
  2.470185e+00    5.627976e-01   7.570587e-03
  2.472395e+00    5.591245e-01   7.547084e-03
  2.474606e+00    5.513887e-01   7.496237e-03
  2.476816e+00    5.509605e-01   7.494076e-03
  2.479027e+00    5.405764e-01   7.423946e-03
  2.481237e+00    5.523245e-01   7.504457e-03
  2.483448e+00    5.512413e-01   7.497414e-03
  2.485658e+00    5.450332e-01   7.454922e-03
  2.487869e+00    5.432829e-01   7.442994e-03
  2.490079e+00    5.297228e-01   7.348992e-03
  2.492290e+00    5.306270e-01   7.354845e-03
  2.494500e+00    5.206685e-01   7.284773e-03
  2.496710e+00    5.352205e-01   7.385164e-03
  2.498921e+00    5.478563e-01   7.470845e-03
  2.501131e+00    5.409144e-01   7.422408e-03
  2.503342e+00    5.216070e-01   7.287503e-03
  2.505552e+00    5.229383e-01   7.295641e-03
  2.507763e+00    5.206047e-01   7.277958e-03
  2.509973e+00    5.209351e-01   7.278876e-03
  2.512184e+00    5.242652e-01   7.300490e-03
  2.514394e+00    5.461198e-01   7.441572e-03
  2.516605e+00    5.394487e-01   7.348362e-03
  2.518815e+00    5.371049e-01   7.303741e-03
  2.521025e+00    5.388648e-01   7.294480e-03
  2.523236e+00    5.385655e-01   7.274250e-03
  2.525446e+00    5.269828e-01   7.179976e-03
  2.527657e+00    5.256464e-01   7.156248e-03
  2.529867e+00    5.294897e-01   7.168132e-03
  2.532078e+00    5.368218e-01   7.202370e-03
  2.534288e+00    5.459689e-01   7.249313e-03
  2.536499e+00    5.291080e-01   7.124544e-03
  2.538709e+00    5.268908e-01   7.098527e-03
  2.540920e+00    5.271311e-01   7.089513e-03
  2.543130e+00    5.186024e-01   7.021592e-03
  2.545340e+00    5.099086e-01   6.952576e-03
  2.547551e+00    5.146230e-01   6.974753e-03
  2.549761e+00    5.246664e-01   7.032894e-03
  2.551972e+00    5.208991e-01   6.998247e-03
  2.554182e+00    5.297557e-01   7.048257e-03
  2.556393e+00    5.122516e-01   6.921818e-03
  2.558603e+00    5.222719e-01   6.980082e-03
  2.560814e+00    5.179279e-01   6.942312e-03
  2.563024e+00    5.253500e-01   6.983245e-03
  2.565235e+00    5.031737e-01   6.824933e-03
  2.567445e+00    4.980653e-01   6.780818e-03
  2.569656e+00    4.941214e-01   6.744394e-03
  2.571866e+00    5.142540e-01   6.871098e-03
  2.574076e+00    5.086484e-01   6.824353e-03
  2.576287e+00    5.183538e-01   6.880810e-03
  2.578497e+00    5.171815e-01   6.865178e-03
  2.580708e+00    5.108733e-01   6.815131e-03
  2.582918e+00    5.050143e-01   6.768251e-03
  2.585129e+00    4.990743e-01   6.720689e-03
  2.587339e+00    5.089015e-01   6.778890e-03
  2.589550e+00    5.109472e-01   6.784968e-03
  2.591760e+00    5.189970e-01   6.830414e-03
  2.593971e+00    5.269234e-01   6.874752e-03
  2.596181e+00    5.067483e-01   6.735662e-03
  2.598391e+00    5.108644e-01   6.757757e-03
  2.600602e+00    5.115732e-01   6.756534e-03
  2.602812e+00    5.066948e-01   6.716717e-03
  2.605023e+00    4.987096e-01   6.656485e-03
  2.607233e+00    4.983253e-01   6.646845e-03
  2.609444e+00    4.942490e-01   6.612486e-03
  2.611654e+00    4.962476e-01   6.618563e-03
  2.613865e+00    5.090270e-01   6.696210e-03
  2.616075e+00    4.981012e-01   6.616877e-03
  2.618286e+00    4.959721e-01   6.595783e-03
  2.620496e+00    5.043144e-01   6.644324e-03
  2.622706e+00    5.020200e-01   6.623480e-03
  2.624917e+00    5.044946e-01   6.633926e-03
  2.627127e+00    5.051340e-01   6.632386e-03
  2.629338e+00    5.058001e-01   6.630769e-03
  2.631548e+00    5.090184e-01   6.645623e-03
  2.633759e+00    5.043789e-01   6.608109e-03
  2.635969e+00    5.047902e-01   6.604099e-03
  2.638180e+00    5.036481e-01   6.589621e-03
  2.640390e+00    4.919705e-01   6.506241e-03
  2.642601e+00    5.023553e-01   6.567862e-03
  2.644811e+00    4.932244e-01   6.500902e-03
  2.647021e+00    5.054036e-01   6.574041e-03
  2.649232e+00    4.949902e-01   6.499305e-03
  2.651442e+00    5.031820e-01   6.546315e-03
  2.653653e+00    5.047550e-01   6.549715e-03
  2.655863e+00    5.128169e-01   6.595030e-03
  2.658074e+00    5.055434e-01   6.541436e-03
  2.660284e+00    4.969684e-01   6.479379e-03
  2.662495e+00    4.901906e-01   6.428319e-03
  2.664705e+00    4.999551e-01   6.485448e-03
  2.666916e+00    4.949195e-01   6.446257e-03
  2.669126e+00    4.891427e-01   6.402106e-03
  2.671337e+00    4.977393e-01   6.451514e-03
  2.673547e+00    5.048708e-01   6.491135e-03
  2.675757e+00    4.981925e-01   6.441595e-03
  2.677968e+00    4.976947e-01   6.431823e-03
  2.680178e+00    4.879549e-01   6.362217e-03
  2.682389e+00    5.045365e-01   6.462930e-03
  2.684599e+00    5.034549e-01   6.449770e-03
  2.686810e+00    4.920667e-01   6.369791e-03
  2.689020e+00    4.828623e-01   6.303703e-03
  2.691231e+00    4.900199e-01   6.343961e-03
  2.693441e+00    4.957791e-01   6.374959e-03
  2.695652e+00    4.762597e-01   6.241787e-03
  2.697862e+00    4.927172e-01   6.342333e-03
  2.700072e+00    4.863115e-01   6.294949e-03
  2.702283e+00    4.747109e-01   6.213257e-03
  2.704493e+00    4.925013e-01   6.322312e-03
  2.706704e+00    4.857835e-01   6.272664e-03
  2.708914e+00    4.811580e-01   6.236798e-03
  2.711125e+00    4.812905e-01   6.231463e-03
  2.713335e+00    4.635946e-01   6.109891e-03
  2.715546e+00    4.752818e-01   6.180025e-03
  2.717756e+00    4.870529e-01   6.250206e-03
  2.719967e+00    4.829525e-01   6.217654e-03
  2.722177e+00    4.862917e-01   6.232974e-03
  2.724387e+00    4.836102e-01   6.209692e-03
  2.726598e+00    4.694378e-01   6.112054e-03
  2.728808e+00    4.776404e-01   6.159111e-03
  2.731019e+00    4.858117e-01   6.205439e-03
  2.733229e+00    4.968949e-01   6.269962e-03
  2.735440e+00    4.792769e-01   6.151575e-03
  2.737650e+00    4.758709e-01   6.123685e-03
  2.739861e+00    4.884228e-01   6.197830e-03
  2.742071e+00    4.786260e-01   6.129646e-03
  2.744282e+00    4.730749e-01   6.087808e-03
  2.746492e+00    4.811668e-01   6.133608e-03
  2.748702e+00    4.859012e-01   6.157810e-03
  2.750913e+00    4.817843e-01   6.125855e-03
  2.753123e+00    4.782519e-01   6.097274e-03
  2.755334e+00    4.773789e-01   6.085637e-03
  2.757544e+00    4.876265e-01   6.144839e-03
  2.759755e+00    4.710502e-01   6.033672e-03
  2.761965e+00    4.751795e-01   6.054094e-03
  2.764176e+00    4.807264e-01   6.083345e-03
  2.766386e+00    4.803910e-01   6.075431e-03
  2.768597e+00    4.781419e-01   6.055333e-03
  2.770807e+00    4.746753e-01   6.027493e-03
  2.773017e+00    4.685396e-01   5.982514e-03
  2.775228e+00    4.796075e-01   6.046955e-03
  2.777438e+00    4.726790e-01   5.997375e-03
  2.779649e+00    4.672208e-01   5.956791e-03
  2.781859e+00    4.788895e-01   6.024963e-03
  2.784070e+00    4.788014e-01   6.018525e-03
  2.786280e+00    4.773773e-01   6.003826e-03
  2.788491e+00    4.751200e-01   5.983774e-03
  2.790701e+00    4.700300e-01   5.946015e-03
  2.792912e+00    4.707685e-01   5.944781e-03
  2.795122e+00    4.697785e-01   5.932814e-03
  2.797333e+00    4.710502e-01   5.935300e-03
  2.799543e+00    4.795557e-01   5.982774e-03
  2.801753e+00    4.733417e-01   5.938032e-03
  2.803964e+00    4.829202e-01   5.992102e-03
  2.806174e+00    4.879802e-01   6.017195e-03
  2.808385e+00    4.731622e-01   5.918359e-03
  2.810595e+00    4.671831e-01   5.874008e-03
  2.812806e+00    4.696574e-01   5.882979e-03
  2.815016e+00    4.789320e-01   5.936014e-03
  2.817227e+00    4.676141e-01   5.891210e-03
  2.819437e+00    4.697886e-01   5.915922e-03
  2.821648e+00    4.708934e-01   5.925157e-03
  2.823858e+00    4.760882e-01   5.963098e-03
  2.826068e+00    4.762754e-01   5.969289e-03
  2.828279e+00    4.682819e-01   5.922978e-03
  2.830489e+00    4.740316e-01   5.962599e-03
  2.832700e+00    4.612588e-01   5.884233e-03
  2.834910e+00    4.709968e-01   5.948082e-03
  2.837121e+00    4.682373e-01   5.932340e-03
  2.839331e+00    4.784648e-01   5.998013e-03
  2.841542e+00    4.837448e-01   6.032060e-03
  2.843752e+00    4.688342e-01   5.939145e-03
  2.845963e+00    4.638235e-01   5.907721e-03
  2.848173e+00    4.736317e-01   5.969942e-03
  2.850383e+00    4.627139e-01   5.901018e-03
  2.852594e+00    4.737942e-01   5.971180e-03
  2.854804e+00    4.818704e-01   6.021339e-03
  2.857015e+00    4.826726e-01   6.025921e-03
  2.859225e+00    4.704621e-01   5.948963e-03
  2.861436e+00    4.572950e-01   5.864463e-03
  2.863646e+00    4.617826e-01   5.893211e-03
  2.865857e+00    4.658730e-01   5.919591e-03
  2.868067e+00    4.526368e-01   5.835117e-03
  2.870278e+00    4.585091e-01   5.872494e-03
  2.872488e+00    4.650140e-01   5.912831e-03
  2.874698e+00    4.528262e-01   5.833823e-03
  2.876909e+00    4.560658e-01   5.853313e-03
  2.879119e+00    4.613281e-01   5.885370e-03
  2.881330e+00    4.574564e-01   5.859163e-03
  2.883540e+00    4.546426e-01   5.839742e-03
  2.885751e+00    4.554691e-01   5.843408e-03
  2.887961e+00    4.598179e-01   5.869361e-03
  2.890172e+00    4.642617e-01   5.896038e-03
  2.892382e+00    4.628367e-01   5.885190e-03
  2.894593e+00    4.619247e-01   5.877558e-03
  2.896803e+00    4.657995e-01   5.900167e-03
  2.899014e+00    4.573545e-01   5.844545e-03
  2.901224e+00    4.580467e-01   5.846963e-03
  2.903434e+00    4.665246e-01   5.898878e-03
  2.905645e+00    4.461559e-01   5.766476e-03
  2.907855e+00    4.685569e-01   5.907331e-03
  2.910066e+00    4.504614e-01   5.790106e-03
  2.912276e+00    4.522340e-01   5.799353e-03
  2.914487e+00    4.685343e-01   5.900473e-03
  2.916697e+00    4.654393e-01   5.878714e-03
  2.918908e+00    4.501684e-01   5.779493e-03
  2.921118e+00    4.612639e-01   5.847569e-03
  2.923329e+00    4.602265e-01   5.838669e-03
  2.925539e+00    4.471536e-01   5.752900e-03
  2.927749e+00    4.516071e-01   5.779168e-03
  2.929960e+00    4.464693e-01   5.743460e-03
  2.932170e+00    4.492007e-01   5.758693e-03
  2.934381e+00    4.552753e-01   5.795059e-03
  2.936591e+00    4.627305e-01   5.839718e-03
  2.938802e+00    4.533367e-01   5.777467e-03
  2.941012e+00    4.299841e-01   5.624395e-03
  2.943223e+00    4.480207e-01   5.738466e-03
  2.945433e+00    4.691447e-01   5.868413e-03
  2.947644e+00    4.582572e-01   5.795781e-03
  2.949854e+00    4.535052e-01   5.761390e-03
  2.952064e+00    4.513499e-01   5.743471e-03
  2.954275e+00    4.542275e-01   5.757343e-03
  2.956485e+00    4.535750e-01   5.749028e-03
  2.958696e+00    4.504872e-01   5.725080e-03
  2.960906e+00    4.504889e-01   5.720908e-03
  2.963117e+00    4.574105e-01   5.760211e-03
  2.965327e+00    4.557693e-01   5.745958e-03
  2.967538e+00    4.527060e-01   5.723701e-03
  2.969748e+00    4.539334e-01   5.728652e-03
  2.971959e+00    4.512530e-01   5.708578e-03
  2.974169e+00    4.512932e-01   5.706257e-03
  2.976379e+00    4.636767e-01   5.781072e-03
  2.978590e+00    4.649015e-01   5.785536e-03
  2.980800e+00    4.586937e-01   5.743955e-03
  2.983011e+00    4.669040e-01   5.792298e-03
  2.985221e+00    4.550638e-01   5.715241e-03
  2.987432e+00    4.496388e-01   5.677953e-03
  2.989642e+00    4.749239e-01   5.832763e-03
  2.991853e+00    4.495106e-01   5.671272e-03
  2.994063e+00    4.579585e-01   5.721409e-03
  2.996274e+00    4.525507e-01   5.684332e-03
  2.998484e+00    4.691428e-01   5.784868e-03
  3.000694e+00    4.699862e-01   5.786549e-03
  3.002905e+00    4.611947e-01   5.729212e-03
  3.005115e+00    4.688135e-01   5.773304e-03
  3.007326e+00    4.539378e-01   5.677832e-03
  3.009536e+00    4.560671e-01   5.687842e-03
  3.011747e+00    4.469641e-01   5.627929e-03
  3.013957e+00    4.465180e-01   5.621938e-03
  3.016168e+00    4.451540e-01   5.610117e-03
  3.018378e+00    4.578490e-01   5.686489e-03
  3.020589e+00    4.626670e-01   5.713090e-03
  3.022799e+00    4.588664e-01   5.686390e-03
  3.025010e+00    4.560926e-01   5.665925e-03
  3.027220e+00    4.617828e-01   5.698021e-03
  3.029430e+00    4.486549e-01   5.613217e-03
  3.031641e+00    4.531868e-01   5.638324e-03
  3.033851e+00    4.534003e-01   5.636166e-03
  3.036062e+00    4.465408e-01   5.590582e-03
  3.038272e+00    4.472735e-01   5.591616e-03
  3.040483e+00    4.574738e-01   5.651766e-03
  3.042693e+00    4.523250e-01   5.616602e-03
  3.044904e+00    4.640228e-01   5.684689e-03
  3.047114e+00    4.657374e-01   5.690303e-03
  3.049325e+00    4.581076e-01   5.639075e-03
  3.051535e+00    4.420154e-01   5.534787e-03
  3.053745e+00    4.379081e-01   5.504333e-03
  3.055956e+00    4.453128e-01   5.546119e-03
  3.058166e+00    4.489056e-01   5.564199e-03
  3.060377e+00    4.620160e-01   5.640029e-03
  3.062587e+00    4.503552e-01   5.563783e-03
  3.064798e+00    4.442258e-01   5.521560e-03
  3.067008e+00    4.488253e-01   5.545327e-03
  3.069219e+00    4.501659e-01   5.549124e-03
  3.071429e+00    4.423668e-01   5.497324e-03
  3.073640e+00    4.577995e-01   5.589056e-03
  3.075850e+00    4.484264e-01   5.527957e-03
  3.078060e+00    4.493420e-01   5.530482e-03
  3.080271e+00    4.512299e-01   5.538622e-03
  3.082481e+00    4.503254e-01   5.529608e-03
  3.084692e+00    4.477146e-01   5.510179e-03
  3.086902e+00    4.421729e-01   5.472760e-03
  3.089113e+00    4.323643e-01   5.408201e-03
  3.091323e+00    4.389147e-01   5.445671e-03
  3.093534e+00    4.432324e-01   5.469045e-03
  3.095744e+00    4.493135e-01   5.503028e-03
  3.097955e+00    4.558853e-01   5.539575e-03
  3.100165e+00    4.398799e-01   5.438142e-03
  3.102375e+00    4.456476e-01   5.470280e-03
  3.104586e+00    4.478793e-01   5.480446e-03
  3.106796e+00    4.494031e-01   5.486231e-03
  3.109007e+00    4.485465e-01   5.477791e-03
  3.111217e+00    4.427573e-01   5.438634e-03
  3.113428e+00    4.412207e-01   5.425805e-03
  3.115638e+00    4.318551e-01   5.364703e-03
  3.117849e+00    4.469701e-01   5.454053e-03
  3.120059e+00    4.501474e-01   5.469938e-03
  3.122270e+00    4.334422e-01   5.364251e-03
  3.124480e+00    4.560443e-01   5.498614e-03
  3.126691e+00    4.281099e-01   5.324043e-03
  3.128901e+00    4.455419e-01   5.428226e-03
  3.131111e+00    4.510229e-01   5.457663e-03
  3.133322e+00    4.415172e-01   5.396396e-03
  3.135532e+00    4.472216e-01   5.427729e-03
  3.137743e+00    4.391333e-01   5.374978e-03
  3.139953e+00    4.409299e-01   5.382264e-03
  3.142164e+00    4.486687e-01   5.441411e-03
  3.144374e+00    4.342087e-01   5.381135e-03
  3.146585e+00    4.436489e-01   5.453897e-03
  3.148795e+00    4.399846e-01   5.442083e-03
  3.151006e+00    4.407524e-01   5.455360e-03
  3.153216e+00    4.488062e-01   5.512167e-03
  3.155426e+00    4.474262e-01   5.510053e-03
  3.157637e+00    4.460487e-01   5.507107e-03
  3.159847e+00    4.411882e-01   5.481908e-03
  3.162058e+00    4.422222e-01   5.492771e-03
  3.164268e+00    4.402878e-01   5.484809e-03
  3.166479e+00    4.323090e-01   5.438500e-03
  3.168689e+00    4.309317e-01   5.433169e-03
  3.170900e+00    4.373071e-01   5.476370e-03
  3.173110e+00    4.331596e-01   5.453192e-03
  3.175321e+00    4.293564e-01   5.431675e-03
  3.177531e+00    4.392180e-01   5.496434e-03
  3.179741e+00    4.452655e-01   5.536234e-03
  3.181952e+00    4.326405e-01   5.459297e-03
  3.184162e+00    4.386444e-01   5.499214e-03
  3.186373e+00    4.460976e-01   5.547376e-03
  3.188583e+00    4.288149e-01   5.440629e-03
  3.190794e+00    4.237003e-01   5.409801e-03
  3.193004e+00    4.234341e-01   5.409334e-03
  3.195215e+00    4.325961e-01   5.469013e-03
  3.197425e+00    4.405653e-01   5.520412e-03
  3.199636e+00    4.296744e-01   5.450973e-03
  3.201846e+00    4.243591e-01   5.416568e-03
  3.204056e+00    4.189891e-01   5.383042e-03
  3.206267e+00    4.404769e-01   5.520205e-03
  3.208477e+00    4.163002e-01   5.367487e-03
  3.210688e+00    4.342399e-01   5.482756e-03
  3.212898e+00    4.404328e-01   5.522291e-03
  3.215109e+00    4.461462e-01   5.558759e-03
  3.217319e+00    4.416018e-01   5.531028e-03
  3.219530e+00    4.358428e-01   5.495245e-03
  3.221740e+00    4.245037e-01   5.423839e-03
  3.223951e+00    4.239170e-01   5.420562e-03
  3.226161e+00    4.335514e-01   5.481986e-03
  3.228372e+00    4.408668e-01   5.528582e-03
  3.230582e+00    4.292654e-01   5.455518e-03
  3.232792e+00    4.300003e-01   5.460381e-03
  3.235003e+00    4.223388e-01   5.411789e-03
  3.237213e+00    4.190020e-01   5.390448e-03
  3.239424e+00    4.179192e-01   5.383482e-03
  3.241634e+00    4.270499e-01   5.442090e-03
  3.243845e+00    4.217726e-01   5.408440e-03
  3.246055e+00    4.339469e-01   5.485663e-03
  3.248266e+00    4.217648e-01   5.408315e-03
  3.250476e+00    4.251139e-01   5.429452e-03
  3.252687e+00    4.227802e-01   5.414445e-03
  3.254897e+00    4.326445e-01   5.477119e-03
  3.257107e+00    4.324463e-01   5.475546e-03
  3.259318e+00    4.271672e-01   5.441803e-03
  3.261528e+00    4.329229e-01   5.478184e-03
  3.263739e+00    4.394159e-01   5.518563e-03
  3.265949e+00    4.216188e-01   5.405524e-03
  3.268160e+00    4.191794e-01   5.389452e-03
  3.270370e+00    4.184051e-01   5.383965e-03
  3.272581e+00    4.156642e-01   5.366009e-03
  3.274791e+00    4.226566e-01   5.410456e-03
  3.277002e+00    4.224193e-01   5.408363e-03
  3.279212e+00    4.142546e-01   5.355472e-03
  3.281422e+00    4.176264e-01   5.376636e-03
  3.283633e+00    4.217634e-01   5.402533e-03
  3.285843e+00    4.208709e-01   5.396477e-03
  3.288054e+00    4.126120e-01   5.342346e-03
  3.290264e+00    4.250272e-01   5.421801e-03
  3.292475e+00    4.273717e-01   5.435898e-03
  3.294685e+00    4.336753e-01   5.475202e-03
  3.296896e+00    4.297471e-01   5.449585e-03
  3.299106e+00    4.225788e-01   5.403393e-03
  3.301317e+00    4.333049e-01   5.470481e-03
  3.303527e+00    4.288637e-01   5.441940e-03
  3.305737e+00    4.273591e-01   5.431310e-03
  3.307948e+00    4.207503e-01   5.388485e-03
  3.310158e+00    4.175029e-01   5.366808e-03
  3.312369e+00    4.200586e-01   5.382327e-03
  3.314579e+00    4.280554e-01   5.432402e-03
  3.316790e+00    4.253060e-01   5.414230e-03
  3.319000e+00    4.187154e-01   5.370921e-03
  3.321211e+00    4.211920e-01   5.386184e-03
  3.323421e+00    4.267368e-01   5.420309e-03
  3.325632e+00    4.226761e-01   5.393582e-03
  3.327842e+00    4.048348e-01   5.277611e-03
  3.330052e+00    4.064877e-01   5.287336e-03
  3.332263e+00    4.194823e-01   5.370145e-03
  3.334473e+00    4.285837e-01   5.427175e-03
  3.336684e+00    4.343442e-01   5.462256e-03
  3.338894e+00    4.224764e-01   5.386280e-03
  3.341105e+00    4.167825e-01   5.348654e-03
  3.343315e+00    4.039031e-01   5.264244e-03
  3.345526e+00    4.220369e-01   5.380200e-03
  3.347736e+00    4.259931e-01   5.403968e-03
  3.349947e+00    4.079097e-01   5.287094e-03
  3.352157e+00    4.293487e-01   5.423039e-03
  3.354368e+00    4.373764e-01   5.472227e-03
  3.356578e+00    4.213317e-01   5.369895e-03
  3.358788e+00    4.102237e-01   5.297297e-03
  3.360999e+00    4.217063e-01   5.369676e-03
  3.363209e+00    4.109654e-01   5.299856e-03
  3.365420e+00    4.153144e-01   5.326309e-03
  3.367630e+00    4.041169e-01   5.253014e-03
  3.369841e+00    4.089065e-01   5.282639e-03
  3.372051e+00    4.179515e-01   5.338765e-03
  3.374262e+00    4.184208e-01   5.339309e-03
  3.376472e+00    4.176337e-01   5.331857e-03
  3.378683e+00    4.075378e-01   5.264523e-03
  3.380893e+00    4.214112e-01   5.351034e-03
  3.383103e+00    4.094423e-01   5.271804e-03
  3.385314e+00    4.210271e-01   5.343617e-03
  3.387524e+00    4.184170e-01   5.324297e-03
  3.389735e+00    4.136719e-01   5.291391e-03
  3.391945e+00    4.177671e-01   5.313816e-03
  3.394156e+00    4.140923e-01   5.286168e-03
  3.396366e+00    4.151463e-01   5.289459e-03
  3.398577e+00    4.071968e-01   5.235565e-03
  3.400787e+00    4.092307e-01   5.260487e-03
  3.402998e+00    4.092909e-01   5.298922e-03
  3.405208e+00    3.978856e-01   5.245035e-03
  3.407418e+00    3.989415e-01   5.267723e-03
  3.409629e+00    3.958006e-01   5.260822e-03
  3.411839e+00    3.973843e-01   5.283086e-03
  3.414050e+00    4.032450e-01   5.332971e-03
  3.416260e+00    3.974483e-01   5.304193e-03
  3.418471e+00    3.879192e-01   5.249559e-03
  3.420681e+00    3.885913e-01   5.262565e-03
  3.422892e+00    3.750840e-01   5.178142e-03
  3.425102e+00    3.755572e-01   5.189042e-03
  3.427313e+00    3.864269e-01   5.270802e-03
  3.429523e+00    3.826523e-01   5.252005e-03
  3.431733e+00    3.777964e-01   5.225177e-03
  3.433944e+00    3.936516e-01   5.340234e-03
  3.436154e+00    3.826910e-01   5.271624e-03
  3.438365e+00    3.791042e-01   5.252780e-03
  3.440575e+00    3.846242e-01   5.296815e-03
  3.442786e+00    3.740795e-01   5.229298e-03
  3.444996e+00    3.801223e-01   5.276887e-03
  3.447207e+00    3.656532e-01   5.180683e-03
  3.449417e+00    3.668264e-01   5.229567e-03
  3.451628e+00    3.566467e-01   5.185425e-03
  3.453838e+00    3.705359e-01   5.306686e-03
  3.456049e+00    3.623760e-01   5.271695e-03
  3.458259e+00    3.572399e-01   5.255817e-03
  3.460469e+00    3.741991e-01   5.399148e-03
  3.462680e+00    3.859953e-01   5.503164e-03
  3.464890e+00    3.708880e-01   5.412277e-03
  3.467101e+00    3.886234e-01   5.558155e-03
  3.469311e+00    3.838113e-01   5.540486e-03
  3.471522e+00    3.666579e-01   5.431470e-03
  3.473732e+00    4.101598e-01   5.761223e-03
  3.475943e+00    3.861761e-01   5.606066e-03
  3.478153e+00    3.977132e-01   5.704760e-03
  3.480364e+00    4.157225e-01   5.848126e-03
  3.482574e+00    4.193643e-01   5.889274e-03
  3.484784e+00    4.250696e-01   5.944376e-03
  3.486995e+00    4.147507e-01   5.886835e-03
  3.489205e+00    4.300946e-01   6.009514e-03
  3.491416e+00    4.437574e-01   6.119429e-03
  3.493626e+00    4.526618e-01   6.195408e-03
  3.495837e+00    4.547334e-01   6.224575e-03
  3.498047e+00    4.587467e-01   6.266685e-03
  3.500258e+00    4.669373e-01   6.337203e-03
  3.502468e+00    4.592698e-01   6.299474e-03
  3.504679e+00    4.602263e-01   6.320485e-03
  3.506889e+00    4.684678e-01   6.391319e-03
  3.509099e+00    4.651057e-01   6.382611e-03
  3.511310e+00    4.776201e-01   6.482398e-03
  3.513520e+00    4.847184e-01   6.544834e-03
  3.515731e+00    4.888868e-01   6.587337e-03
  3.517941e+00    4.991059e-01   6.670328e-03
  3.520152e+00    4.955812e-01   6.661064e-03
  3.522362e+00    5.160794e-01   6.812119e-03
  3.524573e+00    5.199178e-01   6.851885e-03
  3.526783e+00    5.105382e-01   6.803161e-03
  3.528994e+00    5.143360e-01   6.840622e-03
  3.531204e+00    5.230789e-01   6.910975e-03
  3.533414e+00    5.316507e-01   6.979521e-03
  3.535625e+00    5.292035e-01   6.975858e-03
  3.537835e+00    5.332297e-01   7.014422e-03
  3.540046e+00    5.420657e-01   7.081317e-03
  3.542256e+00    5.403368e-01   7.077585e-03
  3.544467e+00    5.258108e-01   6.989351e-03
  3.546677e+00    5.312545e-01   7.032984e-03
  3.548888e+00    5.294083e-01   7.028166e-03
  3.551098e+00    5.384255e-01   7.095104e-03
  3.553309e+00    5.426342e-01   7.130990e-03
  3.555519e+00    5.379887e-01   7.111719e-03
  3.557729e+00    5.468823e-01   7.182090e-03
  3.559940e+00    5.466693e-01   7.192359e-03
  3.562150e+00    5.473812e-01   7.208887e-03
  3.564361e+00    5.405539e-01   7.177161e-03
  3.566571e+00    5.320923e-01   7.134545e-03
  3.568782e+00    5.151344e-01   7.033796e-03
  3.570992e+00    5.299377e-01   7.147766e-03
  3.573203e+00    5.264059e-01   7.137975e-03
  3.575413e+00    5.416486e-01   7.254384e-03
  3.577624e+00    5.356146e-01   7.228021e-03
  3.579834e+00    5.365220e-01   7.248009e-03
  3.582045e+00    5.250250e-01   7.183833e-03
  3.584255e+00    5.195155e-01   7.159865e-03
  3.586465e+00    5.254191e-01   7.214231e-03
  3.588676e+00    5.308143e-01   7.265293e-03
  3.590886e+00    5.355230e-01   7.311143e-03
  3.593097e+00    5.421290e-01   7.370688e-03
  3.595307e+00    5.582399e-01   7.493621e-03
  3.597518e+00    5.458771e-01   7.424559e-03
  3.599728e+00    5.438106e-01   7.424684e-03
  3.601939e+00    5.475358e-01   7.464272e-03
  3.604149e+00    5.607497e-01   7.568570e-03
  3.606360e+00    5.430857e-01   7.462654e-03
  3.608570e+00    5.498439e-01   7.523288e-03
  3.610780e+00    5.394195e-01   7.462728e-03
  3.612991e+00    5.558859e-01   7.585984e-03
  3.615201e+00    5.337952e-01   7.443519e-03
  3.617412e+00    5.373503e-01   7.475578e-03
  3.619622e+00    5.263919e-01   7.404838e-03
  3.621833e+00    5.235377e-01   7.391371e-03
  3.624043e+00    5.413623e-01   7.525732e-03
  3.626254e+00    5.423417e-01   7.542295e-03
  3.628464e+00    5.305665e-01   7.470919e-03
  3.630675e+00    5.317914e-01   7.493637e-03
  3.632885e+00    5.328707e-01   7.515637e-03
  3.635095e+00    5.401164e-01   7.581095e-03
  3.637306e+00    5.203925e-01   7.455546e-03
  3.639516e+00    5.316299e-01   7.550105e-03
  3.641727e+00    5.295479e-01   7.549836e-03
  3.643937e+00    5.394933e-01   7.635061e-03
  3.646148e+00    5.425042e-01   7.671053e-03
  3.648358e+00    5.575149e-01   7.791654e-03
  3.650569e+00    5.309439e-01   7.618404e-03
  3.652779e+00    5.450560e-01   7.733962e-03
  3.654990e+00    5.354947e-01   7.680743e-03
  3.657200e+00    5.424238e-01   7.745301e-03
  3.659410e+00    5.324268e-01   7.688584e-03
  3.661621e+00    5.436467e-01   7.784422e-03
  3.663831e+00    5.238785e-01   7.656617e-03
  3.666042e+00    5.214411e-01   7.653771e-03
  3.668252e+00    5.297018e-01   7.729391e-03
  3.670463e+00    5.375051e-01   7.801426e-03
  3.672673e+00    5.429870e-01   7.856738e-03
  3.674884e+00    5.249727e-01   7.740615e-03
  3.677094e+00    5.300664e-01   7.793553e-03
  3.679305e+00    5.356312e-01   7.850010e-03
  3.681515e+00    5.312687e-01   7.833615e-03
  3.683726e+00    5.407463e-01   7.919141e-03
  3.685936e+00    5.303493e-01   7.858381e-03
  3.688146e+00    5.288144e-01   7.862749e-03
  3.690357e+00    5.303438e-01   7.890112e-03
  3.692567e+00    5.312982e-01   7.913411e-03
  3.694778e+00    5.297727e-01   7.918186e-03
  3.696988e+00    5.163893e-01   7.833287e-03
  3.699199e+00    5.154988e-01   7.842653e-03
  3.701409e+00    5.075564e-01   7.798098e-03
  3.703620e+00    5.167578e-01   7.884629e-03
  3.705830e+00    5.195582e-01   7.922305e-03
  3.708041e+00    5.140164e-01   7.896374e-03
  3.710251e+00    5.297042e-01   8.032773e-03
  3.712461e+00    5.112438e-01   7.908135e-03
  3.714672e+00    5.015517e-01   7.849225e-03
  3.716882e+00    5.094340e-01   7.927123e-03
  3.719093e+00    5.323790e-01   8.121059e-03
  3.721303e+00    5.253282e-01   8.084147e-03
  3.723514e+00    5.332699e-01   8.162532e-03
  3.725724e+00    5.146586e-01   8.035921e-03
  3.727935e+00    5.407708e-01   8.255094e-03
  3.730145e+00    5.379573e-01   8.251246e-03
  3.732356e+00    5.398046e-01   8.283391e-03
  3.734566e+00    5.289848e-01   8.217673e-03
  3.736776e+00    5.128186e-01   8.108872e-03
  3.738987e+00    5.137514e-01   8.133984e-03
  3.741197e+00    5.041530e-01   8.075491e-03
  3.743408e+00    5.190057e-01   8.211715e-03
  3.745618e+00    5.061528e-01   8.127590e-03
  3.747829e+00    5.001359e-01   8.097031e-03
  3.750039e+00    5.165942e-01   8.247637e-03
  3.752250e+00    5.157641e-01   8.259569e-03
  3.754460e+00    5.068856e-01   8.206660e-03
  3.756671e+00    5.213034e-01   8.341547e-03
  3.758881e+00    5.073027e-01   8.247438e-03
  3.761091e+00    5.005744e-01   8.211512e-03
  3.763302e+00    5.160173e-01   8.356442e-03
  3.765512e+00    5.320764e-01   8.505192e-03
  3.767723e+00    5.189696e-01   8.419383e-03
  3.769933e+00    5.026459e-01   8.305174e-03
  3.772144e+00    4.817843e-01   8.150104e-03
  3.774354e+00    4.806390e-01   8.159718e-03
  3.776565e+00    5.041904e-01   8.377096e-03
  3.778775e+00    5.010444e-01   8.370802e-03
  3.780986e+00    5.250612e-01   8.589800e-03
  3.783196e+00    5.107065e-01   8.491963e-03
  3.785407e+00    5.231495e-01   8.615624e-03
  3.787617e+00    4.994460e-01   8.438858e-03
  3.789827e+00    5.256194e-01   8.678134e-03
  3.792038e+00    5.057206e-01   8.533251e-03
  3.794248e+00    5.043187e-01   8.542614e-03
  3.796459e+00    4.892855e-01   8.435404e-03
  3.798669e+00    5.037594e-01   8.580721e-03
  3.800880e+00    5.028796e-01   8.594725e-03
  3.803090e+00    5.065064e-01   8.647598e-03
  3.805301e+00    4.934306e-01   8.557217e-03
  3.807511e+00    5.108894e-01   8.729454e-03
  3.809722e+00    5.197494e-01   8.827598e-03
  3.811932e+00    5.128459e-01   8.791245e-03
  3.814142e+00    4.954163e-01   8.663354e-03
  3.816353e+00    5.180594e-01   8.882415e-03
  3.818563e+00    4.868486e-01   8.633526e-03
  3.820774e+00    4.865518e-01   8.653753e-03
  3.822984e+00    5.047246e-01   8.837407e-03
  3.825195e+00    5.023757e-01   8.840699e-03
  3.827405e+00    4.999031e-01   8.842805e-03
  3.829616e+00    5.087833e-01   8.945368e-03
  3.831826e+00    4.916060e-01   8.817066e-03
  3.834037e+00    5.013399e-01   8.928556e-03
  3.836247e+00    5.054774e-01   8.990210e-03
  3.838457e+00    5.063835e-01   9.023555e-03
  3.840668e+00    4.992987e-01   8.985453e-03
  3.842878e+00    5.269174e-01   9.256921e-03
  3.845089e+00    5.234627e-01   9.252876e-03
  3.847299e+00    5.032104e-01   9.098034e-03
  3.849510e+00    5.205137e-01   9.279709e-03
  3.851720e+00    4.922489e-01   9.045541e-03
  3.853931e+00    5.120335e-01   9.244883e-03
  3.856141e+00    5.121530e-01   9.265258e-03
  3.858352e+00    5.064076e-01   9.232679e-03
  3.860562e+00    4.704689e-01   8.917896e-03
  3.862772e+00    4.900466e-01   9.121025e-03
  3.864983e+00    4.851499e-01   9.094833e-03
  3.867193e+00    4.871512e-01   9.133220e-03
  3.869404e+00    4.945611e-01   9.222291e-03
  3.871614e+00    4.920423e-01   9.218658e-03
  3.873825e+00    4.897529e-01   9.217479e-03
  3.876035e+00    4.938974e-01   9.277010e-03
  3.878246e+00    4.913465e-01   9.278681e-03
  3.880456e+00    5.083237e-01   9.467155e-03
  3.882667e+00    5.114647e-01   9.526245e-03
  3.884877e+00    4.871519e-01   9.326683e-03
  3.887087e+00    5.016568e-01   9.494737e-03
  3.889298e+00    4.994189e-01   9.504197e-03
  3.891508e+00    4.911315e-01   9.455482e-03
  3.893719e+00    5.005543e-01   9.577094e-03
  3.895929e+00    5.225623e-01   9.817780e-03
  3.898140e+00    5.112245e-01   9.743112e-03
  3.900350e+00    5.039309e-01   9.705876e-03
  3.902561e+00    4.966598e-01   9.668201e-03
  3.904771e+00    4.971682e-01   9.706223e-03
  3.906982e+00    4.985122e-01   9.752733e-03
  3.909192e+00    5.151960e-01   9.949000e-03
  3.911403e+00    4.875636e-01   9.712483e-03
  3.913613e+00    4.929349e-01   9.800227e-03
  3.915823e+00    4.894156e-01   9.799991e-03
  3.918034e+00    5.078535e-01   1.001891e-02
  3.920244e+00    4.809005e-01   9.784858e-03
  3.922455e+00    4.580483e-01   9.584513e-03
  3.924665e+00    4.767065e-01   9.813741e-03
  3.926876e+00    4.951312e-01   1.003895e-02
  3.929086e+00    4.847183e-01   9.970088e-03
  3.931297e+00    5.047906e-01   1.020983e-02
  3.933507e+00    5.085770e-01   1.027766e-02
  3.935718e+00    4.772048e-01   9.984111e-03
  3.937928e+00    4.660649e-01   9.895559e-03
  3.940138e+00    5.166849e-01   1.044933e-02
  3.942349e+00    4.849158e-01   1.015284e-02
  3.944559e+00    5.258090e-01   1.060340e-02
  3.946770e+00    5.063263e-01   1.043592e-02
  3.948980e+00    5.129806e-01   1.053577e-02
  3.951191e+00    5.015681e-01   1.044927e-02
  3.953401e+00    4.944324e-01   1.040626e-02
  3.955612e+00    4.692383e-01   1.016878e-02
  3.957822e+00    4.719018e-01   1.022884e-02
  3.960033e+00    4.778521e-01   1.032538e-02
  3.962243e+00    4.817336e-01   1.039998e-02
  3.964453e+00    4.851771e-01   1.047024e-02
  3.966664e+00    4.757846e-01   1.040138e-02
  3.968874e+00    4.994540e-01   1.068579e-02
  3.971085e+00    4.749593e-01   1.044217e-02
  3.973295e+00    4.992565e-01   1.072767e-02
  3.975506e+00    4.948515e-01   1.070205e-02
  3.977716e+00    5.195665e-01   1.098884e-02
  3.979927e+00    4.850459e-01   1.063966e-02
  3.982137e+00    4.732990e-01   1.053205e-02
  3.984348e+00    4.573906e-01   1.037531e-02
  3.986558e+00    4.673476e-01   1.050965e-02
  3.988768e+00    4.710021e-01   1.057326e-02
  3.990979e+00    5.080975e-01   1.100507e-02
  3.993189e+00    4.800543e-01   1.072002e-02
  3.995400e+00    4.977814e-01   1.093998e-02
  3.997610e+00    4.852555e-01   1.083134e-02
  3.999821e+00    4.900232e-01   1.092203e-02
  4.002031e+00    5.032284e-01   1.110741e-02
  4.004242e+00    4.835274e-01   1.092621e-02
  4.006452e+00    4.858882e-01   1.099232e-02
  4.008663e+00    5.082421e-01   1.128327e-02
  4.010873e+00    4.691465e-01   1.088004e-02
  4.013084e+00    4.579387e-01   1.078896e-02
  4.015294e+00    5.160277e-01   1.149504e-02
  4.017504e+00    5.237731e-01   1.162474e-02
  4.019715e+00    5.054662e-01   1.146310e-02
  4.021925e+00    4.726339e-01   1.112707e-02
  4.024136e+00    4.455078e-01   1.084498e-02
  4.026346e+00    4.722227e-01   1.120884e-02
  4.028557e+00    4.873943e-01   1.143203e-02
  4.030767e+00    4.561699e-01   1.110426e-02
  4.032978e+00    4.751807e-01   1.137888e-02
  4.035188e+00    5.233127e-01   1.198951e-02
  4.037399e+00    4.791904e-01   1.152033e-02
  4.039609e+00    4.823341e-01   1.160575e-02
  4.041819e+00    4.762067e-01   1.158007e-02
  4.044030e+00    5.022534e-01   1.194348e-02
  4.046240e+00    4.542684e-01   1.140699e-02
  4.048451e+00    5.178156e-01   1.223139e-02
  4.050661e+00    5.220454e-01   1.233479e-02
  4.052872e+00    4.667001e-01   1.171461e-02
  4.055082e+00    4.542488e-01   1.160913e-02
  4.057293e+00    4.751821e-01   1.192690e-02
  4.059503e+00    4.688839e-01   1.190148e-02
  4.061714e+00    4.883789e-01   1.220326e-02
  4.063924e+00    4.340934e-01   1.155895e-02
  4.066134e+00    4.729920e-01   1.212239e-02
  4.068345e+00    4.989527e-01   1.251071e-02
  4.070555e+00    4.802528e-01   1.233325e-02
  4.072766e+00    5.072183e-01   1.273724e-02
  4.074976e+00    4.410778e-01   1.193694e-02
  4.077187e+00    4.714343e-01   1.240229e-02
  4.079397e+00    4.798221e-01   1.257586e-02
  4.081608e+00    4.906607e-01   1.278347e-02
  4.083818e+00    4.616513e-01   1.246418e-02
  4.086029e+00    4.888262e-01   1.289340e-02
  4.088239e+00    4.930209e-01   1.301833e-02
  4.090449e+00    4.925032e-01   1.308212e-02
  4.092660e+00    5.333728e-01   1.368896e-02
  4.094870e+00    4.920903e-01   1.322171e-02
  4.097081e+00    4.748060e-01   1.305848e-02
  4.099291e+00    5.011736e-01   1.347171e-02
  4.101502e+00    5.011122e-01   1.352112e-02
  4.103712e+00    5.003808e-01   1.356176e-02
  4.105923e+00    4.766176e-01   1.328683e-02
  4.108133e+00    4.851318e-01   1.345684e-02
  4.110344e+00    4.917141e-01   1.359950e-02
  4.112554e+00    4.881237e-01   1.360354e-02
  4.114764e+00    4.745322e-01   1.346655e-02
  4.116975e+00    4.491373e-01   1.315295e-02
  4.119185e+00    5.016427e-01   1.395665e-02
  4.121396e+00    5.374820e-01   1.450658e-02
  4.123606e+00    5.059584e-01   1.413260e-02
  4.125817e+00    4.875556e-01   1.393114e-02
  4.128027e+00    5.013329e-01   1.418610e-02
  4.130238e+00    5.143690e-01   1.443105e-02
  4.132448e+00    5.069121e-01   1.438818e-02
  4.134659e+00    4.875560e-01   1.417146e-02
  4.136869e+00    5.020133e-01   1.444431e-02
  4.139080e+00    4.549241e-01   1.381207e-02
  4.141290e+00    4.705465e-01   1.410946e-02
  4.143500e+00    5.282153e-01   1.501802e-02
  4.145711e+00    4.944641e-01   1.459817e-02
  4.147921e+00    5.355203e-01   1.526186e-02
  4.150132e+00    5.280657e-01   1.522760e-02
  4.152342e+00    4.846393e-01   1.465887e-02
  4.154553e+00    4.802838e-01   1.466208e-02
  4.156763e+00    5.037536e-01   1.509024e-02
  4.158974e+00    4.791271e-01   1.479085e-02
  4.161184e+00    5.322531e-01   1.566661e-02
  4.163395e+00    4.786491e-01   1.493291e-02
  4.165605e+00    4.675767e-01   1.483560e-02
  4.167815e+00    5.337107e-01   1.593277e-02
  4.170026e+00    5.340454e-01   1.602186e-02
  4.172236e+00    5.157641e-01   1.583039e-02
  4.174447e+00    5.122631e-01   1.586240e-02
  4.176657e+00    5.232805e-01   1.611961e-02
  4.178868e+00    5.010443e-01   1.586291e-02
  4.181078e+00    5.215871e-01   1.627561e-02
  4.183289e+00    5.312486e-01   1.652018e-02
  4.185499e+00    4.619708e-01   1.549593e-02
  4.187710e+00    4.937927e-01   1.611482e-02
  4.189920e+00    4.369387e-01   1.524984e-02
  4.192130e+00    4.957636e-01   1.634354e-02
  4.194341e+00    4.240095e-01   1.520707e-02
  4.196551e+00    4.932690e-01   1.650616e-02
  4.198762e+00    4.610259e-01   1.605875e-02
  4.200972e+00    5.178542e-01   1.712974e-02
  4.203183e+00    4.443009e-01   1.597168e-02
  4.205393e+00    4.022245e-01   1.529745e-02
  4.207604e+00    4.426799e-01   1.615771e-02
  4.209814e+00    4.961825e-01   1.722362e-02
  4.212025e+00    4.939419e-01   1.730680e-02
  4.214235e+00    4.875076e-01   1.731529e-02
  4.216445e+00    5.308812e-01   1.819980e-02
  4.218656e+00    4.948250e-01   1.770276e-02
  4.220866e+00    4.842921e-01   1.764295e-02
  4.223077e+00    5.103645e-01   1.825105e-02
  4.225287e+00    4.820030e-01   1.787597e-02
  4.227498e+00    4.769008e-01   1.792072e-02
  4.229708e+00    5.107802e-01   1.869714e-02
  4.231919e+00    4.934036e-01   1.852826e-02
  4.234129e+00    5.016133e-01   1.883866e-02
  4.236340e+00    4.757392e-01   1.850291e-02
  4.238550e+00    4.536650e-01   1.822844e-02
  4.240761e+00    4.866212e-01   1.904570e-02
  4.242971e+00    5.068563e-01   1.961553e-02
  4.245181e+00    4.804547e-01   1.927700e-02
  4.247392e+00    5.303311e-01   2.044277e-02
  4.249602e+00    4.912171e-01   1.986980e-02
  4.251813e+00    4.956186e-01   2.015504e-02
  4.254023e+00    4.584354e-01   1.957991e-02
  4.256234e+00    4.544607e-01   1.970280e-02
  4.258444e+00    5.419154e-01   2.174047e-02
  4.260655e+00    5.118648e-01   2.136156e-02
  4.262865e+00    4.507945e-01   2.027406e-02
  4.265076e+00    4.589045e-01   2.068795e-02
  4.267286e+00    5.317757e-01   2.253436e-02
  4.269496e+00    4.765847e-01   2.159363e-02
  4.271707e+00    4.878155e-01   2.211556e-02
  4.273917e+00    5.384956e-01   2.353723e-02
  4.276128e+00    3.914630e-01   2.033507e-02
  4.278338e+00    3.956495e-01   2.071600e-02
  4.280549e+00    4.029655e-01   2.120674e-02
  4.282759e+00    5.100497e-01   2.420107e-02
  4.284970e+00    4.326777e-01   2.262041e-02
  4.287180e+00    4.546494e-01   2.346506e-02
  4.289391e+00    4.043337e-01   2.229548e-02
  4.291601e+00    3.911155e-01   2.210241e-02
  4.293811e+00    4.696392e-01   2.440942e-02
  4.296022e+00    3.919751e-01   2.247917e-02
  4.298232e+00    4.971963e-01   2.552835e-02
  4.300443e+00    4.630273e-01   2.483985e-02
  4.302653e+00    4.489531e-01   2.467100e-02
  4.304864e+00    5.363488e-01   2.719882e-02
  4.307074e+00    5.118006e-01   2.680776e-02
  4.309285e+00    4.993525e-01   2.672102e-02
  4.311495e+00    4.919930e-01   2.677090e-02
  4.313706e+00    4.200457e-01   2.496885e-02
  4.315916e+00    4.018386e-01   2.466204e-02
  4.318126e+00    3.943696e-01   2.467327e-02
  4.320337e+00    4.996926e-01   2.805398e-02
  4.322547e+00    4.798928e-01   2.778431e-02
  4.324758e+00    5.007071e-01   2.867614e-02
  4.326968e+00    3.953747e-01   2.576868e-02
  4.329179e+00    3.585414e-01   2.480958e-02
  4.331389e+00    4.784893e-01   2.898980e-02
  4.333600e+00    4.660552e-01   2.895301e-02
  4.335810e+00    4.538950e-01   2.891327e-02
  4.338021e+00    5.788922e-01   3.306939e-02
  4.340231e+00    5.211949e-01   3.177267e-02
  4.342442e+00    5.286322e-01   3.242781e-02
  4.344652e+00    4.405662e-01   3.000595e-02
  4.346862e+00    4.034179e-01   2.911520e-02
  4.349073e+00    5.579497e-01   3.473827e-02
  4.351283e+00    3.890048e-01   2.943980e-02
  4.353494e+00    3.767291e-01   2.941833e-02
  4.355704e+00    5.053074e-01   3.461989e-02
  4.357915e+00    4.081376e-01   3.163139e-02
  4.360125e+00    5.390269e-01   3.697115e-02
  4.362336e+00    7.311431e-01   4.384453e-02
  4.364546e+00    5.682750e-01   3.935734e-02
  4.366757e+00    5.079021e-01   3.794871e-02
  4.368967e+00    2.761945e-01   2.854332e-02
  4.371177e+00    4.614019e-01   3.767500e-02
  4.373388e+00    4.705371e-01   3.889655e-02
  4.375598e+00    4.232740e-01   3.773374e-02
  4.377809e+00    4.867042e-01   4.148593e-02
  4.380019e+00    4.420665e-01   4.053273e-02
  4.382230e+00    2.616291e-01   3.205210e-02
  4.384440e+00    3.885878e-01   4.018383e-02
  4.386651e+00    5.045193e-01   4.720159e-02
  4.388861e+00    4.351397e-01   4.530884e-02
  4.391072e+00    4.265929e-01   4.643551e-02
  4.393282e+00    5.623690e-01   5.537736e-02
  4.395492e+00    5.010635e-01   5.444615e-02
  4.397703e+00    2.737717e-01   4.208249e-02
  4.399913e+00    1.708523e-01   3.492751e-02
  4.402124e+00    4.424114e-01   5.939207e-02
  4.404334e+00    3.028012e-01   5.222640e-02
  4.406545e+00    5.544773e-01   7.593582e-02
  4.408755e+00    2.555974e-01   5.591384e-02
  4.410966e+00    4.110810e-01   7.848240e-02
  4.413176e+00    1.774842e-01   5.837137e-02
  4.415387e+00   -4.843296e-01            nan
  4.417597e+00   -1.995053e+00            nan
  4.419807e+00    7.946631e-01   3.202241e-01
