# == pyFAI calibration ==
# Distance Sample to Detector: 0.216 m
# PONI: 1.166e-01, 1.308e-01 m
# Rotations: 0.000000 0.000000 0.000000 rad
# 
# == Fit2d calibration ==
# Distance Sample-beamCenter: 216.000 mm
# Center: x=1744.293, y=1555.000 pix
# Tilt: 0.000 deg  TiltPlanRot: 0.000 deg
# 
# Detector Eiger 9M	 PixelSize= 7.500e-05, 7.500e-05 m
#    Detector has a mask: True 
#    Detector has a dark current: False 
#    detector has a flat field: False 
# 
# Wavelength: 9.8e-11 m
# Mask applied: from detector
# Dark current applied: False
# Flat field applied: False
# Polarization factor: None
# Normalization factor: 1.0
# 
# Headers of the input frame:
# {
# "_array_data.header_convention": "SLS_1.0",
# "_array_data.header_contents": "# Detector: Dectris Eiger 9M, S/N E-18-0102\r\n# Pixel_size 75e-6 m x 75e-6 m\r\n# Silicon sensor, thickness 0.000450 m\r\n# Exposure_time 0.024997 s\r\n# Exposure_period 0.025000 s\r\n# Count_cutoff 62318 counts\r\n# Wavelength 0.980106 A\r\n# Detector_distance 0.215992 m\r\n# Beam_xy (1555, 1744) pixels\r\n# Start_angle 0.000000 deg.\r\n# Angle_increment 0.000000 deg.",
# "Content-Type": "application/octet-stream;",
# "conversions": "x-CBF_BYTE_OFFSET",
# "Content-Transfer-Encoding": "BINARY",
# "X-Binary-Size": "10166608",
# "X-Binary-ID": "1",
# "X-Binary-Element-Type": "signed 32-bit integer",
# "X-Binary-Element-Byte-Order": "LITTLE_ENDIAN",
# "Content-MD5": "GEKr58KbMMDbKrISloTF1Q==",
# "X-Binary-Number-of-Elements": "10166590",
# "X-Binary-Size-Fastest-Dimension": "3110",
# "X-Binary-Size-Second-Dimension": "3269",
# "X-Binary-Size-Padding": "4095"
# }
# --> H:/Proxima2a_2019-04-05/RAW_DATA/C5_gel17_position5/C5_mesh_1_data.cbf/C5_mesh_1_data.cbf000176.dat
#        q_A^-1              I           sigma 
  1.105228e-03    7.254378e-01   4.608791e-01
  3.315685e-03    1.084812e+00   3.426279e-01
  5.526141e-03    1.079906e+00   2.643414e-01
  7.736597e-03    1.231263e+00   2.384490e-01
  9.947054e-03    1.533916e+00   2.346266e-01
  1.215751e-02    1.453003e+00   2.064914e-01
  1.436797e-02    1.401865e+00   1.865644e-01
  1.657842e-02    1.400708e+00   1.735874e-01
  1.878888e-02    1.505730e+00   1.690585e-01
  2.099934e-02    1.396047e+00   1.540111e-01
  2.320979e-02    1.315911e+00   1.422152e-01
  2.542025e-02    1.467004e+00   1.434911e-01
  2.763070e-02    1.600641e+00   1.437597e-01
  2.984116e-02    1.359374e+00   1.274811e-01
  3.205162e-02    1.419191e+00   1.256917e-01
  3.426207e-02    1.426911e+00   1.218915e-01
  3.647253e-02    1.428289e+00   1.181946e-01
  3.868299e-02    1.563618e+00   1.200911e-01
  4.089344e-02    1.541084e+00   1.159562e-01
  4.310390e-02    1.485764e+00   1.108916e-01
  4.531436e-02    1.402634e+00   1.050843e-01
  4.752481e-02    1.455630e+00   1.045308e-01
  4.973527e-02    1.516398e+00   1.042938e-01
  5.194572e-02    1.516704e+00   1.020595e-01
  5.415618e-02    1.579936e+00   1.020137e-01
  5.636664e-02    1.490778e+00   9.713411e-02
  5.857709e-02    1.497669e+00   9.550420e-02
  6.078755e-02    1.462670e+00   9.264681e-02
  6.299801e-02    1.272227e+00   8.487482e-02
  6.520846e-02    1.255097e+00   8.286084e-02
  6.741892e-02    1.292982e+00   8.270773e-02
  6.962938e-02    1.462053e+00   8.654616e-02
  7.183983e-02    1.435633e+00   8.442944e-02
  7.405029e-02    1.411628e+00   8.245964e-02
  7.626074e-02    1.482854e+00   8.327978e-02
  7.847120e-02    1.469936e+00   8.173785e-02
  8.068166e-02    1.432382e+00   7.957335e-02
  8.289211e-02    1.375427e+00   7.692818e-02
  8.510257e-02    1.389174e+00   7.630057e-02
  8.731303e-02    1.494603e+00   7.813175e-02
  8.952348e-02    1.512681e+00   7.762852e-02
  9.173394e-02    1.550773e+00   7.764401e-02
  9.394439e-02    1.515693e+00   7.584989e-02
  9.615485e-02    1.481048e+00   7.410958e-02
  9.836531e-02    1.401727e+00   7.128105e-02
  1.005758e-01    1.440600e+00   7.146461e-02
  1.027862e-01    1.558010e+00   7.351448e-02
  1.049967e-01    1.483366e+00   7.097153e-02
  1.072071e-01    1.440092e+00   6.920314e-02
  1.094176e-01    1.583672e+00   7.183316e-02
  1.116280e-01    1.539419e+00   7.011616e-02
  1.138385e-01    1.518739e+00   6.896279e-02
  1.160490e-01    1.506030e+00   6.801564e-02
  1.182594e-01    1.497959e+00   6.719474e-02
  1.204699e-01    1.556099e+00   6.785458e-02
  1.226803e-01    1.681328e+00   6.989092e-02
  1.248908e-01    1.561001e+00   6.674415e-02
  1.271012e-01    1.541821e+00   6.575220e-02
  1.293117e-01    1.580595e+00   6.600153e-02
  1.315222e-01    1.594458e+00   6.572943e-02
  1.337326e-01    1.499585e+00   6.321368e-02
  1.359431e-01    1.524925e+00   6.378286e-02
  1.381535e-01    1.623779e+00   6.670124e-02
  1.403640e-01    1.601121e+00   6.652024e-02
  1.425744e-01    1.573147e+00   6.604190e-02
  1.447849e-01    1.591373e+00   6.643867e-02
  1.469953e-01    1.615381e+00   6.689604e-02
  1.492058e-01    1.661339e+00   6.776212e-02
  1.514163e-01    1.624096e+00   6.688706e-02
  1.536267e-01    1.486136e+00   6.385820e-02
  1.558372e-01    1.464306e+00   6.324750e-02
  1.580476e-01    1.611439e+00   6.618801e-02
  1.602581e-01    1.708053e+00   6.797020e-02
  1.624685e-01    1.713661e+00   6.789532e-02
  1.646790e-01    1.606346e+00   6.554627e-02
  1.668895e-01    1.590493e+00   6.503367e-02
  1.690999e-01    1.643905e+00   6.591809e-02
  1.713104e-01    1.791685e+00   6.860363e-02
  1.735208e-01    1.753744e+00   6.766234e-02
  1.757313e-01    1.736370e+00   6.711533e-02
  1.779417e-01    1.800380e+00   6.811832e-02
  1.801522e-01    1.900186e+00   6.975809e-02
  1.823626e-01    1.879458e+00   6.914561e-02
  1.845731e-01    1.906535e+00   6.941631e-02
  1.867836e-01    1.913643e+00   6.931090e-02
  1.889940e-01    1.995044e+00   7.053845e-02
  1.912045e-01    1.997393e+00   7.034426e-02
  1.934149e-01    1.938928e+00   6.907514e-02
  1.956254e-01    1.917055e+00   6.845789e-02
  1.978358e-01    1.977092e+00   6.928331e-02
  2.000463e-01    2.081326e+00   7.085065e-02
  2.022568e-01    1.992269e+00   6.909077e-02
  2.044672e-01    1.974990e+00   6.855482e-02
  2.066777e-01    2.044044e+00   6.951153e-02
  2.088881e-01    1.988220e+00   6.833147e-02
  2.110986e-01    1.920655e+00   6.693009e-02
  2.133090e-01    1.873776e+00   6.589331e-02
  2.155195e-01    1.897903e+00   6.609621e-02
  2.177300e-01    1.950751e+00   6.648369e-02
  2.199404e-01    1.920762e+00   6.423240e-02
  2.221509e-01    1.884615e+00   6.258034e-02
  2.243613e-01    1.863745e+00   6.144395e-02
  2.265718e-01    1.942970e+00   6.204477e-02
  2.287822e-01    2.124256e+00   6.423265e-02
  2.309927e-01    2.056643e+00   6.262640e-02
  2.332031e-01    2.145841e+00   6.342252e-02
  2.354136e-01    2.202410e+00   6.373233e-02
  2.376241e-01    2.126285e+00   6.213516e-02
  2.398345e-01    2.061476e+00   6.072809e-02
  2.420450e-01    2.134334e+00   6.135029e-02
  2.442554e-01    2.207450e+00   6.196247e-02
  2.464659e-01    2.161587e+00   6.090374e-02
  2.486763e-01    2.150016e+00   6.034125e-02
  2.508868e-01    2.184180e+00   6.043513e-02
  2.530973e-01    2.128466e+00   5.928949e-02
  2.553077e-01    2.080095e+00   5.825638e-02
  2.575182e-01    2.071033e+00   5.778541e-02
  2.597286e-01    2.149736e+00   5.853091e-02
  2.619391e-01    2.113184e+00   5.769712e-02
  2.641495e-01    2.076532e+00   5.687799e-02
  2.663600e-01    2.021020e+00   5.580402e-02
  2.685704e-01    1.992452e+00   5.510783e-02
  2.707809e-01    2.005579e+00   5.499561e-02
  2.729914e-01    2.008769e+00   5.475249e-02
  2.752018e-01    2.017782e+00   5.458957e-02
  2.774123e-01    1.993036e+00   5.397666e-02
  2.796227e-01    2.001801e+00   5.382764e-02
  2.818332e-01    2.029832e+00   5.393279e-02
  2.840436e-01    1.946418e+00   5.255704e-02
  2.862541e-01    1.963798e+00   5.253735e-02
  2.884646e-01    2.018003e+00   5.300478e-02
  2.906750e-01    1.933110e+00   5.163190e-02
  2.928855e-01    1.996772e+00   5.223205e-02
  2.950959e-01    1.969193e+00   5.163183e-02
  2.973064e-01    1.924377e+00   5.081150e-02
  2.995168e-01    1.954703e+00   5.097837e-02
  3.017273e-01    1.937492e+00   5.052971e-02
  3.039377e-01    1.875349e+00   4.949505e-02
  3.061482e-01    1.910953e+00   4.974655e-02
  3.083587e-01    1.896001e+00   4.933707e-02
  3.105691e-01    1.876743e+00   4.887620e-02
  3.127796e-01    1.906292e+00   4.905238e-02
  3.149900e-01    1.910281e+00   4.889908e-02
  3.172005e-01    1.966851e+00   4.941495e-02
  3.194109e-01    1.888542e+00   4.822136e-02
  3.216214e-01    1.857236e+00   4.762487e-02
  3.238319e-01    1.896394e+00   4.793365e-02
  3.260423e-01    1.900866e+00   4.779901e-02
  3.282528e-01    1.779904e+00   4.606903e-02
  3.304632e-01    1.884999e+00   4.722590e-02
  3.326737e-01    1.848747e+00   4.658714e-02
  3.348841e-01    1.812193e+00   4.594539e-02
  3.370946e-01    1.832899e+00   4.603328e-02
  3.393050e-01    1.856149e+00   4.614883e-02
  3.415155e-01    1.799392e+00   4.526695e-02
  3.437260e-01    1.840748e+00   4.561449e-02
  3.459364e-01    1.869069e+00   4.579403e-02
  3.481469e-01    1.833934e+00   4.519600e-02
  3.503573e-01    1.838606e+00   4.508867e-02
  3.525678e-01    1.823949e+00   4.474854e-02
  3.547782e-01    1.789293e+00   4.416120e-02
  3.569887e-01    1.764770e+00   4.370213e-02
  3.591992e-01    1.757754e+00   4.346083e-02
  3.614096e-01    1.758731e+00   4.332222e-02
  3.636201e-01    1.808171e+00   4.377250e-02
  3.658305e-01    1.812407e+00   4.367430e-02
  3.680410e-01    1.808579e+00   4.347808e-02
  3.702514e-01    1.855769e+00   4.389353e-02
  3.724619e-01    1.810998e+00   4.321318e-02
  3.746724e-01    1.776855e+00   4.266107e-02
  3.768828e-01    1.779200e+00   4.254557e-02
  3.790933e-01    1.816020e+00   4.284347e-02
  3.813037e-01    1.846620e+00   4.306159e-02
  3.835142e-01    1.762337e+00   4.192924e-02
  3.857246e-01    1.760835e+00   4.177571e-02
  3.879351e-01    1.775384e+00   4.181219e-02
  3.901455e-01    1.764334e+00   4.154917e-02
  3.923560e-01    1.789848e+00   4.171549e-02
  3.945665e-01    1.791536e+00   4.160281e-02
  3.967769e-01    1.783953e+00   4.138466e-02
  3.989874e-01    1.742583e+00   4.077429e-02
  4.011978e-01    1.766224e+00   4.092368e-02
  4.034083e-01    1.728956e+00   4.036535e-02
  4.056187e-01    1.770365e+00   4.072001e-02
  4.078292e-01    1.777334e+00   4.067663e-02
  4.100397e-01    1.750719e+00   4.024765e-02
  4.122501e-01    1.799729e+00   4.068504e-02
  4.144606e-01    1.764893e+00   4.016988e-02
  4.166710e-01    1.759383e+00   3.998787e-02
  4.188815e-01    1.785160e+00   4.016075e-02
  4.210919e-01    1.814478e+00   4.037054e-02
  4.233024e-01    1.781227e+00   3.988127e-02
  4.255128e-01    1.801995e+00   3.999714e-02
  4.277233e-01    1.842570e+00   4.032872e-02
  4.299338e-01    1.850699e+00   4.030131e-02
  4.321442e-01    1.817673e+00   3.982581e-02
  4.343547e-01    1.759946e+00   3.907748e-02
  4.365651e-01    1.818367e+00   3.960790e-02
  4.387756e-01    1.767519e+00   3.894087e-02
  4.409860e-01    1.739395e+00   3.852278e-02
  4.431965e-01    1.703742e+00   3.802052e-02
  4.454070e-01    1.727784e+00   3.818129e-02
  4.476174e-01    1.786987e+00   3.872332e-02
  4.498279e-01    1.842029e+00   3.920820e-02
  4.520383e-01    1.752986e+00   3.814387e-02
  4.542488e-01    1.697056e+00   3.742921e-02
  4.564592e-01    1.736450e+00   3.775956e-02
  4.586697e-01    1.749297e+00   3.779842e-02
  4.608801e-01    1.687701e+00   3.702751e-02
  4.630906e-01    1.698588e+00   3.704840e-02
  4.653011e-01    1.749703e+00   3.750282e-02
  4.675115e-01    1.733437e+00   3.722980e-02
  4.697220e-01    1.643809e+00   3.615961e-02
  4.719324e-01    1.663722e+00   3.628386e-02
  4.741429e-01    1.739003e+00   3.700009e-02
  4.763533e-01    1.690046e+00   3.638206e-02
  4.785638e-01    1.680065e+00   3.618075e-02
  4.807743e-01    1.687340e+00   3.616678e-02
  4.829847e-01    1.711158e+00   3.632915e-02
  4.851952e-01    1.683390e+00   3.594201e-02
  4.874056e-01    1.625250e+00   3.522681e-02
  4.896161e-01    1.633777e+00   3.523152e-02
  4.918265e-01    1.694401e+00   3.579011e-02
  4.940370e-01    1.688880e+00   3.564356e-02
  4.962475e-01    1.676707e+00   3.542717e-02
  4.984579e-01    1.683764e+00   3.541413e-02
  5.006684e-01    1.707123e+00   3.557202e-02
  5.028788e-01    1.659773e+00   3.499022e-02
  5.050893e-01    1.655418e+00   3.485930e-02
  5.072997e-01    1.665349e+00   3.487924e-02
  5.095102e-01    1.704097e+00   3.519820e-02
  5.117206e-01    1.646772e+00   3.451885e-02
  5.139311e-01    1.605525e+00   3.400312e-02
  5.161416e-01    1.665680e+00   3.455240e-02
  5.183520e-01    1.699107e+00   3.481448e-02
  5.205625e-01    1.679898e+00   3.453602e-02
  5.227729e-01    1.661495e+00   3.426624e-02
  5.249834e-01    1.626572e+00   3.382549e-02
  5.271938e-01    1.650574e+00   3.399462e-02
  5.294043e-01    1.725826e+00   3.468070e-02
  5.316148e-01    1.730739e+00   3.465049e-02
  5.338252e-01    1.789507e+00   3.515333e-02
  5.360357e-01    1.764454e+00   3.482694e-02
  5.382461e-01    1.776995e+00   3.487148e-02
  5.404566e-01    1.731117e+00   3.434006e-02
  5.426670e-01    1.733236e+00   3.428365e-02
  5.448775e-01    1.750544e+00   3.437741e-02
  5.470879e-01    1.752782e+00   3.432269e-02
  5.492984e-01    1.736257e+00   3.408452e-02
  5.515089e-01    1.747976e+00   3.412353e-02
  5.537193e-01    1.785879e+00   3.441550e-02
  5.559298e-01    1.810890e+00   3.457968e-02
  5.581402e-01    1.795842e+00   3.436043e-02
  5.603507e-01    1.787038e+00   3.420152e-02
  5.625611e-01    1.776835e+00   3.402973e-02
  5.647716e-01    1.792574e+00   3.410590e-02
  5.669821e-01    1.755313e+00   3.367683e-02
  5.691925e-01    1.736657e+00   3.342548e-02
  5.714030e-01    1.708086e+00   3.307870e-02
  5.736134e-01    1.680289e+00   3.273866e-02
  5.758239e-01    1.692107e+00   3.278346e-02
  5.780343e-01    1.689290e+00   3.268688e-02
  5.802448e-01    1.659232e+00   3.232696e-02
  5.824552e-01    1.648893e+00   3.215846e-02
  5.846657e-01    1.644207e+00   3.204579e-02
  5.868762e-01    1.672288e+00   3.225100e-02
  5.890866e-01    1.664752e+00   3.211148e-02
  5.912971e-01    1.682531e+00   3.221566e-02
  5.935075e-01    1.652261e+00   3.185860e-02
  5.957180e-01    1.597000e+00   3.125701e-02
  5.979284e-01    1.632272e+00   3.153580e-02
  6.001389e-01    1.641315e+00   3.155864e-02
  6.023494e-01    1.697977e+00   3.203360e-02
  6.045598e-01    1.640752e+00   3.142506e-02
  6.067703e-01    1.649903e+00   3.144920e-02
  6.089807e-01    1.658287e+00   3.146562e-02
  6.111912e-01    1.640959e+00   3.123828e-02
  6.134016e-01    1.699102e+00   3.172348e-02
  6.156121e-01    1.665546e+00   3.134624e-02
  6.178226e-01    1.693783e+00   3.154824e-02
  6.200330e-01    1.689576e+00   3.144691e-02
  6.222435e-01    1.662795e+00   3.113486e-02
  6.244539e-01    1.738741e+00   3.177561e-02
  6.266644e-01    1.708703e+00   3.143850e-02
  6.288748e-01    1.707696e+00   3.136805e-02
  6.310853e-01    1.707871e+00   3.130878e-02
  6.332957e-01    1.667216e+00   3.087415e-02
  6.355062e-01    1.643990e+00   3.059879e-02
  6.377167e-01    1.675073e+00   3.082742e-02
  6.399271e-01    1.685588e+00   3.086479e-02
  6.421376e-01    1.656184e+00   3.053600e-02
  6.443480e-01    1.672136e+00   3.062432e-02
  6.465585e-01    1.720381e+00   3.100412e-02
  6.487689e-01    1.712732e+00   3.087674e-02
  6.509794e-01    1.669212e+00   3.042441e-02
  6.531899e-01    1.635840e+00   3.006212e-02
  6.554003e-01    1.612020e+00   2.978634e-02
  6.576108e-01    1.568168e+00   2.932370e-02
  6.598212e-01    1.603816e+00   2.960001e-02
  6.620317e-01    1.649368e+00   2.996179e-02
  6.642421e-01    1.626327e+00   2.969674e-02
  6.664526e-01    1.621531e+00   2.959828e-02
  6.686630e-01    1.601543e+00   2.936091e-02
  6.708735e-01    1.564962e+00   2.897043e-02
  6.730840e-01    1.570478e+00   2.896850e-02
  6.752944e-01    1.560993e+00   2.882839e-02
  6.775049e-01    1.575794e+00   2.891213e-02
  6.797153e-01    1.594265e+00   2.902843e-02
  6.819258e-01    1.573901e+00   2.879044e-02
  6.841362e-01    1.549809e+00   2.851786e-02
  6.863467e-01    1.576252e+00   2.870860e-02
  6.885572e-01    1.600456e+00   2.887634e-02
  6.907676e-01    1.566658e+00   2.851862e-02
  6.929781e-01    1.586004e+00   2.864316e-02
  6.951885e-01    1.599943e+00   2.871778e-02
  6.973990e-01    1.615473e+00   2.880583e-02
  6.996094e-01    1.608034e+00   2.868887e-02
  7.018199e-01    1.561450e+00   2.822063e-02
  7.040303e-01    1.623699e+00   2.872709e-02
  7.062408e-01    1.610025e+00   2.855580e-02
  7.084513e-01    1.581915e+00   2.825617e-02
  7.106617e-01    1.597492e+00   2.834561e-02
  7.128722e-01    1.569436e+00   2.804699e-02
  7.150826e-01    1.567862e+00   2.798460e-02
  7.172931e-01    1.557051e+00   2.783987e-02
  7.195035e-01    1.560564e+00   2.782336e-02
  7.217140e-01    1.535772e+00   2.765029e-02
  7.239245e-01    1.572864e+00   2.820880e-02
  7.261349e-01    1.550761e+00   2.811770e-02
  7.283454e-01    1.553455e+00   2.821402e-02
  7.305558e-01    1.559144e+00   2.831935e-02
  7.327663e-01    1.566906e+00   2.843216e-02
  7.349767e-01    1.564970e+00   2.843091e-02
  7.371872e-01    1.580102e+00   2.855682e-02
  7.393976e-01    1.559575e+00   2.835656e-02
  7.416081e-01    1.583483e+00   2.855683e-02
  7.438186e-01    1.595643e+00   2.852101e-02
  7.460290e-01    1.575485e+00   2.804597e-02
  7.482395e-01    1.573171e+00   2.785426e-02
  7.504499e-01    1.540624e+00   2.742985e-02
  7.526604e-01    1.559562e+00   2.748190e-02
  7.548708e-01    1.600943e+00   2.775397e-02
  7.570813e-01    1.569105e+00   2.742573e-02
  7.592918e-01    1.575568e+00   2.744697e-02
  7.615022e-01    1.550902e+00   2.719772e-02
  7.637127e-01    1.576325e+00   2.738694e-02
  7.659231e-01    1.584306e+00   2.742410e-02
  7.681336e-01    1.545653e+00   2.705617e-02
  7.703440e-01    1.545979e+00   2.702809e-02
  7.725545e-01    1.584852e+00   2.733478e-02
  7.747650e-01    1.642885e+00   2.779175e-02
  7.769754e-01    1.565359e+00   2.707558e-02
  7.791859e-01    1.550628e+00   2.689478e-02
  7.813963e-01    1.602402e+00   2.728712e-02
  7.836068e-01    1.567477e+00   2.693641e-02
  7.858172e-01    1.582594e+00   2.701536e-02
  7.880277e-01    1.625828e+00   2.732980e-02
  7.902381e-01    1.635259e+00   2.735917e-02
  7.924486e-01    1.608390e+00   2.708322e-02
  7.946591e-01    1.601722e+00   2.697868e-02
  7.968695e-01    1.599940e+00   2.691544e-02
  7.990800e-01    1.600312e+00   2.687045e-02
  8.012904e-01    1.606551e+00   2.687621e-02
  8.035009e-01    1.621638e+00   2.695406e-02
  8.057113e-01    1.672202e+00   2.732372e-02
  8.079218e-01    1.685826e+00   2.738747e-02
  8.101323e-01    1.723692e+00   2.764631e-02
  8.123427e-01    1.740859e+00   2.773629e-02
  8.145532e-01    1.675058e+00   2.716051e-02
  8.167636e-01    1.632662e+00   2.676949e-02
  8.189741e-01    1.631695e+00   2.671694e-02
  8.211845e-01    1.615631e+00   2.654056e-02
  8.233950e-01    1.608408e+00   2.643808e-02
  8.256054e-01    1.634114e+00   2.660436e-02
  8.278159e-01    1.644174e+00   2.664207e-02
  8.300264e-01    1.642943e+00   2.658895e-02
  8.322368e-01    1.651801e+00   2.661724e-02
  8.344473e-01    1.650745e+00   2.656520e-02
  8.366577e-01    1.631692e+00   2.636896e-02
  8.388682e-01    1.672272e+00   2.665215e-02
  8.410786e-01    1.765945e+00   2.734479e-02
  8.432891e-01    1.818544e+00   2.770497e-02
  8.454996e-01    1.817963e+00   2.765673e-02
  8.477100e-01    1.699456e+00   2.669768e-02
  8.499205e-01    1.672526e+00   2.644369e-02
  8.521309e-01    1.644503e+00   2.618035e-02
  8.543414e-01    1.614289e+00   2.589824e-02
  8.565518e-01    1.612627e+00   2.584464e-02
  8.587623e-01    1.601063e+00   2.571169e-02
  8.609727e-01    1.576247e+00   2.547210e-02
  8.631832e-01    1.606614e+00   2.567663e-02
  8.653937e-01    1.596775e+00   2.555858e-02
  8.676041e-01    1.569340e+00   2.529980e-02
  8.698146e-01    1.593278e+00   2.545307e-02
  8.720250e-01    1.583052e+00   2.533259e-02
  8.742355e-01    1.573556e+00   2.521805e-02
  8.764459e-01    1.580202e+00   2.523269e-02
  8.786564e-01    1.554913e+00   2.499267e-02
  8.808669e-01    1.531718e+00   2.476793e-02
  8.830773e-01    1.565396e+00   2.500105e-02
  8.852878e-01    1.578899e+00   2.507100e-02
  8.874982e-01    1.595401e+00   2.516510e-02
  8.897087e-01    1.560262e+00   2.484924e-02
  8.919191e-01    1.596484e+00   2.509830e-02
  8.941296e-01    1.602420e+00   2.510762e-02
  8.963401e-01    1.581418e+00   2.490634e-02
  8.985505e-01    1.565089e+00   2.474085e-02
  9.007610e-01    1.554144e+00   2.461797e-02
  9.029714e-01    1.576252e+00   2.475689e-02
  9.051819e-01    1.568562e+00   2.465958e-02
  9.073923e-01    1.565322e+00   2.459789e-02
  9.096028e-01    1.599342e+00   2.482887e-02
  9.118132e-01    1.560278e+00   2.448801e-02
  9.140237e-01    1.552562e+00   2.439130e-02
  9.162342e-01    1.586385e+00   2.462114e-02
  9.184446e-01    1.599087e+00   2.468376e-02
  9.206551e-01    1.584895e+00   2.453858e-02
  9.228655e-01    1.563232e+00   2.433545e-02
  9.250760e-01    1.599375e+00   2.457985e-02
  9.272864e-01    1.591403e+00   2.448437e-02
  9.294969e-01    1.605708e+00   2.455832e-02
  9.317074e-01    1.613282e+00   2.458139e-02
  9.339178e-01    1.571489e+00   2.422778e-02
  9.361283e-01    1.591183e+00   2.434316e-02
  9.383387e-01    1.619907e+00   2.452849e-02
  9.405492e-01    1.673156e+00   2.489357e-02
  9.427596e-01    1.637722e+00   2.459313e-02
  9.449701e-01    1.641606e+00   2.458880e-02
  9.471805e-01    1.641787e+00   2.455532e-02
  9.493910e-01    1.688143e+00   2.486539e-02
  9.516015e-01    1.682625e+00   2.479007e-02
  9.538119e-01    1.714472e+00   2.498929e-02
  9.560224e-01    1.704454e+00   2.488109e-02
  9.582328e-01    1.802048e+00   2.554917e-02
  9.604433e-01    1.833082e+00   2.573176e-02
  9.626537e-01    1.793994e+00   2.542170e-02
  9.648642e-01    1.828097e+00   2.562704e-02
  9.670747e-01    1.826591e+00   2.558116e-02
  9.692851e-01    1.824015e+00   2.552913e-02
  9.714956e-01    1.851616e+00   2.568530e-02
  9.737060e-01    1.854884e+00   2.567418e-02
  9.759165e-01    1.820975e+00   2.540256e-02
  9.781269e-01    1.804904e+00   2.525714e-02
  9.803374e-01    1.793996e+00   2.514587e-02
  9.825478e-01    1.761527e+00   2.488441e-02
  9.847583e-01    1.761226e+00   2.484849e-02
  9.869688e-01    1.749306e+00   2.473111e-02
  9.891792e-01    1.757828e+00   2.475832e-02
  9.913897e-01    1.739934e+00   2.459877e-02
  9.936001e-01    1.703658e+00   2.430909e-02
  9.958106e-01    1.718862e+00   2.438416e-02
  9.980210e-01    1.670674e+00   2.400872e-02
  1.000231e+00    1.631284e+00   2.385397e-02
  1.002442e+00    1.630349e+00   2.397384e-02
  1.004652e+00    1.609167e+00   2.388403e-02
  1.006863e+00    1.594530e+00   2.382450e-02
  1.009073e+00    1.558735e+00   2.359161e-02
  1.011284e+00    1.536389e+00   2.345322e-02
  1.013494e+00    1.541791e+00   2.351769e-02
  1.015705e+00    1.533346e+00   2.347539e-02
  1.017915e+00    1.465422e+00   2.296536e-02
  1.020126e+00    1.501724e+00   2.326374e-02
  1.022336e+00    1.542731e+00   2.359088e-02
  1.024547e+00    1.485209e+00   2.315789e-02
  1.026757e+00    1.495522e+00   2.324635e-02
  1.028967e+00    1.490658e+00   2.321609e-02
  1.031178e+00    1.485490e+00   2.318185e-02
  1.033388e+00    1.467176e+00   2.304347e-02
  1.035599e+00    1.501317e+00   2.331341e-02
  1.037809e+00    1.513603e+00   2.341188e-02
  1.040020e+00    1.491722e+00   2.324329e-02
  1.042230e+00    1.477440e+00   2.313367e-02
  1.044441e+00    1.467705e+00   2.305710e-02
  1.046651e+00    1.479777e+00   2.315191e-02
  1.048862e+00    1.482093e+00   2.316922e-02
  1.051072e+00    1.495209e+00   2.326919e-02
  1.053282e+00    1.479755e+00   2.314765e-02
  1.055493e+00    1.479827e+00   2.314398e-02
  1.057703e+00    1.448982e+00   2.289997e-02
  1.059914e+00    1.455966e+00   2.295090e-02
  1.062124e+00    1.458824e+00   2.296938e-02
  1.064335e+00    1.489530e+00   2.320641e-02
  1.066545e+00    1.467616e+00   2.302914e-02
  1.068756e+00    1.438584e+00   2.279652e-02
  1.070966e+00    1.431031e+00   2.273016e-02
  1.073177e+00    1.440223e+00   2.279706e-02
  1.075387e+00    1.465178e+00   2.298849e-02
  1.077597e+00    1.438257e+00   2.276917e-02
  1.079808e+00    1.420328e+00   2.249604e-02
  1.082018e+00    1.380566e+00   2.199528e-02
  1.084229e+00    1.373269e+00   2.183031e-02
  1.086439e+00    1.423730e+00   2.214131e-02
  1.088650e+00    1.416994e+00   2.201418e-02
  1.090860e+00    1.418434e+00   2.195858e-02
  1.093071e+00    1.391606e+00   2.168902e-02
  1.095281e+00    1.417453e+00   2.183282e-02
  1.097492e+00    1.415036e+00   2.175987e-02
  1.099702e+00    1.421259e+00   2.175661e-02
  1.101912e+00    1.419895e+00   2.169767e-02
  1.104123e+00    1.384003e+00   2.137433e-02
  1.106333e+00    1.408017e+00   2.151492e-02
  1.108544e+00    1.408511e+00   2.147478e-02
  1.110754e+00    1.418222e+00   2.150578e-02
  1.112965e+00    1.410978e+00   2.141041e-02
  1.115175e+00    1.420416e+00   2.144071e-02
  1.117386e+00    1.435892e+00   2.151764e-02
  1.119596e+00    1.455242e+00   2.162369e-02
  1.121807e+00    1.462740e+00   2.163981e-02
  1.124017e+00    1.449659e+00   2.150560e-02
  1.126228e+00    1.530611e+00   2.206058e-02
  1.128438e+00    1.564657e+00   2.226575e-02
  1.130648e+00    1.625385e+00   2.265669e-02
  1.132859e+00    1.856574e+00   2.417483e-02
  1.135069e+00    1.761106e+00   2.350616e-02
  1.137280e+00    1.530727e+00   2.188015e-02
  1.139490e+00    1.437544e+00   2.117002e-02
  1.141701e+00    1.492592e+00   2.153713e-02
  1.143911e+00    1.494859e+00   2.152039e-02
  1.146122e+00    1.447727e+00   2.114565e-02
  1.148332e+00    1.398255e+00   2.074910e-02
  1.150543e+00    1.369129e+00   2.050112e-02
  1.152753e+00    1.371681e+00   2.048942e-02
  1.154963e+00    1.375651e+00   2.048797e-02
  1.157174e+00    1.409196e+00   2.070572e-02
  1.159384e+00    1.433177e+00   2.085065e-02
  1.161595e+00    1.433006e+00   2.081889e-02
  1.163805e+00    1.441279e+00   2.084887e-02
  1.166016e+00    1.446286e+00   2.085479e-02
  1.168226e+00    1.443705e+00   2.080641e-02
  1.170437e+00    1.501380e+00   2.118789e-02
  1.172647e+00    1.619453e+00   2.197382e-02
  1.174858e+00    1.605359e+00   2.184756e-02
  1.177068e+00    1.502435e+00   2.110595e-02
  1.179278e+00    1.413222e+00   2.044061e-02
  1.181489e+00    1.377618e+00   2.015428e-02
  1.183699e+00    1.372605e+00   2.008986e-02
  1.185910e+00    1.374767e+00   2.007773e-02
  1.188120e+00    1.378987e+00   2.008162e-02
  1.190331e+00    1.360358e+00   1.991871e-02
  1.192541e+00    1.350576e+00   1.981962e-02
  1.194752e+00    1.345314e+00   1.975399e-02
  1.196962e+00    1.360739e+00   1.984108e-02
  1.199173e+00    1.379165e+00   1.994819e-02
  1.201383e+00    1.374067e+00   1.988390e-02
  1.203593e+00    1.335632e+00   1.957913e-02
  1.205804e+00    1.363926e+00   1.975938e-02
  1.208014e+00    1.344001e+00   1.958774e-02
  1.210225e+00    1.339548e+00   1.953004e-02
  1.212435e+00    1.330950e+00   1.944263e-02
  1.214646e+00    1.351920e+00   1.956907e-02
  1.216856e+00    1.336903e+00   1.943475e-02
  1.219067e+00    1.337794e+00   1.941684e-02
  1.221277e+00    1.360877e+00   1.955851e-02
  1.223488e+00    1.347746e+00   1.943823e-02
  1.225698e+00    1.336357e+00   1.932912e-02
  1.227909e+00    1.326766e+00   1.922977e-02
  1.230119e+00    1.334107e+00   1.925119e-02
  1.232329e+00    1.332025e+00   1.920568e-02
  1.234540e+00    1.326360e+00   1.913476e-02
  1.236750e+00    1.304872e+00   1.894938e-02
  1.238961e+00    1.319534e+00   1.902887e-02
  1.241171e+00    1.305150e+00   1.890110e-02
  1.243382e+00    1.317504e+00   1.896709e-02
  1.245592e+00    1.324894e+00   1.899637e-02
  1.247803e+00    1.323999e+00   1.896651e-02
  1.250013e+00    1.332429e+00   1.900342e-02
  1.252224e+00    1.305294e+00   1.878606e-02
  1.254434e+00    1.328666e+00   1.892993e-02
  1.256644e+00    1.334164e+00   1.894600e-02
  1.258855e+00    1.344530e+00   1.899622e-02
  1.261065e+00    1.369872e+00   1.915088e-02
  1.263276e+00    1.356063e+00   1.903110e-02
  1.265486e+00    1.387943e+00   1.923032e-02
  1.267697e+00    1.351726e+00   1.895474e-02
  1.269907e+00    1.331614e+00   1.879065e-02
  1.272118e+00    1.347123e+00   1.887723e-02
  1.274328e+00    1.312024e+00   1.860725e-02
  1.276539e+00    1.335007e+00   1.874686e-02
  1.278749e+00    1.324571e+00   1.865137e-02
  1.280959e+00    1.347577e+00   1.879012e-02
  1.283170e+00    1.339906e+00   1.871425e-02
  1.285380e+00    1.322571e+00   1.857053e-02
  1.287591e+00    1.341315e+00   1.867973e-02
  1.289801e+00    1.344360e+00   1.867974e-02
  1.292012e+00    1.342551e+00   1.865011e-02
  1.294222e+00    1.348665e+00   1.867631e-02
  1.296433e+00    1.342618e+00   1.861883e-02
  1.298643e+00    1.341548e+00   1.859499e-02
  1.300854e+00    1.353962e+00   1.866440e-02
  1.303064e+00    1.318606e+00   1.840010e-02
  1.305274e+00    1.324218e+00   1.841796e-02
  1.307485e+00    1.373956e+00   1.873892e-02
  1.309695e+00    1.372161e+00   1.870429e-02
  1.311906e+00    1.345612e+00   1.850077e-02
  1.314116e+00    1.353679e+00   1.853532e-02
  1.316327e+00    1.345660e+00   1.845868e-02
  1.318537e+00    1.345327e+00   1.843454e-02
  1.320748e+00    1.358044e+00   1.849985e-02
  1.322958e+00    1.346444e+00   1.840019e-02
  1.325169e+00    1.338964e+00   1.832806e-02
  1.327379e+00    1.368114e+00   1.850455e-02
  1.329589e+00    1.348436e+00   1.834992e-02
  1.331800e+00    1.352575e+00   1.835736e-02
  1.334010e+00    1.370273e+00   1.845625e-02
  1.336221e+00    1.369343e+00   1.842809e-02
  1.338431e+00    1.356539e+00   1.832081e-02
  1.340642e+00    1.359285e+00   1.840373e-02
  1.342852e+00    1.348347e+00   1.843014e-02
  1.345063e+00    1.332360e+00   1.836972e-02
  1.347273e+00    1.333080e+00   1.840970e-02
  1.349484e+00    1.350298e+00   1.855589e-02
  1.351694e+00    1.355492e+00   1.861430e-02
  1.353905e+00    1.331271e+00   1.846513e-02
  1.356115e+00    1.320501e+00   1.840516e-02
  1.358325e+00    1.324426e+00   1.844567e-02
  1.360536e+00    1.334410e+00   1.852663e-02
  1.362746e+00    1.316007e+00   1.840788e-02
  1.364957e+00    1.308717e+00   1.836438e-02
  1.367167e+00    1.299412e+00   1.830597e-02
  1.369378e+00    1.306075e+00   1.835880e-02
  1.371588e+00    1.288790e+00   1.824194e-02
  1.373799e+00    1.281252e+00   1.819210e-02
  1.376009e+00    1.287921e+00   1.824270e-02
  1.378220e+00    1.294091e+00   1.828884e-02
  1.380430e+00    1.297302e+00   1.831420e-02
  1.382640e+00    1.289426e+00   1.825940e-02
  1.384851e+00    1.294397e+00   1.829544e-02
  1.387061e+00    1.281471e+00   1.820415e-02
  1.389272e+00    1.277898e+00   1.817895e-02
  1.391482e+00    1.292708e+00   1.828332e-02
  1.393693e+00    1.296399e+00   1.830854e-02
  1.395903e+00    1.269006e+00   1.811258e-02
  1.398114e+00    1.268680e+00   1.810889e-02
  1.400324e+00    1.258897e+00   1.803682e-02
  1.402535e+00    1.240575e+00   1.790280e-02
  1.404745e+00    1.257596e+00   1.802284e-02
  1.406955e+00    1.250064e+00   1.796613e-02
  1.409166e+00    1.276066e+00   1.814870e-02
  1.411376e+00    1.270161e+00   1.810355e-02
  1.413587e+00    1.271531e+00   1.810949e-02
  1.415797e+00    1.265629e+00   1.806388e-02
  1.418008e+00    1.238721e+00   1.782949e-02
  1.420218e+00    1.225036e+00   1.758367e-02
  1.422429e+00    1.228072e+00   1.752154e-02
  1.424639e+00    1.239666e+00   1.754014e-02
  1.426850e+00    1.277455e+00   1.775061e-02
  1.429060e+00    1.264351e+00   1.761048e-02
  1.431270e+00    1.259268e+00   1.753089e-02
  1.433481e+00    1.269219e+00   1.755911e-02
  1.435691e+00    1.272708e+00   1.754474e-02
  1.437902e+00    1.268610e+00   1.748003e-02
  1.440112e+00    1.260081e+00   1.738597e-02
  1.442323e+00    1.263346e+00   1.737552e-02
  1.444533e+00    1.259538e+00   1.731689e-02
  1.446744e+00    1.251114e+00   1.722801e-02
  1.448954e+00    1.238331e+00   1.710993e-02
  1.451165e+00    1.252932e+00   1.718096e-02
  1.453375e+00    1.255048e+00   1.716758e-02
  1.455586e+00    1.282592e+00   1.732663e-02
  1.457796e+00    1.290905e+00   1.735497e-02
  1.460006e+00    1.292851e+00   1.734054e-02
  1.462217e+00    1.277445e+00   1.721063e-02
  1.464427e+00    1.246358e+00   1.697455e-02
  1.466638e+00    1.251855e+00   1.698678e-02
  1.468848e+00    1.270890e+00   1.709008e-02
  1.471059e+00    1.261643e+00   1.700281e-02
  1.473269e+00    1.250102e+00   1.690065e-02
  1.475480e+00    1.276091e+00   1.705158e-02
  1.477690e+00    1.323584e+00   1.734164e-02
  1.479901e+00    1.328227e+00   1.734765e-02
  1.482111e+00    1.305979e+00   1.717807e-02
  1.484321e+00    1.302053e+00   1.712879e-02
  1.486532e+00    1.307017e+00   1.713872e-02
  1.488742e+00    1.277429e+00   1.692087e-02
  1.490953e+00    1.250097e+00   1.671639e-02
  1.493163e+00    1.253698e+00   1.671825e-02
  1.495374e+00    1.249331e+00   1.666774e-02
  1.497584e+00    1.258225e+00   1.670533e-02
  1.499795e+00    1.243396e+00   1.658511e-02
  1.502005e+00    1.240063e+00   1.654133e-02
  1.504216e+00    1.280466e+00   1.678743e-02
  1.506426e+00    1.287755e+00   1.681411e-02
  1.508636e+00    1.244413e+00   1.650838e-02
  1.510847e+00    1.243635e+00   1.648151e-02
  1.513057e+00    1.244550e+00   1.646258e-02
  1.515268e+00    1.237351e+00   1.638939e-02
  1.517478e+00    1.223196e+00   1.627053e-02
  1.519689e+00    1.215192e+00   1.619263e-02
  1.521899e+00    1.236255e+00   1.630941e-02
  1.524110e+00    1.253222e+00   1.640061e-02
  1.526320e+00    1.264469e+00   1.645437e-02
  1.528531e+00    1.254999e+00   1.637284e-02
  1.530741e+00    1.237264e+00   1.623770e-02
  1.532951e+00    1.224612e+00   1.613507e-02
  1.535162e+00    1.220660e+00   1.619459e-02
  1.537372e+00    1.246141e+00   1.642959e-02
  1.539583e+00    1.241797e+00   1.643507e-02
  1.541793e+00    1.211403e+00   1.623955e-02
  1.544004e+00    1.211707e+00   1.624181e-02
  1.546214e+00    1.237704e+00   1.641364e-02
  1.548425e+00    1.229711e+00   1.636082e-02
  1.550635e+00    1.216755e+00   1.628397e-02
  1.552846e+00    1.219992e+00   1.631517e-02
  1.555056e+00    1.234005e+00   1.636730e-02
  1.557266e+00    1.231973e+00   1.624392e-02
  1.559477e+00    1.222378e+00   1.612196e-02
  1.561687e+00    1.222483e+00   1.609224e-02
  1.563898e+00    1.249072e+00   1.624911e-02
  1.566108e+00    1.248358e+00   1.622850e-02
  1.568319e+00    1.238306e+00   1.614744e-02
  1.570529e+00    1.254588e+00   1.622801e-02
  1.572740e+00    1.253818e+00   1.619531e-02
  1.574950e+00    1.243463e+00   1.610201e-02
  1.577161e+00    1.234726e+00   1.601995e-02
  1.579371e+00    1.225341e+00   1.593549e-02
  1.581582e+00    1.213813e+00   1.584081e-02
  1.583792e+00    1.230447e+00   1.593106e-02
  1.586002e+00    1.233189e+00   1.593127e-02
  1.588213e+00    1.222453e+00   1.584468e-02
  1.590423e+00    1.222560e+00   1.582548e-02
  1.592634e+00    1.206601e+00   1.570055e-02
  1.594844e+00    1.222541e+00   1.578268e-02
  1.597055e+00    1.238155e+00   1.586271e-02
  1.599265e+00    1.201023e+00   1.560265e-02
  1.601476e+00    1.215161e+00   1.567411e-02
  1.603686e+00    1.224634e+00   1.571546e-02
  1.605897e+00    1.235554e+00   1.576523e-02
  1.608107e+00    1.259769e+00   1.589924e-02
  1.610317e+00    1.225796e+00   1.566419e-02
  1.612528e+00    1.211989e+00   1.555671e-02
  1.614738e+00    1.216482e+00   1.556669e-02
  1.616949e+00    1.192290e+00   1.539241e-02
  1.619159e+00    1.212414e+00   1.550313e-02
  1.621370e+00    1.195951e+00   1.537925e-02
  1.623580e+00    1.161319e+00   1.513699e-02
  1.625791e+00    1.181481e+00   1.524976e-02
  1.628001e+00    1.169358e+00   1.515334e-02
  1.630212e+00    1.140539e+00   1.494807e-02
  1.632422e+00    1.158147e+00   1.504533e-02
  1.634632e+00    1.155079e+00   1.500829e-02
  1.636843e+00    1.144558e+00   1.492247e-02
  1.639053e+00    1.167494e+00   1.505401e-02
  1.641264e+00    1.175857e+00   1.509070e-02
  1.643474e+00    1.158332e+00   1.496046e-02
  1.645685e+00    1.139432e+00   1.482138e-02
  1.647895e+00    1.124692e+00   1.470884e-02
  1.650106e+00    1.130128e+00   1.472747e-02
  1.652316e+00    1.127858e+00   1.469636e-02
  1.654527e+00    1.117177e+00   1.461011e-02
  1.656737e+00    1.098757e+00   1.447288e-02
  1.658947e+00    1.107991e+00   1.451746e-02
  1.661158e+00    1.099253e+00   1.444403e-02
  1.663368e+00    1.101369e+00   1.444207e-02
  1.665579e+00    1.082586e+00   1.430251e-02
  1.667789e+00    1.077684e+00   1.425413e-02
  1.670000e+00    1.077380e+00   1.423688e-02
  1.672210e+00    1.078524e+00   1.422878e-02
  1.674421e+00    1.060545e+00   1.409467e-02
  1.676631e+00    1.078730e+00   1.419929e-02
  1.678842e+00    1.059363e+00   1.405577e-02
  1.681052e+00    1.059263e+00   1.403995e-02
  1.683263e+00    1.077014e+00   1.414204e-02
  1.685473e+00    1.071570e+00   1.409124e-02
  1.687683e+00    1.059168e+00   1.399419e-02
  1.689894e+00    1.045143e+00   1.388572e-02
  1.692104e+00    1.058376e+00   1.395855e-02
  1.694315e+00    1.046748e+00   1.386735e-02
  1.696525e+00    1.026803e+00   1.371973e-02
  1.698736e+00    1.037419e+00   1.377585e-02
  1.700946e+00    1.017864e+00   1.363057e-02
  1.703157e+00    1.012991e+00   1.358356e-02
  1.705367e+00    1.038430e+00   1.373867e-02
  1.707578e+00    1.042735e+00   1.375260e-02
  1.709788e+00    1.007132e+00   1.350192e-02
  1.711998e+00    1.008555e+00   1.349669e-02
  1.714209e+00    9.953049e-01   1.339362e-02
  1.716419e+00    9.883134e-01   1.333253e-02
  1.718630e+00    1.007277e+00   1.344574e-02
  1.720840e+00    1.021034e+00   1.352311e-02
  1.723051e+00    9.957531e-01   1.334098e-02
  1.725261e+00    1.003662e+00   1.337930e-02
  1.727472e+00    1.005180e+00   1.337534e-02
  1.729682e+00    9.749892e-01   1.315977e-02
  1.731893e+00    9.877974e-01   1.323215e-02
  1.734103e+00    9.940997e-01   1.326062e-02
  1.736313e+00    9.988008e-01   1.327797e-02
  1.738524e+00    9.851273e-01   1.317308e-02
  1.740734e+00    9.614305e-01   1.300022e-02
  1.742945e+00    9.741101e-01   1.307235e-02
  1.745155e+00    9.860814e-01   1.313905e-02
  1.747366e+00    9.636543e-01   1.297513e-02
  1.749576e+00    9.694044e-01   1.300024e-02
  1.751787e+00    9.701294e-01   1.299182e-02
  1.753997e+00    9.864090e-01   1.308698e-02
  1.756208e+00    9.584340e-01   1.288696e-02
  1.758418e+00    9.534209e-01   1.284023e-02
  1.760628e+00    9.505289e-01   1.280751e-02
  1.762839e+00    9.489060e-01   1.278348e-02
  1.765049e+00    9.553221e-01   1.281355e-02
  1.767260e+00    9.558591e-01   1.280435e-02
  1.769470e+00    9.890073e-01   1.301125e-02
  1.771681e+00    1.026667e+00   1.324308e-02
  1.773891e+00    9.287541e-01   1.258285e-02
  1.776102e+00    9.226770e-01   1.252888e-02
  1.778312e+00    9.242836e-01   1.252720e-02
  1.780523e+00    9.285077e-01   1.254315e-02
  1.782733e+00    9.359545e-01   1.258068e-02
  1.784944e+00    9.395916e-01   1.259219e-02
  1.787154e+00    9.464015e-01   1.262511e-02
  1.789364e+00    9.639089e-01   1.272865e-02
  1.791575e+00    9.444933e-01   1.258716e-02
  1.793785e+00    9.320208e-01   1.249130e-02
  1.795996e+00    9.136072e-01   1.235484e-02
  1.798206e+00    9.102006e-01   1.231930e-02
  1.800417e+00    9.051077e-01   1.227220e-02
  1.802627e+00    9.003409e-01   1.222799e-02
  1.804838e+00    9.045745e-01   1.224464e-02
  1.807048e+00    9.164559e-01   1.231190e-02
  1.809259e+00    9.019167e-01   1.220031e-02
  1.811469e+00    8.963793e-01   1.214788e-02
  1.813679e+00    9.036261e-01   1.218191e-02
  1.815890e+00    9.201155e-01   1.227761e-02
  1.818100e+00    9.334025e-01   1.235055e-02
  1.820311e+00    9.489080e-01   1.243748e-02
  1.822521e+00    9.206677e-01   1.223592e-02
  1.824732e+00    8.806205e-01   1.195211e-02
  1.826942e+00    8.744258e-01   1.189774e-02
  1.829153e+00    8.836280e-01   1.194850e-02
  1.831363e+00    8.944089e-01   1.200907e-02
  1.833574e+00    8.714592e-01   1.184238e-02
  1.835784e+00    8.736088e-01   1.184560e-02
  1.837994e+00    8.488362e-01   1.166492e-02
  1.840205e+00    8.435654e-01   1.161766e-02
  1.842415e+00    8.720837e-01   1.180064e-02
  1.844626e+00    8.717286e-01   1.178668e-02
  1.846836e+00    8.894687e-01   1.189443e-02
  1.849047e+00    8.884075e-01   1.187558e-02
  1.851257e+00    8.655314e-01   1.171212e-02
  1.853468e+00    8.647823e-01   1.169822e-02
  1.855678e+00    8.997710e-01   1.192342e-02
  1.857889e+00    9.484894e-01   1.223306e-02
  1.860099e+00    8.924324e-01   1.185729e-02
  1.862309e+00    8.293652e-01   1.142224e-02
  1.864520e+00    8.340393e-01   1.144591e-02
  1.866730e+00    8.262823e-01   1.138334e-02
  1.868941e+00    8.338473e-01   1.142449e-02
  1.871151e+00    8.320833e-01   1.140116e-02
  1.873362e+00    8.012031e-01   1.117658e-02
  1.875572e+00    8.205855e-01   1.130021e-02
  1.877783e+00    8.155479e-01   1.125426e-02
  1.879993e+00    8.213922e-01   1.128353e-02
  1.882204e+00    8.242733e-01   1.129254e-02
  1.884414e+00    8.217550e-01   1.126435e-02
  1.886624e+00    8.206716e-01   1.124601e-02
  1.888835e+00    8.158674e-01   1.120222e-02
  1.891045e+00    8.333390e-01   1.131070e-02
  1.893256e+00    8.365399e-01   1.132133e-02
  1.895466e+00    8.354892e-01   1.130306e-02
  1.897677e+00    8.236162e-01   1.121161e-02
  1.899887e+00    8.101478e-01   1.110875e-02
  1.902098e+00    8.258469e-01   1.120504e-02
  1.904308e+00    8.293642e-01   1.121831e-02
  1.906519e+00    8.357479e-01   1.125054e-02
  1.908729e+00    8.310392e-01   1.120818e-02
  1.910940e+00    8.199661e-01   1.112218e-02
  1.913150e+00    8.211211e-01   1.111945e-02
  1.915360e+00    8.458785e-01   1.127506e-02
  1.917571e+00    8.333209e-01   1.118016e-02
  1.919781e+00    7.895693e-01   1.087221e-02
  1.921992e+00    7.912277e-01   1.087318e-02
  1.924202e+00    7.959493e-01   1.089496e-02
  1.926413e+00    7.974261e-01   1.089488e-02
  1.928623e+00    7.909555e-01   1.084020e-02
  1.930834e+00    8.047750e-01   1.092409e-02
  1.933044e+00    8.132005e-01   1.097048e-02
  1.935255e+00    8.000202e-01   1.087094e-02
  1.937465e+00    7.927126e-01   1.081088e-02
  1.939675e+00    7.797827e-01   1.071168e-02
  1.941886e+00    7.814573e-01   1.071304e-02
  1.944096e+00    7.840566e-01   1.072079e-02
  1.946307e+00    7.866961e-01   1.072858e-02
  1.948517e+00    7.888018e-01   1.073255e-02
  1.950728e+00    7.986676e-01   1.078922e-02
  1.952938e+00    7.926207e-01   1.073824e-02
  1.955149e+00    8.016960e-01   1.078927e-02
  1.957359e+00    7.965531e-01   1.074458e-02
  1.959570e+00    7.813947e-01   1.063106e-02
  1.961780e+00    7.901139e-01   1.068031e-02
  1.963990e+00    7.750859e-01   1.056826e-02
  1.966201e+00    7.724218e-01   1.054012e-02
  1.968411e+00    7.813616e-01   1.059083e-02
  1.970622e+00    7.972329e-01   1.068771e-02
  1.972832e+00    7.793194e-01   1.055705e-02
  1.975043e+00    7.601275e-01   1.041636e-02
  1.977253e+00    7.723768e-01   1.049008e-02
  1.979464e+00    7.864155e-01   1.057493e-02
  1.981674e+00    7.678512e-01   1.043922e-02
  1.983885e+00    7.645026e-01   1.040652e-02
  1.986095e+00    7.553564e-01   1.033452e-02
  1.988305e+00    7.647190e-01   1.038859e-02
  1.990516e+00    7.681936e-01   1.040229e-02
  1.992726e+00    7.730939e-01   1.042579e-02
  1.994937e+00    7.546381e-01   1.029062e-02
  1.997147e+00    7.742732e-01   1.041389e-02
  1.999358e+00    7.751610e-01   1.041003e-02
  2.001568e+00    7.664354e-01   1.034050e-02
  2.003779e+00    7.540847e-01   1.024507e-02
  2.005989e+00    7.709308e-01   1.034686e-02
  2.008200e+00    7.735218e-01   1.035269e-02
  2.010410e+00    7.825226e-01   1.040089e-02
  2.012621e+00    7.588832e-01   1.023097e-02
  2.014831e+00    7.473860e-01   1.014184e-02
  2.017041e+00    7.505621e-01   1.015309e-02
  2.019252e+00    7.639530e-01   1.023331e-02
  2.021462e+00    7.508644e-01   1.013586e-02
  2.023673e+00    7.661659e-01   1.022921e-02
  2.025883e+00    7.544721e-01   1.014139e-02
  2.028094e+00    7.474158e-01   1.008431e-02
  2.030304e+00    7.665328e-01   1.020287e-02
  2.032515e+00    7.578517e-01   1.013569e-02
  2.034725e+00    7.261046e-01   9.911871e-03
  2.036936e+00    7.384824e-01   9.986768e-03
  2.039146e+00    7.404196e-01   9.990403e-03
  2.041356e+00    7.425418e-01   9.995152e-03
  2.043567e+00    7.361583e-01   9.942918e-03
  2.045777e+00    7.417124e-01   9.971182e-03
  2.047988e+00    7.393980e-01   9.946355e-03
  2.050198e+00    7.350102e-01   9.908466e-03
  2.052409e+00    7.257946e-01   9.838633e-03
  2.054619e+00    7.172877e-01   9.773606e-03
  2.056830e+00    7.317064e-01   9.864246e-03
  2.059040e+00    7.556507e-01   1.001684e-02
  2.061251e+00    7.343207e-01   9.867269e-03
  2.063461e+00    7.414755e-01   9.907667e-03
  2.065671e+00    7.320607e-01   9.835949e-03
  2.067882e+00    7.431161e-01   9.900955e-03
  2.070092e+00    7.529549e-01   9.957070e-03
  2.072303e+00    7.418721e-01   9.874403e-03
  2.074513e+00    7.397857e-01   9.851225e-03
  2.076724e+00    7.244015e-01   9.738920e-03
  2.078934e+00    7.248961e-01   9.733354e-03
  2.081145e+00    7.199772e-01   9.691340e-03
  2.083355e+00    7.087851e-01   9.606734e-03
  2.085566e+00    7.270786e-01   9.721105e-03
  2.087776e+00    7.325713e-01   9.748276e-03
  2.089986e+00    7.249781e-01   9.688942e-03
  2.092197e+00    7.409678e-01   9.786208e-03
  2.094407e+00    7.421938e-01   9.785047e-03
  2.096618e+00    7.402467e-01   9.763283e-03
  2.098828e+00    7.370979e-01   9.733146e-03
  2.101039e+00    7.545658e-01   9.838704e-03
  2.103249e+00    7.598575e-01   9.864303e-03
  2.105460e+00    7.396041e-01   9.722894e-03
  2.107670e+00    7.133781e-01   9.540317e-03
  2.109881e+00    7.086189e-01   9.499354e-03
  2.112091e+00    7.227594e-01   9.584731e-03
  2.114301e+00    7.099518e-01   9.490720e-03
  2.116512e+00    7.116649e-01   9.493447e-03
  2.118722e+00    7.063260e-01   9.449045e-03
  2.120933e+00    7.186340e-01   9.522150e-03
  2.123143e+00    7.143497e-01   9.484861e-03
  2.125354e+00    6.932159e-01   9.335119e-03
  2.127564e+00    6.916152e-01   9.315752e-03
  2.129775e+00    6.871602e-01   9.277148e-03
  2.131985e+00    7.030569e-01   9.374846e-03
  2.134196e+00    7.096037e-01   9.409844e-03
  2.136406e+00    6.985868e-01   9.327846e-03
  2.138617e+00    6.995736e-01   9.326050e-03
  2.140827e+00    6.968863e-01   9.324037e-03
  2.143037e+00    6.817774e-01   9.267060e-03
  2.145248e+00    6.991953e-01   9.406582e-03
  2.147458e+00    6.945538e-01   9.390360e-03
  2.149669e+00    6.888657e-01   9.363545e-03
  2.151879e+00    6.925629e-01   9.397805e-03
  2.154090e+00    7.067279e-01   9.500761e-03
  2.156300e+00    7.102395e-01   9.530994e-03
  2.158511e+00    6.955622e-01   9.437295e-03
  2.160721e+00    6.773664e-01   9.317780e-03
  2.162932e+00    6.895190e-01   9.404704e-03
  2.165142e+00    6.855388e-01   9.380508e-03
  2.167352e+00    6.778554e-01   9.330684e-03
  2.169563e+00    6.661706e-01   9.251820e-03
  2.171773e+00    6.663533e-01   9.255479e-03
  2.173984e+00    6.841761e-01   9.379846e-03
  2.176194e+00    6.679099e-01   9.268863e-03
  2.178405e+00    6.811090e-01   9.360665e-03
  2.180615e+00    6.804051e-01   9.356525e-03
  2.182826e+00    6.840833e-01   9.382443e-03
  2.185036e+00    6.862901e-01   9.397627e-03
  2.187247e+00    6.899539e-01   9.422624e-03
  2.189457e+00    6.647614e-01   9.248612e-03
  2.191667e+00    6.771428e-01   9.334140e-03
  2.193878e+00    6.749137e-01   9.318224e-03
  2.196088e+00    6.783977e-01   9.341560e-03
  2.198299e+00    6.754137e-01   9.319908e-03
  2.200509e+00    6.804442e-01   9.353498e-03
  2.202720e+00    6.634198e-01   9.234620e-03
  2.204930e+00    6.561060e-01   9.182343e-03
  2.207141e+00    6.553178e-01   9.175744e-03
  2.209351e+00    6.519601e-01   9.150350e-03
  2.211562e+00    6.709003e-01   9.280699e-03
  2.213772e+00    6.765426e-01   9.264186e-03
  2.215982e+00    6.662202e-01   9.149351e-03
  2.218193e+00    6.689192e-01   9.138370e-03
  2.220403e+00    6.633971e-01   9.076203e-03
  2.222614e+00    6.810951e-01   9.175398e-03
  2.224824e+00    6.749978e-01   9.114844e-03
  2.227035e+00    6.743553e-01   9.093048e-03
  2.229245e+00    6.624764e-01   8.995732e-03
  2.231456e+00    6.601989e-01   8.964795e-03
  2.233666e+00    6.512281e-01   8.888797e-03
  2.235877e+00    6.489068e-01   8.858900e-03
  2.238087e+00    6.508530e-01   8.858899e-03
  2.240298e+00    6.622958e-01   8.922714e-03
  2.242508e+00    6.695267e-01   8.956181e-03
  2.244718e+00    6.566618e-01   8.854054e-03
  2.246929e+00    6.363952e-01   8.702267e-03
  2.249139e+00    6.673197e-01   8.898798e-03
  2.251350e+00    6.651059e-01   8.872367e-03
  2.253560e+00    6.495818e-01   8.756775e-03
  2.255771e+00    6.679208e-01   8.868102e-03
  2.257981e+00    6.529122e-01   8.756828e-03
  2.260192e+00    6.605917e-01   8.797098e-03
  2.262402e+00    6.516697e-01   8.726730e-03
  2.264613e+00    6.829638e-01   8.922813e-03
  2.266823e+00    6.747748e-01   8.858692e-03
  2.269033e+00    6.775213e-01   8.866193e-03
  2.271244e+00    6.947109e-01   8.967313e-03
  2.273454e+00    6.894384e-01   8.922774e-03
  2.275665e+00    6.786023e-01   8.841942e-03
  2.277875e+00    6.461006e-01   8.617785e-03
  2.280086e+00    6.684889e-01   8.755696e-03
  2.282296e+00    6.657271e-01   8.728159e-03
  2.284507e+00    6.554675e-01   8.650526e-03
  2.286717e+00    6.493612e-01   8.600743e-03
  2.288928e+00    6.430168e-01   8.548861e-03
  2.291138e+00    6.524664e-01   8.602037e-03
  2.293348e+00    6.582571e-01   8.630602e-03
  2.295559e+00    6.471214e-01   8.548011e-03
  2.297769e+00    6.395588e-01   8.488774e-03
  2.299980e+00    6.461067e-01   8.522848e-03
  2.302190e+00    6.291401e-01   8.401240e-03
  2.304401e+00    6.474872e-01   8.513555e-03
  2.306611e+00    6.555935e-01   8.557470e-03
  2.308822e+00    6.483182e-01   8.501502e-03
  2.311032e+00    6.427431e-01   8.458440e-03
  2.313243e+00    6.364700e-01   8.410866e-03
  2.315453e+00    6.316520e-01   8.371497e-03
  2.317663e+00    6.420996e-01   8.431355e-03
  2.319874e+00    6.234740e-01   8.299607e-03
  2.322084e+00    6.335236e-01   8.357338e-03
  2.324295e+00    6.296425e-01   8.323582e-03
  2.326505e+00    6.353670e-01   8.352332e-03
  2.328716e+00    6.413417e-01   8.382993e-03
  2.330926e+00    6.345881e-01   8.329994e-03
  2.333137e+00    6.436158e-01   8.380643e-03
  2.335347e+00    6.437665e-01   8.372745e-03
  2.337558e+00    6.398488e-01   8.339007e-03
  2.339768e+00    6.403111e-01   8.333431e-03
  2.341979e+00    6.421575e-01   8.337059e-03
  2.344189e+00    6.441625e-01   8.341629e-03
  2.346399e+00    6.272558e-01   8.223000e-03
  2.348610e+00    6.134868e-01   8.123935e-03
  2.350820e+00    6.145665e-01   8.123025e-03
  2.353031e+00    6.290697e-01   8.210066e-03
  2.355241e+00    6.244797e-01   8.172063e-03
  2.357452e+00    6.187733e-01   8.126308e-03
  2.359662e+00    6.288139e-01   8.183764e-03
  2.361873e+00    6.170514e-01   8.098734e-03
  2.364083e+00    6.225334e-01   8.126662e-03
  2.366294e+00    6.211070e-01   8.109290e-03
  2.368504e+00    6.264346e-01   8.135932e-03
  2.370714e+00    6.236440e-01   8.109727e-03
  2.372925e+00    6.175026e-01   8.061712e-03
  2.375135e+00    6.143743e-01   8.033253e-03
  2.377346e+00    6.111335e-01   8.004198e-03
  2.379556e+00    6.038933e-01   7.948845e-03
  2.381767e+00    6.141944e-01   8.008538e-03
  2.383977e+00    6.200413e-01   8.038652e-03
  2.386188e+00    6.163530e-01   8.006799e-03
  2.388398e+00    6.129050e-01   7.976461e-03
  2.390609e+00    6.022063e-01   7.898903e-03
  2.392819e+00    6.042787e-01   7.904775e-03
  2.395029e+00    6.151581e-01   7.967975e-03
  2.397240e+00    6.010707e-01   7.868422e-03
  2.399450e+00    6.091881e-01   7.913588e-03
  2.401661e+00    6.080394e-01   7.898482e-03
  2.403871e+00    5.977247e-01   7.823525e-03
  2.406082e+00    5.993015e-01   7.826463e-03
  2.408292e+00    5.945302e-01   7.787552e-03
  2.410503e+00    5.856858e-01   7.722060e-03
  2.412713e+00    5.888246e-01   7.735056e-03
  2.414924e+00    5.960718e-01   7.775070e-03
  2.417134e+00    6.025094e-01   7.809339e-03
  2.419344e+00    5.948358e-01   7.752080e-03
  2.421555e+00    6.053034e-01   7.812468e-03
  2.423765e+00    5.914931e-01   7.715490e-03
  2.425976e+00    5.720231e-01   7.579811e-03
  2.428186e+00    5.807796e-01   7.630500e-03
  2.430397e+00    5.947761e-01   7.714410e-03
  2.432607e+00    6.089594e-01   7.798524e-03
  2.434818e+00    5.967759e-01   7.712549e-03
  2.437028e+00    6.001810e-01   7.727346e-03
  2.439239e+00    6.037580e-01   7.742604e-03
  2.441449e+00    6.056678e-01   7.747578e-03
  2.443659e+00    5.957241e-01   7.676329e-03
  2.445870e+00    5.880343e-01   7.638867e-03
  2.448080e+00    5.753512e-01   7.590604e-03
  2.450291e+00    5.718755e-01   7.584177e-03
  2.452501e+00    5.656740e-01   7.553993e-03
  2.454712e+00    5.678642e-01   7.576995e-03
  2.456922e+00    5.555759e-01   7.501110e-03
  2.459133e+00    5.548564e-01   7.501600e-03
  2.461343e+00    5.533736e-01   7.495894e-03
  2.463554e+00    5.567749e-01   7.522314e-03
  2.465764e+00    5.483189e-01   7.468096e-03
  2.467975e+00    5.480227e-01   7.468323e-03
  2.470185e+00    5.404537e-01   7.418788e-03
  2.472395e+00    5.509412e-01   7.491644e-03
  2.474606e+00    5.353260e-01   7.386247e-03
  2.476816e+00    5.363063e-01   7.393731e-03
  2.479027e+00    5.417345e-01   7.431893e-03
  2.481237e+00    5.354005e-01   7.388605e-03
  2.483448e+00    5.386243e-01   7.411107e-03
  2.485658e+00    5.337266e-01   7.377197e-03
  2.487869e+00    5.465775e-01   7.465506e-03
  2.490079e+00    5.415954e-01   7.430897e-03
  2.492290e+00    5.547647e-01   7.520253e-03
  2.494500e+00    5.411424e-01   7.426644e-03
  2.496710e+00    5.184094e-01   7.268273e-03
  2.498921e+00    5.316032e-01   7.359180e-03
  2.501131e+00    5.303317e-01   7.349436e-03
  2.503342e+00    5.310310e-01   7.353019e-03
  2.505552e+00    5.204222e-01   7.278092e-03
  2.507763e+00    5.077852e-01   7.187798e-03
  2.509973e+00    5.039802e-01   7.159444e-03
  2.512184e+00    5.103519e-01   7.202970e-03
  2.514394e+00    5.037212e-01   7.146881e-03
  2.516605e+00    5.140715e-01   7.173419e-03
  2.518815e+00    5.103984e-01   7.119845e-03
  2.521025e+00    5.263334e-01   7.209159e-03
  2.523236e+00    5.386983e-01   7.275138e-03
  2.525446e+00    5.341591e-01   7.228695e-03
  2.527657e+00    5.179039e-01   7.103371e-03
  2.529867e+00    5.195484e-01   7.100502e-03
  2.532078e+00    5.279346e-01   7.142516e-03
  2.534288e+00    5.331497e-01   7.163705e-03
  2.536499e+00    5.202004e-01   7.064300e-03
  2.538709e+00    5.132164e-01   7.005830e-03
  2.540920e+00    5.141138e-01   7.001407e-03
  2.543130e+00    5.259360e-01   7.071069e-03
  2.545340e+00    5.107321e-01   6.958181e-03
  2.547551e+00    5.047769e-01   6.907717e-03
  2.549761e+00    5.134427e-01   6.957263e-03
  2.551972e+00    5.156775e-01   6.963094e-03
  2.554182e+00    5.042325e-01   6.876356e-03
  2.556393e+00    5.164505e-01   6.950116e-03
  2.558603e+00    5.229439e-01   6.984572e-03
  2.560814e+00    5.187702e-01   6.947964e-03
  2.563024e+00    5.093842e-01   6.876318e-03
  2.565235e+00    5.133770e-01   6.893748e-03
  2.567445e+00    5.318637e-01   7.007115e-03
  2.569656e+00    5.222478e-01   6.933705e-03
  2.571866e+00    5.177681e-01   6.894535e-03
  2.574076e+00    5.414003e-01   7.040610e-03
  2.576287e+00    5.684288e-01   7.205505e-03
  2.578497e+00    5.715135e-01   7.216785e-03
  2.580708e+00    5.432152e-01   7.027566e-03
  2.582918e+00    5.127068e-01   6.819598e-03
  2.585129e+00    5.110312e-01   6.800725e-03
  2.587339e+00    5.162241e-01   6.827499e-03
  2.589550e+00    5.203761e-01   6.847281e-03
  2.591760e+00    5.163932e-01   6.813263e-03
  2.593971e+00    5.205277e-01   6.832895e-03
  2.596181e+00    5.139385e-01   6.783277e-03
  2.598391e+00    5.022658e-01   6.700654e-03
  2.600602e+00    5.012986e-01   6.688329e-03
  2.602812e+00    5.123779e-01   6.754281e-03
  2.605023e+00    5.101744e-01   6.732550e-03
  2.607233e+00    5.175442e-01   6.773815e-03
  2.609444e+00    5.091786e-01   6.711600e-03
  2.611654e+00    4.977724e-01   6.628747e-03
  2.613865e+00    5.095083e-01   6.699370e-03
  2.616075e+00    5.065047e-01   6.672455e-03
  2.618286e+00    5.070728e-01   6.669189e-03
  2.620496e+00    5.080017e-01   6.668573e-03
  2.622706e+00    5.020114e-01   6.623425e-03
  2.624917e+00    4.963607e-01   6.580223e-03
  2.627127e+00    4.957771e-01   6.570684e-03
  2.629338e+00    5.012881e-01   6.601117e-03
  2.631548e+00    4.977630e-01   6.571742e-03
  2.633759e+00    5.064608e-01   6.621731e-03
  2.635969e+00    4.972043e-01   6.554286e-03
  2.638180e+00    5.061247e-01   6.605803e-03
  2.640390e+00    5.012109e-01   6.567052e-03
  2.642601e+00    5.011442e-01   6.559955e-03
  2.644811e+00    5.049500e-01   6.577704e-03
  2.647021e+00    5.032171e-01   6.559816e-03
  2.649232e+00    5.005914e-01   6.535972e-03
  2.651442e+00    5.029696e-01   6.544931e-03
  2.653653e+00    4.982331e-01   6.507267e-03
  2.655863e+00    4.964265e-01   6.488782e-03
  2.658074e+00    5.029518e-01   6.524648e-03
  2.660284e+00    4.910017e-01   6.440357e-03
  2.662495e+00    4.881503e-01   6.414944e-03
  2.664705e+00    4.861393e-01   6.395190e-03
  2.666916e+00    5.116921e-01   6.554570e-03
  2.669126e+00    4.867897e-01   6.386706e-03
  2.671337e+00    4.894939e-01   6.397855e-03
  2.673547e+00    4.899603e-01   6.394567e-03
  2.675757e+00    4.947695e-01   6.419414e-03
  2.677968e+00    4.934737e-01   6.404498e-03
  2.680178e+00    4.884941e-01   6.365735e-03
  2.682389e+00    4.806349e-01   6.307995e-03
  2.684599e+00    4.868665e-01   6.342617e-03
  2.686810e+00    4.989558e-01   6.414211e-03
  2.689020e+00    5.012590e-01   6.422671e-03
  2.691231e+00    4.928837e-01   6.362472e-03
  2.693441e+00    4.901564e-01   6.338709e-03
  2.695652e+00    4.894673e-01   6.327742e-03
  2.697862e+00    4.899461e-01   6.324484e-03
  2.700072e+00    4.883749e-01   6.308275e-03
  2.702283e+00    4.886220e-01   6.303643e-03
  2.704493e+00    4.957278e-01   6.342991e-03
  2.706704e+00    4.804285e-01   6.237995e-03
  2.708914e+00    4.746045e-01   6.194187e-03
  2.711125e+00    4.801589e-01   6.224125e-03
  2.713335e+00    4.790735e-01   6.211044e-03
  2.715546e+00    4.883726e-01   6.264567e-03
  2.717756e+00    4.897113e-01   6.267244e-03
  2.719967e+00    4.778774e-01   6.184905e-03
  2.722177e+00    4.703078e-01   6.129680e-03
  2.724387e+00    4.722745e-01   6.136479e-03
  2.726598e+00    4.715637e-01   6.125873e-03
  2.728808e+00    4.818422e-01   6.186147e-03
  2.731019e+00    4.763923e-01   6.145005e-03
  2.733229e+00    4.815691e-01   6.172492e-03
  2.735440e+00    4.807506e-01   6.161024e-03
  2.737650e+00    4.827622e-01   6.167871e-03
  2.739861e+00    4.760163e-01   6.118611e-03
  2.742071e+00    4.749619e-01   6.106136e-03
  2.744282e+00    4.727964e-01   6.086012e-03
  2.746492e+00    4.689077e-01   6.054986e-03
  2.748702e+00    4.652192e-01   6.025325e-03
  2.750913e+00    4.648541e-01   6.017261e-03
  2.753123e+00    4.751222e-01   6.077284e-03
  2.755334e+00    4.636189e-01   5.997299e-03
  2.757544e+00    4.694946e-01   6.029504e-03
  2.759755e+00    4.751679e-01   6.059980e-03
  2.761965e+00    4.654915e-01   5.992069e-03
  2.764176e+00    4.654045e-01   5.985615e-03
  2.766386e+00    4.784900e-01   6.063389e-03
  2.768597e+00    4.807733e-01   6.071971e-03
  2.770807e+00    4.728064e-01   6.015630e-03
  2.773017e+00    4.724819e-01   6.007609e-03
  2.775228e+00    4.828621e-01   6.067453e-03
  2.777438e+00    4.664282e-01   5.957575e-03
  2.779649e+00    4.716884e-01   5.985215e-03
  2.781859e+00    4.762247e-01   6.008168e-03
  2.784070e+00    4.777874e-01   6.012159e-03
  2.786280e+00    4.875214e-01   6.067256e-03
  2.788491e+00    4.861096e-01   6.052596e-03
  2.790701e+00    4.738924e-01   5.970406e-03
  2.792912e+00    4.851273e-01   6.034734e-03
  2.795122e+00    4.729748e-01   5.952985e-03
  2.797333e+00    4.660549e-01   5.903747e-03
  2.799543e+00    4.696319e-01   5.920539e-03
  2.801753e+00    4.722998e-01   5.931507e-03
  2.803964e+00    4.660884e-01   5.886753e-03
  2.806174e+00    4.736388e-01   5.928113e-03
  2.808385e+00    4.755494e-01   5.933245e-03
  2.810595e+00    4.719205e-01   5.903732e-03
  2.812806e+00    4.798853e-01   5.946700e-03
  2.815016e+00    4.593665e-01   5.813492e-03
  2.817227e+00    4.712484e-01   5.914053e-03
  2.819437e+00    4.689620e-01   5.910718e-03
  2.821648e+00    4.664578e-01   5.897189e-03
  2.823858e+00    4.679303e-01   5.911797e-03
  2.826068e+00    4.683867e-01   5.919625e-03
  2.828279e+00    4.682535e-01   5.922818e-03
  2.830489e+00    4.673107e-01   5.920169e-03
  2.832700e+00    4.563780e-01   5.853020e-03
  2.834910e+00    4.553540e-01   5.848476e-03
  2.837121e+00    4.640182e-01   5.905553e-03
  2.839331e+00    4.743559e-01   5.972204e-03
  2.841542e+00    4.728332e-01   5.963634e-03
  2.843752e+00    4.793142e-01   6.005149e-03
  2.845963e+00    4.832173e-01   6.029965e-03
  2.848173e+00    4.719485e-01   5.959333e-03
  2.850383e+00    4.605526e-01   5.887230e-03
  2.852594e+00    4.546338e-01   5.849199e-03
  2.854804e+00    4.586868e-01   5.874708e-03
  2.857015e+00    4.612191e-01   5.890481e-03
  2.859225e+00    4.576793e-01   5.867575e-03
  2.861436e+00    4.512151e-01   5.825358e-03
  2.863646e+00    4.586850e-01   5.873408e-03
  2.865857e+00    4.585770e-01   5.873060e-03
  2.868067e+00    4.554411e-01   5.853155e-03
  2.870278e+00    4.538163e-01   5.842365e-03
  2.872488e+00    4.616304e-01   5.891288e-03
  2.874698e+00    4.520736e-01   5.828965e-03
  2.876909e+00    4.548192e-01   5.845313e-03
  2.879119e+00    4.529693e-01   5.831808e-03
  2.881330e+00    4.625403e-01   5.891626e-03
  2.883540e+00    4.499820e-01   5.809742e-03
  2.885751e+00    4.464656e-01   5.785349e-03
  2.887961e+00    4.665445e-01   5.912146e-03
  2.890172e+00    4.571077e-01   5.850437e-03
  2.892382e+00    4.581262e-01   5.855156e-03
  2.894593e+00    4.772948e-01   5.974543e-03
  2.896803e+00    4.633283e-01   5.884512e-03
  2.899014e+00    4.593228e-01   5.857092e-03
  2.901224e+00    4.517247e-01   5.806486e-03
  2.903434e+00    4.547053e-01   5.823672e-03
  2.905645e+00    4.454466e-01   5.761881e-03
  2.907855e+00    4.541868e-01   5.816055e-03
  2.910066e+00    4.542519e-01   5.814399e-03
  2.912276e+00    4.503158e-01   5.787054e-03
  2.914487e+00    4.549515e-01   5.814321e-03
  2.916697e+00    4.536430e-01   5.803730e-03
  2.918908e+00    4.585763e-01   5.833214e-03
  2.921118e+00    4.580060e-01   5.826877e-03
  2.923329e+00    4.603753e-01   5.839614e-03
  2.925539e+00    4.548120e-01   5.801962e-03
  2.927749e+00    4.533292e-01   5.790175e-03
  2.929960e+00    4.540267e-01   5.791858e-03
  2.932170e+00    4.595330e-01   5.824550e-03
  2.934381e+00    4.567085e-01   5.804180e-03
  2.936591e+00    4.500249e-01   5.758994e-03
  2.938802e+00    4.503507e-01   5.758383e-03
  2.941012e+00    4.590173e-01   5.811180e-03
  2.943223e+00    4.506466e-01   5.755274e-03
  2.945433e+00    4.563857e-01   5.788066e-03
  2.947644e+00    4.535431e-01   5.765883e-03
  2.949854e+00    4.569184e-01   5.783015e-03
  2.952064e+00    4.586500e-01   5.789741e-03
  2.954275e+00    4.536469e-01   5.753671e-03
  2.956485e+00    4.524113e-01   5.741637e-03
  2.958696e+00    4.389233e-01   5.651131e-03
  2.960906e+00    4.453874e-01   5.688433e-03
  2.963117e+00    4.463053e-01   5.689839e-03
  2.965327e+00    4.699361e-01   5.834568e-03
  2.967538e+00    4.634935e-01   5.791500e-03
  2.969748e+00    4.551171e-01   5.736127e-03
  2.971959e+00    4.430996e-01   5.656763e-03
  2.974169e+00    4.456917e-01   5.670735e-03
  2.976379e+00    4.612740e-01   5.766075e-03
  2.978590e+00    4.502507e-01   5.693644e-03
  2.980800e+00    4.392993e-01   5.621219e-03
  2.983011e+00    4.467169e-01   5.665697e-03
  2.985221e+00    4.509982e-01   5.689638e-03
  2.987432e+00    4.446071e-01   5.646121e-03
  2.989642e+00    4.433108e-01   5.635264e-03
  2.991853e+00    4.562356e-01   5.713549e-03
  2.994063e+00    4.398077e-01   5.606886e-03
  2.996274e+00    4.431228e-01   5.624820e-03
  2.998484e+00    4.348198e-01   5.569244e-03
  3.000694e+00    4.417370e-01   5.609937e-03
  3.002905e+00    4.453326e-01   5.629829e-03
  3.005115e+00    4.424659e-01   5.608726e-03
  3.007326e+00    4.439796e-01   5.615201e-03
  3.009536e+00    4.360405e-01   5.561561e-03
  3.011747e+00    4.602126e-01   5.710703e-03
  3.013957e+00    4.583113e-01   5.695700e-03
  3.016168e+00    4.504167e-01   5.643196e-03
  3.018378e+00    4.477565e-01   5.623458e-03
  3.020589e+00    4.564958e-01   5.674871e-03
  3.022799e+00    4.472773e-01   5.614126e-03
  3.025010e+00    4.511571e-01   5.635185e-03
  3.027220e+00    4.437842e-01   5.585874e-03
  3.029430e+00    4.435243e-01   5.581018e-03
  3.031641e+00    4.613482e-01   5.688872e-03
  3.033851e+00    4.754930e-01   5.771842e-03
  3.036062e+00    4.497260e-01   5.610502e-03
  3.038272e+00    4.450131e-01   5.577468e-03
  3.040483e+00    4.345460e-01   5.508320e-03
  3.042693e+00    4.391285e-01   5.534066e-03
  3.044904e+00    4.531814e-01   5.617885e-03
  3.047114e+00    4.486834e-01   5.585149e-03
  3.049325e+00    4.503801e-01   5.591297e-03
  3.051535e+00    4.444919e-01   5.550277e-03
  3.053745e+00    4.440659e-01   5.542891e-03
  3.055956e+00    4.550560e-01   5.606466e-03
  3.058166e+00    4.478629e-01   5.557745e-03
  3.060377e+00    4.367644e-01   5.483742e-03
  3.062587e+00    4.611302e-01   5.629924e-03
  3.064798e+00    4.528516e-01   5.574935e-03
  3.067008e+00    4.382591e-01   5.479661e-03
  3.069219e+00    4.456452e-01   5.521167e-03
  3.071429e+00    4.567208e-01   5.585828e-03
  3.073640e+00    4.375294e-01   5.463923e-03
  3.075850e+00    4.364120e-01   5.453405e-03
  3.078060e+00    4.344686e-01   5.438180e-03
  3.080271e+00    4.435558e-01   5.491311e-03
  3.082481e+00    4.455111e-01   5.499977e-03
  3.084692e+00    4.416195e-01   5.472539e-03
  3.086902e+00    4.407724e-01   5.464085e-03
  3.089113e+00    4.490753e-01   5.511705e-03
  3.091323e+00    4.557010e-01   5.548849e-03
  3.093534e+00    4.411125e-01   5.455943e-03
  3.095744e+00    4.439235e-01   5.469935e-03
  3.097955e+00    4.547705e-01   5.532791e-03
  3.100165e+00    4.410027e-01   5.445080e-03
  3.102375e+00    4.591587e-01   5.552581e-03
  3.104586e+00    4.378703e-01   5.418874e-03
  3.106796e+00    4.311869e-01   5.373902e-03
  3.109007e+00    4.450179e-01   5.456180e-03
  3.111217e+00    4.372415e-01   5.404655e-03
  3.113428e+00    4.507444e-01   5.484033e-03
  3.115638e+00    4.464740e-01   5.454757e-03
  3.117849e+00    4.533842e-01   5.493062e-03
  3.120059e+00    4.455224e-01   5.441757e-03
  3.122270e+00    4.407537e-01   5.409301e-03
  3.124480e+00    4.456583e-01   5.435637e-03
  3.126691e+00    4.445730e-01   5.425449e-03
  3.128901e+00    4.460214e-01   5.431150e-03
  3.131111e+00    4.535435e-01   5.472883e-03
  3.133322e+00    4.416150e-01   5.397006e-03
  3.135532e+00    4.284868e-01   5.312834e-03
  3.137743e+00    4.355472e-01   5.352967e-03
  3.139953e+00    4.363392e-01   5.354187e-03
  3.142164e+00    4.412267e-01   5.396085e-03
  3.144374e+00    4.502228e-01   5.479451e-03
  3.146585e+00    4.544429e-01   5.519856e-03
  3.148795e+00    4.462613e-01   5.480768e-03
  3.151006e+00    4.386323e-01   5.442221e-03
  3.153216e+00    4.379741e-01   5.445264e-03
  3.155426e+00    4.272656e-01   5.384470e-03
  3.157637e+00    4.427247e-01   5.486549e-03
  3.159847e+00    4.393786e-01   5.470655e-03
  3.162058e+00    4.398568e-01   5.478063e-03
  3.164268e+00    4.372251e-01   5.465697e-03
  3.166479e+00    4.316320e-01   5.434236e-03
  3.168689e+00    4.380675e-01   5.477963e-03
  3.170900e+00    4.223322e-01   5.381808e-03
  3.173110e+00    4.300987e-01   5.433899e-03
  3.175321e+00    4.203590e-01   5.374445e-03
  3.177531e+00    4.395834e-01   5.498721e-03
  3.179741e+00    4.301228e-01   5.441288e-03
  3.181952e+00    4.407261e-01   5.510055e-03
  3.184162e+00    4.317336e-01   5.455747e-03
  3.186373e+00    4.344601e-01   5.474538e-03
  3.188583e+00    4.326777e-01   5.465067e-03
  3.190794e+00    4.342529e-01   5.476757e-03
  3.193004e+00    4.380701e-01   5.502006e-03
  3.195215e+00    4.291575e-01   5.447274e-03
  3.197425e+00    4.281153e-01   5.441840e-03
  3.199636e+00    4.361002e-01   5.491574e-03
  3.201846e+00    4.317363e-01   5.463441e-03
  3.204056e+00    4.175878e-01   5.374040e-03
  3.206267e+00    4.277129e-01   5.439640e-03
  3.208477e+00    4.295903e-01   5.452485e-03
  3.210688e+00    4.288178e-01   5.448421e-03
  3.212898e+00    4.355015e-01   5.491295e-03
  3.215109e+00    4.257006e-01   5.429905e-03
  3.217319e+00    4.377814e-01   5.507033e-03
  3.219530e+00    4.469227e-01   5.564655e-03
  3.221740e+00    4.307642e-01   5.463690e-03
  3.223951e+00    4.191035e-01   5.389709e-03
  3.226161e+00    4.374712e-01   5.506705e-03
  3.228372e+00    4.399569e-01   5.522883e-03
  3.230582e+00    4.178295e-01   5.382350e-03
  3.232792e+00    4.141127e-01   5.358569e-03
  3.235003e+00    4.238303e-01   5.421313e-03
  3.237213e+00    4.234040e-01   5.418686e-03
  3.239424e+00    4.367123e-01   5.503193e-03
  3.241634e+00    4.283902e-01   5.450640e-03
  3.243845e+00    4.321525e-01   5.474584e-03
  3.246055e+00    4.259760e-01   5.435051e-03
  3.248266e+00    4.238830e-01   5.421884e-03
  3.250476e+00    4.260138e-01   5.435186e-03
  3.252687e+00    4.128003e-01   5.350161e-03
  3.254897e+00    4.105621e-01   5.335513e-03
  3.257107e+00    4.127889e-01   5.349655e-03
  3.259318e+00    4.109337e-01   5.337386e-03
  3.261528e+00    4.197992e-01   5.394522e-03
  3.263739e+00    4.186085e-01   5.386325e-03
  3.265949e+00    4.149238e-01   5.362418e-03
  3.268160e+00    4.206285e-01   5.398754e-03
  3.270370e+00    4.073445e-01   5.312340e-03
  3.272581e+00    4.172023e-01   5.375923e-03
  3.274791e+00    4.365686e-01   5.498775e-03
  3.277002e+00    4.131252e-01   5.348552e-03
  3.279212e+00    4.000124e-01   5.262590e-03
  3.281422e+00    4.126256e-01   5.344359e-03
  3.283633e+00    4.313380e-01   5.463489e-03
  3.285843e+00    4.275572e-01   5.439183e-03
  3.288054e+00    4.287737e-01   5.445969e-03
  3.290264e+00    4.215892e-01   5.399819e-03
  3.292475e+00    4.116850e-01   5.335222e-03
  3.294685e+00    4.168646e-01   5.368023e-03
  3.296896e+00    4.201871e-01   5.388633e-03
  3.299106e+00    4.163641e-01   5.363519e-03
  3.301317e+00    4.212961e-01   5.394142e-03
  3.303527e+00    4.357294e-01   5.485303e-03
  3.305737e+00    4.288126e-01   5.440553e-03
  3.307948e+00    4.243580e-01   5.411534e-03
  3.310158e+00    4.135758e-01   5.341510e-03
  3.312369e+00    4.279236e-01   5.432474e-03
  3.314579e+00    4.079434e-01   5.303271e-03
  3.316790e+00    4.139882e-01   5.341684e-03
  3.319000e+00    4.138750e-01   5.339793e-03
  3.321211e+00    4.179389e-01   5.365345e-03
  3.323421e+00    4.121562e-01   5.326901e-03
  3.325632e+00    4.189461e-01   5.369707e-03
  3.327842e+00    4.314098e-01   5.448087e-03
  3.330052e+00    4.112200e-01   5.318038e-03
  3.332263e+00    4.086612e-01   5.300422e-03
  3.334473e+00    4.186296e-01   5.363801e-03
  3.336684e+00    4.217197e-01   5.382278e-03
  3.338894e+00    4.148386e-01   5.337361e-03
  3.341105e+00    4.249335e-01   5.400687e-03
  3.343315e+00    4.264749e-01   5.409346e-03
  3.345526e+00    4.206281e-01   5.371225e-03
  3.347736e+00    4.164211e-01   5.342901e-03
  3.349947e+00    4.259053e-01   5.402461e-03
  3.352157e+00    4.099749e-01   5.299304e-03
  3.354368e+00    4.209062e-01   5.368180e-03
  3.356578e+00    4.217146e-01   5.372325e-03
  3.358788e+00    4.112298e-01   5.303799e-03
  3.360999e+00    4.117542e-01   5.305939e-03
  3.363209e+00    4.128123e-01   5.311734e-03
  3.365420e+00    4.131059e-01   5.312129e-03
  3.367630e+00    4.198599e-01   5.354359e-03
  3.369841e+00    4.067320e-01   5.268581e-03
  3.372051e+00    4.140685e-01   5.313898e-03
  3.374262e+00    4.133216e-01   5.306689e-03
  3.376472e+00    4.129464e-01   5.301844e-03
  3.378683e+00    4.073605e-01   5.263374e-03
  3.380893e+00    4.108290e-01   5.283415e-03
  3.383103e+00    4.063930e-01   5.252143e-03
  3.385314e+00    4.058599e-01   5.246494e-03
  3.387524e+00    4.054512e-01   5.241157e-03
  3.389735e+00    3.898495e-01   5.136770e-03
  3.391945e+00    4.037918e-01   5.224176e-03
  3.394156e+00    4.040946e-01   5.221950e-03
  3.396366e+00    4.014753e-01   5.201653e-03
  3.398577e+00    3.984628e-01   5.179108e-03
  3.400787e+00    3.895201e-01   5.132256e-03
  3.402998e+00    4.112210e-01   5.311375e-03
  3.405208e+00    4.031964e-01   5.279928e-03
  3.407418e+00    4.014471e-01   5.284246e-03
  3.409629e+00    4.053400e-01   5.323833e-03
  3.411839e+00    3.986005e-01   5.291173e-03
  3.414050e+00    3.991219e-01   5.305642e-03
  3.416260e+00    3.893200e-01   5.249669e-03
  3.418471e+00    4.010492e-01   5.337651e-03
  3.420681e+00    3.855592e-01   5.242007e-03
  3.422892e+00    3.711222e-01   5.150716e-03
  3.425102e+00    3.788972e-01   5.212072e-03
  3.427313e+00    3.820598e-01   5.240920e-03
  3.429523e+00    3.941547e-01   5.330363e-03
  3.431733e+00    3.753106e-01   5.207978e-03
  3.433944e+00    3.677311e-01   5.161429e-03
  3.436154e+00    3.665152e-01   5.159005e-03
  3.438365e+00    3.657323e-01   5.159302e-03
  3.440575e+00    3.663309e-01   5.169322e-03
  3.442786e+00    3.707486e-01   5.205951e-03
  3.444996e+00    3.676928e-01   5.189883e-03
  3.447207e+00    3.615091e-01   5.151263e-03
  3.449417e+00    3.664341e-01   5.226757e-03
  3.451628e+00    3.553016e-01   5.175647e-03
  3.453838e+00    3.624293e-01   5.248312e-03
  3.456049e+00    3.504537e-01   5.184246e-03
  3.458259e+00    3.540825e-01   5.232567e-03
  3.460469e+00    3.579907e-01   5.280896e-03
  3.462680e+00    3.817805e-01   5.473020e-03
  3.464890e+00    3.803299e-01   5.480782e-03
  3.467101e+00    3.556004e-01   5.316748e-03
  3.469311e+00    3.695097e-01   5.436281e-03
  3.471522e+00    3.622611e-01   5.398794e-03
  3.473732e+00    3.850906e-01   5.582390e-03
  3.475943e+00    4.085249e-01   5.765965e-03
  3.478153e+00    3.932903e-01   5.673005e-03
  3.480364e+00    3.993116e-01   5.731509e-03
  3.482574e+00    3.963039e-01   5.725072e-03
  3.484784e+00    4.137406e-01   5.864609e-03
  3.486995e+00    4.184754e-01   5.913216e-03
  3.489205e+00    4.225547e-01   5.956601e-03
  3.491416e+00    4.486821e-01   6.153297e-03
  3.493626e+00    4.466191e-01   6.153923e-03
  3.495837e+00    4.411269e-01   6.130726e-03
  3.498047e+00    4.415841e-01   6.148364e-03
  3.500258e+00    4.517073e-01   6.232991e-03
  3.502468e+00    4.610895e-01   6.311924e-03
  3.504679e+00    4.598984e-01   6.318262e-03
  3.506889e+00    4.615732e-01   6.344107e-03
  3.509099e+00    4.754297e-01   6.453054e-03
  3.511310e+00    4.761493e-01   6.472407e-03
  3.513520e+00    5.003584e-01   6.649578e-03
  3.515731e+00    4.805124e-01   6.530699e-03
  3.517941e+00    4.960576e-01   6.649922e-03
  3.520152e+00    5.057787e-01   6.729235e-03
  3.522362e+00    4.980666e-01   6.692191e-03
  3.524573e+00    5.029141e-01   6.738910e-03
  3.526783e+00    5.214238e-01   6.875275e-03
  3.528994e+00    5.216908e-01   6.889382e-03
  3.531204e+00    5.184793e-01   6.880521e-03
  3.533414e+00    5.187814e-01   6.894563e-03
  3.535625e+00    5.212739e-01   6.923344e-03
  3.537835e+00    5.486424e-01   7.115096e-03
  3.540046e+00    5.462974e-01   7.108904e-03
  3.542256e+00    5.454890e-01   7.111247e-03
  3.544467e+00    5.272583e-01   6.998967e-03
  3.546677e+00    5.259160e-01   6.997553e-03
  3.548888e+00    5.308213e-01   7.037547e-03
  3.551098e+00    5.407438e-01   7.110369e-03
  3.553309e+00    5.336317e-01   7.071591e-03
  3.555519e+00    5.224890e-01   7.008529e-03
  3.557729e+00    5.239367e-01   7.029798e-03
  3.559940e+00    5.327979e-01   7.100528e-03
  3.562150e+00    5.469893e-01   7.206290e-03
  3.564361e+00    5.440320e-01   7.200208e-03
  3.566571e+00    5.360937e-01   7.161334e-03
  3.568782e+00    5.313931e-01   7.143908e-03
  3.570992e+00    5.214603e-01   7.090404e-03
  3.573203e+00    5.167785e-01   7.072359e-03
  3.575413e+00    5.309166e-01   7.182191e-03
  3.577624e+00    5.122429e-01   7.068548e-03
  3.579834e+00    5.278037e-01   7.188886e-03
  3.582045e+00    5.186882e-01   7.140339e-03
  3.584255e+00    5.178244e-01   7.148203e-03
  3.586465e+00    5.226180e-01   7.194970e-03
  3.588676e+00    5.372176e-01   7.308985e-03
  3.590886e+00    5.390252e-01   7.335036e-03
  3.593097e+00    5.103340e-01   7.151284e-03
  3.595307e+00    5.388173e-01   7.362110e-03
  3.597518e+00    5.215524e-01   7.257250e-03
  3.599728e+00    5.229037e-01   7.280528e-03
  3.601939e+00    5.221978e-01   7.289541e-03
  3.604149e+00    5.402609e-01   7.428997e-03
  3.606360e+00    5.340239e-01   7.400121e-03
  3.608570e+00    5.491472e-01   7.518511e-03
  3.610780e+00    5.307822e-01   7.402761e-03
  3.612991e+00    5.484083e-01   7.534783e-03
  3.615201e+00    5.290673e-01   7.410495e-03
  3.617412e+00    5.315659e-01   7.435217e-03
  3.619622e+00    5.314533e-01   7.440354e-03
  3.621833e+00    5.397789e-01   7.505152e-03
  3.624043e+00    5.181878e-01   7.362890e-03
  3.626254e+00    5.524341e-01   7.612138e-03
  3.628464e+00    5.305420e-01   7.470772e-03
  3.630675e+00    5.274258e-01   7.462787e-03
  3.632885e+00    5.365778e-01   7.541767e-03
  3.635095e+00    5.311186e-01   7.517662e-03
  3.637306e+00    5.227510e-01   7.472398e-03
  3.639516e+00    5.454488e-01   7.647634e-03
  3.641727e+00    5.322022e-01   7.568724e-03
  3.643937e+00    5.249774e-01   7.531659e-03
  3.646148e+00    5.259430e-01   7.553053e-03
  3.648358e+00    5.400847e-01   7.668862e-03
  3.650569e+00    5.455213e-01   7.722334e-03
  3.652779e+00    5.307431e-01   7.631698e-03
  3.654990e+00    5.303379e-01   7.643682e-03
  3.657200e+00    5.371358e-01   7.707477e-03
  3.659410e+00    5.307893e-01   7.676725e-03
  3.661621e+00    5.342925e-01   7.717165e-03
  3.663831e+00    5.218025e-01   7.641424e-03
  3.666042e+00    5.476462e-01   7.843722e-03
  3.668252e+00    5.564588e-01   7.922212e-03
  3.670463e+00    5.282530e-01   7.734031e-03
  3.672673e+00    5.240137e-01   7.718200e-03
  3.674884e+00    5.276452e-01   7.760299e-03
  3.677094e+00    5.218976e-01   7.733286e-03
  3.679305e+00    5.275381e-01   7.790467e-03
  3.681515e+00    5.360295e-01   7.868624e-03
  3.683726e+00    5.499443e-01   7.986220e-03
  3.685936e+00    5.289013e-01   7.847629e-03
  3.688146e+00    5.367268e-01   7.921379e-03
  3.690357e+00    5.365272e-01   7.936008e-03
  3.692567e+00    5.174927e-01   7.809908e-03
  3.694778e+00    5.307291e-01   7.925272e-03
  3.696988e+00    5.229846e-01   7.883183e-03
  3.699199e+00    5.354311e-01   7.992840e-03
  3.701409e+00    5.044308e-01   7.774052e-03
  3.703620e+00    4.871414e-01   7.655356e-03
  3.705830e+00    4.981857e-01   7.757637e-03
  3.708041e+00    5.062058e-01   7.836186e-03
  3.710251e+00    4.840504e-01   7.678797e-03
  3.712461e+00    4.926330e-01   7.762820e-03
  3.714672e+00    5.070271e-01   7.891939e-03
  3.716882e+00    5.039158e-01   7.884127e-03
  3.719093e+00    5.038418e-01   7.900372e-03
  3.721303e+00    5.150681e-01   8.004839e-03
  3.723514e+00    4.878058e-01   7.806833e-03
  3.725724e+00    4.891475e-01   7.834218e-03
  3.727935e+00    5.142271e-01   8.049939e-03
  3.730145e+00    5.007493e-01   7.960829e-03
  3.732356e+00    4.755602e-01   7.774852e-03
  3.734566e+00    4.988415e-01   7.980057e-03
  3.736776e+00    5.152685e-01   8.128244e-03
  3.738987e+00    4.903595e-01   7.946651e-03
  3.741197e+00    5.117278e-01   8.135865e-03
  3.743408e+00    5.080535e-01   8.124625e-03
  3.745618e+00    5.037678e-01   8.108462e-03
  3.747829e+00    4.941621e-01   8.048486e-03
  3.750039e+00    5.180718e-01   8.259446e-03
  3.752250e+00    4.925016e-01   8.071179e-03
  3.754460e+00    5.003716e-01   8.153703e-03
  3.756671e+00    5.160351e-01   8.299365e-03
  3.758881e+00    5.220536e-01   8.366404e-03
  3.761091e+00    5.269260e-01   8.424929e-03
  3.763302e+00    4.982353e-01   8.211191e-03
  3.765512e+00    5.110108e-01   8.335179e-03
  3.767723e+00    4.939890e-01   8.214190e-03
  3.769933e+00    5.130757e-01   8.390900e-03
  3.772144e+00    4.960946e-01   8.270252e-03
  3.774354e+00    4.887117e-01   8.227967e-03
  3.776565e+00    5.143175e-01   8.460826e-03
  3.778775e+00    5.025531e-01   8.383374e-03
  3.780986e+00    5.172351e-01   8.525574e-03
  3.783196e+00    5.020681e-01   8.419838e-03
  3.785407e+00    4.971145e-01   8.398528e-03
  3.787617e+00    4.915780e-01   8.372096e-03
  3.789827e+00    4.967558e-01   8.436521e-03
  3.792038e+00    4.940154e-01   8.433889e-03
  3.794248e+00    4.825717e-01   8.356377e-03
  3.796459e+00    4.933918e-01   8.470753e-03
  3.798669e+00    5.101271e-01   8.634767e-03
  3.800880e+00    5.112600e-01   8.666020e-03
  3.803090e+00    5.073778e-01   8.655092e-03
  3.805301e+00    4.677629e-01   8.331657e-03
  3.807511e+00    4.922398e-01   8.568687e-03
  3.809722e+00    5.094365e-01   8.739521e-03
  3.811932e+00    4.926753e-01   8.616682e-03
  3.814142e+00    4.772428e-01   8.502967e-03
  3.816353e+00    4.705714e-01   8.465522e-03
  3.818563e+00    4.633654e-01   8.422721e-03
  3.820774e+00    4.814343e-01   8.608098e-03
  3.822984e+00    5.232633e-01   8.998241e-03
  3.825195e+00    5.116534e-01   8.921928e-03
  3.827405e+00    5.107642e-01   8.938390e-03
  3.829616e+00    4.884715e-01   8.764971e-03
  3.831826e+00    4.886954e-01   8.790953e-03
  3.834037e+00    4.980616e-01   8.899326e-03
  3.836247e+00    4.752277e-01   8.717074e-03
  3.838457e+00    4.891671e-01   8.868789e-03
  3.840668e+00    5.051475e-01   9.037985e-03
  3.842878e+00    5.074713e-01   9.084466e-03
  3.845089e+00    4.977970e-01   9.023194e-03
  3.847299e+00    4.828869e-01   8.912458e-03
  3.849510e+00    4.804651e-01   8.915513e-03
  3.851720e+00    4.834722e-01   8.964577e-03
  3.853931e+00    4.837115e-01   8.985545e-03
  3.856141e+00    4.734465e-01   8.908308e-03
  3.858352e+00    4.757552e-01   8.948876e-03
  3.860562e+00    5.015967e-01   9.208150e-03
  3.862772e+00    4.827000e-01   9.052418e-03
  3.864983e+00    4.979820e-01   9.214298e-03
  3.867193e+00    5.281613e-01   9.509911e-03
  3.869404e+00    4.849160e-01   9.131915e-03
  3.871614e+00    4.832080e-01   9.135542e-03
  3.873825e+00    4.927478e-01   9.245615e-03
  3.876035e+00    4.933714e-01   9.272025e-03
  3.878246e+00    5.057261e-01   9.413529e-03
  3.880456e+00    5.122536e-01   9.503649e-03
  3.882667e+00    4.861093e-01   9.287136e-03
  3.884877e+00    5.047724e-01   9.493838e-03
  3.887087e+00    5.059412e-01   9.535232e-03
  3.889298e+00    4.808457e-01   9.325741e-03
  3.891508e+00    5.012866e-01   9.552761e-03
  3.893719e+00    4.918665e-01   9.493624e-03
  3.895929e+00    4.906732e-01   9.513555e-03
  3.898140e+00    4.759364e-01   9.400803e-03
  3.900350e+00    4.829149e-01   9.501319e-03
  3.902561e+00    4.839195e-01   9.543411e-03
  3.904771e+00    4.853955e-01   9.590533e-03
  3.906982e+00    4.944251e-01   9.712758e-03
  3.909192e+00    4.906994e-01   9.709551e-03
  3.911403e+00    4.963509e-01   9.799636e-03
  3.913613e+00    5.031497e-01   9.901231e-03
  3.915823e+00    5.014172e-01   9.919462e-03
  3.918034e+00    5.127291e-01   1.006683e-02
  3.920244e+00    4.898429e-01   9.875465e-03
  3.922455e+00    4.793196e-01   9.804501e-03
  3.924665e+00    4.649526e-01   9.692018e-03
  3.926876e+00    4.787199e-01   9.871170e-03
  3.929086e+00    5.122305e-01   1.024914e-02
  3.931297e+00    5.023866e-01   1.018555e-02
  3.933507e+00    4.937020e-01   1.012625e-02
  3.935718e+00    4.671406e-01   9.878131e-03
  3.937928e+00    4.990854e-01   1.024018e-02
  3.940138e+00    5.074635e-01   1.035566e-02
  3.942349e+00    5.017577e-01   1.032760e-02
  3.944559e+00    4.985945e-01   1.032546e-02
  3.946770e+00    4.870332e-01   1.023514e-02
  3.948980e+00    4.689310e-01   1.007324e-02
  3.951191e+00    4.848950e-01   1.027413e-02
  3.953401e+00    4.829150e-01   1.028431e-02
  3.955612e+00    4.784742e-01   1.026844e-02
  3.957822e+00    4.351344e-01   9.822222e-03
  3.960033e+00    5.072311e-01   1.063809e-02
  3.962243e+00    4.504351e-01   1.005653e-02
  3.964453e+00    4.629193e-01   1.022718e-02
  3.966664e+00    4.663059e-01   1.029733e-02
  3.968874e+00    4.388342e-01   1.001630e-02
  3.971085e+00    4.932239e-01   1.064097e-02
  3.973295e+00    4.959443e-01   1.069210e-02
  3.975506e+00    4.757703e-01   1.049369e-02
  3.977716e+00    4.714527e-01   1.046768e-02
  3.979927e+00    4.732473e-01   1.050939e-02
  3.982137e+00    4.898418e-01   1.071446e-02
  3.984348e+00    4.754981e-01   1.057877e-02
  3.986558e+00    4.894539e-01   1.075528e-02
  3.988768e+00    4.805904e-01   1.068040e-02
  3.990979e+00    4.625334e-01   1.050001e-02
  3.993189e+00    4.928444e-01   1.086192e-02
  3.995400e+00    5.059414e-01   1.102922e-02
  3.997610e+00    4.807540e-01   1.078097e-02
  3.999821e+00    5.130413e-01   1.117567e-02
  4.002031e+00    4.941419e-01   1.100678e-02
  4.004242e+00    4.649210e-01   1.071393e-02
  4.006452e+00    4.508647e-01   1.058871e-02
  4.008663e+00    4.786719e-01   1.095007e-02
  4.010873e+00    4.714808e-01   1.090701e-02
  4.013084e+00    4.354055e-01   1.052027e-02
  4.015294e+00    4.548856e-01   1.079259e-02
  4.017504e+00    4.907442e-01   1.125222e-02
  4.019715e+00    4.799258e-01   1.116971e-02
  4.021925e+00    4.665115e-01   1.105480e-02
  4.024136e+00    4.768207e-01   1.121953e-02
  4.026346e+00    4.741328e-01   1.123163e-02
  4.028557e+00    4.632252e-01   1.114497e-02
  4.030767e+00    4.784949e-01   1.137257e-02
  4.032978e+00    4.772493e-01   1.140381e-02
  4.035188e+00    4.771821e-01   1.144881e-02
  4.037399e+00    4.929101e-01   1.168411e-02
  4.039609e+00    4.771180e-01   1.154265e-02
  4.041819e+00    4.974681e-01   1.183585e-02
  4.044030e+00    4.718325e-01   1.157620e-02
  4.046240e+00    4.291993e-01   1.108771e-02
  4.048451e+00    5.016878e-01   1.203946e-02
  4.050661e+00    4.874000e-01   1.191856e-02
  4.052872e+00    4.851331e-01   1.194347e-02
  4.055082e+00    4.935422e-01   1.210090e-02
  4.057293e+00    4.829118e-01   1.202352e-02
  4.059503e+00    4.765630e-01   1.199852e-02
  4.061714e+00    4.876577e-01   1.219421e-02
  4.063924e+00    4.516512e-01   1.179036e-02
  4.066134e+00    4.558037e-01   1.190019e-02
  4.068345e+00    4.661241e-01   1.209211e-02
  4.070555e+00    4.723213e-01   1.223100e-02
  4.072766e+00    4.735619e-01   1.230733e-02
  4.074976e+00    4.907358e-01   1.259090e-02
  4.077187e+00    4.930535e-01   1.268362e-02
  4.079397e+00    4.538980e-01   1.223140e-02
  4.081608e+00    5.109111e-01   1.304448e-02
  4.083818e+00    4.988042e-01   1.295603e-02
  4.086029e+00    4.617814e-01   1.253177e-02
  4.088239e+00    4.343504e-01   1.221925e-02
  4.090449e+00    4.702227e-01   1.278266e-02
  4.092660e+00    4.413612e-01   1.245249e-02
  4.094870e+00    4.482198e-01   1.261860e-02
  4.097081e+00    4.380902e-01   1.254336e-02
  4.099291e+00    4.804123e-01   1.318968e-02
  4.101502e+00    4.345571e-01   1.259141e-02
  4.103712e+00    4.519542e-01   1.288864e-02
  4.105923e+00    4.934647e-01   1.351965e-02
  4.108133e+00    4.605600e-01   1.311160e-02
  4.110344e+00    4.474819e-01   1.297345e-02
  4.112554e+00    5.055722e-01   1.384437e-02
  4.114764e+00    4.822724e-01   1.357603e-02
  4.116975e+00    4.470731e-01   1.312269e-02
  4.119185e+00    4.996456e-01   1.392903e-02
  4.121396e+00    5.017555e-01   1.401617e-02
  4.123606e+00    4.837662e-01   1.381890e-02
  4.125817e+00    4.954944e-01   1.404416e-02
  4.128027e+00    4.775235e-01   1.384532e-02
  4.130238e+00    4.626860e-01   1.368679e-02
  4.132448e+00    4.806673e-01   1.401084e-02
  4.134659e+00    4.887532e-01   1.418880e-02
  4.136869e+00    4.686006e-01   1.395543e-02
  4.139080e+00    4.972666e-01   1.444056e-02
  4.141290e+00    4.403169e-01   1.364888e-02
  4.143500e+00    4.611658e-01   1.403241e-02
  4.145711e+00    4.489259e-01   1.390974e-02
  4.147921e+00    4.651642e-01   1.422396e-02
  4.150132e+00    5.224555e-01   1.514650e-02
  4.152342e+00    5.130504e-01   1.508235e-02
  4.154553e+00    4.422273e-01   1.406921e-02
  4.156763e+00    4.631217e-01   1.446899e-02
  4.158974e+00    4.679089e-01   1.461663e-02
  4.161184e+00    4.844460e-01   1.494658e-02
  4.163395e+00    4.824409e-01   1.499156e-02
  4.165605e+00    4.895265e-01   1.518007e-02
  4.167815e+00    4.777026e-01   1.507376e-02
  4.170026e+00    4.677879e-01   1.499503e-02
  4.172236e+00    4.771535e-01   1.522631e-02
  4.174447e+00    4.916653e-01   1.554008e-02
  4.176657e+00    4.752775e-01   1.536263e-02
  4.178868e+00    5.066332e-01   1.595093e-02
  4.181078e+00    4.673297e-01   1.540603e-02
  4.183289e+00    5.037233e-01   1.608624e-02
  4.185499e+00    5.040978e-01   1.618716e-02
  4.187710e+00    5.140246e-01   1.644164e-02
  4.189920e+00    4.915996e-01   1.617580e-02
  4.192130e+00    4.576783e-01   1.570305e-02
  4.194341e+00    4.547399e-01   1.574864e-02
  4.196551e+00    4.731587e-01   1.616594e-02
  4.198762e+00    4.907532e-01   1.656857e-02
  4.200972e+00    4.483005e-01   1.593808e-02
  4.203183e+00    4.640011e-01   1.632153e-02
  4.205393e+00    4.560262e-01   1.628833e-02
  4.207604e+00    4.682574e-01   1.661815e-02
  4.209814e+00    5.375386e-01   1.792707e-02
  4.212025e+00    4.925315e-01   1.728178e-02
  4.214235e+00    5.115411e-01   1.773731e-02
  4.216445e+00    4.222048e-01   1.623034e-02
  4.218656e+00    4.819520e-01   1.747091e-02
  4.220866e+00    4.859485e-01   1.767308e-02
  4.223077e+00    5.212817e-01   1.844534e-02
  4.225287e+00    4.226393e-01   1.673894e-02
  4.227498e+00    4.868183e-01   1.810609e-02
  4.229708e+00    4.936517e-01   1.838084e-02
  4.231919e+00    4.934369e-01   1.852885e-02
  4.234129e+00    4.894240e-01   1.860845e-02
  4.236340e+00    4.690200e-01   1.837193e-02
  4.238550e+00    4.977744e-01   1.909401e-02
  4.240761e+00    5.063013e-01   1.942684e-02
  4.242971e+00    5.417371e-01   2.027929e-02
  4.245181e+00    4.940920e-01   1.954908e-02
  4.247392e+00    4.707811e-01   1.926065e-02
  4.249602e+00    4.654295e-01   1.934091e-02
  4.251813e+00    4.421784e-01   1.903779e-02
  4.254023e+00    4.512376e-01   1.942520e-02
  4.256234e+00    5.434408e-01   2.154564e-02
  4.258444e+00    5.034574e-01   2.095469e-02
  4.260655e+00    5.015003e-01   2.114439e-02
  4.262865e+00    4.317874e-01   1.984193e-02
  4.265076e+00    4.287508e-01   1.999676e-02
  4.267286e+00    4.898570e-01   2.162819e-02
  4.269496e+00    4.468327e-01   2.090858e-02
  4.271707e+00    4.171619e-01   2.045179e-02
  4.273917e+00    4.596590e-01   2.174600e-02
  4.276128e+00    5.370571e-01   2.381775e-02
  4.278338e+00    4.563343e-01   2.224868e-02
  4.280549e+00    4.623550e-01   2.271529e-02
  4.282759e+00    4.624217e-01   2.304387e-02
  4.284970e+00    4.837945e-01   2.391904e-02
  4.287180e+00    4.635702e-01   2.369467e-02
  4.289391e+00    5.166807e-01   2.520298e-02
  4.291601e+00    4.274926e-01   2.310730e-02
  4.293811e+00    5.339568e-01   2.602728e-02
  4.296022e+00    4.875474e-01   2.507038e-02
  4.298232e+00    5.019989e-01   2.565190e-02
  4.300443e+00    5.026668e-01   2.588123e-02
  4.302653e+00    4.768882e-01   2.542656e-02
  4.304864e+00    5.484076e-01   2.750289e-02
  4.307074e+00    5.954996e-01   2.891722e-02
  4.309285e+00    4.987238e-01   2.670419e-02
  4.311495e+00    4.286343e-01   2.498757e-02
  4.313706e+00    4.423612e-01   2.562384e-02
  4.315916e+00    4.254459e-01   2.537591e-02
  4.318126e+00    4.365370e-01   2.595942e-02
  4.320337e+00    3.218318e-01   2.251426e-02
  4.322547e+00    5.175959e-01   2.885511e-02
  4.324758e+00    5.316871e-01   2.954949e-02
  4.326968e+00    4.474249e-01   2.741255e-02
  4.329179e+00    4.774406e-01   2.862882e-02
  4.331389e+00    4.789320e-01   2.900363e-02
  4.333600e+00    5.000330e-01   2.999028e-02
  4.335810e+00    4.353574e-01   2.831610e-02
  4.338021e+00    4.659131e-01   2.966833e-02
  4.340231e+00    4.357052e-01   2.904978e-02
  4.342442e+00    4.968062e-01   3.143595e-02
  4.344652e+00    4.805339e-01   3.133759e-02
  4.346862e+00    3.687013e-01   2.783441e-02
  4.349073e+00    4.352864e-01   3.068358e-02
  4.351283e+00    4.162779e-01   3.045329e-02
  4.353494e+00    4.247550e-01   3.123800e-02
  4.355704e+00    4.946209e-01   3.425096e-02
  4.357915e+00    5.457349e-01   3.657675e-02
  4.360125e+00    4.720984e-01   3.460098e-02
  4.362336e+00    3.423162e-01   2.999978e-02
  4.364546e+00    5.486718e-01   3.867178e-02
  4.366757e+00    4.820372e-01   3.697108e-02
  4.368967e+00    3.164807e-01   3.055351e-02
  4.371177e+00    4.616492e-01   3.768346e-02
  4.373388e+00    4.476033e-01   3.793798e-02
  4.375598e+00    3.712916e-01   3.534072e-02
  4.377809e+00    3.465997e-01   3.500836e-02
  4.380019e+00    3.846961e-01   3.781084e-02
  4.382230e+00    3.795200e-01   3.860224e-02
  4.384440e+00    4.587288e-01   4.366290e-02
  4.386651e+00    4.949791e-01   4.675360e-02
  4.388861e+00    3.848675e-01   4.261141e-02
  4.391072e+00    3.803966e-01   4.384606e-02
  4.393282e+00    7.510238e-01   6.399721e-02
  4.395492e+00    4.031170e-01   4.883477e-02
  4.397703e+00    4.139639e-01   5.174883e-02
  4.399913e+00    3.181693e-01   4.766450e-02
  4.402124e+00    2.713516e-01   4.651012e-02
  4.404334e+00    4.231399e-01   6.174399e-02
  4.406545e+00    3.667218e-01   6.175222e-02
  4.408755e+00    2.642050e-01   5.684754e-02
  4.410966e+00    6.265873e-01   9.689943e-02
  4.413176e+00    2.101944e-01   6.352371e-02
  4.415387e+00   -5.892509e-01            nan
  4.417597e+00   -2.015506e+00            nan
  4.419807e+00   -3.766224e-01            nan
