# == pyFAI calibration ==
# Distance Sample to Detector: 0.216 m
# PONI: 1.166e-01, 1.308e-01 m
# Rotations: 0.000000 0.000000 0.000000 rad
# 
# == Fit2d calibration ==
# Distance Sample-beamCenter: 216.000 mm
# Center: x=1744.293, y=1555.000 pix
# Tilt: 0.000 deg  TiltPlanRot: 0.000 deg
# 
# Detector Eiger 9M	 PixelSize= 7.500e-05, 7.500e-05 m
#    Detector has a mask: True 
#    Detector has a dark current: False 
#    detector has a flat field: False 
# 
# Wavelength: 9.8e-11 m
# Mask applied: from detector
# Dark current applied: False
# Flat field applied: False
# Polarization factor: None
# Normalization factor: 1.0
# 
# Headers of the input frame:
# {
# "_array_data.header_convention": "SLS_1.0",
# "_array_data.header_contents": "# Detector: Dectris Eiger 9M, S/N E-18-0102\r\n# Pixel_size 75e-6 m x 75e-6 m\r\n# Silicon sensor, thickness 0.000450 m\r\n# Exposure_time 0.024997 s\r\n# Exposure_period 0.025000 s\r\n# Count_cutoff 62318 counts\r\n# Wavelength 0.980106 A\r\n# Detector_distance 0.215992 m\r\n# Beam_xy (1555, 1744) pixels\r\n# Start_angle 0.000000 deg.\r\n# Angle_increment 0.000000 deg.",
# "Content-Type": "application/octet-stream;",
# "conversions": "x-CBF_BYTE_OFFSET",
# "Content-Transfer-Encoding": "BINARY",
# "X-Binary-Size": "10166608",
# "X-Binary-ID": "1",
# "X-Binary-Element-Type": "signed 32-bit integer",
# "X-Binary-Element-Byte-Order": "LITTLE_ENDIAN",
# "Content-MD5": "hUVkwEf7DyArE879QBA7Bg==",
# "X-Binary-Number-of-Elements": "10166590",
# "X-Binary-Size-Fastest-Dimension": "3110",
# "X-Binary-Size-Second-Dimension": "3269",
# "X-Binary-Size-Padding": "4095"
# }
# --> H:/Proxima2a_2019-04-05/RAW_DATA/C5_gel17_position5/C5_mesh_1_data.cbf/C5_mesh_1_data.cbf000146.dat
#        q_A^-1              I           sigma 
  1.105228e-03    8.052240e-01   4.855627e-01
  3.315685e-03    1.469465e+00   3.987723e-01
  5.526141e-03    1.203134e+00   2.790160e-01
  7.736597e-03    1.386362e+00   2.530222e-01
  9.947054e-03    1.668709e+00   2.447185e-01
  1.215751e-02    1.831264e+00   2.318164e-01
  1.436797e-02    1.556927e+00   1.966120e-01
  1.657842e-02    1.085293e+00   1.527981e-01
  1.878888e-02    1.334219e+00   1.591391e-01
  2.099934e-02    1.703378e+00   1.701208e-01
  2.320979e-02    1.528955e+00   1.532958e-01
  2.542025e-02    1.612741e+00   1.504498e-01
  2.763070e-02    1.444613e+00   1.365734e-01
  2.984116e-02    1.423857e+00   1.304697e-01
  3.205162e-02    1.222021e+00   1.166341e-01
  3.426207e-02    1.347409e+00   1.184471e-01
  3.647253e-02    1.328214e+00   1.139787e-01
  3.868299e-02    1.388097e+00   1.131502e-01
  4.089344e-02    1.462544e+00   1.129627e-01
  4.310390e-02    1.445227e+00   1.093684e-01
  4.531436e-02    1.274227e+00   1.001588e-01
  4.752481e-02    1.362584e+00   1.011348e-01
  4.973527e-02    1.476386e+00   1.029086e-01
  5.194572e-02    1.420720e+00   9.877732e-02
  5.415618e-02    1.319016e+00   9.321027e-02
  5.636664e-02    1.317051e+00   9.129910e-02
  5.857709e-02    1.443292e+00   9.375442e-02
  6.078755e-02    1.295341e+00   8.718653e-02
  6.299801e-02    1.436118e+00   9.017610e-02
  6.520846e-02    1.486735e+00   9.018361e-02
  6.741892e-02    1.331475e+00   8.392983e-02
  6.962938e-02    1.449642e+00   8.617806e-02
  7.183983e-02    1.401011e+00   8.340514e-02
  7.405029e-02    1.415177e+00   8.256319e-02
  7.626074e-02    1.556352e+00   8.531871e-02
  7.847120e-02    1.619503e+00   8.579557e-02
  8.068166e-02    1.497410e+00   8.135957e-02
  8.289211e-02    1.501325e+00   8.037186e-02
  8.510257e-02    1.493315e+00   7.910887e-02
  8.731303e-02    1.568292e+00   8.003467e-02
  8.952348e-02    1.534536e+00   7.818729e-02
  9.173394e-02    1.491348e+00   7.614186e-02
  9.394439e-02    1.536898e+00   7.637862e-02
  9.615485e-02    1.536615e+00   7.548702e-02
  9.836531e-02    1.482038e+00   7.329462e-02
  1.005758e-01    1.441141e+00   7.147804e-02
  1.027862e-01    1.473505e+00   7.149301e-02
  1.049967e-01    1.513238e+00   7.168256e-02
  1.072071e-01    1.550786e+00   7.181360e-02
  1.094176e-01    1.484576e+00   6.954944e-02
  1.116280e-01    1.595774e+00   7.138801e-02
  1.138385e-01    1.518528e+00   6.895802e-02
  1.160490e-01    1.528957e+00   6.853141e-02
  1.182594e-01    1.589892e+00   6.922597e-02
  1.204699e-01    1.537498e+00   6.744784e-02
  1.226803e-01    1.562429e+00   6.737433e-02
  1.248908e-01    1.669135e+00   6.901719e-02
  1.271012e-01    1.600614e+00   6.699409e-02
  1.293117e-01    1.603665e+00   6.648146e-02
  1.315222e-01    1.612071e+00   6.609145e-02
  1.337326e-01    1.606673e+00   6.543189e-02
  1.359431e-01    1.592597e+00   6.518275e-02
  1.381535e-01    1.649681e+00   6.723116e-02
  1.403640e-01    1.586118e+00   6.620786e-02
  1.425744e-01    1.594178e+00   6.648187e-02
  1.447849e-01    1.570180e+00   6.599481e-02
  1.469953e-01    1.548825e+00   6.550343e-02
  1.492058e-01    1.548173e+00   6.541354e-02
  1.514163e-01    1.467595e+00   6.358275e-02
  1.536267e-01    1.553763e+00   6.529496e-02
  1.558372e-01    1.590007e+00   6.590631e-02
  1.580476e-01    1.628463e+00   6.653672e-02
  1.602581e-01    1.582585e+00   6.542617e-02
  1.624685e-01    1.522448e+00   6.399537e-02
  1.646790e-01    1.611647e+00   6.565432e-02
  1.668895e-01    1.682134e+00   6.688098e-02
  1.690999e-01    1.763732e+00   6.827828e-02
  1.713104e-01    1.701923e+00   6.686307e-02
  1.735208e-01    1.703484e+00   6.668572e-02
  1.757313e-01    1.775488e+00   6.786709e-02
  1.779417e-01    1.814229e+00   6.837982e-02
  1.801522e-01    1.745661e+00   6.686155e-02
  1.823626e-01    1.817538e+00   6.799703e-02
  1.845731e-01    1.994986e+00   7.100828e-02
  1.867836e-01    1.958863e+00   7.012507e-02
  1.889940e-01    1.927835e+00   6.934008e-02
  1.912045e-01    1.967759e+00   6.982049e-02
  1.934149e-01    1.921250e+00   6.875953e-02
  1.956254e-01    2.018601e+00   7.024757e-02
  1.978358e-01    2.010468e+00   6.986570e-02
  2.000463e-01    2.023453e+00   6.985866e-02
  2.022568e-01    2.056090e+00   7.018866e-02
  2.044672e-01    2.037214e+00   6.962641e-02
  2.066777e-01    1.920896e+00   6.738509e-02
  2.088881e-01    1.914379e+00   6.705054e-02
  2.110986e-01    2.041816e+00   6.900888e-02
  2.133090e-01    2.040043e+00   6.875468e-02
  2.155195e-01    1.939429e+00   6.681539e-02
  2.177300e-01    2.010125e+00   6.748786e-02
  2.199404e-01    1.999894e+00   6.554215e-02
  2.221509e-01    2.017818e+00   6.475417e-02
  2.243613e-01    2.072367e+00   6.479166e-02
  2.265718e-01    2.057676e+00   6.385000e-02
  2.287822e-01    2.065174e+00   6.333309e-02
  2.309927e-01    2.026764e+00   6.216981e-02
  2.332031e-01    2.125532e+00   6.312169e-02
  2.354136e-01    2.196650e+00   6.364889e-02
  2.376241e-01    2.195378e+00   6.313661e-02
  2.398345e-01    2.234115e+00   6.321981e-02
  2.420450e-01    2.229049e+00   6.269679e-02
  2.442554e-01    2.167249e+00   6.139568e-02
  2.464659e-01    2.137762e+00   6.056717e-02
  2.486763e-01    2.085599e+00   5.943045e-02
  2.508868e-01    2.111542e+00   5.942167e-02
  2.530973e-01    2.173727e+00   5.991655e-02
  2.553077e-01    2.021315e+00   5.742738e-02
  2.575182e-01    2.031451e+00   5.723054e-02
  2.597286e-01    2.100029e+00   5.785028e-02
  2.619391e-01    2.040362e+00   5.669422e-02
  2.641495e-01    2.056970e+00   5.660944e-02
  2.663600e-01    2.040835e+00   5.607691e-02
  2.685704e-01    2.051049e+00   5.591230e-02
  2.707809e-01    2.092533e+00   5.617515e-02
  2.729914e-01    2.054135e+00   5.536731e-02
  2.752018e-01    2.084168e+00   5.548032e-02
  2.774123e-01    2.054675e+00   5.480498e-02
  2.796227e-01    2.122145e+00   5.542203e-02
  2.818332e-01    1.972196e+00   5.316162e-02
  2.840436e-01    1.960864e+00   5.275168e-02
  2.862541e-01    1.959680e+00   5.248226e-02
  2.884646e-01    1.946190e+00   5.205309e-02
  2.906750e-01    2.000451e+00   5.252351e-02
  2.928855e-01    1.980682e+00   5.202119e-02
  2.950959e-01    1.995841e+00   5.198000e-02
  2.973064e-01    1.977637e+00   5.150985e-02
  2.995168e-01    1.890180e+00   5.012994e-02
  3.017273e-01    1.913819e+00   5.022004e-02
  3.039377e-01    1.923212e+00   5.012269e-02
  3.061482e-01    1.957432e+00   5.034790e-02
  3.083587e-01    1.887248e+00   4.922306e-02
  3.105691e-01    1.935517e+00   4.963563e-02
  3.127796e-01    1.944125e+00   4.953676e-02
  3.149900e-01    1.922511e+00   4.905536e-02
  3.172005e-01    1.924089e+00   4.887482e-02
  3.194109e-01    1.924188e+00   4.867432e-02
  3.216214e-01    1.916430e+00   4.837788e-02
  3.238319e-01    1.925672e+00   4.830227e-02
  3.260423e-01    1.892756e+00   4.769691e-02
  3.282528e-01    1.962843e+00   4.837862e-02
  3.304632e-01    1.920420e+00   4.766757e-02
  3.326737e-01    1.879218e+00   4.696947e-02
  3.348841e-01    1.865352e+00   4.661440e-02
  3.370946e-01    1.814205e+00   4.579792e-02
  3.393050e-01    1.856405e+00   4.615201e-02
  3.415155e-01    1.863080e+00   4.606109e-02
  3.437260e-01    1.775073e+00   4.479338e-02
  3.459364e-01    1.825797e+00   4.526082e-02
  3.481469e-01    1.788449e+00   4.463200e-02
  3.503573e-01    1.772832e+00   4.427483e-02
  3.525678e-01    1.849675e+00   4.506301e-02
  3.547782e-01    1.812790e+00   4.445022e-02
  3.569887e-01    1.766234e+00   4.372026e-02
  3.591992e-01    1.800229e+00   4.398280e-02
  3.614096e-01    1.839287e+00   4.430324e-02
  3.636201e-01    1.868797e+00   4.450029e-02
  3.658305e-01    1.803124e+00   4.356231e-02
  3.680410e-01    1.779843e+00   4.313129e-02
  3.702514e-01    1.857445e+00   4.391335e-02
  3.724619e-01    1.854226e+00   4.372588e-02
  3.746724e-01    1.768860e+00   4.256499e-02
  3.768828e-01    1.781757e+00   4.257612e-02
  3.790933e-01    1.788164e+00   4.251362e-02
  3.813037e-01    1.826432e+00   4.282554e-02
  3.835142e-01    1.762363e+00   4.192956e-02
  3.857246e-01    1.754004e+00   4.169460e-02
  3.879351e-01    1.829152e+00   4.244061e-02
  3.901455e-01    1.811130e+00   4.209657e-02
  3.923560e-01    1.757721e+00   4.133942e-02
  3.945665e-01    1.780819e+00   4.147819e-02
  3.967769e-01    1.812405e+00   4.171336e-02
  3.989874e-01    1.785427e+00   4.127249e-02
  4.011978e-01    1.791549e+00   4.121604e-02
  4.034083e-01    1.844357e+00   4.169068e-02
  4.056187e-01    1.815278e+00   4.123333e-02
  4.078292e-01    1.762712e+00   4.050896e-02
  4.100397e-01    1.767954e+00   4.044527e-02
  4.122501e-01    1.867437e+00   4.144327e-02
  4.144606e-01    1.805641e+00   4.063096e-02
  4.166710e-01    1.799260e+00   4.043850e-02
  4.188815e-01    1.826870e+00   4.062722e-02
  4.210919e-01    1.759343e+00   3.975246e-02
  4.233024e-01    1.759862e+00   3.964137e-02
  4.255128e-01    1.778211e+00   3.973230e-02
  4.277233e-01    1.790269e+00   3.975225e-02
  4.299338e-01    1.833081e+00   4.010900e-02
  4.321442e-01    1.825829e+00   3.991505e-02
  4.343547e-01    1.812095e+00   3.965222e-02
  4.365651e-01    1.759822e+00   3.896508e-02
  4.387756e-01    1.780119e+00   3.907941e-02
  4.409860e-01    1.767533e+00   3.883313e-02
  4.431965e-01    1.735759e+00   3.837610e-02
  4.454070e-01    1.703585e+00   3.791298e-02
  4.476174e-01    1.720036e+00   3.799100e-02
  4.498279e-01    1.727056e+00   3.796487e-02
  4.520383e-01    1.716440e+00   3.774414e-02
  4.542488e-01    1.735467e+00   3.785042e-02
  4.564592e-01    1.759646e+00   3.801094e-02
  4.586697e-01    1.701215e+00   3.727533e-02
  4.608801e-01    1.686655e+00   3.701604e-02
  4.630906e-01    1.692522e+00   3.698217e-02
  4.653011e-01    1.748346e+00   3.748829e-02
  4.675115e-01    1.729005e+00   3.718218e-02
  4.697220e-01    1.690326e+00   3.666766e-02
  4.719324e-01    1.713160e+00   3.681901e-02
  4.741429e-01    1.737051e+00   3.697932e-02
  4.763533e-01    1.711107e+00   3.660805e-02
  4.785638e-01    1.700895e+00   3.640435e-02
  4.807743e-01    1.681345e+00   3.610248e-02
  4.829847e-01    1.681903e+00   3.601725e-02
  4.851952e-01    1.736423e+00   3.650375e-02
  4.874056e-01    1.707454e+00   3.610671e-02
  4.896161e-01    1.693312e+00   3.586769e-02
  4.918265e-01    1.711632e+00   3.597165e-02
  4.940370e-01    1.676965e+00   3.551761e-02
  4.962475e-01    1.700516e+00   3.567780e-02
  4.984579e-01    1.708096e+00   3.566911e-02
  5.006684e-01    1.671877e+00   3.520287e-02
  5.028788e-01    1.759509e+00   3.602616e-02
  5.050893e-01    1.719801e+00   3.553071e-02
  5.072997e-01    1.734163e+00   3.559259e-02
  5.095102e-01    1.661914e+00   3.475984e-02
  5.117206e-01    1.671844e+00   3.478060e-02
  5.139311e-01    1.691887e+00   3.490566e-02
  5.161416e-01    1.704154e+00   3.494921e-02
  5.183520e-01    1.650483e+00   3.431271e-02
  5.205625e-01    1.624667e+00   3.396355e-02
  5.227729e-01    1.659467e+00   3.424530e-02
  5.249834e-01    1.668728e+00   3.426100e-02
  5.271938e-01    1.728500e+00   3.478784e-02
  5.294043e-01    1.689131e+00   3.431003e-02
  5.316148e-01    1.738623e+00   3.472931e-02
  5.338252e-01    1.826683e+00   3.551660e-02
  5.360357e-01    1.773552e+00   3.491661e-02
  5.382461e-01    1.755034e+00   3.465535e-02
  5.404566e-01    1.753433e+00   3.456068e-02
  5.426670e-01    1.739733e+00   3.434785e-02
  5.448775e-01    1.749038e+00   3.436263e-02
  5.470879e-01    1.761393e+00   3.440689e-02
  5.492984e-01    1.769213e+00   3.440648e-02
  5.515089e-01    1.814761e+00   3.476928e-02
  5.537193e-01    1.831267e+00   3.485012e-02
  5.559298e-01    1.775639e+00   3.424144e-02
  5.581402e-01    1.819618e+00   3.458713e-02
  5.603507e-01    1.782229e+00   3.415549e-02
  5.625611e-01    1.749632e+00   3.376823e-02
  5.647716e-01    1.782975e+00   3.401446e-02
  5.669821e-01    1.796563e+00   3.407022e-02
  5.691925e-01    1.799008e+00   3.402022e-02
  5.714030e-01    1.758198e+00   3.356045e-02
  5.736134e-01    1.735826e+00   3.327530e-02
  5.758239e-01    1.751692e+00   3.335569e-02
  5.780343e-01    1.698227e+00   3.277323e-02
  5.802448e-01    1.697392e+00   3.269658e-02
  5.824552e-01    1.651677e+00   3.218560e-02
  5.846657e-01    1.674945e+00   3.234394e-02
  5.868762e-01    1.700986e+00   3.252656e-02
  5.890866e-01    1.640004e+00   3.187192e-02
  5.912971e-01    1.607568e+00   3.148983e-02
  5.935075e-01    1.637023e+00   3.171133e-02
  5.957180e-01    1.654969e+00   3.181926e-02
  5.979284e-01    1.663749e+00   3.183842e-02
  6.001389e-01    1.656522e+00   3.170451e-02
  6.023494e-01    1.627986e+00   3.136643e-02
  6.045598e-01    1.624106e+00   3.126524e-02
  6.067703e-01    1.673182e+00   3.167028e-02
  6.089807e-01    1.685553e+00   3.172325e-02
  6.111912e-01    1.681848e+00   3.162508e-02
  6.134016e-01    1.712140e+00   3.184496e-02
  6.156121e-01    1.689115e+00   3.156727e-02
  6.178226e-01    1.641008e+00   3.105287e-02
  6.200330e-01    1.650393e+00   3.108011e-02
  6.222435e-01    1.698709e+00   3.146929e-02
  6.244539e-01    1.704958e+00   3.146541e-02
  6.266644e-01    1.700110e+00   3.135934e-02
  6.288748e-01    1.742919e+00   3.168990e-02
  6.310853e-01    1.745284e+00   3.164984e-02
  6.332957e-01    1.768621e+00   3.179922e-02
  6.355062e-01    1.737766e+00   3.145939e-02
  6.377167e-01    1.713327e+00   3.117746e-02
  6.399271e-01    1.723662e+00   3.121140e-02
  6.421376e-01    1.750942e+00   3.139740e-02
  6.443480e-01    1.693367e+00   3.081815e-02
  6.465585e-01    1.681371e+00   3.065060e-02
  6.487689e-01    1.701863e+00   3.077859e-02
  6.509794e-01    1.704458e+00   3.074395e-02
  6.531899e-01    1.660900e+00   3.029152e-02
  6.554003e-01    1.617137e+00   2.983358e-02
  6.576108e-01    1.594202e+00   2.956609e-02
  6.598212e-01    1.614986e+00   2.970293e-02
  6.620317e-01    1.592399e+00   2.943979e-02
  6.642421e-01    1.631040e+00   2.973973e-02
  6.664526e-01    1.642209e+00   2.978640e-02
  6.686630e-01    1.665600e+00   2.994233e-02
  6.708735e-01    1.613656e+00   2.941768e-02
  6.730840e-01    1.620545e+00   2.942665e-02
  6.752944e-01    1.613881e+00   2.931269e-02
  6.775049e-01    1.578695e+00   2.893874e-02
  6.797153e-01    1.605204e+00   2.912784e-02
  6.819258e-01    1.658151e+00   2.955096e-02
  6.841362e-01    1.626648e+00   2.921627e-02
  6.863467e-01    1.593514e+00   2.886537e-02
  6.885572e-01    1.621008e+00   2.906116e-02
  6.907676e-01    1.607769e+00   2.889038e-02
  6.929781e-01    1.619922e+00   2.894781e-02
  6.951885e-01    1.626510e+00   2.895526e-02
  6.973990e-01    1.574638e+00   2.843943e-02
  6.996094e-01    1.566814e+00   2.831876e-02
  7.018199e-01    1.622705e+00   2.876884e-02
  7.040303e-01    1.618843e+00   2.868412e-02
  7.062408e-01    1.613069e+00   2.858278e-02
  7.084513e-01    1.572541e+00   2.817233e-02
  7.106617e-01    1.606995e+00   2.842978e-02
  7.128722e-01    1.579668e+00   2.813828e-02
  7.150826e-01    1.589376e+00   2.817594e-02
  7.172931e-01    1.598399e+00   2.820710e-02
  7.195035e-01    1.557083e+00   2.779231e-02
  7.217140e-01    1.558635e+00   2.785533e-02
  7.239245e-01    1.598463e+00   2.843744e-02
  7.261349e-01    1.611196e+00   2.866035e-02
  7.283454e-01    1.583399e+00   2.848465e-02
  7.305558e-01    1.561225e+00   2.833825e-02
  7.327663e-01    1.577476e+00   2.852789e-02
  7.349767e-01    1.587533e+00   2.863513e-02
  7.371872e-01    1.568962e+00   2.845600e-02
  7.393976e-01    1.555931e+00   2.832339e-02
  7.416081e-01    1.579182e+00   2.851805e-02
  7.438186e-01    1.572565e+00   2.831400e-02
  7.460290e-01    1.555476e+00   2.786730e-02
  7.482395e-01    1.573974e+00   2.786138e-02
  7.504499e-01    1.551468e+00   2.752620e-02
  7.526604e-01    1.574637e+00   2.761442e-02
  7.548708e-01    1.536864e+00   2.719286e-02
  7.570813e-01    1.595686e+00   2.765704e-02
  7.592918e-01    1.592547e+00   2.759447e-02
  7.615022e-01    1.573264e+00   2.739310e-02
  7.637127e-01    1.581558e+00   2.743236e-02
  7.659231e-01    1.620144e+00   2.773253e-02
  7.681336e-01    1.563085e+00   2.720833e-02
  7.703440e-01    1.551206e+00   2.707374e-02
  7.725545e-01    1.551513e+00   2.704576e-02
  7.747650e-01    1.608485e+00   2.749925e-02
  7.769754e-01    1.567321e+00   2.709252e-02
  7.791859e-01    1.621451e+00   2.750212e-02
  7.813963e-01    1.593799e+00   2.721379e-02
  7.836068e-01    1.597515e+00   2.719327e-02
  7.858172e-01    1.607142e+00   2.722409e-02
  7.880277e-01    1.639517e+00   2.744463e-02
  7.902381e-01    1.609566e+00   2.714339e-02
  7.924486e-01    1.617132e+00   2.715669e-02
  7.946591e-01    1.632902e+00   2.724001e-02
  7.968695e-01    1.629409e+00   2.716218e-02
  7.990800e-01    1.651007e+00   2.729272e-02
  8.012904e-01    1.669453e+00   2.739731e-02
  8.035009e-01    1.657133e+00   2.724747e-02
  8.057113e-01    1.620924e+00   2.690154e-02
  8.079218e-01    1.604482e+00   2.671856e-02
  8.101323e-01    1.639244e+00   2.696058e-02
  8.123427e-01    1.676959e+00   2.722248e-02
  8.145532e-01    1.673273e+00   2.714603e-02
  8.167636e-01    1.633274e+00   2.677451e-02
  8.189741e-01    1.634332e+00   2.673852e-02
  8.211845e-01    1.656018e+00   2.687022e-02
  8.233950e-01    1.661335e+00   2.686956e-02
  8.256054e-01    1.662953e+00   2.683810e-02
  8.278159e-01    1.666836e+00   2.682505e-02
  8.300264e-01    1.655003e+00   2.668637e-02
  8.322368e-01    1.648225e+00   2.658840e-02
  8.344473e-01    1.670629e+00   2.672472e-02
  8.366577e-01    1.658331e+00   2.658333e-02
  8.388682e-01    1.638696e+00   2.638325e-02
  8.410786e-01    1.632919e+00   2.629471e-02
  8.432891e-01    1.666388e+00   2.652063e-02
  8.454996e-01    1.674428e+00   2.654246e-02
  8.477100e-01    1.694064e+00   2.665527e-02
  8.499205e-01    1.695117e+00   2.662168e-02
  8.521309e-01    1.733253e+00   2.687749e-02
  8.543414e-01    1.688671e+00   2.648821e-02
  8.565518e-01    1.652623e+00   2.616316e-02
  8.587623e-01    1.602018e+00   2.571938e-02
  8.609727e-01    1.590738e+00   2.558891e-02
  8.631832e-01    1.571051e+00   2.539087e-02
  8.653937e-01    1.599787e+00   2.558264e-02
  8.676041e-01    1.621899e+00   2.571999e-02
  8.698146e-01    1.627078e+00   2.572163e-02
  8.720250e-01    1.637599e+00   2.576533e-02
  8.742355e-01    1.650671e+00   2.582859e-02
  8.764459e-01    1.598643e+00   2.537951e-02
  8.786564e-01    1.585799e+00   2.523966e-02
  8.808669e-01    1.616943e+00   2.544766e-02
  8.830773e-01    1.601984e+00   2.529154e-02
  8.852878e-01    1.569224e+00   2.499410e-02
  8.874982e-01    1.576985e+00   2.501943e-02
  8.897087e-01    1.589326e+00   2.507961e-02
  8.919191e-01    1.566891e+00   2.486461e-02
  8.941296e-01    1.602586e+00   2.510890e-02
  8.963401e-01    1.632695e+00   2.530690e-02
  8.985505e-01    1.628187e+00   2.523464e-02
  9.007610e-01    1.661646e+00   2.545516e-02
  9.029714e-01    1.663081e+00   2.542963e-02
  9.051819e-01    1.644185e+00   2.524702e-02
  9.073923e-01    1.597718e+00   2.485115e-02
  9.096028e-01    1.581794e+00   2.469229e-02
  9.118132e-01    1.589057e+00   2.471280e-02
  9.140237e-01    1.596496e+00   2.473401e-02
  9.162342e-01    1.618158e+00   2.486647e-02
  9.184446e-01    1.638393e+00   2.498529e-02
  9.206551e-01    1.592171e+00   2.459484e-02
  9.228655e-01    1.587672e+00   2.452494e-02
  9.250760e-01    1.618707e+00   2.472795e-02
  9.272864e-01    1.607626e+00   2.460886e-02
  9.294969e-01    1.625734e+00   2.471098e-02
  9.317074e-01    1.639519e+00   2.478047e-02
  9.339178e-01    1.613495e+00   2.454946e-02
  9.361283e-01    1.569654e+00   2.417793e-02
  9.383387e-01    1.612034e+00   2.446880e-02
  9.405492e-01    1.663007e+00   2.481797e-02
  9.427596e-01    1.671347e+00   2.484430e-02
  9.449701e-01    1.658986e+00   2.471864e-02
  9.471805e-01    1.632740e+00   2.448758e-02
  9.493910e-01    1.669753e+00   2.472959e-02
  9.516015e-01    1.697787e+00   2.490150e-02
  9.538119e-01    1.739998e+00   2.517463e-02
  9.560224e-01    1.707366e+00   2.490233e-02
  9.582328e-01    1.769963e+00   2.532071e-02
  9.604433e-01    1.758238e+00   2.520097e-02
  9.626537e-01    1.770508e+00   2.525475e-02
  9.648642e-01    1.788424e+00   2.534742e-02
  9.670747e-01    1.858369e+00   2.580271e-02
  9.692851e-01    1.909890e+00   2.612318e-02
  9.714956e-01    1.947089e+00   2.633915e-02
  9.737060e-01    1.950238e+00   2.632583e-02
  9.759165e-01    1.916686e+00   2.606159e-02
  9.781269e-01    1.878102e+00   2.576420e-02
  9.803374e-01    1.855558e+00   2.557368e-02
  9.825478e-01    1.813417e+00   2.524827e-02
  9.847583e-01    1.807339e+00   2.517167e-02
  9.869688e-01    1.877558e+00   2.562167e-02
  9.891792e-01    1.804751e+00   2.508662e-02
  9.913897e-01    1.776582e+00   2.485646e-02
  9.936001e-01    1.779708e+00   2.484575e-02
  9.958106e-01    1.774481e+00   2.477554e-02
  9.980210e-01    1.692663e+00   2.416622e-02
  1.000231e+00    1.668590e+00   2.412517e-02
  1.002442e+00    1.681040e+00   2.434368e-02
  1.004652e+00    1.652248e+00   2.420163e-02
  1.006863e+00    1.607107e+00   2.391827e-02
  1.009073e+00    1.594856e+00   2.386337e-02
  1.011284e+00    1.581606e+00   2.379585e-02
  1.013494e+00    1.552543e+00   2.359956e-02
  1.015705e+00    1.566516e+00   2.372792e-02
  1.017915e+00    1.556638e+00   2.366932e-02
  1.020126e+00    1.536270e+00   2.352982e-02
  1.022336e+00    1.560845e+00   2.372898e-02
  1.024547e+00    1.533926e+00   2.353461e-02
  1.026757e+00    1.530018e+00   2.351294e-02
  1.028967e+00    1.533451e+00   2.354695e-02
  1.031178e+00    1.511724e+00   2.338567e-02
  1.033388e+00    1.496063e+00   2.326921e-02
  1.035599e+00    1.518213e+00   2.344423e-02
  1.037809e+00    1.524811e+00   2.349840e-02
  1.040020e+00    1.518024e+00   2.344731e-02
  1.042230e+00    1.519690e+00   2.346209e-02
  1.044441e+00    1.531885e+00   2.355584e-02
  1.046651e+00    1.529525e+00   2.353785e-02
  1.048862e+00    1.512570e+00   2.340625e-02
  1.051072e+00    1.505519e+00   2.334927e-02
  1.053282e+00    1.491825e+00   2.324188e-02
  1.055493e+00    1.481335e+00   2.315574e-02
  1.057703e+00    1.471748e+00   2.307919e-02
  1.059914e+00    1.469822e+00   2.305984e-02
  1.062124e+00    1.450251e+00   2.290182e-02
  1.064335e+00    1.431941e+00   2.275338e-02
  1.066545e+00    1.455548e+00   2.293424e-02
  1.068756e+00    1.451937e+00   2.290208e-02
  1.070966e+00    1.433762e+00   2.275184e-02
  1.073177e+00    1.441257e+00   2.280524e-02
  1.075387e+00    1.444081e+00   2.282238e-02
  1.077597e+00    1.507049e+00   2.330729e-02
  1.079808e+00    1.546349e+00   2.347284e-02
  1.082018e+00    1.562582e+00   2.340030e-02
  1.084229e+00    1.591998e+00   2.350464e-02
  1.086439e+00    1.646311e+00   2.380922e-02
  1.088650e+00    1.652967e+00   2.377665e-02
  1.090860e+00    1.616216e+00   2.343957e-02
  1.093071e+00    1.540633e+00   2.282085e-02
  1.095281e+00    1.509552e+00   2.253096e-02
  1.097492e+00    1.490070e+00   2.232935e-02
  1.099702e+00    1.516542e+00   2.247405e-02
  1.101912e+00    1.615464e+00   2.314371e-02
  1.104123e+00    1.692739e+00   2.363843e-02
  1.106333e+00    1.734010e+00   2.387599e-02
  1.108544e+00    1.757966e+00   2.399131e-02
  1.110754e+00    1.688841e+00   2.346811e-02
  1.112965e+00    1.536601e+00   2.234325e-02
  1.115175e+00    1.444720e+00   2.162338e-02
  1.117386e+00    1.427688e+00   2.145609e-02
  1.119596e+00    1.428046e+00   2.142069e-02
  1.121807e+00    1.422071e+00   2.133686e-02
  1.124017e+00    1.428412e+00   2.134744e-02
  1.126228e+00    1.415989e+00   2.121852e-02
  1.128438e+00    1.419397e+00   2.120701e-02
  1.130648e+00    1.431037e+00   2.125910e-02
  1.132859e+00    1.429022e+00   2.120937e-02
  1.135069e+00    1.428460e+00   2.117002e-02
  1.137280e+00    1.407141e+00   2.097828e-02
  1.139490e+00    1.404395e+00   2.092450e-02
  1.141701e+00    1.400440e+00   2.086173e-02
  1.143911e+00    1.394075e+00   2.078226e-02
  1.146122e+00    1.444842e+00   2.112454e-02
  1.148332e+00    1.401436e+00   2.077271e-02
  1.150543e+00    1.381826e+00   2.059595e-02
  1.152753e+00    1.393008e+00   2.064808e-02
  1.154963e+00    1.395295e+00   2.063376e-02
  1.157174e+00    1.357254e+00   2.032055e-02
  1.159384e+00    1.347808e+00   2.022012e-02
  1.161595e+00    1.328091e+00   2.004231e-02
  1.163805e+00    1.323204e+00   1.997660e-02
  1.166016e+00    1.323918e+00   1.995306e-02
  1.168226e+00    1.360235e+00   2.019597e-02
  1.170437e+00    1.392876e+00   2.040793e-02
  1.172647e+00    1.415463e+00   2.054335e-02
  1.174858e+00    1.403702e+00   2.042931e-02
  1.177068e+00    1.415856e+00   2.048877e-02
  1.179278e+00    1.379861e+00   2.019791e-02
  1.181489e+00    1.368755e+00   2.008932e-02
  1.183699e+00    1.367301e+00   2.005103e-02
  1.185910e+00    1.326565e+00   1.972261e-02
  1.188120e+00    1.323042e+00   1.967005e-02
  1.190331e+00    1.346214e+00   1.981486e-02
  1.192541e+00    1.377344e+00   2.001506e-02
  1.194752e+00    1.339471e+00   1.971106e-02
  1.196962e+00    1.347371e+00   1.974339e-02
  1.199173e+00    1.330078e+00   1.958999e-02
  1.201383e+00    1.350449e+00   1.971225e-02
  1.203593e+00    1.352889e+00   1.970523e-02
  1.205804e+00    1.359236e+00   1.972538e-02
  1.208014e+00    1.356796e+00   1.968075e-02
  1.210225e+00    1.360058e+00   1.967897e-02
  1.212435e+00    1.345773e+00   1.955060e-02
  1.214646e+00    1.350208e+00   1.955668e-02
  1.216856e+00    1.350795e+00   1.953545e-02
  1.219067e+00    1.347372e+00   1.948623e-02
  1.221277e+00    1.356314e+00   1.952570e-02
  1.223488e+00    1.357669e+00   1.950964e-02
  1.225698e+00    1.351845e+00   1.944083e-02
  1.227909e+00    1.360950e+00   1.947590e-02
  1.230119e+00    1.377658e+00   1.956288e-02
  1.232329e+00    1.448834e+00   2.003004e-02
  1.234540e+00    1.511800e+00   2.042864e-02
  1.236750e+00    1.473078e+00   2.013373e-02
  1.238961e+00    1.420682e+00   1.974474e-02
  1.241171e+00    1.396842e+00   1.955379e-02
  1.243382e+00    1.371850e+00   1.935434e-02
  1.245592e+00    1.387350e+00   1.943895e-02
  1.247803e+00    1.392829e+00   1.945327e-02
  1.250013e+00    1.395724e+00   1.944954e-02
  1.252224e+00    1.409998e+00   1.952497e-02
  1.254434e+00    1.429150e+00   1.963271e-02
  1.256644e+00    1.406819e+00   1.945504e-02
  1.258855e+00    1.394770e+00   1.934788e-02
  1.261065e+00    1.394245e+00   1.932050e-02
  1.263276e+00    1.368551e+00   1.911855e-02
  1.265486e+00    1.370075e+00   1.910613e-02
  1.267697e+00    1.396252e+00   1.926440e-02
  1.269907e+00    1.363770e+00   1.901618e-02
  1.272118e+00    1.347068e+00   1.887684e-02
  1.274328e+00    1.356505e+00   1.892003e-02
  1.276539e+00    1.362506e+00   1.893896e-02
  1.278749e+00    1.358746e+00   1.889045e-02
  1.280959e+00    1.346523e+00   1.878276e-02
  1.283170e+00    1.385760e+00   1.903176e-02
  1.285380e+00    1.343611e+00   1.871768e-02
  1.287591e+00    1.373934e+00   1.890549e-02
  1.289801e+00    1.367186e+00   1.883766e-02
  1.292012e+00    1.349222e+00   1.869639e-02
  1.294222e+00    1.329889e+00   1.854585e-02
  1.296433e+00    1.330313e+00   1.853330e-02
  1.298643e+00    1.339008e+00   1.857738e-02
  1.300854e+00    1.370290e+00   1.877658e-02
  1.303064e+00    1.385389e+00   1.886029e-02
  1.305274e+00    1.385292e+00   1.883791e-02
  1.307485e+00    1.341597e+00   1.851696e-02
  1.309695e+00    1.351719e+00   1.856441e-02
  1.311906e+00    1.376056e+00   1.870888e-02
  1.314116e+00    1.355668e+00   1.854894e-02
  1.316327e+00    1.374464e+00   1.865518e-02
  1.318537e+00    1.395621e+00   1.877596e-02
  1.320748e+00    1.386642e+00   1.869362e-02
  1.322958e+00    1.396894e+00   1.874173e-02
  1.325169e+00    1.380556e+00   1.861056e-02
  1.327379e+00    1.358441e+00   1.843900e-02
  1.329589e+00    1.358024e+00   1.841506e-02
  1.331800e+00    1.363847e+00   1.843368e-02
  1.334010e+00    1.366392e+00   1.843010e-02
  1.336221e+00    1.377610e+00   1.848364e-02
  1.338431e+00    1.363547e+00   1.836807e-02
  1.340642e+00    1.366474e+00   1.845233e-02
  1.342852e+00    1.353681e+00   1.846656e-02
  1.345063e+00    1.385784e+00   1.873438e-02
  1.347273e+00    1.373840e+00   1.868904e-02
  1.349484e+00    1.350836e+00   1.855958e-02
  1.351694e+00    1.369157e+00   1.870789e-02
  1.353905e+00    1.343125e+00   1.854715e-02
  1.356115e+00    1.343112e+00   1.856204e-02
  1.358325e+00    1.329989e+00   1.848439e-02
  1.360536e+00    1.346857e+00   1.861282e-02
  1.362746e+00    1.336337e+00   1.854953e-02
  1.364957e+00    1.317889e+00   1.842861e-02
  1.367167e+00    1.308421e+00   1.836933e-02
  1.369378e+00    1.316826e+00   1.843419e-02
  1.371588e+00    1.316799e+00   1.843910e-02
  1.373799e+00    1.312015e+00   1.840920e-02
  1.376009e+00    1.321559e+00   1.847940e-02
  1.378220e+00    1.297004e+00   1.830942e-02
  1.380430e+00    1.295963e+00   1.830474e-02
  1.382640e+00    1.288157e+00   1.825042e-02
  1.384851e+00    1.270641e+00   1.812679e-02
  1.387061e+00    1.297039e+00   1.831438e-02
  1.389272e+00    1.298986e+00   1.832834e-02
  1.391482e+00    1.298967e+00   1.832754e-02
  1.393693e+00    1.278240e+00   1.817986e-02
  1.395903e+00    1.285167e+00   1.822753e-02
  1.398114e+00    1.292792e+00   1.828016e-02
  1.400324e+00    1.272261e+00   1.813231e-02
  1.402535e+00    1.258020e+00   1.802824e-02
  1.404745e+00    1.250344e+00   1.797080e-02
  1.406955e+00    1.281980e+00   1.819403e-02
  1.409166e+00    1.288615e+00   1.823773e-02
  1.411376e+00    1.262238e+00   1.804700e-02
  1.413587e+00    1.269082e+00   1.809205e-02
  1.415797e+00    1.257434e+00   1.800531e-02
  1.418008e+00    1.261099e+00   1.798980e-02
  1.420218e+00    1.275166e+00   1.793982e-02
  1.422429e+00    1.266623e+00   1.779444e-02
  1.424639e+00    1.254589e+00   1.764540e-02
  1.426850e+00    1.282544e+00   1.778593e-02
  1.429060e+00    1.285291e+00   1.775570e-02
  1.431270e+00    1.284161e+00   1.770334e-02
  1.433481e+00    1.259975e+00   1.749504e-02
  1.435691e+00    1.256399e+00   1.743197e-02
  1.437902e+00    1.274095e+00   1.751777e-02
  1.440112e+00    1.265044e+00   1.742019e-02
  1.442323e+00    1.250012e+00   1.728357e-02
  1.444533e+00    1.267259e+00   1.736989e-02
  1.446744e+00    1.275930e+00   1.739801e-02
  1.448954e+00    1.257319e+00   1.724062e-02
  1.451165e+00    1.262647e+00   1.724743e-02
  1.453375e+00    1.263253e+00   1.722362e-02
  1.455586e+00    1.228272e+00   1.695576e-02
  1.457796e+00    1.258859e+00   1.713818e-02
  1.460006e+00    1.280066e+00   1.725458e-02
  1.462217e+00    1.286081e+00   1.726869e-02
  1.464427e+00    1.255885e+00   1.703930e-02
  1.466638e+00    1.239738e+00   1.690437e-02
  1.468848e+00    1.262122e+00   1.703103e-02
  1.471059e+00    1.265275e+00   1.702725e-02
  1.473269e+00    1.279988e+00   1.710147e-02
  1.475480e+00    1.284491e+00   1.710762e-02
  1.477690e+00    1.243310e+00   1.680757e-02
  1.479901e+00    1.246291e+00   1.680404e-02
  1.482111e+00    1.260722e+00   1.687779e-02
  1.484321e+00    1.290361e+00   1.705170e-02
  1.486532e+00    1.298351e+00   1.708182e-02
  1.488742e+00    1.294197e+00   1.703155e-02
  1.490953e+00    1.266578e+00   1.682623e-02
  1.493163e+00    1.253235e+00   1.671516e-02
  1.495374e+00    1.267835e+00   1.679070e-02
  1.497584e+00    1.254065e+00   1.667771e-02
  1.499795e+00    1.256720e+00   1.667373e-02
  1.502005e+00    1.262367e+00   1.668943e-02
  1.504216e+00    1.274452e+00   1.674797e-02
  1.506426e+00    1.232549e+00   1.644975e-02
  1.508636e+00    1.246492e+00   1.652215e-02
  1.510847e+00    1.255196e+00   1.655794e-02
  1.513057e+00    1.240840e+00   1.643804e-02
  1.515268e+00    1.260136e+00   1.653959e-02
  1.517478e+00    1.243228e+00   1.640322e-02
  1.519689e+00    1.236692e+00   1.633525e-02
  1.521899e+00    1.261444e+00   1.647472e-02
  1.524110e+00    1.265054e+00   1.647786e-02
  1.526320e+00    1.244101e+00   1.632131e-02
  1.528531e+00    1.258879e+00   1.639813e-02
  1.530741e+00    1.253657e+00   1.634490e-02
  1.532951e+00    1.234056e+00   1.619718e-02
  1.535162e+00    1.230455e+00   1.625944e-02
  1.537372e+00    1.238476e+00   1.637899e-02
  1.539583e+00    1.221488e+00   1.630013e-02
  1.541793e+00    1.235056e+00   1.639730e-02
  1.544004e+00    1.242880e+00   1.644943e-02
  1.546214e+00    1.237075e+00   1.640947e-02
  1.548425e+00    1.227120e+00   1.634357e-02
  1.550635e+00    1.208826e+00   1.623084e-02
  1.552846e+00    1.199520e+00   1.617770e-02
  1.555056e+00    1.213993e+00   1.623404e-02
  1.557266e+00    1.223216e+00   1.618608e-02
  1.559477e+00    1.227712e+00   1.615709e-02
  1.561687e+00    1.237566e+00   1.619122e-02
  1.563898e+00    1.250358e+00   1.625748e-02
  1.566108e+00    1.239378e+00   1.617002e-02
  1.568319e+00    1.235742e+00   1.613072e-02
  1.570529e+00    1.237791e+00   1.611902e-02
  1.572740e+00    1.248702e+00   1.616222e-02
  1.574950e+00    1.250808e+00   1.614949e-02
  1.577161e+00    1.244039e+00   1.608026e-02
  1.579371e+00    1.268511e+00   1.621373e-02
  1.581582e+00    1.279363e+00   1.626293e-02
  1.583792e+00    1.259194e+00   1.611609e-02
  1.586002e+00    1.250788e+00   1.604454e-02
  1.588213e+00    1.258205e+00   1.607470e-02
  1.590423e+00    1.263194e+00   1.608632e-02
  1.592634e+00    1.241611e+00   1.592671e-02
  1.594844e+00    1.210436e+00   1.570437e-02
  1.597055e+00    1.215794e+00   1.571881e-02
  1.599265e+00    1.226962e+00   1.577022e-02
  1.601476e+00    1.242699e+00   1.585073e-02
  1.603686e+00    1.244346e+00   1.584143e-02
  1.605897e+00    1.215550e+00   1.563711e-02
  1.608107e+00    1.234800e+00   1.574088e-02
  1.610317e+00    1.252073e+00   1.583118e-02
  1.612528e+00    1.239553e+00   1.573263e-02
  1.614738e+00    1.242939e+00   1.573506e-02
  1.616949e+00    1.231551e+00   1.564380e-02
  1.619159e+00    1.205389e+00   1.545815e-02
  1.621370e+00    1.187178e+00   1.532272e-02
  1.623580e+00    1.195761e+00   1.535979e-02
  1.625791e+00    1.207954e+00   1.541968e-02
  1.628001e+00    1.183326e+00   1.524357e-02
  1.630212e+00    1.162221e+00   1.508948e-02
  1.632422e+00    1.183058e+00   1.520628e-02
  1.634632e+00    1.166246e+00   1.508067e-02
  1.636843e+00    1.131220e+00   1.483529e-02
  1.639053e+00    1.140537e+00   1.487919e-02
  1.641264e+00    1.168673e+00   1.504453e-02
  1.643474e+00    1.151521e+00   1.491641e-02
  1.645685e+00    1.138815e+00   1.481738e-02
  1.647895e+00    1.123215e+00   1.469915e-02
  1.650106e+00    1.157458e+00   1.490449e-02
  1.652316e+00    1.197239e+00   1.514162e-02
  1.654527e+00    1.170033e+00   1.495174e-02
  1.656737e+00    1.153160e+00   1.482686e-02
  1.658947e+00    1.126588e+00   1.463878e-02
  1.661158e+00    1.120788e+00   1.458483e-02
  1.663368e+00    1.122105e+00   1.457739e-02
  1.665579e+00    1.096367e+00   1.439325e-02
  1.667789e+00    1.101196e+00   1.440878e-02
  1.670000e+00    1.109038e+00   1.444453e-02
  1.672210e+00    1.130863e+00   1.456993e-02
  1.674421e+00    1.141836e+00   1.462488e-02
  1.676631e+00    1.115673e+00   1.444039e-02
  1.678842e+00    1.106057e+00   1.436219e-02
  1.681052e+00    1.099646e+00   1.430507e-02
  1.683263e+00    1.093714e+00   1.425129e-02
  1.685473e+00    1.090939e+00   1.421800e-02
  1.687683e+00    1.117262e+00   1.437283e-02
  1.689894e+00    1.135481e+00   1.447339e-02
  1.692104e+00    1.213140e+00   1.494428e-02
  1.694315e+00    1.320192e+00   1.557364e-02
  1.696525e+00    1.222410e+00   1.496965e-02
  1.698736e+00    1.114109e+00   1.427597e-02
  1.700946e+00    1.067957e+00   1.396194e-02
  1.703157e+00    1.072194e+00   1.397486e-02
  1.705367e+00    1.067477e+00   1.392950e-02
  1.707578e+00    1.062135e+00   1.387994e-02
  1.709788e+00    1.040120e+00   1.372126e-02
  1.711998e+00    1.035833e+00   1.367799e-02
  1.714209e+00    1.022952e+00   1.357836e-02
  1.716419e+00    1.011667e+00   1.348914e-02
  1.718630e+00    1.022609e+00   1.354768e-02
  1.720840e+00    1.018497e+00   1.350631e-02
  1.723051e+00    1.000962e+00   1.337582e-02
  1.725261e+00    9.979015e-01   1.334087e-02
  1.727472e+00    9.881154e-01   1.326130e-02
  1.729682e+00    1.020848e+00   1.346567e-02
  1.731893e+00    1.005933e+00   1.335309e-02
  1.734103e+00    1.006608e+00   1.334377e-02
  1.736313e+00    1.011662e+00   1.336320e-02
  1.738524e+00    9.928823e-01   1.322480e-02
  1.740734e+00    9.947420e-01   1.322353e-02
  1.742945e+00    9.892520e-01   1.317358e-02
  1.745155e+00    9.653496e-01   1.300018e-02
  1.747366e+00    1.005306e+00   1.325257e-02
  1.749576e+00    1.041721e+00   1.347640e-02
  1.751787e+00    1.046162e+00   1.349135e-02
  1.753997e+00    9.949521e-01   1.314353e-02
  1.756208e+00    9.810951e-01   1.303843e-02
  1.758418e+00    9.664684e-01   1.292779e-02
  1.760628e+00    9.659497e-01   1.291100e-02
  1.762839e+00    9.614404e-01   1.286762e-02
  1.765049e+00    9.776867e-01   1.296266e-02
  1.767260e+00    1.010085e+00   1.316255e-02
  1.769470e+00    9.950573e-01   1.305102e-02
  1.771681e+00    1.032183e+00   1.327857e-02
  1.773891e+00    1.013842e+00   1.314660e-02
  1.776102e+00    9.906652e-01   1.298229e-02
  1.778312e+00    9.942693e-01   1.299282e-02
  1.780523e+00    1.068617e+00   1.345623e-02
  1.782733e+00    1.207138e+00   1.428745e-02
  1.784944e+00    1.174972e+00   1.408143e-02
  1.787154e+00    1.044480e+00   1.326321e-02
  1.789364e+00    9.776812e-01   1.281929e-02
  1.791575e+00    9.466963e-01   1.260181e-02
  1.793785e+00    9.707230e-01   1.274801e-02
  1.795996e+00    9.385974e-01   1.252268e-02
  1.798206e+00    9.169361e-01   1.236480e-02
  1.800417e+00    9.319941e-01   1.245313e-02
  1.802627e+00    9.429669e-01   1.251411e-02
  1.804838e+00    9.516917e-01   1.255949e-02
  1.807048e+00    9.846599e-01   1.276180e-02
  1.809259e+00    1.024272e+00   1.300153e-02
  1.811469e+00    1.065314e+00   1.324320e-02
  1.813679e+00    1.244047e+00   1.429347e-02
  1.815890e+00    1.178659e+00   1.389599e-02
  1.818100e+00    9.563423e-01   1.250144e-02
  1.820311e+00    8.955784e-01   1.208292e-02
  1.822521e+00    9.030889e-01   1.211853e-02
  1.824732e+00    9.087049e-01   1.214118e-02
  1.826942e+00    9.265523e-01   1.224724e-02
  1.829153e+00    9.013121e-01   1.206748e-02
  1.831363e+00    9.071804e-01   1.209450e-02
  1.833574e+00    8.994652e-01   1.203118e-02
  1.835784e+00    8.801197e-01   1.188966e-02
  1.837994e+00    8.720868e-01   1.182358e-02
  1.840205e+00    8.895063e-01   1.192982e-02
  1.842415e+00    8.683857e-01   1.177562e-02
  1.844626e+00    8.592788e-01   1.170220e-02
  1.846836e+00    8.709658e-01   1.177008e-02
  1.849047e+00    8.685646e-01   1.174222e-02
  1.851257e+00    8.608764e-01   1.168057e-02
  1.853468e+00    8.554670e-01   1.163505e-02
  1.855678e+00    8.623981e-01   1.167319e-02
  1.857889e+00    8.603748e-01   1.165100e-02
  1.860099e+00    8.434722e-01   1.152742e-02
  1.862309e+00    8.461788e-01   1.153743e-02
  1.864520e+00    8.351530e-01   1.145356e-02
  1.866730e+00    8.441149e-01   1.150550e-02
  1.868941e+00    8.479668e-01   1.152082e-02
  1.871151e+00    8.640512e-01   1.161809e-02
  1.873362e+00    8.386640e-01   1.143489e-02
  1.875572e+00    8.539681e-01   1.152777e-02
  1.877783e+00    8.397176e-01   1.141982e-02
  1.879993e+00    8.284125e-01   1.133164e-02
  1.882204e+00    8.336403e-01   1.135652e-02
  1.884414e+00    8.439340e-01   1.141534e-02
  1.886624e+00    8.388890e-01   1.137015e-02
  1.888835e+00    8.379254e-01   1.135264e-02
  1.891045e+00    8.655456e-01   1.152719e-02
  1.893256e+00    8.435985e-01   1.136901e-02
  1.895466e+00    8.398206e-01   1.133231e-02
  1.897677e+00    8.383958e-01   1.131178e-02
  1.899887e+00    8.106356e-01   1.111208e-02
  1.902098e+00    8.254437e-01   1.120233e-02
  1.904308e+00    8.037480e-01   1.104370e-02
  1.906519e+00    8.400266e-01   1.127929e-02
  1.908729e+00    8.321912e-01   1.121595e-02
  1.910940e+00    8.342800e-01   1.121883e-02
  1.913150e+00    8.121225e-01   1.105835e-02
  1.915360e+00    8.208165e-01   1.110679e-02
  1.917571e+00    8.171003e-01   1.107079e-02
  1.919781e+00    8.166701e-01   1.105721e-02
  1.921992e+00    8.134949e-01   1.102513e-02
  1.924202e+00    8.007184e-01   1.092755e-02
  1.926413e+00    8.086975e-01   1.097161e-02
  1.928623e+00    8.230568e-01   1.105797e-02
  1.930834e+00    8.148304e-01   1.099216e-02
  1.933044e+00    8.127803e-01   1.096764e-02
  1.935255e+00    7.909066e-01   1.080884e-02
  1.937465e+00    8.140033e-01   1.095509e-02
  1.939675e+00    7.920783e-01   1.079581e-02
  1.941886e+00    7.973544e-01   1.082146e-02
  1.944096e+00    8.046150e-01   1.086043e-02
  1.946307e+00    8.122912e-01   1.090171e-02
  1.948517e+00    8.046256e-01   1.083968e-02
  1.950728e+00    8.004186e-01   1.080103e-02
  1.952938e+00    8.081439e-01   1.084288e-02
  1.955149e+00    7.930179e-01   1.073072e-02
  1.957359e+00    7.950931e-01   1.073472e-02
  1.959570e+00    7.922234e-01   1.070446e-02
  1.961780e+00    8.041173e-01   1.077455e-02
  1.963990e+00    7.871758e-01   1.065035e-02
  1.966201e+00    7.818755e-01   1.060443e-02
  1.968411e+00    7.832214e-01   1.060343e-02
  1.970622e+00    7.905475e-01   1.064281e-02
  1.972832e+00    7.860706e-01   1.060267e-02
  1.975043e+00    7.876647e-01   1.060336e-02
  1.977253e+00    7.833261e-01   1.056418e-02
  1.979464e+00    7.697508e-01   1.046229e-02
  1.981674e+00    7.831051e-01   1.054238e-02
  1.983885e+00    7.734387e-01   1.046717e-02
  1.986095e+00    7.700871e-01   1.043480e-02
  1.988305e+00    7.809510e-01   1.049825e-02
  1.990516e+00    8.018155e-01   1.062750e-02
  1.992726e+00    7.951046e-01   1.057317e-02
  1.994937e+00    7.975783e-01   1.057932e-02
  1.997147e+00    7.837914e-01   1.047774e-02
  1.999358e+00    7.662423e-01   1.034996e-02
  2.001568e+00    7.551185e-01   1.026387e-02
  2.003779e+00    7.806725e-01   1.042410e-02
  2.005989e+00    8.055497e-01   1.057664e-02
  2.008200e+00    7.838786e-01   1.042176e-02
  2.010410e+00    7.957343e-01   1.048832e-02
  2.012621e+00    7.882389e-01   1.042697e-02
  2.014831e+00    7.683502e-01   1.028309e-02
  2.017041e+00    7.679039e-01   1.026972e-02
  2.019252e+00    7.751021e-01   1.030771e-02
  2.021462e+00    7.601964e-01   1.019866e-02
  2.023673e+00    7.755123e-01   1.029141e-02
  2.025883e+00    7.697737e-01   1.024370e-02
  2.028094e+00    7.905026e-01   1.037089e-02
  2.030304e+00    7.817171e-01   1.030346e-02
  2.032515e+00    7.526089e-01   1.010055e-02
  2.034725e+00    7.567080e-01   1.011859e-02
  2.036936e+00    7.811887e-01   1.027148e-02
  2.039146e+00    7.678521e-01   1.017380e-02
  2.041356e+00    7.624945e-01   1.012855e-02
  2.043567e+00    7.615563e-01   1.011298e-02
  2.045777e+00    7.472448e-01   1.000831e-02
  2.047988e+00    7.647539e-01   1.011545e-02
  2.050198e+00    7.599158e-01   1.007494e-02
  2.052409e+00    7.555764e-01   1.003846e-02
  2.054619e+00    7.626815e-01   1.007812e-02
  2.056830e+00    7.602853e-01   1.005507e-02
  2.059040e+00    7.582434e-01   1.003398e-02
  2.061251e+00    7.869060e-01   1.021446e-02
  2.063461e+00    7.836056e-01   1.018526e-02
  2.065671e+00    7.820006e-01   1.016591e-02
  2.067882e+00    7.836107e-01   1.016715e-02
  2.070092e+00    7.787724e-01   1.012634e-02
  2.072303e+00    7.503431e-01   9.930626e-03
  2.074513e+00    7.491972e-01   9.913689e-03
  2.076724e+00    7.452600e-01   9.878133e-03
  2.078934e+00    7.587829e-01   9.958252e-03
  2.081145e+00    7.454385e-01   9.861216e-03
  2.083355e+00    7.300885e-01   9.750046e-03
  2.085566e+00    7.460021e-01   9.846787e-03
  2.087776e+00    7.575451e-01   9.913058e-03
  2.089986e+00    7.462965e-01   9.830362e-03
  2.092197e+00    7.565903e-01   9.888839e-03
  2.094407e+00    7.419459e-01   9.783423e-03
  2.096618e+00    7.416296e-01   9.772381e-03
  2.098828e+00    7.472085e-01   9.799693e-03
  2.101039e+00    7.538306e-01   9.833894e-03
  2.103249e+00    7.684823e-01   9.920141e-03
  2.105460e+00    7.352375e-01   9.694144e-03
  2.107670e+00    7.403778e-01   9.719156e-03
  2.109881e+00    7.359943e-01   9.681129e-03
  2.112091e+00    7.340782e-01   9.659483e-03
  2.114301e+00    7.204363e-01   9.560545e-03
  2.116512e+00    7.312003e-01   9.622863e-03
  2.118722e+00    7.155908e-01   9.510799e-03
  2.120933e+00    7.268848e-01   9.576670e-03
  2.123143e+00    7.292539e-01   9.583278e-03
  2.125354e+00    7.245731e-01   9.543928e-03
  2.127564e+00    7.243471e-01   9.533631e-03
  2.129775e+00    7.407919e-01   9.632391e-03
  2.131985e+00    7.207725e-01   9.492238e-03
  2.134196e+00    7.019100e-01   9.358696e-03
  2.136406e+00    7.047061e-01   9.368612e-03
  2.138617e+00    7.211809e-01   9.468958e-03
  2.140827e+00    7.055395e-01   9.381765e-03
  2.143037e+00    7.003900e-01   9.392700e-03
  2.145248e+00    6.930374e-01   9.365078e-03
  2.147458e+00    6.965246e-01   9.403669e-03
  2.149669e+00    6.814870e-01   9.313263e-03
  2.151879e+00    6.940696e-01   9.408020e-03
  2.154090e+00    6.874594e-01   9.370358e-03
  2.156300e+00    6.874126e-01   9.376581e-03
  2.158511e+00    6.968260e-01   9.445853e-03
  2.160721e+00    6.902481e-01   9.405954e-03
  2.162932e+00    6.973965e-01   9.458271e-03
  2.165142e+00    6.950831e-01   9.445591e-03
  2.167352e+00    6.982012e-01   9.469677e-03
  2.169563e+00    6.906688e-01   9.420384e-03
  2.171773e+00    7.064786e-01   9.530080e-03
  2.173984e+00    6.936198e-01   9.444362e-03
  2.176194e+00    6.994576e-01   9.485223e-03
  2.178405e+00    7.047412e-01   9.521690e-03
  2.180615e+00    6.826373e-01   9.371865e-03
  2.182826e+00    6.815776e-01   9.365256e-03
  2.185036e+00    6.822069e-01   9.369614e-03
  2.187247e+00    6.934277e-01   9.446322e-03
  2.189457e+00    6.699122e-01   9.284364e-03
  2.191667e+00    6.886730e-01   9.413281e-03
  2.193878e+00    6.828952e-01   9.373167e-03
  2.196088e+00    6.751879e-01   9.319428e-03
  2.198299e+00    6.863870e-01   9.395307e-03
  2.200509e+00    6.831935e-01   9.372377e-03
  2.202720e+00    6.934653e-01   9.441408e-03
  2.204930e+00    6.753122e-01   9.315780e-03
  2.207141e+00    6.825083e-01   9.364150e-03
  2.209351e+00    7.109486e-01   9.555347e-03
  2.211562e+00    6.943043e-01   9.441210e-03
  2.213772e+00    6.867843e-01   9.334037e-03
  2.215982e+00    6.747761e-01   9.207913e-03
  2.218193e+00    6.772944e-01   9.195399e-03
  2.220403e+00    6.750576e-01   9.155630e-03
  2.222614e+00    6.763774e-01   9.143567e-03
  2.224824e+00    6.918151e-01   9.227687e-03
  2.227035e+00    6.745837e-01   9.094588e-03
  2.229245e+00    6.627386e-01   8.997520e-03
  2.231456e+00    6.832111e-01   9.119683e-03
  2.233666e+00    6.718618e-01   9.028518e-03
  2.235877e+00    6.782812e-01   9.057187e-03
  2.238087e+00    6.721488e-01   9.002659e-03
  2.240298e+00    6.800526e-01   9.041550e-03
  2.242508e+00    6.669546e-01   8.938969e-03
  2.244718e+00    6.668665e-01   8.922568e-03
  2.246929e+00    6.626080e-01   8.879686e-03
  2.249139e+00    6.677939e-01   8.901978e-03
  2.251350e+00    6.658713e-01   8.877452e-03
  2.253560e+00    6.822233e-01   8.974097e-03
  2.255771e+00    6.778647e-01   8.933874e-03
  2.257981e+00    6.621168e-01   8.818349e-03
  2.260192e+00    6.637944e-01   8.818390e-03
  2.262402e+00    6.547710e-01   8.747478e-03
  2.264613e+00    6.602811e-01   8.773405e-03
  2.266823e+00    6.537837e-01   8.719807e-03
  2.269033e+00    6.539421e-01   8.710542e-03
  2.271244e+00    6.526927e-01   8.691922e-03
  2.273454e+00    6.554124e-01   8.699782e-03
  2.275665e+00    6.562845e-01   8.695329e-03
  2.277875e+00    6.330756e-01   8.530476e-03
  2.280086e+00    6.387615e-01   8.558799e-03
  2.282296e+00    6.457391e-01   8.596133e-03
  2.284507e+00    6.363859e-01   8.523684e-03
  2.286717e+00    6.534882e-01   8.628017e-03
  2.288928e+00    6.543481e-01   8.623858e-03
  2.291138e+00    6.621442e-01   8.665602e-03
  2.293348e+00    6.697620e-01   8.705687e-03
  2.295559e+00    6.386731e-01   8.492040e-03
  2.297769e+00    6.470432e-01   8.538297e-03
  2.299980e+00    6.603463e-01   8.616243e-03
  2.302190e+00    6.520104e-01   8.552581e-03
  2.304401e+00    6.474038e-01   8.513019e-03
  2.306611e+00    6.394415e-01   8.451401e-03
  2.308822e+00    6.413277e-01   8.455529e-03
  2.311032e+00    6.504743e-01   8.509167e-03
  2.313243e+00    6.446111e-01   8.464480e-03
  2.315453e+00    6.529679e-01   8.511567e-03
  2.317663e+00    6.635250e-01   8.570881e-03
  2.319874e+00    6.539118e-01   8.499777e-03
  2.322084e+00    6.535730e-01   8.488553e-03
  2.324295e+00    6.433482e-01   8.413701e-03
  2.326505e+00    6.325564e-01   8.333839e-03
  2.328716e+00    6.484329e-01   8.429199e-03
  2.330926e+00    6.456723e-01   8.402432e-03
  2.333137e+00    6.465700e-01   8.399851e-03
  2.335347e+00    6.545854e-01   8.442818e-03
  2.337558e+00    6.432024e-01   8.360824e-03
  2.339768e+00    6.476915e-01   8.381335e-03
  2.341979e+00    6.338575e-01   8.283006e-03
  2.344189e+00    6.342506e-01   8.277193e-03
  2.346399e+00    6.387582e-01   8.298046e-03
  2.348610e+00    6.505828e-01   8.365949e-03
  2.350820e+00    6.414970e-01   8.299103e-03
  2.353031e+00    6.281078e-01   8.203792e-03
  2.355241e+00    6.248385e-01   8.174409e-03
  2.357452e+00    6.336789e-01   8.223606e-03
  2.359662e+00    6.323072e-01   8.206463e-03
  2.361873e+00    6.312144e-01   8.191143e-03
  2.364083e+00    6.489506e-01   8.297304e-03
  2.366294e+00    6.246716e-01   8.132540e-03
  2.368504e+00    6.225767e-01   8.110827e-03
  2.370714e+00    6.209464e-01   8.092178e-03
  2.372925e+00    6.159161e-01   8.051342e-03
  2.375135e+00    6.234106e-01   8.092130e-03
  2.377346e+00    6.093787e-01   7.992680e-03
  2.379556e+00    6.122802e-01   8.003873e-03
  2.381767e+00    6.155583e-01   8.017411e-03
  2.383977e+00    6.334761e-01   8.125277e-03
  2.386188e+00    6.167002e-01   8.009061e-03
  2.388398e+00    6.074585e-01   7.940941e-03
  2.390609e+00    6.156777e-01   7.986752e-03
  2.392819e+00    6.143736e-01   7.970543e-03
  2.395029e+00    6.121398e-01   7.948396e-03
  2.397240e+00    5.938716e-01   7.821174e-03
  2.399450e+00    5.992772e-01   7.848942e-03
  2.401661e+00    6.093193e-01   7.906788e-03
  2.403871e+00    6.091810e-01   7.898135e-03
  2.406082e+00    6.109213e-01   7.901980e-03
  2.408292e+00    5.980231e-01   7.810397e-03
  2.410503e+00    6.177040e-01   7.930316e-03
  2.412713e+00    6.103749e-01   7.875338e-03
  2.414924e+00    5.963231e-01   7.776716e-03
  2.417134e+00    6.040928e-01   7.819581e-03
  2.419344e+00    6.032925e-01   7.807009e-03
  2.421555e+00    5.878315e-01   7.698890e-03
  2.423765e+00    5.969336e-01   7.750882e-03
  2.425976e+00    6.050565e-01   7.795590e-03
  2.428186e+00    6.021968e-01   7.769933e-03
  2.430397e+00    5.742811e-01   7.580362e-03
  2.432607e+00    5.817991e-01   7.622608e-03
  2.434818e+00    5.975092e-01   7.717276e-03
  2.437028e+00    6.025565e-01   7.742628e-03
  2.439239e+00    5.918223e-01   7.665699e-03
  2.441449e+00    5.936208e-01   7.670136e-03
  2.443659e+00    5.883117e-01   7.628420e-03
  2.445870e+00    5.872828e-01   7.633975e-03
  2.448080e+00    5.830746e-01   7.641390e-03
  2.450291e+00    5.779687e-01   7.624459e-03
  2.452501e+00    5.749568e-01   7.615731e-03
  2.454712e+00    5.742007e-01   7.619158e-03
  2.456922e+00    5.717002e-01   7.609169e-03
  2.459133e+00    5.627135e-01   7.554538e-03
  2.461343e+00    5.545288e-01   7.503702e-03
  2.463554e+00    5.661746e-01   7.585555e-03
  2.465764e+00    5.625114e-01   7.564113e-03
  2.467975e+00    5.806410e-01   7.687366e-03
  2.470185e+00    5.595105e-01   7.548459e-03
  2.472395e+00    5.681903e-01   7.608003e-03
  2.474606e+00    5.700786e-01   7.622237e-03
  2.476816e+00    5.689132e-01   7.615182e-03
  2.479027e+00    5.518138e-01   7.500723e-03
  2.481237e+00    5.502192e-01   7.490153e-03
  2.483448e+00    5.473393e-01   7.470817e-03
  2.485658e+00    5.517734e-01   7.500886e-03
  2.487869e+00    5.472991e-01   7.470450e-03
  2.490079e+00    5.297717e-01   7.349331e-03
  2.492290e+00    5.432686e-01   7.441932e-03
  2.494500e+00    5.529501e-01   7.507201e-03
  2.496710e+00    5.440719e-01   7.446005e-03
  2.498921e+00    5.331411e-01   7.369828e-03
  2.501131e+00    5.257857e-01   7.317876e-03
  2.503342e+00    5.313149e-01   7.354979e-03
  2.505552e+00    5.326643e-01   7.363191e-03
  2.507763e+00    5.173988e-01   7.255509e-03
  2.509973e+00    5.251567e-01   7.308314e-03
  2.512184e+00    5.282524e-01   7.328199e-03
  2.514394e+00    5.223648e-01   7.277954e-03
  2.516605e+00    5.248463e-01   7.248191e-03
  2.518815e+00    5.311388e-01   7.263076e-03
  2.521025e+00    5.209695e-01   7.172329e-03
  2.523236e+00    5.391286e-01   7.278046e-03
  2.525446e+00    5.261946e-01   7.174601e-03
  2.527657e+00    5.402462e-01   7.254953e-03
  2.529867e+00    5.291927e-01   7.166119e-03
  2.532078e+00    5.373725e-01   7.206071e-03
  2.534288e+00    5.372756e-01   7.191374e-03
  2.536499e+00    5.359423e-01   7.170387e-03
  2.538709e+00    5.395058e-01   7.183018e-03
  2.540920e+00    5.301551e-01   7.109813e-03
  2.543130e+00    5.149310e-01   6.996695e-03
  2.545340e+00    5.226626e-01   7.038984e-03
  2.547551e+00    5.247018e-01   7.042723e-03
  2.549761e+00    5.288170e-01   7.060663e-03
  2.551972e+00    5.143600e-01   6.954191e-03
  2.554182e+00    5.326141e-01   7.067219e-03
  2.556393e+00    5.365570e-01   7.084127e-03
  2.558603e+00    5.273616e-01   7.014025e-03
  2.560814e+00    5.271912e-01   7.004116e-03
  2.563024e+00    5.164889e-01   6.924120e-03
  2.565235e+00    5.022723e-01   6.818803e-03
  2.567445e+00    5.040419e-01   6.821372e-03
  2.569656e+00    5.160889e-01   6.892689e-03
  2.571866e+00    5.179161e-01   6.895520e-03
  2.574076e+00    5.152528e-01   6.868520e-03
  2.576287e+00    5.117672e-01   6.836964e-03
  2.578497e+00    5.224800e-01   6.900230e-03
  2.580708e+00    5.266079e-01   6.919295e-03
  2.582918e+00    5.129822e-01   6.821443e-03
  2.585129e+00    5.130807e-01   6.814334e-03
  2.587339e+00    5.202149e-01   6.853830e-03
  2.589550e+00    5.086787e-01   6.769900e-03
  2.591760e+00    5.098005e-01   6.769629e-03
  2.593971e+00    5.049484e-01   6.729868e-03
  2.596181e+00    5.066189e-01   6.734781e-03
  2.598391e+00    5.277566e-01   6.868582e-03
  2.600602e+00    5.097097e-01   6.744221e-03
  2.602812e+00    5.106839e-01   6.743105e-03
  2.605023e+00    4.990671e-01   6.658862e-03
  2.607233e+00    5.151973e-01   6.758437e-03
  2.609444e+00    5.122309e-01   6.731681e-03
  2.611654e+00    5.014083e-01   6.652918e-03
  2.613865e+00    5.011284e-01   6.644048e-03
  2.616075e+00    4.904081e-01   6.565584e-03
  2.618286e+00    5.009486e-01   6.628775e-03
  2.620496e+00    5.161638e-01   6.721940e-03
  2.622706e+00    5.208733e-01   6.746697e-03
  2.624917e+00    5.022287e-01   6.619023e-03
  2.627127e+00    4.913405e-01   6.541216e-03
  2.629338e+00    4.945696e-01   6.556734e-03
  2.631548e+00    4.976418e-01   6.570945e-03
  2.633759e+00    4.985119e-01   6.569555e-03
  2.635969e+00    4.969279e-01   6.552469e-03
  2.638180e+00    4.955883e-01   6.536681e-03
  2.640390e+00    4.970319e-01   6.539617e-03
  2.642601e+00    4.966450e-01   6.530440e-03
  2.644811e+00    4.968747e-01   6.524893e-03
  2.647021e+00    5.046362e-01   6.569064e-03
  2.649232e+00    5.074745e-01   6.580736e-03
  2.651442e+00    5.072814e-01   6.572940e-03
  2.653653e+00    5.089170e-01   6.576657e-03
  2.655863e+00    5.158340e-01   6.614401e-03
  2.658074e+00    5.027744e-01   6.523499e-03
  2.660284e+00    5.038125e-01   6.523837e-03
  2.662495e+00    4.994870e-01   6.488994e-03
  2.664705e+00    5.046929e-01   6.516108e-03
  2.666916e+00    4.999578e-01   6.478981e-03
  2.669126e+00    4.867523e-01   6.386457e-03
  2.671337e+00    4.974895e-01   6.449882e-03
  2.673547e+00    5.033371e-01   6.481281e-03
  2.675757e+00    5.012189e-01   6.461123e-03
  2.677968e+00    4.971635e-01   6.428396e-03
  2.680178e+00    4.878586e-01   6.361581e-03
  2.682389e+00    4.964209e-01   6.410758e-03
  2.684599e+00    4.824633e-01   6.313867e-03
  2.686810e+00    4.992973e-01   6.416407e-03
  2.689020e+00    4.929321e-01   6.369104e-03
  2.691231e+00    4.877074e-01   6.328976e-03
  2.693441e+00    4.890870e-01   6.331782e-03
  2.695652e+00    4.879429e-01   6.317884e-03
  2.697862e+00    4.863537e-01   6.301254e-03
  2.700072e+00    4.897444e-01   6.317107e-03
  2.702283e+00    4.884819e-01   6.302749e-03
  2.704493e+00    4.914369e-01   6.315479e-03
  2.706704e+00    4.826337e-01   6.252293e-03
  2.708914e+00    4.863669e-01   6.270470e-03
  2.711125e+00    4.861670e-01   6.262940e-03
  2.713335e+00    4.882837e-01   6.270471e-03
  2.715546e+00    4.848577e-01   6.241984e-03
  2.717756e+00    4.905407e-01   6.272543e-03
  2.719967e+00    4.909689e-01   6.269057e-03
  2.722177e+00    4.755372e-01   6.163671e-03
  2.724387e+00    4.846522e-01   6.216358e-03
  2.726598e+00    4.880134e-01   6.231803e-03
  2.728808e+00    4.879849e-01   6.225468e-03
  2.731019e+00    4.717682e-01   6.115104e-03
  2.733229e+00    4.784807e-01   6.152675e-03
  2.735440e+00    4.832088e-01   6.176746e-03
  2.737650e+00    4.852774e-01   6.183919e-03
  2.739861e+00    4.885722e-01   6.198778e-03
  2.742071e+00    4.846928e-01   6.168362e-03
  2.744282e+00    4.960950e-01   6.234161e-03
  2.746492e+00    4.923183e-01   6.204304e-03
  2.748702e+00    4.679019e-01   6.042670e-03
  2.750913e+00    4.692777e-01   6.045830e-03
  2.753123e+00    4.771063e-01   6.089952e-03
  2.755334e+00    4.713547e-01   6.047126e-03
  2.757544e+00    4.869708e-01   6.140699e-03
  2.759755e+00    4.919274e-01   6.165922e-03
  2.761965e+00    4.713368e-01   6.029586e-03
  2.764176e+00    4.839446e-01   6.103654e-03
  2.766386e+00    4.822255e-01   6.087026e-03
  2.768597e+00    4.781366e-01   6.055305e-03
  2.770807e+00    4.731380e-01   6.017729e-03
  2.773017e+00    4.852234e-01   6.088083e-03
  2.775228e+00    4.788650e-01   6.042277e-03
  2.777438e+00    4.904901e-01   6.109311e-03
  2.779649e+00    4.873623e-01   6.083842e-03
  2.781859e+00    4.851869e-01   6.064453e-03
  2.784070e+00    4.756083e-01   5.998433e-03
  2.786280e+00    4.868699e-01   6.063199e-03
  2.788491e+00    4.843892e-01   6.041869e-03
  2.790701e+00    4.807222e-01   6.013275e-03
  2.792912e+00    4.913611e-01   6.073394e-03
  2.795122e+00    4.826190e-01   6.013350e-03
  2.797333e+00    4.915781e-01   6.063264e-03
  2.799543e+00    4.698863e-01   5.922152e-03
  2.801753e+00    4.803043e-01   5.981540e-03
  2.803964e+00    4.697984e-01   5.910151e-03
  2.806174e+00    4.739556e-01   5.930081e-03
  2.808385e+00    4.834802e-01   5.982522e-03
  2.810595e+00    4.770445e-01   5.935701e-03
  2.812806e+00    4.703581e-01   5.887371e-03
  2.815016e+00    4.675584e-01   5.865090e-03
  2.817227e+00    4.831041e-01   5.987980e-03
  2.819437e+00    4.902687e-01   6.043500e-03
  2.821648e+00    4.754721e-01   5.953911e-03
  2.823858e+00    4.681065e-01   5.912900e-03
  2.826068e+00    4.827389e-01   6.009636e-03
  2.828279e+00    4.853129e-01   6.029740e-03
  2.830489e+00    4.689901e-01   5.930803e-03
  2.832700e+00    4.772848e-01   5.985580e-03
  2.834910e+00    4.635309e-01   5.900747e-03
  2.837121e+00    4.792866e-01   6.001929e-03
  2.839331e+00    4.769991e-01   5.988826e-03
  2.841542e+00    4.668067e-01   5.925512e-03
  2.843752e+00    4.748452e-01   5.977090e-03
  2.845963e+00    4.656280e-01   5.919209e-03
  2.848173e+00    4.740284e-01   5.972435e-03
  2.850383e+00    4.870690e-01   6.054330e-03
  2.852594e+00    4.694689e-01   5.943873e-03
  2.854804e+00    4.623299e-01   5.897989e-03
  2.857015e+00    4.760253e-01   5.984276e-03
  2.859225e+00    4.737273e-01   5.969561e-03
  2.861436e+00    4.733604e-01   5.966599e-03
  2.863646e+00    4.624475e-01   5.897449e-03
  2.865857e+00    4.617582e-01   5.893401e-03
  2.868067e+00    4.602484e-01   5.883969e-03
  2.870278e+00    4.580619e-01   5.869624e-03
  2.872488e+00    4.709379e-01   5.950372e-03
  2.874698e+00    4.757078e-01   5.979391e-03
  2.876909e+00    4.669121e-01   5.922514e-03
  2.879119e+00    4.718149e-01   5.951892e-03
  2.881330e+00    4.546604e-01   5.841238e-03
  2.883540e+00    4.587232e-01   5.865876e-03
  2.885751e+00    4.490524e-01   5.802118e-03
  2.887961e+00    4.497649e-01   5.804835e-03
  2.890172e+00    4.538492e-01   5.829564e-03
  2.892382e+00    4.563815e-01   5.843972e-03
  2.894593e+00    4.673541e-01   5.912011e-03
  2.896803e+00    4.788862e-01   5.982478e-03
  2.899014e+00    4.650039e-01   5.893211e-03
  2.901224e+00    4.638897e-01   5.884150e-03
  2.903434e+00    4.572525e-01   5.839954e-03
  2.905645e+00    4.539855e-01   5.816851e-03
  2.907855e+00    4.538633e-01   5.813980e-03
  2.910066e+00    4.482732e-01   5.776010e-03
  2.912276e+00    4.585718e-01   5.839869e-03
  2.914487e+00    4.555658e-01   5.818231e-03
  2.916697e+00    4.573090e-01   5.827154e-03
  2.918908e+00    4.495159e-01   5.775284e-03
  2.921118e+00    4.669168e-01   5.883290e-03
  2.923329e+00    4.642295e-01   5.864013e-03
  2.925539e+00    4.641634e-01   5.861287e-03
  2.927749e+00    4.587579e-01   5.824756e-03
  2.929960e+00    4.433999e-01   5.723690e-03
  2.932170e+00    4.470377e-01   5.744810e-03
  2.934381e+00    4.588735e-01   5.817913e-03
  2.936591e+00    4.622621e-01   5.836768e-03
  2.938802e+00    4.508294e-01   5.761452e-03
  2.941012e+00    4.428383e-01   5.707841e-03
  2.943223e+00    4.655703e-01   5.849779e-03
  2.945433e+00    4.698437e-01   5.872795e-03
  2.947644e+00    4.695598e-01   5.866804e-03
  2.949854e+00    4.684420e-01   5.855501e-03
  2.952064e+00    4.593773e-01   5.794322e-03
  2.954275e+00    4.637467e-01   5.817350e-03
  2.956485e+00    4.830028e-01   5.932589e-03
  2.958696e+00    4.683948e-01   5.837776e-03
  2.960906e+00    4.674660e-01   5.827712e-03
  2.963117e+00    4.617110e-01   5.787231e-03
  2.965327e+00    4.602073e-01   5.773849e-03
  2.967538e+00    4.688291e-01   5.824754e-03
  2.969748e+00    4.529789e-01   5.722615e-03
  2.971959e+00    4.511013e-01   5.707634e-03
  2.974169e+00    4.535474e-01   5.720472e-03
  2.976379e+00    4.706798e-01   5.824573e-03
  2.978590e+00    4.594193e-01   5.751311e-03
  2.980800e+00    4.621561e-01   5.765618e-03
  2.983011e+00    4.428604e-01   5.641188e-03
  2.985221e+00    4.478235e-01   5.669588e-03
  2.987432e+00    4.496596e-01   5.678080e-03
  2.989642e+00    4.627731e-01   5.757655e-03
  2.991853e+00    4.582784e-01   5.726331e-03
  2.994063e+00    4.516530e-01   5.681873e-03
  2.996274e+00    4.482954e-01   5.657562e-03
  2.998484e+00    4.562704e-01   5.704951e-03
  3.000694e+00    4.605608e-01   5.728226e-03
  3.002905e+00    4.552252e-01   5.692018e-03
  3.005115e+00    4.615384e-01   5.728324e-03
  3.007326e+00    4.747375e-01   5.806443e-03
  3.009536e+00    4.538939e-01   5.674292e-03
  3.011747e+00    4.626436e-01   5.725765e-03
  3.013957e+00    4.653770e-01   5.739449e-03
  3.016168e+00    4.614804e-01   5.712072e-03
  3.018378e+00    4.597451e-01   5.698254e-03
  3.020589e+00    4.590558e-01   5.690748e-03
  3.022799e+00    4.599354e-01   5.693017e-03
  3.025010e+00    4.649903e-01   5.720921e-03
  3.027220e+00    4.535012e-01   5.646697e-03
  3.029430e+00    4.620923e-01   5.696642e-03
  3.031641e+00    4.528338e-01   5.636147e-03
  3.033851e+00    4.694751e-01   5.735194e-03
  3.036062e+00    4.550689e-01   5.643720e-03
  3.038272e+00    4.619165e-01   5.682407e-03
  3.040483e+00    4.497485e-01   5.603851e-03
  3.042693e+00    4.569761e-01   5.645401e-03
  3.044904e+00    4.684802e-01   5.711928e-03
  3.047114e+00    4.552023e-01   5.625581e-03
  3.049325e+00    4.478995e-01   5.575881e-03
  3.051535e+00    4.600109e-01   5.646323e-03
  3.053745e+00    4.611932e-01   5.648776e-03
  3.055956e+00    4.500754e-01   5.575715e-03
  3.058166e+00    4.511862e-01   5.578315e-03
  3.060377e+00    4.592721e-01   5.623250e-03
  3.062587e+00    4.571300e-01   5.605482e-03
  3.064798e+00    4.572104e-01   5.601667e-03
  3.067008e+00    4.505407e-01   5.555924e-03
  3.069219e+00    4.623353e-01   5.623613e-03
  3.071429e+00    4.778475e-01   5.713540e-03
  3.073640e+00    4.684755e-01   5.653852e-03
  3.075850e+00    4.573344e-01   5.582593e-03
  3.078060e+00    4.565803e-01   5.574867e-03
  3.080271e+00    4.513743e-01   5.539497e-03
  3.082481e+00    4.554740e-01   5.561125e-03
  3.084692e+00    4.518878e-01   5.535798e-03
  3.086902e+00    4.543282e-01   5.547474e-03
  3.089113e+00    4.420663e-01   5.468539e-03
  3.091323e+00    4.586096e-01   5.566509e-03
  3.093534e+00    4.582904e-01   5.561149e-03
  3.095744e+00    4.495825e-01   5.504716e-03
  3.097955e+00    4.640695e-01   5.589055e-03
  3.100165e+00    4.532917e-01   5.520435e-03
  3.102375e+00    4.501173e-01   5.497639e-03
  3.104586e+00    4.512843e-01   5.501238e-03
  3.106796e+00    4.486667e-01   5.481756e-03
  3.109007e+00    4.472697e-01   5.469972e-03
  3.111217e+00    4.597759e-01   5.542162e-03
  3.113428e+00    4.507711e-01   5.484211e-03
  3.115638e+00    4.434600e-01   5.436316e-03
  3.117849e+00    4.446461e-01   5.439856e-03
  3.120059e+00    4.509954e-01   5.475089e-03
  3.122270e+00    4.459119e-01   5.440867e-03
  3.124480e+00    4.536537e-01   5.484174e-03
  3.126691e+00    4.544442e-01   5.485357e-03
  3.128901e+00    4.502319e-01   5.456731e-03
  3.131111e+00    4.380092e-01   5.378343e-03
  3.133322e+00    4.420446e-01   5.399609e-03
  3.135532e+00    4.725029e-01   5.579029e-03
  3.137743e+00    4.562590e-01   5.478786e-03
  3.139953e+00    4.431057e-01   5.395531e-03
  3.142164e+00    4.563760e-01   5.487940e-03
  3.144374e+00    4.467811e-01   5.458489e-03
  3.146585e+00    4.410232e-01   5.437745e-03
  3.148795e+00    4.541383e-01   5.528904e-03
  3.151006e+00    4.621929e-01   5.586479e-03
  3.153216e+00    4.395313e-01   5.454936e-03
  3.155426e+00    4.403493e-01   5.466283e-03
  3.157637e+00    4.442006e-01   5.495707e-03
  3.159847e+00    4.424919e-01   5.489982e-03
  3.162058e+00    4.470207e-01   5.522498e-03
  3.164268e+00    4.425608e-01   5.498949e-03
  3.166479e+00    4.343135e-01   5.451092e-03
  3.168689e+00    4.389467e-01   5.483458e-03
  3.170900e+00    4.406191e-01   5.497071e-03
  3.173110e+00    4.383477e-01   5.485753e-03
  3.175321e+00    4.498406e-01   5.559724e-03
  3.177531e+00    4.521189e-01   5.576590e-03
  3.179741e+00    4.224957e-01   5.392839e-03
  3.181952e+00    4.199445e-01   5.378578e-03
  3.184162e+00    4.265518e-01   5.422893e-03
  3.186373e+00    4.359107e-01   5.483663e-03
  3.188583e+00    4.331011e-01   5.467742e-03
  3.190794e+00    4.394360e-01   5.509336e-03
  3.193004e+00    4.515035e-01   5.585747e-03
  3.195215e+00    4.457966e-01   5.551852e-03
  3.197425e+00    4.469059e-01   5.559974e-03
  3.199636e+00    4.379308e-01   5.503099e-03
  3.201846e+00    4.529072e-01   5.595792e-03
  3.204056e+00    4.299425e-01   5.452971e-03
  3.206267e+00    4.237173e-01   5.414170e-03
  3.208477e+00    4.297706e-01   5.453623e-03
  3.210688e+00    4.426683e-01   5.535713e-03
  3.212898e+00    4.357675e-01   5.492967e-03
  3.215109e+00    4.452878e-01   5.553429e-03
  3.217319e+00    4.316171e-01   5.468128e-03
  3.219530e+00    4.385683e-01   5.512393e-03
  3.221740e+00    4.461032e-01   5.560111e-03
  3.223951e+00    4.339498e-01   5.484331e-03
  3.226161e+00    4.362733e-01   5.499177e-03
  3.228372e+00    4.309115e-01   5.465809e-03
  3.230582e+00    4.317026e-01   5.470972e-03
  3.232792e+00    4.244592e-01   5.425101e-03
  3.235003e+00    4.326138e-01   5.477194e-03
  3.237213e+00    4.369532e-01   5.504721e-03
  3.239424e+00    4.263570e-01   5.437559e-03
  3.241634e+00    4.295243e-01   5.457848e-03
  3.243845e+00    4.184586e-01   5.387145e-03
  3.246055e+00    4.258833e-01   5.434446e-03
  3.248266e+00    4.312322e-01   5.468691e-03
  3.250476e+00    4.266749e-01   5.439399e-03
  3.252687e+00    4.377541e-01   5.509479e-03
  3.254897e+00    4.255078e-01   5.431774e-03
  3.257107e+00    4.225379e-01   5.412471e-03
  3.259318e+00    4.265705e-01   5.437971e-03
  3.261528e+00    4.405700e-01   5.526375e-03
  3.263739e+00    4.291588e-01   5.453761e-03
  3.265949e+00    4.320801e-01   5.472172e-03
  3.268160e+00    4.246030e-01   5.424220e-03
  3.270370e+00    4.160803e-01   5.368969e-03
  3.272581e+00    4.242607e-01   5.421232e-03
  3.274791e+00    4.223588e-01   5.408534e-03
  3.277002e+00    4.287850e-01   5.448961e-03
  3.279212e+00    4.209756e-01   5.398755e-03
  3.281422e+00    4.033220e-01   5.283764e-03
  3.283633e+00    4.219741e-01   5.403854e-03
  3.285843e+00    4.305863e-01   5.458418e-03
  3.288054e+00    4.317960e-01   5.465117e-03
  3.290264e+00    4.281883e-01   5.441934e-03
  3.292475e+00    4.300268e-01   5.452767e-03
  3.294685e+00    4.250300e-01   5.420341e-03
  3.296896e+00    4.187021e-01   5.379105e-03
  3.299106e+00    4.214160e-01   5.395948e-03
  3.301317e+00    4.222391e-01   5.400190e-03
  3.303527e+00    4.253582e-01   5.419633e-03
  3.305737e+00    4.335943e-01   5.470785e-03
  3.307948e+00    4.166470e-01   5.362168e-03
  3.310158e+00    4.077679e-01   5.303870e-03
  3.312369e+00    4.172323e-01   5.364185e-03
  3.314579e+00    4.230696e-01   5.400673e-03
  3.316790e+00    4.249691e-01   5.412079e-03
  3.319000e+00    4.263335e-01   5.419558e-03
  3.321211e+00    4.291460e-01   5.436791e-03
  3.323421e+00    4.465199e-01   5.544527e-03
  3.325632e+00    4.284132e-01   5.430069e-03
  3.327842e+00    4.088763e-01   5.303903e-03
  3.330052e+00    4.107905e-01   5.315218e-03
  3.332263e+00    4.355246e-01   5.471883e-03
  3.334473e+00    4.351874e-01   5.468836e-03
  3.336684e+00    4.321045e-01   5.448148e-03
  3.338894e+00    4.272769e-01   5.416800e-03
  3.341105e+00    4.145795e-01   5.334494e-03
  3.343315e+00    4.239225e-01   5.393118e-03
  3.345526e+00    4.242638e-01   5.394394e-03
  3.347736e+00    4.253033e-01   5.399568e-03
  3.349947e+00    4.198830e-01   5.364142e-03
  3.352157e+00    4.131605e-01   5.319853e-03
  3.354368e+00    4.167458e-01   5.341588e-03
  3.356578e+00    4.232614e-01   5.382150e-03
  3.358788e+00    4.253959e-01   5.394392e-03
  3.360999e+00    4.337617e-01   5.445873e-03
  3.363209e+00    4.252141e-01   5.390961e-03
  3.365420e+00    4.122469e-01   5.306596e-03
  3.367630e+00    4.090339e-01   5.284868e-03
  3.369841e+00    4.229356e-01   5.372512e-03
  3.372051e+00    4.062190e-01   5.263277e-03
  3.374262e+00    4.229092e-01   5.367893e-03
  3.376472e+00    4.043921e-01   5.246638e-03
  3.378683e+00    4.061484e-01   5.255532e-03
  3.380893e+00    4.244229e-01   5.370112e-03
  3.383103e+00    4.322678e-01   5.416759e-03
  3.385314e+00    4.156044e-01   5.309100e-03
  3.387524e+00    4.148221e-01   5.301374e-03
  3.389735e+00    4.128760e-01   5.286308e-03
  3.391945e+00    4.117643e-01   5.275487e-03
  3.394156e+00    4.146162e-01   5.289524e-03
  3.396366e+00    4.046399e-01   5.222111e-03
  3.398577e+00    4.078687e-01   5.239859e-03
  3.400787e+00    4.242923e-01   5.356424e-03
  3.402998e+00    4.105622e-01   5.307157e-03
  3.405208e+00    3.961255e-01   5.233408e-03
  3.407418e+00    4.004973e-01   5.277989e-03
  3.409629e+00    4.071441e-01   5.335672e-03
  3.411839e+00    4.050054e-01   5.333502e-03
  3.414050e+00    3.968370e-01   5.290429e-03
  3.416260e+00    3.912601e-01   5.262745e-03
  3.418471e+00    3.829627e-01   5.215912e-03
  3.420681e+00    3.947701e-01   5.304232e-03
  3.422892e+00    3.809751e-01   5.218641e-03
  3.425102e+00    4.057401e-01   5.393528e-03
  3.427313e+00    3.929855e-01   5.315363e-03
  3.429523e+00    3.820356e-01   5.247771e-03
  3.431733e+00    3.785475e-01   5.230367e-03
  3.433944e+00    3.886378e-01   5.306123e-03
  3.436154e+00    3.986063e-01   5.380126e-03
  3.438365e+00    3.920615e-01   5.341768e-03
  3.440575e+00    3.854650e-01   5.302635e-03
  3.442786e+00    3.757440e-01   5.240893e-03
  3.444996e+00    3.801145e-01   5.276843e-03
  3.447207e+00    3.713763e-01   5.221076e-03
  3.449417e+00    3.763765e-01   5.297195e-03
  3.451628e+00    3.569463e-01   5.187619e-03
  3.453838e+00    3.576187e-01   5.213354e-03
  3.456049e+00    3.734750e-01   5.351802e-03
  3.458259e+00    3.628170e-01   5.296721e-03
  3.460469e+00    3.656770e-01   5.337313e-03
  3.462680e+00    3.671409e-01   5.367052e-03
  3.464890e+00    3.806852e-01   5.483306e-03
  3.467101e+00    3.670344e-01   5.401582e-03
  3.469311e+00    3.684105e-01   5.428175e-03
  3.471522e+00    3.796873e-01   5.527112e-03
  3.473732e+00    4.064304e-01   5.734993e-03
  3.475943e+00    3.828294e-01   5.581704e-03
  3.478153e+00    4.081576e-01   5.779206e-03
  3.480364e+00    4.149266e-01   5.842494e-03
  3.482574e+00    4.234828e-01   5.918141e-03
  3.484784e+00    4.397732e-01   6.046291e-03
  3.486995e+00    4.441932e-01   6.092210e-03
  3.489205e+00    4.353532e-01   6.046149e-03
  3.491416e+00    4.378136e-01   6.078322e-03
  3.493626e+00    4.430922e-01   6.129561e-03
  3.495837e+00    4.521451e-01   6.206820e-03
  3.498047e+00    4.631517e-01   6.296723e-03
  3.500258e+00    4.459397e-01   6.193082e-03
  3.502468e+00    4.467110e-01   6.212736e-03
  3.504679e+00    4.700776e-01   6.387760e-03
  3.506889e+00    4.815577e-01   6.480020e-03
  3.509099e+00    4.789944e-01   6.477188e-03
  3.511310e+00    5.001624e-01   6.633603e-03
  3.513520e+00    4.925451e-01   6.597481e-03
  3.515731e+00    4.936686e-01   6.619477e-03
  3.517941e+00    4.936894e-01   6.634042e-03
  3.520152e+00    5.143332e-01   6.785900e-03
  3.522362e+00    5.241348e-01   6.865080e-03
  3.524573e+00    5.266264e-01   6.895936e-03
  3.526783e+00    5.251233e-01   6.899662e-03
  3.528994e+00    5.307772e-01   6.949073e-03
  3.531204e+00    5.362116e-01   6.997218e-03
  3.533414e+00    5.471364e-01   7.080437e-03
  3.535625e+00    5.334423e-01   7.003737e-03
  3.537835e+00    5.325220e-01   7.009794e-03
  3.540046e+00    5.311840e-01   7.009871e-03
  3.542256e+00    5.300124e-01   7.009636e-03
  3.544467e+00    5.363730e-01   7.059181e-03
  3.546677e+00    5.758774e-01   7.322379e-03
  3.548888e+00    5.360450e-01   7.072112e-03
  3.551098e+00    5.397165e-01   7.103600e-03
  3.553309e+00    5.444326e-01   7.142821e-03
  3.555519e+00    5.372475e-01   7.106811e-03
  3.557729e+00    5.346237e-01   7.101142e-03
  3.559940e+00    5.333297e-01   7.104072e-03
  3.562150e+00    5.293217e-01   7.088960e-03
  3.564361e+00    5.526943e-01   7.257293e-03
  3.566571e+00    5.388297e-01   7.179579e-03
  3.568782e+00    5.544705e-01   7.297372e-03
  3.570992e+00    5.381373e-01   7.202893e-03
  3.573203e+00    5.507385e-01   7.301039e-03
  3.575413e+00    5.657568e-01   7.414092e-03
  3.577624e+00    5.461489e-01   7.298771e-03
  3.579834e+00    5.416370e-01   7.282452e-03
  3.582045e+00    5.504903e-01   7.355992e-03
  3.584255e+00    5.464994e-01   7.343451e-03
  3.586465e+00    5.615164e-01   7.457930e-03
  3.588676e+00    5.461773e-01   7.369692e-03
  3.590886e+00    5.547034e-01   7.440926e-03
  3.593097e+00    5.445166e-01   7.386913e-03
  3.595307e+00    5.394669e-01   7.366547e-03
  3.597518e+00    5.355527e-01   7.354010e-03
  3.599728e+00    5.318597e-01   7.342633e-03
  3.601939e+00    5.469174e-01   7.460068e-03
  3.604149e+00    5.506018e-01   7.499756e-03
  3.606360e+00    5.498353e-01   7.508879e-03
  3.608570e+00    5.511853e-01   7.532446e-03
  3.610780e+00    5.647292e-01   7.635832e-03
  3.612991e+00    5.448139e-01   7.510044e-03
  3.615201e+00    5.470287e-01   7.535215e-03
  3.617412e+00    5.472018e-01   7.543773e-03
  3.619622e+00    5.450454e-01   7.534912e-03
  3.621833e+00    5.519070e-01   7.589000e-03
  3.624043e+00    5.517278e-01   7.597419e-03
  3.626254e+00    5.320022e-01   7.470082e-03
  3.628464e+00    5.399258e-01   7.536508e-03
  3.630675e+00    5.459305e-01   7.592620e-03
  3.632885e+00    5.169390e-01   7.402444e-03
  3.635095e+00    5.321846e-01   7.525201e-03
  3.637306e+00    5.200291e-01   7.452941e-03
  3.639516e+00    5.282635e-01   7.526162e-03
  3.641727e+00    5.360903e-01   7.596342e-03
  3.643937e+00    5.361133e-01   7.611081e-03
  3.646148e+00    5.414530e-01   7.663629e-03
  3.648358e+00    5.256943e-01   7.566037e-03
  3.650569e+00    5.455600e-01   7.722546e-03
  3.652779e+00    5.567840e-01   7.816716e-03
  3.654990e+00    5.378248e-01   7.697456e-03
  3.657200e+00    5.047067e-01   7.471166e-03
  3.659410e+00    5.384319e-01   7.731791e-03
  3.661621e+00    5.417714e-01   7.771007e-03
  3.663831e+00    5.143071e-01   7.586344e-03
  3.666042e+00    5.394463e-01   7.784766e-03
  3.668252e+00    5.352134e-01   7.769516e-03
  3.670463e+00    5.308471e-01   7.752970e-03
  3.672673e+00    5.338313e-01   7.790187e-03
  3.674884e+00    5.422896e-01   7.867215e-03
  3.677094e+00    5.582370e-01   7.998008e-03
  3.679305e+00    5.619317e-01   8.040409e-03
  3.681515e+00    5.514694e-01   7.981193e-03
  3.683726e+00    5.353730e-01   7.879688e-03
  3.685936e+00    5.332419e-01   7.879770e-03
  3.688146e+00    5.334655e-01   7.897271e-03
  3.690357e+00    5.384455e-01   7.950166e-03
  3.692567e+00    5.389109e-01   7.969891e-03
  3.694778e+00    5.308438e-01   7.926158e-03
  3.696988e+00    5.456966e-01   8.052489e-03
  3.699199e+00    5.196783e-01   7.874419e-03
  3.701409e+00    5.275921e-01   7.950496e-03
  3.703620e+00    5.274142e-01   7.965521e-03
  3.705830e+00    5.411884e-01   8.085536e-03
  3.708041e+00    5.266092e-01   7.992516e-03
  3.710251e+00    5.383679e-01   8.098194e-03
  3.712461e+00    5.281701e-01   8.037984e-03
  3.714672e+00    5.184574e-01   7.980377e-03
  3.716882e+00    5.343354e-01   8.118602e-03
  3.719093e+00    5.417951e-01   8.192548e-03
  3.721303e+00    5.320056e-01   8.135401e-03
  3.723514e+00    5.165601e-01   8.033580e-03
  3.725724e+00    5.247883e-01   8.114640e-03
  3.727935e+00    5.339785e-01   8.203104e-03
  3.730145e+00    5.147513e-01   8.071338e-03
  3.732356e+00    5.137219e-01   8.080750e-03
  3.734566e+00    5.115083e-01   8.080799e-03
  3.736776e+00    5.231882e-01   8.190415e-03
  3.738987e+00    5.157198e-01   8.149559e-03
  3.741197e+00    5.220754e-01   8.217760e-03
  3.743408e+00    5.168768e-01   8.194868e-03
  3.745618e+00    5.265623e-01   8.289827e-03
  3.747829e+00    5.117642e-01   8.190625e-03
  3.750039e+00    5.127150e-01   8.216632e-03
  3.752250e+00    5.059229e-01   8.180395e-03
  3.754460e+00    5.054806e-01   8.195270e-03
  3.756671e+00    5.249072e-01   8.370327e-03
  3.758881e+00    5.383632e-01   8.496162e-03
  3.761091e+00    5.063975e-01   8.259155e-03
  3.763302e+00    5.101188e-01   8.308540e-03
  3.765512e+00    5.241832e-01   8.441835e-03
  3.767723e+00    5.356543e-01   8.553673e-03
  3.769933e+00    4.963510e-01   8.253008e-03
  3.772144e+00    5.024200e-01   8.322779e-03
  3.774354e+00    5.104770e-01   8.409224e-03
  3.776565e+00    5.071191e-01   8.401378e-03
  3.778775e+00    4.893727e-01   8.272777e-03
  3.780986e+00    4.999149e-01   8.381546e-03
  3.783196e+00    5.010059e-01   8.410932e-03
  3.785407e+00    5.103240e-01   8.509340e-03
  3.787617e+00    5.364528e-01   8.745920e-03
  3.789827e+00    4.950054e-01   8.421663e-03
  3.792038e+00    4.993624e-01   8.479387e-03
  3.794248e+00    5.154786e-01   8.636596e-03
  3.796459e+00    5.153178e-01   8.656910e-03
  3.798669e+00    5.121799e-01   8.652171e-03
  3.800880e+00    4.687066e-01   8.297564e-03
  3.803090e+00    5.025260e-01   8.613543e-03
  3.805301e+00    5.051406e-01   8.658125e-03
  3.807511e+00    5.235716e-01   8.837211e-03
  3.809722e+00    5.188669e-01   8.820057e-03
  3.811932e+00    5.051326e-01   8.724896e-03
  3.814142e+00    5.021279e-01   8.721849e-03
  3.816353e+00    5.162323e-01   8.866717e-03
  3.818563e+00    5.062525e-01   8.803897e-03
  3.820774e+00    5.128758e-01   8.884746e-03
  3.822984e+00    5.157104e-01   8.933120e-03
  3.825195e+00    5.047539e-01   8.861539e-03
  3.827405e+00    5.151331e-01   8.976535e-03
  3.829616e+00    4.919413e-01   8.796064e-03
  3.831826e+00    5.169535e-01   9.041487e-03
  3.834037e+00    4.949578e-01   8.871606e-03
  3.836247e+00    4.794407e-01   8.755591e-03
  3.838457e+00    4.759843e-01   8.748521e-03
  3.840668e+00    4.897072e-01   8.898763e-03
  3.842878e+00    4.906770e-01   8.932875e-03
  3.845089e+00    5.031047e-01   9.071161e-03
  3.847299e+00    4.917206e-01   8.993572e-03
  3.849510e+00    4.814367e-01   8.924573e-03
  3.851720e+00    5.148961e-01   9.251264e-03
  3.853931e+00    5.192659e-01   9.309936e-03
  3.856141e+00    5.175616e-01   9.314094e-03
  3.858352e+00    4.985790e-01   9.161052e-03
  3.860562e+00    4.869301e-01   9.072558e-03
  3.862772e+00    4.912085e-01   9.131755e-03
  3.864983e+00    5.061620e-01   9.289775e-03
  3.867193e+00    5.022665e-01   9.273801e-03
  3.869404e+00    4.951855e-01   9.228102e-03
  3.871614e+00    4.804963e-01   9.109916e-03
  3.873825e+00    5.029426e-01   9.340729e-03
  3.876035e+00    4.966027e-01   9.302389e-03
  3.878246e+00    4.932689e-01   9.296864e-03
  3.880456e+00    4.770069e-01   9.170866e-03
  3.882667e+00    4.931799e-01   9.354410e-03
  3.884877e+00    4.937479e-01   9.389589e-03
  3.887087e+00    5.090422e-01   9.564364e-03
  3.889298e+00    5.157244e-01   9.658091e-03
  3.891508e+00    4.920810e-01   9.464687e-03
  3.893719e+00    5.191581e-01   9.753364e-03
  3.895929e+00    4.927866e-01   9.534054e-03
  3.898140e+00    5.054602e-01   9.687984e-03
  3.900350e+00    4.977352e-01   9.646050e-03
  3.902561e+00    5.123565e-01   9.819732e-03
  3.904771e+00    5.158284e-01   9.886714e-03
  3.906982e+00    5.061999e-01   9.827679e-03
  3.909192e+00    4.972542e-01   9.774220e-03
  3.911403e+00    4.889429e-01   9.726215e-03
  3.913613e+00    4.775540e-01   9.646106e-03
  3.915823e+00    4.959697e-01   9.865432e-03
  3.918034e+00    4.891803e-01   9.832955e-03
  3.920244e+00    4.951859e-01   9.929102e-03
  3.922455e+00    5.071530e-01   1.008517e-02
  3.924665e+00    4.969794e-01   1.002025e-02
  3.926876e+00    4.901908e-01   9.988799e-03
  3.929086e+00    4.824380e-01   9.946607e-03
  3.931297e+00    4.826977e-01   9.983945e-03
  3.933507e+00    4.754899e-01   9.937685e-03
  3.935718e+00    4.989874e-01   1.020935e-02
  3.937928e+00    5.131360e-01   1.038334e-02
  3.940138e+00    4.780055e-01   1.005061e-02
  3.942349e+00    4.982481e-01   1.029142e-02
  3.944559e+00    4.954405e-01   1.029267e-02
  3.946770e+00    5.031859e-01   1.040349e-02
  3.948980e+00    4.824629e-01   1.021762e-02
  3.951191e+00    5.035462e-01   1.046980e-02
  3.953401e+00    5.128908e-01   1.059874e-02
  3.955612e+00    4.854316e-01   1.034278e-02
  3.957822e+00    4.923604e-01   1.044816e-02
  3.960033e+00    4.789937e-01   1.033777e-02
  3.962243e+00    4.781359e-01   1.036111e-02
  3.964453e+00    4.959794e-01   1.058604e-02
  3.966664e+00    4.883085e-01   1.053744e-02
  3.968874e+00    4.817217e-01   1.049440e-02
  3.971085e+00    5.091973e-01   1.081195e-02
  3.973295e+00    4.724048e-01   1.043526e-02
  3.975506e+00    4.934552e-01   1.068689e-02
  3.977716e+00    5.211011e-01   1.100509e-02
  3.979927e+00    4.724188e-01   1.050018e-02
  3.982137e+00    4.656765e-01   1.044681e-02
  3.984348e+00    5.005296e-01   1.085366e-02
  3.986558e+00    4.995752e-01   1.086592e-02
  3.988768e+00    5.322644e-01   1.123988e-02
  3.990979e+00    4.898331e-01   1.080555e-02
  3.993189e+00    4.785588e-01   1.070328e-02
  3.995400e+00    4.982701e-01   1.094535e-02
  3.997610e+00    5.016646e-01   1.101285e-02
  3.999821e+00    4.965885e-01   1.099503e-02
  4.002031e+00    4.848600e-01   1.090281e-02
  4.004242e+00    4.894620e-01   1.099310e-02
  4.006452e+00    4.982660e-01   1.113138e-02
  4.008663e+00    4.865343e-01   1.103972e-02
  4.010873e+00    4.959663e-01   1.118664e-02
  4.013084e+00    4.904011e-01   1.116488e-02
  4.015294e+00    4.974186e-01   1.128598e-02
  4.017504e+00    4.423903e-01   1.068348e-02
  4.019715e+00    4.579360e-01   1.091084e-02
  4.021925e+00    4.743128e-01   1.114671e-02
  4.024136e+00    4.698800e-01   1.113768e-02
  4.026346e+00    4.730152e-01   1.121831e-02
  4.028557e+00    4.753905e-01   1.129037e-02
  4.030767e+00    4.853634e-01   1.145397e-02
  4.032978e+00    4.900081e-01   1.155524e-02
  4.035188e+00    4.595662e-01   1.123553e-02
  4.037399e+00    4.797182e-01   1.152654e-02
  4.039609e+00    5.262061e-01   1.212203e-02
  4.041819e+00    4.822259e-01   1.165315e-02
  4.044030e+00    4.768203e-01   1.163714e-02
  4.046240e+00    5.173159e-01   1.217277e-02
  4.048451e+00    5.063816e-01   1.209571e-02
  4.050661e+00    4.765925e-01   1.178567e-02
  4.052872e+00    4.720662e-01   1.178171e-02
  4.055082e+00    4.767488e-01   1.189310e-02
  4.057293e+00    4.413327e-01   1.149428e-02
  4.059503e+00    4.692832e-01   1.190640e-02
  4.061714e+00    5.349393e-01   1.277174e-02
  4.063924e+00    4.550672e-01   1.183493e-02
  4.066134e+00    4.422969e-01   1.172244e-02
  4.068345e+00    5.069054e-01   1.261001e-02
  4.070555e+00    5.075930e-01   1.267939e-02
  4.072766e+00    5.112041e-01   1.278725e-02
  4.074976e+00    4.750866e-01   1.238853e-02
  4.077187e+00    4.944235e-01   1.270109e-02
  4.079397e+00    4.742403e-01   1.250260e-02
  4.081608e+00    4.890991e-01   1.276309e-02
  4.083818e+00    4.575457e-01   1.240859e-02
  4.086029e+00    4.955147e-01   1.298131e-02
  4.088239e+00    5.141553e-01   1.329453e-02
  4.090449e+00    4.708263e-01   1.279099e-02
  4.092660e+00    4.730929e-01   1.289210e-02
  4.094870e+00    4.664639e-01   1.287288e-02
  4.097081e+00    4.416782e-01   1.259484e-02
  4.099291e+00    4.608801e-01   1.291873e-02
  4.101502e+00    4.663726e-01   1.304401e-02
  4.103712e+00    5.291430e-01   1.394587e-02
  4.105923e+00    4.894617e-01   1.346486e-02
  4.108133e+00    4.754348e-01   1.332158e-02
  4.110344e+00    5.137080e-01   1.390046e-02
  4.112554e+00    4.972505e-01   1.372998e-02
  4.114764e+00    4.606073e-01   1.326755e-02
  4.116975e+00    4.331286e-01   1.291641e-02
  4.119185e+00    4.836071e-01   1.370364e-02
  4.121396e+00    4.965728e-01   1.394348e-02
  4.123606e+00    4.704981e-01   1.362834e-02
  4.125817e+00    4.076363e-01   1.273825e-02
  4.128027e+00    4.764746e-01   1.382996e-02
  4.130238e+00    4.880231e-01   1.405652e-02
  4.132448e+00    5.108641e-01   1.444415e-02
  4.134659e+00    5.085240e-01   1.447306e-02
  4.136869e+00    5.255830e-01   1.477944e-02
  4.139080e+00    4.529721e-01   1.378250e-02
  4.141290e+00    4.709501e-01   1.411545e-02
  4.143500e+00    5.220874e-01   1.493062e-02
  4.145711e+00    5.007702e-01   1.469110e-02
  4.147921e+00    4.659377e-01   1.423584e-02
  4.150132e+00    4.725369e-01   1.440479e-02
  4.152342e+00    4.496386e-01   1.411948e-02
  4.154553e+00    4.804873e-01   1.466519e-02
  4.156763e+00    4.909495e-01   1.489730e-02
  4.158974e+00    4.965170e-01   1.505690e-02
  4.161184e+00    5.045990e-01   1.525428e-02
  4.163395e+00    4.695440e-01   1.479007e-02
  4.165605e+00    4.410161e-01   1.440805e-02
  4.167815e+00    4.834475e-01   1.516403e-02
  4.170026e+00    4.804011e-01   1.519590e-02
  4.172236e+00    5.240475e-01   1.595690e-02
  4.174447e+00    5.192388e-01   1.597013e-02
  4.176657e+00    5.191495e-01   1.605585e-02
  4.178868e+00    4.866453e-01   1.563312e-02
  4.181078e+00    5.107853e-01   1.610656e-02
  4.183289e+00    4.900171e-01   1.586579e-02
  4.185499e+00    4.808041e-01   1.580875e-02
  4.187710e+00    5.162623e-01   1.647718e-02
  4.189920e+00    5.070547e-01   1.642825e-02
  4.192130e+00    4.859669e-01   1.618104e-02
  4.194341e+00    5.107169e-01   1.668972e-02
  4.196551e+00    4.750679e-01   1.619872e-02
  4.198762e+00    4.533503e-01   1.592446e-02
  4.200972e+00    5.058811e-01   1.693055e-02
  4.203183e+00    4.731342e-01   1.648161e-02
  4.205393e+00    4.264911e-01   1.575217e-02
  4.207604e+00    4.558637e-01   1.639673e-02
  4.209814e+00    4.285764e-01   1.600746e-02
  4.212025e+00    4.653267e-01   1.679758e-02
  4.214235e+00    5.140837e-01   1.778122e-02
  4.216445e+00    5.084264e-01   1.781070e-02
  4.218656e+00    4.556148e-01   1.698692e-02
  4.220866e+00    4.952465e-01   1.784134e-02
  4.223077e+00    4.164001e-01   1.648556e-02
  4.225287e+00    4.514213e-01   1.729950e-02
  4.227498e+00    5.152927e-01   1.862805e-02
  4.229708e+00    5.075774e-01   1.863852e-02
  4.231919e+00    4.782416e-01   1.824121e-02
  4.234129e+00    5.085061e-01   1.896772e-02
  4.236340e+00    4.516742e-01   1.802923e-02
  4.238550e+00    4.431920e-01   1.801664e-02
  4.240761e+00    4.626523e-01   1.857065e-02
  4.242971e+00    4.771195e-01   1.903134e-02
  4.245181e+00    4.807126e-01   1.928268e-02
  4.247392e+00    4.081138e-01   1.793294e-02
  4.249602e+00    4.658025e-01   1.934857e-02
  4.251813e+00    5.327176e-01   2.089607e-02
  4.254023e+00    4.376723e-01   1.913129e-02
  4.256234e+00    4.642946e-01   1.991491e-02
  4.258444e+00    4.295853e-01   1.935665e-02
  4.260655e+00    4.432455e-01   1.987804e-02
  4.262865e+00    5.709568e-01   2.281624e-02
  4.265076e+00    4.757854e-01   2.106564e-02
  4.267286e+00    4.624758e-01   2.101480e-02
  4.269496e+00    4.687864e-01   2.141604e-02
  4.271707e+00    4.453058e-01   2.113092e-02
  4.273917e+00    3.930748e-01   2.010909e-02
  4.276128e+00    4.669199e-01   2.220840e-02
  4.278338e+00    3.893755e-01   2.055116e-02
  4.280549e+00    3.700943e-01   2.032301e-02
  4.282759e+00    4.967397e-01   2.388339e-02
  4.284970e+00    4.842898e-01   2.393147e-02
  4.287180e+00    4.670597e-01   2.378361e-02
  4.289391e+00    4.042086e-01   2.229155e-02
  4.291601e+00    5.004612e-01   2.500160e-02
  4.293811e+00    5.942411e-01   2.745758e-02
  4.296022e+00    4.596035e-01   2.434103e-02
  4.298232e+00    5.181119e-01   2.606032e-02
  4.300443e+00    4.855940e-01   2.543812e-02
  4.302653e+00    5.067026e-01   2.620932e-02
  4.304864e+00    4.365543e-01   2.453859e-02
  4.307074e+00    5.257963e-01   2.717200e-02
  4.309285e+00    4.724915e-01   2.599233e-02
  4.311495e+00    5.443056e-01   2.815826e-02
  4.313706e+00    5.282184e-01   2.799976e-02
  4.315916e+00    4.849512e-01   2.709295e-02
  4.318126e+00    4.290935e-01   2.573650e-02
  4.320337e+00    5.563882e-01   2.960271e-02
  4.322547e+00    5.826563e-01   3.061501e-02
  4.324758e+00    4.970179e-01   2.856961e-02
  4.326968e+00    4.933388e-01   2.878493e-02
  4.329179e+00    5.665608e-01   3.118559e-02
  4.331389e+00    6.003404e-01   3.247365e-02
  4.333600e+00    4.198813e-01   2.748143e-02
  4.335810e+00    4.143888e-01   2.762610e-02
  4.338021e+00    3.993279e-01   2.746587e-02
  4.340231e+00    4.793955e-01   3.047160e-02
  4.342442e+00    4.572746e-01   3.016044e-02
  4.344652e+00    3.761826e-01   2.772670e-02
  4.346862e+00    4.112965e-01   2.939731e-02
  4.349073e+00    5.425501e-01   3.425515e-02
  4.351283e+00    5.547076e-01   3.515561e-02
  4.353494e+00    4.398083e-01   3.178629e-02
  4.355704e+00    5.342603e-01   3.559699e-02
  4.357915e+00    4.658358e-01   3.379473e-02
  4.360125e+00    4.987482e-01   3.556310e-02
  4.362336e+00    5.320040e-01   3.739904e-02
  4.364546e+00    6.036727e-01   4.056459e-02
  4.366757e+00    4.465401e-01   3.558354e-02
  4.368967e+00    3.761369e-01   3.330760e-02
  4.371177e+00    4.081232e-01   3.543435e-02
  4.373388e+00    4.981481e-01   4.002124e-02
  4.375598e+00    4.080509e-01   3.704894e-02
  4.377809e+00    5.022560e-01   4.214219e-02
  4.380019e+00    4.099286e-01   3.903266e-02
  4.382230e+00    2.531738e-01   3.153184e-02
  4.384440e+00    2.732518e-01   3.369633e-02
  4.386651e+00    4.107285e-01   4.259005e-02
  4.388861e+00    4.563488e-01   4.639621e-02
  4.391072e+00    5.193981e-01   5.123908e-02
  4.393282e+00    5.377477e-01   5.415069e-02
  4.395492e+00    4.292126e-01   5.039115e-02
  4.397703e+00    2.791214e-01   4.249438e-02
  4.399913e+00    1.651039e-01   3.433889e-02
  4.402124e+00    1.420842e-01   3.365081e-02
  4.404334e+00    4.132341e-01   6.101489e-02
  4.406545e+00    2.795380e-01   5.392099e-02
  4.408755e+00    3.207282e-01   6.262994e-02
  4.410966e+00    2.621260e-01   6.267674e-02
  4.413176e+00    1.245345e-01   4.890469e-02
  4.415387e+00   -7.183540e-01            nan
  4.417597e+00   -1.914176e+00            nan
  4.419807e+00   -3.766224e-01            nan
