# == pyFAI calibration ==
# Distance Sample to Detector: 0.216 m
# PONI: 1.166e-01, 1.308e-01 m
# Rotations: 0.000000 0.000000 0.000000 rad
# 
# == Fit2d calibration ==
# Distance Sample-beamCenter: 216.000 mm
# Center: x=1744.293, y=1555.000 pix
# Tilt: 0.000 deg  TiltPlanRot: 0.000 deg
# 
# Detector Eiger 9M	 PixelSize= 7.500e-05, 7.500e-05 m
#    Detector has a mask: True 
#    Detector has a dark current: False 
#    detector has a flat field: False 
# 
# Wavelength: 9.8e-11 m
# Mask applied: from detector
# Dark current applied: False
# Flat field applied: False
# Polarization factor: None
# Normalization factor: 1.0
# 
# Headers of the input frame:
# {
# "_array_data.header_convention": "SLS_1.0",
# "_array_data.header_contents": "# Detector: Dectris Eiger 9M, S/N E-18-0102\r\n# Pixel_size 75e-6 m x 75e-6 m\r\n# Silicon sensor, thickness 0.000450 m\r\n# Exposure_time 0.024997 s\r\n# Exposure_period 0.025000 s\r\n# Count_cutoff 62318 counts\r\n# Wavelength 0.980106 A\r\n# Detector_distance 0.215992 m\r\n# Beam_xy (1555, 1744) pixels\r\n# Start_angle 0.000000 deg.\r\n# Angle_increment 0.000000 deg.",
# "Content-Type": "application/octet-stream;",
# "conversions": "x-CBF_BYTE_OFFSET",
# "Content-Transfer-Encoding": "BINARY",
# "X-Binary-Size": "10166592",
# "X-Binary-ID": "1",
# "X-Binary-Element-Type": "signed 32-bit integer",
# "X-Binary-Element-Byte-Order": "LITTLE_ENDIAN",
# "Content-MD5": "leicOBZFGT+XpHyPQn9fTg==",
# "X-Binary-Number-of-Elements": "10166590",
# "X-Binary-Size-Fastest-Dimension": "3110",
# "X-Binary-Size-Second-Dimension": "3269",
# "X-Binary-Size-Padding": "4095"
# }
# --> H:/Proxima2a_2019-04-05/RAW_DATA/C5_gel17_position5/C5_mesh_1_data.cbf/C5_mesh_1_data.cbf000199.dat
#        q_A^-1              I           sigma 
  1.105228e-03    3.556015e-01   3.226775e-01
  3.315685e-03    1.206417e+00   3.613217e-01
  5.526141e-03    1.559901e+00   3.177025e-01
  7.736597e-03    1.188406e+00   2.342624e-01
  9.947054e-03    1.208906e+00   2.082921e-01
  1.215751e-02    1.288939e+00   1.944844e-01
  1.436797e-02    1.097915e+00   1.651050e-01
  1.657842e-02    1.338971e+00   1.697188e-01
  1.878888e-02    1.358974e+00   1.606087e-01
  2.099934e-02    1.524886e+00   1.609610e-01
  2.320979e-02    1.556136e+00   1.546524e-01
  2.542025e-02    1.473990e+00   1.438324e-01
  2.763070e-02    1.510503e+00   1.396533e-01
  2.984116e-02    1.672521e+00   1.414042e-01
  3.205162e-02    1.513326e+00   1.297934e-01
  3.426207e-02    1.368204e+00   1.193577e-01
  3.647253e-02    1.462945e+00   1.196200e-01
  3.868299e-02    1.513673e+00   1.181576e-01
  4.089344e-02    1.426389e+00   1.115577e-01
  4.310390e-02    1.527282e+00   1.124303e-01
  4.531436e-02    1.443611e+00   1.066083e-01
  4.752481e-02    1.322728e+00   9.964473e-02
  4.973527e-02    1.398259e+00   1.001487e-01
  5.194572e-02    1.616232e+00   1.053549e-01
  5.415618e-02    1.527657e+00   1.003117e-01
  5.636664e-02    1.481056e+00   9.681685e-02
  5.857709e-02    1.351584e+00   9.072692e-02
  6.078755e-02    1.319861e+00   8.800785e-02
  6.299801e-02    1.328772e+00   8.674045e-02
  6.520846e-02    1.418841e+00   8.810032e-02
  6.741892e-02    1.460917e+00   8.791492e-02
  6.962938e-02    1.469145e+00   8.675582e-02
  7.183983e-02    1.458546e+00   8.510052e-02
  7.405029e-02    1.379968e+00   8.152968e-02
  7.626074e-02    1.461021e+00   8.266441e-02
  7.847120e-02    1.405448e+00   7.992477e-02
  8.068166e-02    1.497359e+00   8.135819e-02
  8.289211e-02    1.475587e+00   7.967998e-02
  8.510257e-02    1.534478e+00   8.019175e-02
  8.731303e-02    1.479069e+00   7.772470e-02
  8.952348e-02    1.454727e+00   7.612692e-02
  9.173394e-02    1.483066e+00   7.593012e-02
  9.394439e-02    1.512909e+00   7.578018e-02
  9.615485e-02    1.486151e+00   7.423713e-02
  9.836531e-02    1.504797e+00   7.385524e-02
  1.005758e-01    1.455192e+00   7.182568e-02
  1.027862e-01    1.389429e+00   6.942343e-02
  1.049967e-01    1.423975e+00   6.953624e-02
  1.072071e-01    1.488589e+00   7.035875e-02
  1.094176e-01    1.534085e+00   7.069962e-02
  1.116280e-01    1.459756e+00   6.827785e-02
  1.138385e-01    1.472466e+00   6.790409e-02
  1.160490e-01    1.500544e+00   6.789166e-02
  1.182594e-01    1.507770e+00   6.741443e-02
  1.204699e-01    1.518860e+00   6.703775e-02
  1.226803e-01    1.501192e+00   6.604082e-02
  1.248908e-01    1.543414e+00   6.636708e-02
  1.271012e-01    1.596575e+00   6.690951e-02
  1.293117e-01    1.718010e+00   6.881081e-02
  1.315222e-01    1.635982e+00   6.657981e-02
  1.337326e-01    1.516613e+00   6.357158e-02
  1.359431e-01    1.630892e+00   6.596177e-02
  1.381535e-01    1.656953e+00   6.737919e-02
  1.403640e-01    1.486203e+00   6.408861e-02
  1.425744e-01    1.487568e+00   6.422045e-02
  1.447849e-01    1.588007e+00   6.636835e-02
  1.469953e-01    1.582815e+00   6.621830e-02
  1.492058e-01    1.562203e+00   6.570927e-02
  1.514163e-01    1.554212e+00   6.543215e-02
  1.536267e-01    1.588433e+00   6.601944e-02
  1.558372e-01    1.605352e+00   6.622357e-02
  1.580476e-01    1.648868e+00   6.695226e-02
  1.602581e-01    1.699934e+00   6.780848e-02
  1.624685e-01    1.671381e+00   6.705251e-02
  1.646790e-01    1.713895e+00   6.770498e-02
  1.668895e-01    1.763595e+00   6.848128e-02
  1.690999e-01    1.716551e+00   6.735885e-02
  1.713104e-01    1.700374e+00   6.683264e-02
  1.735208e-01    1.806965e+00   6.868131e-02
  1.757313e-01    1.787233e+00   6.809124e-02
  1.779417e-01    1.783582e+00   6.779979e-02
  1.801522e-01    1.758048e+00   6.709835e-02
  1.823626e-01    1.830830e+00   6.824522e-02
  1.845731e-01    1.878781e+00   6.890922e-02
  1.867836e-01    1.842908e+00   6.801785e-02
  1.889940e-01    1.915804e+00   6.912339e-02
  1.912045e-01    1.904132e+00   6.868239e-02
  1.934149e-01    2.008909e+00   7.031062e-02
  1.956254e-01    2.045267e+00   7.071007e-02
  1.978358e-01    1.948845e+00   6.878662e-02
  2.000463e-01    1.976334e+00   6.904048e-02
  2.022568e-01    1.987260e+00   6.900385e-02
  2.044672e-01    1.942687e+00   6.799186e-02
  2.066777e-01    2.012833e+00   6.897880e-02
  2.088881e-01    1.960785e+00   6.785840e-02
  2.110986e-01    1.960878e+00   6.762727e-02
  2.133090e-01    1.901828e+00   6.638473e-02
  2.155195e-01    1.915294e+00   6.639834e-02
  2.177300e-01    1.835074e+00   6.448238e-02
  2.199404e-01    1.904720e+00   6.396357e-02
  2.221509e-01    1.942089e+00   6.352741e-02
  2.243613e-01    1.976091e+00   6.326875e-02
  2.265718e-01    2.007675e+00   6.306944e-02
  2.287822e-01    2.120433e+00   6.417482e-02
  2.309927e-01    2.183433e+00   6.452794e-02
  2.332031e-01    2.179976e+00   6.392501e-02
  2.354136e-01    2.210068e+00   6.384301e-02
  2.376241e-01    2.145112e+00   6.240962e-02
  2.398345e-01    2.178005e+00   6.242086e-02
  2.420450e-01    2.233364e+00   6.275747e-02
  2.442554e-01    2.115067e+00   6.065203e-02
  2.464659e-01    2.129837e+00   6.045480e-02
  2.486763e-01    2.106569e+00   5.972847e-02
  2.508868e-01    2.112911e+00   5.944093e-02
  2.530973e-01    2.120321e+00   5.917593e-02
  2.553077e-01    2.094186e+00   5.845335e-02
  2.575182e-01    2.110353e+00   5.833139e-02
  2.597286e-01    2.095293e+00   5.778501e-02
  2.619391e-01    2.056011e+00   5.691124e-02
  2.641495e-01    2.013537e+00   5.600860e-02
  2.663600e-01    1.990643e+00   5.538303e-02
  2.685704e-01    1.996361e+00   5.516187e-02
  2.707809e-01    2.048323e+00   5.557856e-02
  2.729914e-01    1.988640e+00   5.447748e-02
  2.752018e-01    2.013194e+00   5.452747e-02
  2.774123e-01    1.960722e+00   5.353732e-02
  2.796227e-01    1.946230e+00   5.307522e-02
  2.818332e-01    1.984262e+00   5.332397e-02
  2.840436e-01    1.959948e+00   5.273938e-02
  2.862541e-01    1.955803e+00   5.243031e-02
  2.884646e-01    2.003278e+00   5.281101e-02
  2.906750e-01    1.978438e+00   5.223374e-02
  2.928855e-01    1.914757e+00   5.114812e-02
  2.950959e-01    1.975202e+00   5.171052e-02
  2.973064e-01    1.996252e+00   5.175173e-02
  2.995168e-01    1.927612e+00   5.062388e-02
  3.017273e-01    1.961229e+00   5.083828e-02
  3.039377e-01    1.917600e+00   5.004951e-02
  3.061482e-01    1.910561e+00   4.974144e-02
  3.083587e-01    1.870139e+00   4.899943e-02
  3.105691e-01    1.879998e+00   4.891857e-02
  3.127796e-01    1.819436e+00   4.792188e-02
  3.149900e-01    1.879104e+00   4.849840e-02
  3.172005e-01    1.891492e+00   4.845904e-02
  3.194109e-01    1.888310e+00   4.821838e-02
  3.216214e-01    1.892974e+00   4.808092e-02
  3.238319e-01    1.889875e+00   4.785121e-02
  3.260423e-01    1.817242e+00   4.673578e-02
  3.282528e-01    1.869585e+00   4.721534e-02
  3.304632e-01    1.902195e+00   4.744086e-02
  3.326737e-01    1.841781e+00   4.649926e-02
  3.348841e-01    1.872104e+00   4.669869e-02
  3.370946e-01    1.804141e+00   4.567074e-02
  3.393050e-01    1.799112e+00   4.543424e-02
  3.415155e-01    1.876363e+00   4.622500e-02
  3.437260e-01    1.858738e+00   4.583685e-02
  3.459364e-01    1.838557e+00   4.541872e-02
  3.481469e-01    1.781655e+00   4.454715e-02
  3.503573e-01    1.772364e+00   4.426899e-02
  3.525678e-01    1.789923e+00   4.432919e-02
  3.547782e-01    1.817194e+00   4.450417e-02
  3.569887e-01    1.795454e+00   4.408041e-02
  3.591992e-01    1.769604e+00   4.360711e-02
  3.614096e-01    1.722412e+00   4.287254e-02
  3.636201e-01    1.794063e+00   4.360141e-02
  3.658305e-01    1.808250e+00   4.362417e-02
  3.680410e-01    1.720789e+00   4.240973e-02
  3.702514e-01    1.763173e+00   4.278446e-02
  3.724619e-01    1.779053e+00   4.283036e-02
  3.746724e-01    1.791255e+00   4.283358e-02
  3.768828e-01    1.786571e+00   4.263360e-02
  3.790933e-01    1.818951e+00   4.287805e-02
  3.813037e-01    1.848137e+00   4.307925e-02
  3.835142e-01    1.832965e+00   4.276118e-02
  3.857246e-01    1.819239e+00   4.246288e-02
  3.879351e-01    1.869606e+00   4.290735e-02
  3.901455e-01    1.842867e+00   4.246380e-02
  3.923560e-01    1.812758e+00   4.198164e-02
  3.945665e-01    1.765579e+00   4.130032e-02
  3.967769e-01    1.828335e+00   4.189629e-02
  3.989874e-01    1.824032e+00   4.171630e-02
  4.011978e-01    1.769770e+00   4.096476e-02
  4.034083e-01    1.754664e+00   4.066432e-02
  4.056187e-01    1.781099e+00   4.084329e-02
  4.078292e-01    1.776407e+00   4.066603e-02
  4.100397e-01    1.802474e+00   4.083820e-02
  4.122501e-01    1.810406e+00   4.080554e-02
  4.144606e-01    1.774112e+00   4.027466e-02
  4.166710e-01    1.781565e+00   4.023917e-02
  4.188815e-01    1.783856e+00   4.014608e-02
  4.210919e-01    1.804877e+00   4.026358e-02
  4.233024e-01    1.812997e+00   4.023536e-02
  4.255128e-01    1.791628e+00   3.988192e-02
  4.277233e-01    1.790705e+00   3.975710e-02
  4.299338e-01    1.753548e+00   3.922925e-02
  4.321442e-01    1.770856e+00   3.930955e-02
  4.343547e-01    1.781121e+00   3.931186e-02
  4.365651e-01    1.768470e+00   3.906070e-02
  4.387756e-01    1.732654e+00   3.855488e-02
  4.409860e-01    1.777493e+00   3.894238e-02
  4.431965e-01    1.755398e+00   3.859259e-02
  4.454070e-01    1.737632e+00   3.828997e-02
  4.476174e-01    1.724049e+00   3.803530e-02
  4.498279e-01    1.698179e+00   3.764614e-02
  4.520383e-01    1.732963e+00   3.792538e-02
  4.542488e-01    1.739777e+00   3.789739e-02
  4.564592e-01    1.727473e+00   3.766185e-02
  4.586697e-01    1.727617e+00   3.756344e-02
  4.608801e-01    1.723411e+00   3.741721e-02
  4.630906e-01    1.710050e+00   3.717319e-02
  4.653011e-01    1.751693e+00   3.752413e-02
  4.675115e-01    1.789570e+00   3.782778e-02
  4.697220e-01    1.786735e+00   3.769886e-02
  4.719324e-01    1.714792e+00   3.683655e-02
  4.741429e-01    1.693029e+00   3.650774e-02
  4.763533e-01    1.689033e+00   3.637115e-02
  4.785638e-01    1.678406e+00   3.616288e-02
  4.807743e-01    1.693158e+00   3.622909e-02
  4.829847e-01    1.702824e+00   3.624057e-02
  4.851952e-01    1.675054e+00   3.585289e-02
  4.874056e-01    1.697690e+00   3.600331e-02
  4.896161e-01    1.702532e+00   3.596520e-02
  4.918265e-01    1.737875e+00   3.624637e-02
  4.940370e-01    1.688668e+00   3.564134e-02
  4.962475e-01    1.657022e+00   3.521860e-02
  4.984579e-01    1.627838e+00   3.482103e-02
  5.006684e-01    1.658562e+00   3.506242e-02
  5.028788e-01    1.656605e+00   3.495681e-02
  5.050893e-01    1.675071e+00   3.506560e-02
  5.072997e-01    1.718349e+00   3.542993e-02
  5.095102e-01    1.668924e+00   3.483306e-02
  5.117206e-01    1.649529e+00   3.454771e-02
  5.139311e-01    1.689877e+00   3.488491e-02
  5.161416e-01    1.685288e+00   3.475523e-02
  5.183520e-01    1.653134e+00   3.434025e-02
  5.205625e-01    1.663827e+00   3.437043e-02
  5.227729e-01    1.641646e+00   3.406093e-02
  5.249834e-01    1.663828e+00   3.421067e-02
  5.271938e-01    1.704702e+00   3.454753e-02
  5.294043e-01    1.714239e+00   3.456408e-02
  5.316148e-01    1.745108e+00   3.479404e-02
  5.338252e-01    1.715460e+00   3.441837e-02
  5.360357e-01    1.755474e+00   3.473819e-02
  5.382461e-01    1.762501e+00   3.472897e-02
  5.404566e-01    1.778679e+00   3.480861e-02
  5.426670e-01    1.749772e+00   3.444682e-02
  5.448775e-01    1.713212e+00   3.400888e-02
  5.470879e-01    1.830709e+00   3.507734e-02
  5.492984e-01    1.796204e+00   3.466798e-02
  5.515089e-01    1.749520e+00   3.413859e-02
  5.537193e-01    1.775690e+00   3.431721e-02
  5.559298e-01    1.799024e+00   3.446618e-02
  5.581402e-01    1.821321e+00   3.460334e-02
  5.603507e-01    1.773433e+00   3.407109e-02
  5.625611e-01    1.777751e+00   3.403850e-02
  5.647716e-01    1.790451e+00   3.408570e-02
  5.669821e-01    1.810207e+00   3.419936e-02
  5.691925e-01    1.768351e+00   3.372911e-02
  5.714030e-01    1.728430e+00   3.327511e-02
  5.736134e-01    1.710931e+00   3.303583e-02
  5.758239e-01    1.716620e+00   3.302007e-02
  5.780343e-01    1.659726e+00   3.239959e-02
  5.802448e-01    1.638444e+00   3.212382e-02
  5.824552e-01    1.642211e+00   3.209323e-02
  5.846657e-01    1.624869e+00   3.185679e-02
  5.868762e-01    1.616506e+00   3.170855e-02
  5.890866e-01    1.614278e+00   3.162094e-02
  5.912971e-01    1.654158e+00   3.194287e-02
  5.935075e-01    1.640851e+00   3.174839e-02
  5.957180e-01    1.660002e+00   3.186759e-02
  5.979284e-01    1.664748e+00   3.184799e-02
  6.001389e-01    1.646043e+00   3.160406e-02
  6.023494e-01    1.657287e+00   3.164744e-02
  6.045598e-01    1.689695e+00   3.189029e-02
  6.067703e-01    1.676921e+00   3.170566e-02
  6.089807e-01    1.691292e+00   3.177719e-02
  6.111912e-01    1.679375e+00   3.160184e-02
  6.134016e-01    1.664983e+00   3.140336e-02
  6.156121e-01    1.665324e+00   3.134415e-02
  6.178226e-01    1.677306e+00   3.139442e-02
  6.200330e-01    1.673794e+00   3.129968e-02
  6.222435e-01    1.682860e+00   3.132216e-02
  6.244539e-01    1.702972e+00   3.144706e-02
  6.266644e-01    1.696059e+00   3.132197e-02
  6.288748e-01    1.676659e+00   3.108170e-02
  6.310853e-01    1.722797e+00   3.144526e-02
  6.332957e-01    1.738795e+00   3.152995e-02
  6.355062e-01    1.748353e+00   3.155506e-02
  6.377167e-01    1.733852e+00   3.136364e-02
  6.399271e-01    1.736298e+00   3.132560e-02
  6.421376e-01    1.766312e+00   3.153490e-02
  6.443480e-01    1.711087e+00   3.097897e-02
  6.465585e-01    1.722913e+00   3.102694e-02
  6.487689e-01    1.675538e+00   3.053963e-02
  6.509794e-01    1.686175e+00   3.057861e-02
  6.531899e-01    1.679907e+00   3.046435e-02
  6.554003e-01    1.599910e+00   2.967424e-02
  6.576108e-01    1.621131e+00   2.981477e-02
  6.598212e-01    1.628410e+00   2.982612e-02
  6.620317e-01    1.587288e+00   2.939253e-02
  6.642421e-01    1.613171e+00   2.957637e-02
  6.664526e-01    1.599910e+00   2.940030e-02
  6.686630e-01    1.602169e+00   2.936664e-02
  6.708735e-01    1.647737e+00   2.972670e-02
  6.730840e-01    1.603421e+00   2.927077e-02
  6.752944e-01    1.573182e+00   2.894071e-02
  6.775049e-01    1.586293e+00   2.900829e-02
  6.797153e-01    1.594337e+00   2.902909e-02
  6.819258e-01    1.638660e+00   2.937675e-02
  6.841362e-01    1.611820e+00   2.908281e-02
  6.863467e-01    1.559020e+00   2.855125e-02
  6.885572e-01    1.569677e+00   2.859733e-02
  6.907676e-01    1.632503e+00   2.911174e-02
  6.929781e-01    1.581944e+00   2.860649e-02
  6.951885e-01    1.607898e+00   2.878909e-02
  6.973990e-01    1.616891e+00   2.881846e-02
  6.996094e-01    1.599141e+00   2.860942e-02
  7.018199e-01    1.636351e+00   2.888956e-02
  7.040303e-01    1.606307e+00   2.857285e-02
  7.062408e-01    1.581754e+00   2.830396e-02
  7.084513e-01    1.648356e+00   2.884344e-02
  7.106617e-01    1.654298e+00   2.884519e-02
  7.128722e-01    1.615463e+00   2.845529e-02
  7.150826e-01    1.581662e+00   2.810749e-02
  7.172931e-01    1.573821e+00   2.798940e-02
  7.195035e-01    1.575163e+00   2.795317e-02
  7.217140e-01    1.563260e+00   2.789665e-02
  7.239245e-01    1.551912e+00   2.802028e-02
  7.261349e-01    1.581479e+00   2.839481e-02
  7.283454e-01    1.591815e+00   2.856025e-02
  7.305558e-01    1.545455e+00   2.819478e-02
  7.327663e-01    1.556077e+00   2.833373e-02
  7.349767e-01    1.552114e+00   2.831389e-02
  7.371872e-01    1.552559e+00   2.830685e-02
  7.393976e-01    1.565906e+00   2.841403e-02
  7.416081e-01    1.606189e+00   2.876086e-02
  7.438186e-01    1.581409e+00   2.839352e-02
  7.460290e-01    1.524651e+00   2.758980e-02
  7.482395e-01    1.589689e+00   2.800010e-02
  7.504499e-01    1.582637e+00   2.780134e-02
  7.526604e-01    1.572913e+00   2.759929e-02
  7.548708e-01    1.595268e+00   2.770473e-02
  7.570813e-01    1.547556e+00   2.723677e-02
  7.592918e-01    1.554096e+00   2.725929e-02
  7.615022e-01    1.541934e+00   2.711899e-02
  7.637127e-01    1.528275e+00   2.696631e-02
  7.659231e-01    1.558052e+00   2.719589e-02
  7.681336e-01    1.595250e+00   2.748684e-02
  7.703440e-01    1.587001e+00   2.738433e-02
  7.725545e-01    1.577518e+00   2.727148e-02
  7.747650e-01    1.591759e+00   2.735590e-02
  7.769754e-01    1.591924e+00   2.730434e-02
  7.791859e-01    1.574341e+00   2.709966e-02
  7.813963e-01    1.545479e+00   2.679808e-02
  7.836068e-01    1.550088e+00   2.678657e-02
  7.858172e-01    1.583215e+00   2.702066e-02
  7.880277e-01    1.585814e+00   2.699141e-02
  7.902381e-01    1.596085e+00   2.702946e-02
  7.924486e-01    1.612570e+00   2.711838e-02
  7.946591e-01    1.633317e+00   2.724345e-02
  7.968695e-01    1.660575e+00   2.742073e-02
  7.990800e-01    1.648169e+00   2.726926e-02
  8.012904e-01    1.659562e+00   2.731604e-02
  8.035009e-01    1.655634e+00   2.723514e-02
  8.057113e-01    1.652951e+00   2.716600e-02
  8.079218e-01    1.685745e+00   2.738682e-02
  8.101323e-01    1.645040e+00   2.700821e-02
  8.123427e-01    1.657550e+00   2.706449e-02
  8.145532e-01    1.671695e+00   2.713320e-02
  8.167636e-01    1.652027e+00   2.692779e-02
  8.189741e-01    1.648357e+00   2.685299e-02
  8.211845e-01    1.668638e+00   2.697241e-02
  8.233950e-01    1.617288e+00   2.651099e-02
  8.256054e-01    1.627221e+00   2.654818e-02
  8.278159e-01    1.640854e+00   2.661516e-02
  8.300264e-01    1.663437e+00   2.675428e-02
  8.322368e-01    1.616493e+00   2.633123e-02
  8.344473e-01    1.622550e+00   2.633734e-02
  8.366577e-01    1.653127e+00   2.654158e-02
  8.388682e-01    1.668734e+00   2.662396e-02
  8.410786e-01    1.661638e+00   2.652494e-02
  8.432891e-01    1.618193e+00   2.613432e-02
  8.454996e-01    1.643761e+00   2.629827e-02
  8.477100e-01    1.621442e+00   2.607768e-02
  8.499205e-01    1.632915e+00   2.612866e-02
  8.521309e-01    1.661690e+00   2.631680e-02
  8.543414e-01    1.640687e+00   2.610914e-02
  8.565518e-01    1.624548e+00   2.593998e-02
  8.587623e-01    1.645539e+00   2.606636e-02
  8.609727e-01    1.624299e+00   2.585744e-02
  8.631832e-01    1.605598e+00   2.566852e-02
  8.653937e-01    1.613943e+00   2.569558e-02
  8.676041e-01    1.606796e+00   2.559995e-02
  8.698146e-01    1.598895e+00   2.549790e-02
  8.720250e-01    1.584151e+00   2.534138e-02
  8.742355e-01    1.572099e+00   2.520638e-02
  8.764459e-01    1.599810e+00   2.538876e-02
  8.786564e-01    1.615777e+00   2.547711e-02
  8.808669e-01    1.582812e+00   2.517766e-02
  8.830773e-01    1.582163e+00   2.513460e-02
  8.852878e-01    1.571278e+00   2.501042e-02
  8.874982e-01    1.605873e+00   2.524756e-02
  8.897087e-01    1.598290e+00   2.515025e-02
  8.919191e-01    1.561326e+00   2.482041e-02
  8.941296e-01    1.555085e+00   2.473401e-02
  8.963401e-01    1.589758e+00   2.497190e-02
  8.985505e-01    1.612178e+00   2.511029e-02
  9.007610e-01    1.584638e+00   2.485833e-02
  9.029714e-01    1.574521e+00   2.474329e-02
  9.051819e-01    1.569726e+00   2.466872e-02
  9.073923e-01    1.544316e+00   2.443231e-02
  9.096028e-01    1.590379e+00   2.475919e-02
  9.118132e-01    1.586440e+00   2.469247e-02
  9.140237e-01    1.582075e+00   2.462202e-02
  9.162342e-01    1.606962e+00   2.478032e-02
  9.184446e-01    1.613715e+00   2.479641e-02
  9.206551e-01    1.593604e+00   2.460590e-02
  9.228655e-01    1.607503e+00   2.467763e-02
  9.250760e-01    1.644048e+00   2.492075e-02
  9.272864e-01    1.626644e+00   2.475399e-02
  9.294969e-01    1.599046e+00   2.450732e-02
  9.317074e-01    1.573554e+00   2.427684e-02
  9.339178e-01    1.584435e+00   2.432735e-02
  9.361283e-01    1.627088e+00   2.461628e-02
  9.383387e-01    1.647000e+00   2.473277e-02
  9.405492e-01    1.617813e+00   2.447842e-02
  9.427596e-01    1.654057e+00   2.471544e-02
  9.449701e-01    1.698474e+00   2.501108e-02
  9.471805e-01    1.696588e+00   2.496178e-02
  9.493910e-01    1.694501e+00   2.491218e-02
  9.516015e-01    1.705649e+00   2.495910e-02
  9.538119e-01    1.717112e+00   2.500852e-02
  9.560224e-01    1.749491e+00   2.520765e-02
  9.582328e-01    1.749529e+00   2.517413e-02
  9.604433e-01    1.756628e+00   2.518944e-02
  9.626537e-01    1.783846e+00   2.534967e-02
  9.648642e-01    1.817604e+00   2.555340e-02
  9.670747e-01    1.791666e+00   2.533542e-02
  9.692851e-01    1.844900e+00   2.567485e-02
  9.714956e-01    1.866383e+00   2.578753e-02
  9.737060e-01    1.805598e+00   2.533080e-02
  9.759165e-01    1.816665e+00   2.537247e-02
  9.781269e-01    1.808481e+00   2.528215e-02
  9.803374e-01    1.825479e+00   2.536555e-02
  9.825478e-01    1.801790e+00   2.516719e-02
  9.847583e-01    1.800277e+00   2.512245e-02
  9.869688e-01    1.802982e+00   2.510767e-02
  9.891792e-01    1.805238e+00   2.508998e-02
  9.913897e-01    1.799617e+00   2.501709e-02
  9.936001e-01    1.763911e+00   2.473526e-02
  9.958106e-01    1.722649e+00   2.441100e-02
  9.980210e-01    1.688397e+00   2.413572e-02
  1.000231e+00    1.691108e+00   2.428742e-02
  1.002442e+00    1.683482e+00   2.436136e-02
  1.004652e+00    1.631032e+00   2.404575e-02
  1.006863e+00    1.599877e+00   2.386440e-02
  1.009073e+00    1.612987e+00   2.399866e-02
  1.011284e+00    1.589206e+00   2.385294e-02
  1.013494e+00    1.608902e+00   2.402408e-02
  1.015705e+00    1.627650e+00   2.418649e-02
  1.017915e+00    1.598686e+00   2.398686e-02
  1.020126e+00    1.571683e+00   2.379949e-02
  1.022336e+00    1.553477e+00   2.367289e-02
  1.024547e+00    1.537091e+00   2.355889e-02
  1.026757e+00    1.525889e+00   2.348119e-02
  1.028967e+00    1.503446e+00   2.331545e-02
  1.031178e+00    1.501615e+00   2.330733e-02
  1.033388e+00    1.505277e+00   2.334076e-02
  1.035599e+00    1.482943e+00   2.317033e-02
  1.037809e+00    1.485005e+00   2.318964e-02
  1.040020e+00    1.503699e+00   2.333641e-02
  1.042230e+00    1.496299e+00   2.328084e-02
  1.044441e+00    1.524569e+00   2.349951e-02
  1.046651e+00    1.550245e+00   2.369674e-02
  1.048862e+00    1.575104e+00   2.388517e-02
  1.051072e+00    1.573629e+00   2.387159e-02
  1.053282e+00    1.489369e+00   2.322276e-02
  1.055493e+00    1.463721e+00   2.301765e-02
  1.057703e+00    1.492985e+00   2.324509e-02
  1.059914e+00    1.475690e+00   2.310584e-02
  1.062124e+00    1.468646e+00   2.304659e-02
  1.064335e+00    1.456800e+00   2.295004e-02
  1.066545e+00    1.465239e+00   2.301046e-02
  1.068756e+00    1.467847e+00   2.302722e-02
  1.070966e+00    1.471057e+00   2.304584e-02
  1.073177e+00    1.475104e+00   2.307149e-02
  1.075387e+00    1.458119e+00   2.293304e-02
  1.077597e+00    1.461091e+00   2.294918e-02
  1.079808e+00    1.461447e+00   2.281935e-02
  1.082018e+00    1.446610e+00   2.251521e-02
  1.084229e+00    1.433815e+00   2.230638e-02
  1.086439e+00    1.414332e+00   2.206811e-02
  1.088650e+00    1.440891e+00   2.219903e-02
  1.090860e+00    1.449775e+00   2.219984e-02
  1.093071e+00    1.453326e+00   2.216479e-02
  1.095281e+00    1.424557e+00   2.188747e-02
  1.097492e+00    1.454139e+00   2.205846e-02
  1.099702e+00    1.452826e+00   2.199691e-02
  1.101912e+00    1.443456e+00   2.187694e-02
  1.104123e+00    1.447708e+00   2.186072e-02
  1.106333e+00    1.430789e+00   2.168820e-02
  1.108544e+00    1.462800e+00   2.188471e-02
  1.110754e+00    1.480588e+00   2.197356e-02
  1.112965e+00    1.456650e+00   2.175417e-02
  1.115175e+00    1.448653e+00   2.165279e-02
  1.117386e+00    1.437127e+00   2.152690e-02
  1.119596e+00    1.507254e+00   2.200672e-02
  1.121807e+00    1.601214e+00   2.264094e-02
  1.124017e+00    1.499985e+00   2.187576e-02
  1.126228e+00    1.423292e+00   2.127317e-02
  1.128438e+00    1.390636e+00   2.099108e-02
  1.130648e+00    1.375454e+00   2.084215e-02
  1.132859e+00    1.367659e+00   2.074899e-02
  1.135069e+00    1.359616e+00   2.065358e-02
  1.137280e+00    1.367069e+00   2.067740e-02
  1.139490e+00    1.348584e+00   2.050452e-02
  1.141701e+00    1.365427e+00   2.059927e-02
  1.143911e+00    1.365613e+00   2.056903e-02
  1.146122e+00    1.351870e+00   2.043360e-02
  1.148332e+00    1.362908e+00   2.048514e-02
  1.150543e+00    1.390899e+00   2.066346e-02
  1.152753e+00    1.369823e+00   2.047554e-02
  1.154963e+00    1.378581e+00   2.050979e-02
  1.157174e+00    1.364177e+00   2.037230e-02
  1.159384e+00    1.366185e+00   2.035751e-02
  1.161595e+00    1.351194e+00   2.021587e-02
  1.163805e+00    1.372416e+00   2.034471e-02
  1.166016e+00    1.343540e+00   2.010037e-02
  1.168226e+00    1.324210e+00   1.992677e-02
  1.170437e+00    1.330511e+00   1.994582e-02
  1.172647e+00    1.372636e+00   2.023017e-02
  1.174858e+00    1.354178e+00   2.006571e-02
  1.177068e+00    1.351281e+00   2.001608e-02
  1.179278e+00    1.358546e+00   2.004128e-02
  1.181489e+00    1.328020e+00   1.978815e-02
  1.183699e+00    1.350458e+00   1.992712e-02
  1.185910e+00    1.375915e+00   2.008610e-02
  1.188120e+00    1.394171e+00   2.019188e-02
  1.190331e+00    1.371549e+00   2.000047e-02
  1.192541e+00    1.360107e+00   1.988944e-02
  1.194752e+00    1.355427e+00   1.982810e-02
  1.196962e+00    1.349834e+00   1.976143e-02
  1.199173e+00    1.343298e+00   1.968710e-02
  1.201383e+00    1.334749e+00   1.959735e-02
  1.203593e+00    1.337747e+00   1.959462e-02
  1.205804e+00    1.335452e+00   1.955204e-02
  1.208014e+00    1.363298e+00   1.972783e-02
  1.210225e+00    1.371718e+00   1.976316e-02
  1.212435e+00    1.357247e+00   1.963377e-02
  1.214646e+00    1.348206e+00   1.954217e-02
  1.216856e+00    1.354674e+00   1.956347e-02
  1.219067e+00    1.357881e+00   1.956209e-02
  1.221277e+00    1.349900e+00   1.947948e-02
  1.223488e+00    1.368100e+00   1.958443e-02
  1.225698e+00    1.354708e+00   1.946143e-02
  1.227909e+00    1.315372e+00   1.914699e-02
  1.230119e+00    1.341501e+00   1.930448e-02
  1.232329e+00    1.336648e+00   1.923897e-02
  1.234540e+00    1.330721e+00   1.916619e-02
  1.236750e+00    1.321297e+00   1.906827e-02
  1.238961e+00    1.314033e+00   1.898917e-02
  1.241171e+00    1.300376e+00   1.886650e-02
  1.243382e+00    1.325941e+00   1.902773e-02
  1.245592e+00    1.362625e+00   1.926495e-02
  1.247803e+00    1.363723e+00   1.924894e-02
  1.250013e+00    1.335504e+00   1.902534e-02
  1.252224e+00    1.328622e+00   1.895318e-02
  1.254434e+00    1.337195e+00   1.899061e-02
  1.256644e+00    1.317461e+00   1.882702e-02
  1.258855e+00    1.339439e+00   1.896022e-02
  1.261065e+00    1.369689e+00   1.914959e-02
  1.263276e+00    1.364416e+00   1.908964e-02
  1.265486e+00    1.343298e+00   1.891852e-02
  1.267697e+00    1.352478e+00   1.895999e-02
  1.269907e+00    1.376074e+00   1.910177e-02
  1.272118e+00    1.354090e+00   1.892596e-02
  1.274328e+00    1.356059e+00   1.891694e-02
  1.276539e+00    1.365563e+00   1.896018e-02
  1.278749e+00    1.348944e+00   1.882219e-02
  1.280959e+00    1.347377e+00   1.878873e-02
  1.283170e+00    1.325822e+00   1.861563e-02
  1.285380e+00    1.322059e+00   1.856696e-02
  1.287591e+00    1.339466e+00   1.866683e-02
  1.289801e+00    1.400635e+00   1.906670e-02
  1.292012e+00    1.358191e+00   1.875846e-02
  1.294222e+00    1.344151e+00   1.864501e-02
  1.296433e+00    1.361359e+00   1.874833e-02
  1.298643e+00    1.365390e+00   1.875950e-02
  1.300854e+00    1.345486e+00   1.860589e-02
  1.303064e+00    1.328885e+00   1.847165e-02
  1.305274e+00    1.382385e+00   1.881813e-02
  1.307485e+00    1.363454e+00   1.866718e-02
  1.309695e+00    1.360849e+00   1.862702e-02
  1.311906e+00    1.354954e+00   1.856487e-02
  1.314116e+00    1.357825e+00   1.856368e-02
  1.316327e+00    1.360674e+00   1.856136e-02
  1.318537e+00    1.362792e+00   1.855383e-02
  1.320748e+00    1.357888e+00   1.849879e-02
  1.322958e+00    1.365164e+00   1.852766e-02
  1.325169e+00    1.360971e+00   1.847806e-02
  1.327379e+00    1.368437e+00   1.850672e-02
  1.329589e+00    1.395690e+00   1.866868e-02
  1.331800e+00    1.390802e+00   1.861497e-02
  1.334010e+00    1.368591e+00   1.844493e-02
  1.336221e+00    1.349467e+00   1.829385e-02
  1.338431e+00    1.352946e+00   1.829653e-02
  1.340642e+00    1.350011e+00   1.834084e-02
  1.342852e+00    1.369022e+00   1.857089e-02
  1.345063e+00    1.401424e+00   1.883981e-02
  1.347273e+00    1.387927e+00   1.878460e-02
  1.349484e+00    1.399298e+00   1.888957e-02
  1.351694e+00    1.394228e+00   1.887840e-02
  1.353905e+00    1.395765e+00   1.890710e-02
  1.356115e+00    1.432623e+00   1.917058e-02
  1.358325e+00    1.471026e+00   1.943976e-02
  1.360536e+00    1.462853e+00   1.939779e-02
  1.362746e+00    1.435226e+00   1.922362e-02
  1.364957e+00    1.386810e+00   1.890435e-02
  1.367167e+00    1.394608e+00   1.896470e-02
  1.369378e+00    1.401450e+00   1.901729e-02
  1.371588e+00    1.408922e+00   1.907319e-02
  1.373799e+00    1.426833e+00   1.919782e-02
  1.376009e+00    1.430810e+00   1.922807e-02
  1.378220e+00    1.416533e+00   1.913450e-02
  1.380430e+00    1.418406e+00   1.914993e-02
  1.382640e+00    1.428029e+00   1.921574e-02
  1.384851e+00    1.366953e+00   1.880125e-02
  1.387061e+00    1.324240e+00   1.850543e-02
  1.389272e+00    1.340051e+00   1.861581e-02
  1.391482e+00    1.320227e+00   1.847691e-02
  1.393693e+00    1.318437e+00   1.846349e-02
  1.395903e+00    1.318396e+00   1.846170e-02
  1.398114e+00    1.317271e+00   1.845240e-02
  1.400324e+00    1.333091e+00   1.856073e-02
  1.402535e+00    1.285021e+00   1.822069e-02
  1.404745e+00    1.291013e+00   1.826072e-02
  1.406955e+00    1.316117e+00   1.843469e-02
  1.409166e+00    1.300268e+00   1.832000e-02
  1.411376e+00    1.295434e+00   1.828277e-02
  1.413587e+00    1.306887e+00   1.835954e-02
  1.415797e+00    1.301081e+00   1.831513e-02
  1.418008e+00    1.301708e+00   1.827717e-02
  1.420218e+00    1.267871e+00   1.788844e-02
  1.422429e+00    1.289804e+00   1.795652e-02
  1.424639e+00    1.332636e+00   1.818596e-02
  1.426850e+00    1.353110e+00   1.826868e-02
  1.429060e+00    1.333434e+00   1.808518e-02
  1.431270e+00    1.309050e+00   1.787408e-02
  1.433481e+00    1.320892e+00   1.791297e-02
  1.435691e+00    1.295878e+00   1.770373e-02
  1.437902e+00    1.295212e+00   1.766235e-02
  1.440112e+00    1.276340e+00   1.749779e-02
  1.442323e+00    1.266169e+00   1.739491e-02
  1.444533e+00    1.299238e+00   1.758769e-02
  1.446744e+00    1.293729e+00   1.751894e-02
  1.448954e+00    1.288129e+00   1.745058e-02
  1.451165e+00    1.282931e+00   1.738542e-02
  1.453375e+00    1.284348e+00   1.736683e-02
  1.455586e+00    1.272129e+00   1.725582e-02
  1.457796e+00    1.271953e+00   1.722710e-02
  1.460006e+00    1.267207e+00   1.716770e-02
  1.462217e+00    1.278205e+00   1.721574e-02
  1.464427e+00    1.276092e+00   1.717582e-02
  1.466638e+00    1.287955e+00   1.722997e-02
  1.468848e+00    1.300768e+00   1.728981e-02
  1.471059e+00    1.271131e+00   1.706662e-02
  1.473269e+00    1.274298e+00   1.706342e-02
  1.475480e+00    1.272514e+00   1.702767e-02
  1.477690e+00    1.285029e+00   1.708721e-02
  1.479901e+00    1.275941e+00   1.700276e-02
  1.482111e+00    1.276229e+00   1.698128e-02
  1.484321e+00    1.300256e+00   1.711696e-02
  1.486532e+00    1.294504e+00   1.705649e-02
  1.488742e+00    1.284871e+00   1.697008e-02
  1.490953e+00    1.289739e+00   1.697936e-02
  1.493163e+00    1.285487e+00   1.692888e-02
  1.495374e+00    1.299320e+00   1.699791e-02
  1.497584e+00    1.297438e+00   1.696367e-02
  1.499795e+00    1.263134e+00   1.671622e-02
  1.502005e+00    1.243175e+00   1.656210e-02
  1.504216e+00    1.231205e+00   1.646136e-02
  1.506426e+00    1.217371e+00   1.634813e-02
  1.508636e+00    1.230543e+00   1.641612e-02
  1.510847e+00    1.235001e+00   1.642420e-02
  1.513057e+00    1.262398e+00   1.658021e-02
  1.515268e+00    1.265535e+00   1.657498e-02
  1.517478e+00    1.274087e+00   1.660553e-02
  1.519689e+00    1.281667e+00   1.662964e-02
  1.521899e+00    1.264033e+00   1.649163e-02
  1.524110e+00    1.259639e+00   1.644256e-02
  1.526320e+00    1.253395e+00   1.638215e-02
  1.528531e+00    1.257317e+00   1.638796e-02
  1.530741e+00    1.251287e+00   1.632943e-02
  1.532951e+00    1.255408e+00   1.633670e-02
  1.535162e+00    1.244786e+00   1.635386e-02
  1.537372e+00    1.223452e+00   1.627935e-02
  1.539583e+00    1.225368e+00   1.632597e-02
  1.541793e+00    1.266451e+00   1.660441e-02
  1.544004e+00    1.255469e+00   1.653253e-02
  1.546214e+00    1.234380e+00   1.639159e-02
  1.548425e+00    1.225934e+00   1.633567e-02
  1.550635e+00    1.214410e+00   1.626827e-02
  1.552846e+00    1.215368e+00   1.628422e-02
  1.555056e+00    1.238087e+00   1.639435e-02
  1.557266e+00    1.231442e+00   1.624042e-02
  1.559477e+00    1.216765e+00   1.608490e-02
  1.561687e+00    1.252745e+00   1.629019e-02
  1.563898e+00    1.253931e+00   1.628071e-02
  1.566108e+00    1.245010e+00   1.620670e-02
  1.568319e+00    1.248314e+00   1.621258e-02
  1.570529e+00    1.237067e+00   1.611429e-02
  1.572740e+00    1.252063e+00   1.618397e-02
  1.574950e+00    1.250563e+00   1.614791e-02
  1.577161e+00    1.251110e+00   1.612590e-02
  1.579371e+00    1.228760e+00   1.595769e-02
  1.581582e+00    1.248830e+00   1.606766e-02
  1.583792e+00    1.277704e+00   1.623411e-02
  1.586002e+00    1.254786e+00   1.607017e-02
  1.588213e+00    1.274606e+00   1.617912e-02
  1.590423e+00    1.338269e+00   1.655741e-02
  1.592634e+00    1.352210e+00   1.662094e-02
  1.594844e+00    1.307205e+00   1.632004e-02
  1.597055e+00    1.288327e+00   1.618089e-02
  1.599265e+00    1.326173e+00   1.639543e-02
  1.601476e+00    1.295447e+00   1.618365e-02
  1.603686e+00    1.306924e+00   1.623485e-02
  1.605897e+00    1.386967e+00   1.670330e-02
  1.608107e+00    1.376557e+00   1.661991e-02
  1.610317e+00    1.315051e+00   1.622446e-02
  1.612528e+00    1.276533e+00   1.596559e-02
  1.614738e+00    1.279024e+00   1.596183e-02
  1.616949e+00    1.268980e+00   1.587974e-02
  1.619159e+00    1.244148e+00   1.570472e-02
  1.621370e+00    1.255832e+00   1.575954e-02
  1.623580e+00    1.234134e+00   1.560434e-02
  1.625791e+00    1.195827e+00   1.534208e-02
  1.628001e+00    1.195115e+00   1.531930e-02
  1.630212e+00    1.192497e+00   1.528477e-02
  1.632422e+00    1.176031e+00   1.516105e-02
  1.634632e+00    1.194654e+00   1.526322e-02
  1.636843e+00    1.182582e+00   1.516835e-02
  1.639053e+00    1.150288e+00   1.494268e-02
  1.641264e+00    1.169850e+00   1.505209e-02
  1.643474e+00    1.163000e+00   1.499058e-02
  1.645685e+00    1.168877e+00   1.501165e-02
  1.647895e+00    1.178251e+00   1.505498e-02
  1.650106e+00    1.172423e+00   1.500055e-02
  1.652316e+00    1.162442e+00   1.491996e-02
  1.654527e+00    1.149922e+00   1.482269e-02
  1.656737e+00    1.140160e+00   1.474303e-02
  1.658947e+00    1.158424e+00   1.484418e-02
  1.661158e+00    1.135263e+00   1.467872e-02
  1.663368e+00    1.137488e+00   1.467695e-02
  1.665579e+00    1.123677e+00   1.457142e-02
  1.667789e+00    1.125685e+00   1.456811e-02
  1.670000e+00    1.126040e+00   1.455485e-02
  1.672210e+00    1.097280e+00   1.435196e-02
  1.674421e+00    1.116747e+00   1.446331e-02
  1.676631e+00    1.108889e+00   1.439641e-02
  1.678842e+00    1.106546e+00   1.436537e-02
  1.681052e+00    1.074957e+00   1.414359e-02
  1.683263e+00    1.074904e+00   1.412819e-02
  1.685473e+00    1.067983e+00   1.406763e-02
  1.687683e+00    1.072630e+00   1.408282e-02
  1.689894e+00    1.086537e+00   1.415803e-02
  1.692104e+00    1.066307e+00   1.401076e-02
  1.694315e+00    1.047714e+00   1.387374e-02
  1.696525e+00    1.065531e+00   1.397607e-02
  1.698736e+00    1.063218e+00   1.394609e-02
  1.700946e+00    1.050994e+00   1.385063e-02
  1.703157e+00    1.035625e+00   1.373448e-02
  1.705367e+00    1.045281e+00   1.378392e-02
  1.707578e+00    1.033258e+00   1.368997e-02
  1.709788e+00    1.008551e+00   1.351142e-02
  1.711998e+00    1.028009e+00   1.362623e-02
  1.714209e+00    1.022892e+00   1.357797e-02
  1.716419e+00    9.978967e-01   1.339702e-02
  1.718630e+00    1.016624e+00   1.350797e-02
  1.720840e+00    1.038380e+00   1.363751e-02
  1.723051e+00    1.008702e+00   1.342745e-02
  1.725261e+00    1.007208e+00   1.340291e-02
  1.727472e+00    1.008340e+00   1.339635e-02
  1.729682e+00    9.903868e-01   1.326326e-02
  1.731893e+00    9.990963e-01   1.330763e-02
  1.734103e+00    9.622291e-01   1.304634e-02
  1.736313e+00    9.731582e-01   1.310640e-02
  1.738524e+00    9.846312e-01   1.316975e-02
  1.740734e+00    9.779884e-01   1.311170e-02
  1.742945e+00    9.614598e-01   1.298721e-02
  1.745155e+00    9.721970e-01   1.304622e-02
  1.747366e+00    9.694832e-01   1.301432e-02
  1.749576e+00    9.853056e-01   1.310642e-02
  1.751787e+00    9.438051e-01   1.281438e-02
  1.753997e+00    9.398854e-01   1.277460e-02
  1.756208e+00    9.593475e-01   1.289310e-02
  1.758418e+00    9.667645e-01   1.292978e-02
  1.760628e+00    9.402633e-01   1.273818e-02
  1.762839e+00    9.386907e-01   1.271447e-02
  1.765049e+00    9.428270e-01   1.272948e-02
  1.767260e+00    9.420848e-01   1.271175e-02
  1.769470e+00    9.675502e-01   1.286937e-02
  1.771681e+00    9.327211e-01   1.262261e-02
  1.773891e+00    9.386081e-01   1.264940e-02
  1.776102e+00    9.412498e-01   1.265436e-02
  1.778312e+00    9.355724e-01   1.260347e-02
  1.780523e+00    9.303712e-01   1.255573e-02
  1.782733e+00    9.311086e-01   1.254808e-02
  1.784944e+00    9.284852e-01   1.251755e-02
  1.787154e+00    9.082878e-01   1.236829e-02
  1.789364e+00    9.040154e-01   1.232685e-02
  1.791575e+00    9.290551e-01   1.248385e-02
  1.793785e+00    9.339929e-01   1.250450e-02
  1.795996e+00    9.172826e-01   1.237967e-02
  1.798206e+00    9.110395e-01   1.232498e-02
  1.800417e+00    9.056880e-01   1.227613e-02
  1.802627e+00    8.930711e-01   1.217853e-02
  1.804838e+00    8.914271e-01   1.215534e-02
  1.807048e+00    9.187525e-01   1.232730e-02
  1.809259e+00    9.438405e-01   1.248063e-02
  1.811469e+00    9.283780e-01   1.236283e-02
  1.813679e+00    8.929561e-01   1.210977e-02
  1.815890e+00    8.732262e-01   1.196070e-02
  1.818100e+00    8.679653e-01   1.190975e-02
  1.820311e+00    9.020713e-01   1.212664e-02
  1.822521e+00    9.022583e-01   1.211296e-02
  1.824732e+00    9.088267e-01   1.214200e-02
  1.826942e+00    8.790117e-01   1.192892e-02
  1.829153e+00    8.774757e-01   1.190683e-02
  1.831363e+00    8.914837e-01   1.198940e-02
  1.833574e+00    8.970009e-01   1.201467e-02
  1.835784e+00    8.773711e-01   1.187108e-02
  1.837994e+00    8.913258e-01   1.195329e-02
  1.840205e+00    9.024063e-01   1.201602e-02
  1.842415e+00    8.915503e-01   1.193163e-02
  1.844626e+00    8.692445e-01   1.176988e-02
  1.846836e+00    8.624082e-01   1.171210e-02
  1.849047e+00    9.060601e-01   1.199297e-02
  1.851257e+00    8.943111e-01   1.190524e-02
  1.853468e+00    8.880345e-01   1.185445e-02
  1.855678e+00    9.002560e-01   1.192666e-02
  1.857889e+00    9.052455e-01   1.195093e-02
  1.860099e+00    9.129027e-01   1.199247e-02
  1.862309e+00    8.996238e-01   1.189621e-02
  1.864520e+00    8.848187e-01   1.178921e-02
  1.866730e+00    8.442006e-01   1.150611e-02
  1.868941e+00    8.514490e-01   1.154444e-02
  1.871151e+00    8.657945e-01   1.162982e-02
  1.873362e+00    8.641199e-01   1.160712e-02
  1.875572e+00    8.547192e-01   1.153285e-02
  1.877783e+00    8.564216e-01   1.153284e-02
  1.879993e+00    8.619680e-01   1.155887e-02
  1.882204e+00    8.559322e-01   1.150736e-02
  1.884414e+00    8.413214e-01   1.139766e-02
  1.886624e+00    8.422881e-01   1.139316e-02
  1.888835e+00    8.433167e-01   1.138911e-02
  1.891045e+00    8.450373e-01   1.138982e-02
  1.893256e+00    8.443027e-01   1.137373e-02
  1.895466e+00    8.397862e-01   1.133210e-02
  1.897677e+00    8.156967e-01   1.115757e-02
  1.899887e+00    8.370975e-01   1.129199e-02
  1.902098e+00    8.221740e-01   1.118013e-02
  1.904308e+00    8.186714e-01   1.114575e-02
  1.906519e+00    8.225411e-01   1.116128e-02
  1.908729e+00    8.249366e-01   1.116695e-02
  1.910940e+00    8.222365e-01   1.113755e-02
  1.913150e+00    8.387287e-01   1.123805e-02
  1.915360e+00    8.267458e-01   1.114684e-02
  1.917571e+00    8.170966e-01   1.107075e-02
  1.919781e+00    8.333007e-01   1.116923e-02
  1.921992e+00    8.242454e-01   1.109775e-02
  1.924202e+00    8.068259e-01   1.096914e-02
  1.926413e+00    8.173706e-01   1.103028e-02
  1.928623e+00    8.152126e-01   1.100516e-02
  1.930834e+00    8.202170e-01   1.102842e-02
  1.933044e+00    8.019993e-01   1.089465e-02
  1.935255e+00    7.973973e-01   1.085311e-02
  1.937465e+00    7.971101e-01   1.084080e-02
  1.939675e+00    8.228197e-01   1.100330e-02
  1.941886e+00    8.136210e-01   1.093130e-02
  1.944096e+00    8.136011e-01   1.092090e-02
  1.946307e+00    8.073952e-01   1.086881e-02
  1.948517e+00    8.108965e-01   1.088183e-02
  1.950728e+00    8.010755e-01   1.080547e-02
  1.952938e+00    7.959188e-01   1.076056e-02
  1.955149e+00    8.039812e-01   1.080463e-02
  1.957359e+00    7.979318e-01   1.075387e-02
  1.959570e+00    7.966557e-01   1.073437e-02
  1.961780e+00    8.003702e-01   1.074941e-02
  1.963990e+00    8.121407e-01   1.081791e-02
  1.966201e+00    8.000284e-01   1.072684e-02
  1.968411e+00    7.839875e-01   1.060862e-02
  1.970622e+00    8.018254e-01   1.071845e-02
  1.972832e+00    7.908689e-01   1.063498e-02
  1.975043e+00    7.762715e-01   1.052639e-02
  1.977253e+00    7.888739e-01   1.060152e-02
  1.979464e+00    7.983705e-01   1.065500e-02
  1.981674e+00    7.912410e-01   1.059702e-02
  1.983885e+00    7.851880e-01   1.054636e-02
  1.986095e+00    7.761574e-01   1.047586e-02
  1.988305e+00    7.921714e-01   1.057339e-02
  1.990516e+00    8.021334e-01   1.062961e-02
  1.992726e+00    7.905501e-01   1.054284e-02
  1.994937e+00    7.877657e-01   1.051405e-02
  1.997147e+00    7.716582e-01   1.039631e-02
  1.999358e+00    7.718043e-01   1.038746e-02
  2.001568e+00    7.834905e-01   1.045491e-02
  2.003779e+00    7.945935e-01   1.051665e-02
  2.005989e+00    7.946608e-01   1.050491e-02
  2.008200e+00    7.665628e-01   1.030601e-02
  2.010410e+00    7.782354e-01   1.037236e-02
  2.012621e+00    7.757072e-01   1.034374e-02
  2.014831e+00    7.864815e-01   1.040371e-02
  2.017041e+00    7.552471e-01   1.018475e-02
  2.019252e+00    7.555147e-01   1.017665e-02
  2.021462e+00    7.512696e-01   1.013858e-02
  2.023673e+00    7.743881e-01   1.028395e-02
  2.025883e+00    7.893672e-01   1.037325e-02
  2.028094e+00    7.888845e-01   1.036029e-02
  2.030304e+00    7.739459e-01   1.025212e-02
  2.032515e+00    7.659323e-01   1.018956e-02
  2.034725e+00    7.683948e-01   1.019643e-02
  2.036936e+00    7.705271e-01   1.020115e-02
  2.039146e+00    7.790297e-01   1.024757e-02
  2.041356e+00    7.781807e-01   1.023221e-02
  2.043567e+00    7.774696e-01   1.021809e-02
  2.045777e+00    7.683880e-01   1.014891e-02
  2.047988e+00    7.734074e-01   1.017253e-02
  2.050198e+00    7.591786e-01   1.007006e-02
  2.052409e+00    7.502036e-01   1.000270e-02
  2.054619e+00    7.620399e-01   1.007388e-02
  2.056830e+00    7.677677e-01   1.010441e-02
  2.059040e+00    8.000321e-01   1.030678e-02
  2.061251e+00    7.974367e-01   1.028259e-02
  2.063461e+00    7.643163e-01   1.005913e-02
  2.065671e+00    7.520263e-01   9.969166e-03
  2.067882e+00    7.698413e-01   1.007742e-02
  2.070092e+00    7.744682e-01   1.009831e-02
  2.072303e+00    7.721382e-01   1.007382e-02
  2.074513e+00    7.721383e-01   1.006433e-02
  2.076724e+00    7.761612e-01   1.008085e-02
  2.078934e+00    7.662333e-01   1.000703e-02
  2.081145e+00    7.631753e-01   9.977836e-03
  2.083355e+00    7.582101e-01   9.936042e-03
  2.085566e+00    7.598410e-01   9.937711e-03
  2.087776e+00    7.824298e-01   1.007455e-02
  2.089986e+00    7.519718e-01   9.867687e-03
  2.092197e+00    7.401298e-01   9.780672e-03
  2.094407e+00    7.297785e-01   9.702872e-03
  2.096618e+00    7.428036e-01   9.780113e-03
  2.098828e+00    7.455299e-01   9.788672e-03
  2.101039e+00    7.581695e-01   9.862162e-03
  2.103249e+00    7.510816e-01   9.807193e-03
  2.105460e+00    7.326182e-01   9.676855e-03
  2.107670e+00    7.455047e-01   9.752748e-03
  2.109881e+00    7.356272e-01   9.678720e-03
  2.112091e+00    7.275300e-01   9.616295e-03
  2.114301e+00    7.383228e-01   9.678496e-03
  2.116512e+00    7.412081e-01   9.688485e-03
  2.118722e+00    7.317859e-01   9.617845e-03
  2.120933e+00    7.287043e-01   9.588636e-03
  2.123143e+00    7.194605e-01   9.518732e-03
  2.125354e+00    7.059300e-01   9.420337e-03
  2.127564e+00    7.147241e-01   9.470091e-03
  2.129775e+00    7.123953e-01   9.445972e-03
  2.131985e+00    7.073565e-01   9.403475e-03
  2.134196e+00    7.010764e-01   9.353130e-03
  2.136406e+00    7.135115e-01   9.426958e-03
  2.138617e+00    7.082952e-01   9.384006e-03
  2.140827e+00    6.888777e-01   9.270303e-03
  2.143037e+00    7.057626e-01   9.428659e-03
  2.145248e+00    7.134318e-01   9.501859e-03
  2.147458e+00    7.358850e-01   9.665707e-03
  2.149669e+00    7.346340e-01   9.669608e-03
  2.151879e+00    7.095681e-01   9.512498e-03
  2.154090e+00    7.057718e-01   9.494325e-03
  2.156300e+00    7.180426e-01   9.583211e-03
  2.158511e+00    7.031929e-01   9.488923e-03
  2.160721e+00    6.967253e-01   9.449978e-03
  2.162932e+00    7.042451e-01   9.504609e-03
  2.165142e+00    6.941350e-01   9.439143e-03
  2.167352e+00    6.920096e-01   9.427591e-03
  2.169563e+00    7.007179e-01   9.488673e-03
  2.171773e+00    6.966312e-01   9.463442e-03
  2.173984e+00    6.912556e-01   9.428248e-03
  2.176194e+00    6.941078e-01   9.448877e-03
  2.178405e+00    6.900241e-01   9.421757e-03
  2.180615e+00    6.786107e-01   9.344172e-03
  2.182826e+00    6.962637e-01   9.465590e-03
  2.185036e+00    6.961876e-01   9.465164e-03
  2.187247e+00    6.816746e-01   9.365916e-03
  2.189457e+00    6.828780e-01   9.373775e-03
  2.191667e+00    6.737995e-01   9.311090e-03
  2.193878e+00    6.685257e-01   9.274012e-03
  2.196088e+00    6.841190e-01   9.380860e-03
  2.198299e+00    6.787735e-01   9.343063e-03
  2.200509e+00    6.933965e-01   9.442095e-03
  2.202720e+00    6.999756e-01   9.485614e-03
  2.204930e+00    6.822820e-01   9.363739e-03
  2.207141e+00    6.885213e-01   9.405328e-03
  2.209351e+00    6.684577e-01   9.265404e-03
  2.211562e+00    6.637563e-01   9.231165e-03
  2.213772e+00    6.733427e-01   9.242246e-03
  2.215982e+00    6.777700e-01   9.228310e-03
  2.218193e+00    6.712233e-01   9.154099e-03
  2.220403e+00    6.560294e-01   9.025677e-03
  2.222614e+00    6.742570e-01   9.129210e-03
  2.224824e+00    6.848276e-01   9.180965e-03
  2.227035e+00    6.756006e-01   9.101446e-03
  2.229245e+00    6.668733e-01   9.025539e-03
  2.231456e+00    6.842500e-01   9.126604e-03
  2.233666e+00    6.751402e-01   9.050531e-03
  2.235877e+00    6.607430e-01   8.939322e-03
  2.238087e+00    6.618735e-01   8.933596e-03
  2.240298e+00    6.596490e-01   8.904871e-03
  2.242508e+00    6.732684e-01   8.981162e-03
  2.244718e+00    6.855093e-01   9.046433e-03
  2.246929e+00    6.739002e-01   8.955037e-03
  2.249139e+00    6.724681e-01   8.933085e-03
  2.251350e+00    6.529548e-01   8.790929e-03
  2.253560e+00    6.643345e-01   8.855661e-03
  2.255771e+00    6.573930e-01   8.797934e-03
  2.257981e+00    6.726671e-01   8.888310e-03
  2.260192e+00    6.658523e-01   8.832063e-03
  2.262402e+00    6.740133e-01   8.875073e-03
  2.264613e+00    6.743233e-01   8.866203e-03
  2.266823e+00    6.705107e-01   8.830653e-03
  2.269033e+00    6.552313e-01   8.719144e-03
  2.271244e+00    6.566100e-01   8.717926e-03
  2.273454e+00    6.909812e-01   8.932739e-03
  2.275665e+00    7.075004e-01   9.028239e-03
  2.277875e+00    6.895356e-01   8.902737e-03
  2.280086e+00    6.845192e-01   8.860066e-03
  2.282296e+00    6.810416e-01   8.827989e-03
  2.284507e+00    6.603597e-01   8.682746e-03
  2.286717e+00    6.588420e-01   8.663312e-03
  2.288928e+00    6.356396e-01   8.499669e-03
  2.291138e+00    6.595101e-01   8.648346e-03
  2.293348e+00    6.666993e-01   8.685761e-03
  2.295559e+00    6.516060e-01   8.577581e-03
  2.297769e+00    6.611754e-01   8.631040e-03
  2.299980e+00    6.619022e-01   8.626397e-03
  2.302190e+00    6.490673e-01   8.533251e-03
  2.304401e+00    6.523925e-01   8.545750e-03
  2.306611e+00    6.540745e-01   8.547560e-03
  2.308822e+00    6.489015e-01   8.505312e-03
  2.311032e+00    6.579380e-01   8.557838e-03
  2.313243e+00    6.490521e-01   8.493599e-03
  2.315453e+00    6.402425e-01   8.428236e-03
  2.317663e+00    6.506408e-01   8.487244e-03
  2.319874e+00    6.355405e-01   8.379521e-03
  2.322084e+00    6.580496e-01   8.517572e-03
  2.324295e+00    6.581830e-01   8.510139e-03
  2.326505e+00    6.609903e-01   8.519096e-03
  2.328716e+00    6.549671e-01   8.471569e-03
  2.330926e+00    6.454313e-01   8.400862e-03
  2.333137e+00    6.361286e-01   8.331768e-03
  2.335347e+00    6.389621e-01   8.341443e-03
  2.337558e+00    6.283011e-01   8.263410e-03
  2.339768e+00    6.412088e-01   8.339278e-03
  2.341979e+00    6.354750e-01   8.293554e-03
  2.344189e+00    6.458545e-01   8.352583e-03
  2.346399e+00    6.423951e-01   8.321630e-03
  2.348610e+00    6.385818e-01   8.288426e-03
  2.350820e+00    6.326926e-01   8.241954e-03
  2.353031e+00    6.384681e-01   8.271165e-03
  2.355241e+00    6.374130e-01   8.256253e-03
  2.357452e+00    6.379955e-01   8.251564e-03
  2.359662e+00    6.372598e-01   8.238547e-03
  2.361873e+00    6.343352e-01   8.211371e-03
  2.364083e+00    6.264914e-01   8.152465e-03
  2.366294e+00    6.285806e-01   8.157928e-03
  2.368504e+00    6.336636e-01   8.182740e-03
  2.370714e+00    6.296719e-01   8.148823e-03
  2.372925e+00    6.276324e-01   8.127572e-03
  2.375135e+00    6.274689e-01   8.118412e-03
  2.377346e+00    6.253175e-01   8.096545e-03
  2.379556e+00    6.289259e-01   8.111927e-03
  2.381767e+00    6.205784e-01   8.050064e-03
  2.383977e+00    6.123419e-01   7.988581e-03
  2.386188e+00    6.120421e-01   7.978758e-03
  2.388398e+00    6.156685e-01   7.994412e-03
  2.390609e+00    6.236390e-01   8.038240e-03
  2.392819e+00    5.992559e-01   7.871867e-03
  2.395029e+00    6.138549e-01   7.959512e-03
  2.397240e+00    6.033732e-01   7.883485e-03
  2.399450e+00    6.076506e-01   7.903603e-03
  2.401661e+00    5.968956e-01   7.825766e-03
  2.403871e+00    6.117159e-01   7.914543e-03
  2.406082e+00    6.061139e-01   7.870832e-03
  2.408292e+00    6.059939e-01   7.862266e-03
  2.410503e+00    5.927098e-01   7.768240e-03
  2.412713e+00    5.908120e-01   7.748087e-03
  2.414924e+00    5.973616e-01   7.783483e-03
  2.417134e+00    5.977144e-01   7.778202e-03
  2.419344e+00    5.902815e-01   7.722354e-03
  2.421555e+00    5.906774e-01   7.717501e-03
  2.423765e+00    5.978488e-01   7.756821e-03
  2.425976e+00    5.883793e-01   7.687420e-03
  2.428186e+00    6.050268e-01   7.788139e-03
  2.430397e+00    6.148326e-01   7.843430e-03
  2.432607e+00    5.895442e-01   7.673185e-03
  2.434818e+00    6.017080e-01   7.744354e-03
  2.437028e+00    6.080015e-01   7.777525e-03
  2.439239e+00    5.938871e-01   7.679071e-03
  2.441449e+00    5.870078e-01   7.627283e-03
  2.443659e+00    5.793282e-01   7.569967e-03
  2.445870e+00    5.755623e-01   7.557411e-03
  2.448080e+00    5.849285e-01   7.653513e-03
  2.450291e+00    5.815750e-01   7.648225e-03
  2.452501e+00    5.628818e-01   7.535333e-03
  2.454712e+00    5.735307e-01   7.614699e-03
  2.456922e+00    5.774450e-01   7.647309e-03
  2.459133e+00    5.653629e-01   7.572317e-03
  2.461343e+00    5.492818e-01   7.468102e-03
  2.463554e+00    5.716815e-01   7.622367e-03
  2.465764e+00    5.578821e-01   7.532930e-03
  2.467975e+00    5.672517e-01   7.598207e-03
  2.470185e+00    5.729089e-01   7.638301e-03
  2.472395e+00    5.597799e-01   7.551507e-03
  2.474606e+00    5.651255e-01   7.589038e-03
  2.476816e+00    5.554982e-01   7.524875e-03
  2.479027e+00    5.561922e-01   7.530398e-03
  2.481237e+00    5.628829e-01   7.575868e-03
  2.483448e+00    5.590814e-01   7.550524e-03
  2.485658e+00    5.452521e-01   7.456443e-03
  2.487869e+00    5.382830e-01   7.408650e-03
  2.490079e+00    5.356743e-01   7.390172e-03
  2.492290e+00    5.410562e-01   7.426757e-03
  2.494500e+00    5.369103e-01   7.397526e-03
  2.496710e+00    5.245246e-01   7.311011e-03
  2.498921e+00    5.366489e-01   7.394028e-03
  2.501131e+00    5.326002e-01   7.365148e-03
  2.503342e+00    5.169177e-01   7.254651e-03
  2.505552e+00    5.219898e-01   7.289034e-03
  2.507763e+00    5.356085e-01   7.382073e-03
  2.509973e+00    5.265573e-01   7.318061e-03
  2.512184e+00    5.214571e-01   7.280922e-03
  2.514394e+00    5.282617e-01   7.318886e-03
  2.516605e+00    5.299631e-01   7.283469e-03
  2.518815e+00    5.219930e-01   7.200261e-03
  2.521025e+00    5.290364e-01   7.227648e-03
  2.523236e+00    5.395929e-01   7.281177e-03
  2.525446e+00    5.345658e-01   7.231443e-03
  2.527657e+00    5.204868e-01   7.121065e-03
  2.529867e+00    5.173426e-01   7.085414e-03
  2.532078e+00    5.311165e-01   7.164007e-03
  2.534288e+00    5.245780e-01   7.105886e-03
  2.536499e+00    5.375481e-01   7.181109e-03
  2.538709e+00    5.398037e-01   7.185012e-03
  2.540920e+00    5.174446e-01   7.024056e-03
  2.543130e+00    5.340628e-01   7.125484e-03
  2.545340e+00    5.190560e-01   7.014662e-03
  2.547551e+00    5.196848e-01   7.008975e-03
  2.549761e+00    5.218480e-01   7.013983e-03
  2.551972e+00    5.210646e-01   6.999363e-03
  2.554182e+00    5.221882e-01   6.997728e-03
  2.556393e+00    5.235698e-01   6.997856e-03
  2.558603e+00    5.182463e-01   6.953136e-03
  2.560814e+00    5.276241e-01   7.006994e-03
  2.563024e+00    5.257220e-01   6.985723e-03
  2.565235e+00    5.267388e-01   6.982898e-03
  2.567445e+00    5.322056e-01   7.009361e-03
  2.569656e+00    5.171404e-01   6.899724e-03
  2.571866e+00    5.055532e-01   6.812730e-03
  2.574076e+00    5.200287e-01   6.900260e-03
  2.576287e+00    5.248544e-01   6.923836e-03
  2.578497e+00    5.034826e-01   6.773653e-03
  2.580708e+00    5.064607e-01   6.785626e-03
  2.582918e+00    5.097920e-01   6.800172e-03
  2.585129e+00    5.217030e-01   6.871384e-03
  2.587339e+00    4.981681e-01   6.707031e-03
  2.589550e+00    5.037947e-01   6.737313e-03
  2.591760e+00    5.029109e-01   6.723727e-03
  2.593971e+00    5.057129e-01   6.734961e-03
  2.596181e+00    5.050821e-01   6.724566e-03
  2.598391e+00    5.046855e-01   6.716785e-03
  2.600602e+00    5.031425e-01   6.700605e-03
  2.602812e+00    5.194598e-01   6.800804e-03
  2.605023e+00    5.060983e-01   6.705613e-03
  2.607233e+00    5.083215e-01   6.713182e-03
  2.609444e+00    5.130115e-01   6.736805e-03
  2.611654e+00    5.143011e-01   6.737909e-03
  2.613865e+00    5.108335e-01   6.708072e-03
  2.616075e+00    5.162653e-01   6.736441e-03
  2.618286e+00    5.231524e-01   6.774102e-03
  2.620496e+00    5.057341e-01   6.653687e-03
  2.622706e+00    4.991019e-01   6.604191e-03
  2.624917e+00    5.022575e-01   6.619210e-03
  2.627127e+00    5.043349e-01   6.627133e-03
  2.629338e+00    4.976749e-01   6.577304e-03
  2.631548e+00    4.913537e-01   6.529285e-03
  2.633759e+00    5.121415e-01   6.658759e-03
  2.635969e+00    5.052622e-01   6.607187e-03
  2.638180e+00    4.924355e-01   6.515864e-03
  2.640390e+00    4.936492e-01   6.517327e-03
  2.642601e+00    4.978144e-01   6.538115e-03
  2.644811e+00    4.994213e-01   6.541598e-03
  2.647021e+00    5.026256e-01   6.555962e-03
  2.649232e+00    4.965683e-01   6.509651e-03
  2.651442e+00    5.022169e-01   6.540040e-03
  2.653653e+00    4.908601e-01   6.458943e-03
  2.655863e+00    4.881808e-01   6.434661e-03
  2.658074e+00    4.912415e-01   6.448246e-03
  2.660284e+00    4.883823e-01   6.423149e-03
  2.662495e+00    5.035546e-01   6.515359e-03
  2.664705e+00    5.067716e-01   6.529513e-03
  2.666916e+00    4.955777e-01   6.450543e-03
  2.669126e+00    4.860685e-01   6.381951e-03
  2.671337e+00    4.989593e-01   6.459432e-03
  2.673547e+00    4.899145e-01   6.394257e-03
  2.675757e+00    5.060929e-01   6.492456e-03
  2.677968e+00    4.984275e-01   6.436561e-03
  2.680178e+00    4.941876e-01   6.402719e-03
  2.682389e+00    4.989164e-01   6.426853e-03
  2.684599e+00    4.895889e-01   6.360329e-03
  2.686810e+00    4.755034e-01   6.261662e-03
  2.689020e+00    4.905363e-01   6.353591e-03
  2.691231e+00    4.949199e-01   6.375605e-03
  2.693441e+00    4.919701e-01   6.350426e-03
  2.695652e+00    4.942035e-01   6.358277e-03
  2.697862e+00    4.740644e-01   6.221146e-03
  2.700072e+00    4.881386e-01   6.306728e-03
  2.702283e+00    4.927753e-01   6.330385e-03
  2.704493e+00    4.883082e-01   6.295346e-03
  2.706704e+00    4.868338e-01   6.279440e-03
  2.708914e+00    4.856146e-01   6.265622e-03
  2.711125e+00    4.948276e-01   6.318470e-03
  2.713335e+00    4.996857e-01   6.343258e-03
  2.715546e+00    5.006348e-01   6.342733e-03
  2.717756e+00    4.902472e-01   6.270679e-03
  2.719967e+00    4.733508e-01   6.155537e-03
  2.722177e+00    4.827146e-01   6.210004e-03
  2.724387e+00    4.934756e-01   6.272702e-03
  2.726598e+00    4.805224e-01   6.183793e-03
  2.728808e+00    4.859806e-01   6.212663e-03
  2.731019e+00    4.906470e-01   6.236253e-03
  2.733229e+00    4.845280e-01   6.191437e-03
  2.735440e+00    4.992976e-01   6.278730e-03
  2.737650e+00    4.933367e-01   6.235071e-03
  2.739861e+00    4.824485e-01   6.159797e-03
  2.742071e+00    4.978687e-01   6.251648e-03
  2.744282e+00    4.951512e-01   6.228233e-03
  2.746492e+00    4.794754e-01   6.122844e-03
  2.748702e+00    4.836252e-01   6.143349e-03
  2.750913e+00    4.820629e-01   6.127629e-03
  2.753123e+00    4.844830e-01   6.136860e-03
  2.755334e+00    4.919786e-01   6.178002e-03
  2.757544e+00    4.857704e-01   6.133141e-03
  2.759755e+00    4.796114e-01   6.088243e-03
  2.761965e+00    4.771337e-01   6.066532e-03
  2.764176e+00    4.881072e-01   6.129869e-03
  2.766386e+00    4.834383e-01   6.094664e-03
  2.768597e+00    4.754533e-01   6.038290e-03
  2.770807e+00    4.703590e-01   6.000028e-03
  2.773017e+00    4.891384e-01   6.112596e-03
  2.775228e+00    4.924716e-01   6.127520e-03
  2.777438e+00    4.929974e-01   6.124909e-03
  2.779649e+00    4.739391e-01   5.999481e-03
  2.781859e+00    4.764337e-01   6.009495e-03
  2.784070e+00    4.794178e-01   6.022406e-03
  2.786280e+00    4.659994e-01   5.931839e-03
  2.788491e+00    4.759652e-01   5.989083e-03
  2.790701e+00    4.768299e-01   5.988889e-03
  2.792912e+00    4.783965e-01   5.992730e-03
  2.795122e+00    4.898469e-01   6.058206e-03
  2.797333e+00    4.908380e-01   6.058696e-03
  2.799543e+00    4.813369e-01   5.993877e-03
  2.801753e+00    4.689774e-01   5.910598e-03
  2.803964e+00    4.694899e-01   5.908206e-03
  2.806174e+00    4.621764e-01   5.855937e-03
  2.808385e+00    4.699837e-01   5.898430e-03
  2.810595e+00    4.775274e-01   5.938682e-03
  2.812806e+00    4.943550e-01   6.035677e-03
  2.815016e+00    4.757895e-01   5.916518e-03
  2.817227e+00    4.756472e-01   5.941586e-03
  2.819437e+00    4.817643e-01   5.990863e-03
  2.821648e+00    4.755026e-01   5.954083e-03
  2.823858e+00    4.646623e-01   5.891121e-03
  2.826068e+00    4.649726e-01   5.898017e-03
  2.828279e+00    4.650123e-01   5.902281e-03
  2.830489e+00    4.653085e-01   5.907463e-03
  2.832700e+00    4.659397e-01   5.914021e-03
  2.834910e+00    4.616794e-01   5.888953e-03
  2.837121e+00    4.655607e-01   5.915369e-03
  2.839331e+00    4.733413e-01   5.965810e-03
  2.841542e+00    4.745174e-01   5.974252e-03
  2.843752e+00    4.623065e-01   5.897647e-03
  2.845963e+00    4.795857e-01   6.007257e-03
  2.848173e+00    4.733123e-01   5.967929e-03
  2.850383e+00    4.718725e-01   5.959149e-03
  2.852594e+00    4.627514e-01   5.901181e-03
  2.854804e+00    4.646323e-01   5.912661e-03
  2.857015e+00    4.743187e-01   5.973534e-03
  2.859225e+00    4.720266e-01   5.958843e-03
  2.861436e+00    4.718791e-01   5.957248e-03
  2.863646e+00    4.611090e-01   5.888916e-03
  2.865857e+00    4.672247e-01   5.928169e-03
  2.868067e+00    4.726247e-01   5.962552e-03
  2.870278e+00    4.665460e-01   5.923749e-03
  2.872488e+00    4.589417e-01   5.874111e-03
  2.874698e+00    4.645090e-01   5.908576e-03
  2.876909e+00    4.704759e-01   5.945076e-03
  2.879119e+00    4.578624e-01   5.863227e-03
  2.881330e+00    4.550849e-01   5.843957e-03
  2.883540e+00    4.553823e-01   5.844480e-03
  2.885751e+00    4.637013e-01   5.895975e-03
  2.887961e+00    4.726133e-01   5.950466e-03
  2.890172e+00    4.639129e-01   5.893827e-03
  2.892382e+00    4.618074e-01   5.878645e-03
  2.894593e+00    4.535923e-01   5.824306e-03
  2.896803e+00    4.718908e-01   5.938617e-03
  2.899014e+00    4.788599e-01   5.980365e-03
  2.901224e+00    4.604258e-01   5.862147e-03
  2.903434e+00    4.503984e-01   5.796032e-03
  2.905645e+00    4.638443e-01   5.879661e-03
  2.907855e+00    4.588681e-01   5.845949e-03
  2.910066e+00    4.657209e-01   5.887338e-03
  2.912276e+00    4.673969e-01   5.895792e-03
  2.914487e+00    4.701255e-01   5.910485e-03
  2.916697e+00    4.596966e-01   5.842342e-03
  2.918908e+00    4.569937e-01   5.823135e-03
  2.921118e+00    4.549178e-01   5.807205e-03
  2.923329e+00    4.528158e-01   5.791471e-03
  2.925539e+00    4.589076e-01   5.828009e-03
  2.927749e+00    4.567393e-01   5.811923e-03
  2.929960e+00    4.545136e-01   5.794964e-03
  2.932170e+00    4.565843e-01   5.805837e-03
  2.934381e+00    4.592599e-01   5.820370e-03
  2.936591e+00    4.621595e-01   5.836118e-03
  2.938802e+00    4.415278e-01   5.701697e-03
  2.941012e+00    4.393662e-01   5.685436e-03
  2.943223e+00    4.474858e-01   5.735036e-03
  2.945433e+00    4.597642e-01   5.809458e-03
  2.947644e+00    4.591878e-01   5.801643e-03
  2.949854e+00    4.685637e-01   5.856264e-03
  2.952064e+00    4.471544e-01   5.716722e-03
  2.954275e+00    4.526094e-01   5.747078e-03
  2.956485e+00    4.430732e-01   5.682088e-03
  2.958696e+00    4.547037e-01   5.751785e-03
  2.960906e+00    4.537192e-01   5.741406e-03
  2.963117e+00    4.537059e-01   5.736833e-03
  2.965327e+00    4.545828e-01   5.738466e-03
  2.967538e+00    4.620431e-01   5.782435e-03
  2.969748e+00    4.579824e-01   5.754137e-03
  2.971959e+00    4.661656e-01   5.802138e-03
  2.974169e+00    4.635684e-01   5.783353e-03
  2.976379e+00    4.569446e-01   5.738946e-03
  2.978590e+00    4.582258e-01   5.743841e-03
  2.980800e+00    4.617953e-01   5.763349e-03
  2.983011e+00    4.617434e-01   5.760205e-03
  2.985221e+00    4.588497e-01   5.738958e-03
  2.987432e+00    4.665529e-01   5.783770e-03
  2.989642e+00    4.613667e-01   5.748902e-03
  2.991853e+00    4.511795e-01   5.681801e-03
  2.994063e+00    4.589965e-01   5.727879e-03
  2.996274e+00    4.504408e-01   5.671082e-03
  2.998484e+00    4.439848e-01   5.627620e-03
  3.000694e+00    4.541556e-01   5.688256e-03
  3.002905e+00    4.520912e-01   5.672381e-03
  3.005115e+00    4.550874e-01   5.688168e-03
  3.007326e+00    4.504305e-01   5.655839e-03
  3.009536e+00    4.511948e-01   5.657393e-03
  3.011747e+00    4.599351e-01   5.708981e-03
  3.013957e+00    4.478875e-01   5.630562e-03
  3.016168e+00    4.437270e-01   5.601118e-03
  3.018378e+00    4.523303e-01   5.652121e-03
  3.020589e+00    4.497936e-01   5.633042e-03
  3.022799e+00    4.543065e-01   5.658067e-03
  3.025010e+00    4.529718e-01   5.646511e-03
  3.027220e+00    4.503075e-01   5.626778e-03
  3.029430e+00    4.411226e-01   5.565892e-03
  3.031641e+00    4.431911e-01   5.575808e-03
  3.033851e+00    4.495999e-01   5.612477e-03
  3.036062e+00    4.572242e-01   5.657071e-03
  3.038272e+00    4.560655e-01   5.646306e-03
  3.040483e+00    4.528303e-01   5.623008e-03
  3.042693e+00    4.649432e-01   5.694403e-03
  3.044904e+00    4.537315e-01   5.621316e-03
  3.047114e+00    4.392304e-01   5.525991e-03
  3.049325e+00    4.580688e-01   5.638827e-03
  3.051535e+00    4.482047e-01   5.573399e-03
  3.053745e+00    4.511954e-01   5.587222e-03
  3.055956e+00    4.496786e-01   5.573248e-03
  3.058166e+00    4.544222e-01   5.598272e-03
  3.060377e+00    4.582053e-01   5.616736e-03
  3.062587e+00    4.507695e-01   5.566339e-03
  3.064798e+00    4.485251e-01   5.548195e-03
  3.067008e+00    4.626882e-01   5.630343e-03
  3.069219e+00    4.388166e-01   5.478713e-03
  3.071429e+00    4.474501e-01   5.528826e-03
  3.073640e+00    4.472615e-01   5.524351e-03
  3.075850e+00    4.532074e-01   5.557347e-03
  3.078060e+00    4.506475e-01   5.538523e-03
  3.080271e+00    4.492804e-01   5.526631e-03
  3.082481e+00    4.464650e-01   5.505869e-03
  3.084692e+00    4.424481e-01   5.477664e-03
  3.086902e+00    4.484723e-01   5.511597e-03
  3.089113e+00    4.485637e-01   5.508579e-03
  3.091323e+00    4.539388e-01   5.538105e-03
  3.093534e+00    4.486609e-01   5.502419e-03
  3.095744e+00    4.403522e-01   5.447899e-03
  3.097955e+00    4.500364e-01   5.503907e-03
  3.100165e+00    4.518539e-01   5.511679e-03
  3.102375e+00    4.423907e-01   5.450233e-03
  3.104586e+00    4.508442e-01   5.498570e-03
  3.106796e+00    4.555607e-01   5.523685e-03
  3.109007e+00    4.435770e-01   5.447369e-03
  3.111217e+00    4.450797e-01   5.452877e-03
  3.113428e+00    4.321844e-01   5.369952e-03
  3.115638e+00    4.400209e-01   5.415185e-03
  3.117849e+00    4.517754e-01   5.483304e-03
  3.120059e+00    4.459150e-01   5.444144e-03
  3.122270e+00    4.460834e-01   5.441925e-03
  3.124480e+00    4.403180e-01   5.402964e-03
  3.126691e+00    4.649949e-01   5.548654e-03
  3.128901e+00    4.539901e-01   5.479462e-03
  3.131111e+00    4.474961e-01   5.436282e-03
  3.133322e+00    4.427950e-01   5.404191e-03
  3.135532e+00    4.462404e-01   5.421778e-03
  3.137743e+00    4.557060e-01   5.475447e-03
  3.139953e+00    4.521378e-01   5.450262e-03
  3.142164e+00    4.335621e-01   5.349011e-03
  3.144374e+00    4.405906e-01   5.420539e-03
  3.146585e+00    4.345438e-01   5.397641e-03
  3.148795e+00    4.474905e-01   5.488302e-03
  3.151006e+00    4.459199e-01   5.487260e-03
  3.153216e+00    4.442639e-01   5.484202e-03
  3.155426e+00    4.401903e-01   5.465313e-03
  3.157637e+00    4.365778e-01   5.448338e-03
  3.159847e+00    4.390303e-01   5.468473e-03
  3.162058e+00    4.403460e-01   5.481106e-03
  3.164268e+00    4.418326e-01   5.494410e-03
  3.166479e+00    4.407222e-01   5.491175e-03
  3.168689e+00    4.376148e-01   5.475131e-03
  3.170900e+00    4.377639e-01   5.479224e-03
  3.173110e+00    4.447386e-01   5.525613e-03
  3.175321e+00    4.309326e-01   5.441647e-03
  3.177531e+00    4.321993e-01   5.452322e-03
  3.179741e+00    4.432095e-01   5.523444e-03
  3.181952e+00    4.344738e-01   5.470844e-03
  3.184162e+00    4.282060e-01   5.433403e-03
  3.186373e+00    4.416484e-01   5.519629e-03
  3.188583e+00    4.353465e-01   5.481896e-03
  3.190794e+00    4.502040e-01   5.576436e-03
  3.193004e+00    4.381878e-01   5.502763e-03
  3.195215e+00    4.394321e-01   5.512081e-03
  3.197425e+00    4.426420e-01   5.533384e-03
  3.199636e+00    4.445986e-01   5.544846e-03
  3.201846e+00    4.289284e-01   5.445634e-03
  3.204056e+00    4.315424e-01   5.463091e-03
  3.206267e+00    4.482630e-01   5.568791e-03
  3.208477e+00    4.286837e-01   5.446721e-03
  3.210688e+00    4.383509e-01   5.508654e-03
  3.212898e+00    4.300886e-01   5.457077e-03
  3.215109e+00    4.329766e-01   5.476083e-03
  3.217319e+00    4.344134e-01   5.485848e-03
  3.219530e+00    4.227552e-01   5.412094e-03
  3.221740e+00    4.324830e-01   5.474564e-03
  3.223951e+00    4.418784e-01   5.534212e-03
  3.226161e+00    4.239391e-01   5.420885e-03
  3.228372e+00    4.286659e-01   5.451553e-03
  3.230582e+00    4.273655e-01   5.443411e-03
  3.232792e+00    4.323236e-01   5.475134e-03
  3.235003e+00    4.251646e-01   5.429825e-03
  3.237213e+00    4.428188e-01   5.541549e-03
  3.239424e+00    4.240630e-01   5.422907e-03
  3.241634e+00    4.328025e-01   5.478622e-03
  3.243845e+00    4.437573e-01   5.547608e-03
  3.246055e+00    4.221381e-01   5.410521e-03
  3.248266e+00    4.283310e-01   5.450246e-03
  3.250476e+00    4.273737e-01   5.443852e-03
  3.252687e+00    4.191904e-01   5.391416e-03
  3.254897e+00    4.362548e-01   5.499916e-03
  3.257107e+00    4.191396e-01   5.390661e-03
  3.259318e+00    4.270075e-01   5.440779e-03
  3.261528e+00    4.284766e-01   5.449979e-03
  3.263739e+00    4.323109e-01   5.473749e-03
  3.265949e+00    4.352898e-01   5.492473e-03
  3.268160e+00    4.313013e-01   5.466809e-03
  3.270370e+00    4.263297e-01   5.434723e-03
  3.272581e+00    4.290364e-01   5.451640e-03
  3.274791e+00    4.317910e-01   5.468599e-03
  3.277002e+00    4.327870e-01   5.474342e-03
  3.279212e+00    4.292267e-01   5.451391e-03
  3.281422e+00    4.284356e-01   5.445784e-03
  3.283633e+00    4.249445e-01   5.422851e-03
  3.285843e+00    4.411369e-01   5.524882e-03
  3.288054e+00    4.243444e-01   5.417754e-03
  3.290264e+00    4.409069e-01   5.522162e-03
  3.292475e+00    4.186801e-01   5.380353e-03
  3.294685e+00    4.239259e-01   5.413305e-03
  3.296896e+00    4.202554e-01   5.389061e-03
  3.299106e+00    4.239684e-01   5.412262e-03
  3.301317e+00    4.216640e-01   5.396518e-03
  3.303527e+00    4.245646e-01   5.414569e-03
  3.305737e+00    4.265298e-01   5.426045e-03
  3.307948e+00    4.220431e-01   5.396757e-03
  3.310158e+00    4.277247e-01   5.432109e-03
  3.312369e+00    4.235180e-01   5.404461e-03
  3.314579e+00    4.127106e-01   5.334142e-03
  3.316790e+00    4.247583e-01   5.410722e-03
  3.319000e+00    4.253391e-01   5.413249e-03
  3.321211e+00    4.278315e-01   5.428468e-03
  3.323421e+00    4.279520e-01   5.428019e-03
  3.325632e+00    4.301189e-01   5.440848e-03
  3.327842e+00    4.178161e-01   5.361555e-03
  3.330052e+00    4.353563e-01   5.471863e-03
  3.332263e+00    4.230706e-01   5.393083e-03
  3.334473e+00    4.171445e-01   5.354282e-03
  3.336684e+00    4.187201e-01   5.363102e-03
  3.338894e+00    4.260466e-01   5.408986e-03
  3.341105e+00    4.139185e-01   5.330238e-03
  3.343315e+00    4.119604e-01   5.316493e-03
  3.345526e+00    4.176309e-01   5.352048e-03
  3.347736e+00    4.178853e-01   5.352292e-03
  3.349947e+00    4.281814e-01   5.416865e-03
  3.352157e+00    4.213848e-01   5.372558e-03
  3.354368e+00    4.124852e-01   5.314199e-03
  3.356578e+00    4.203494e-01   5.363624e-03
  3.358788e+00    4.182290e-01   5.348748e-03
  3.360999e+00    4.092825e-01   5.289987e-03
  3.363209e+00    4.022554e-01   5.243389e-03
  3.365420e+00    4.152135e-01   5.325643e-03
  3.367630e+00    4.131348e-01   5.311321e-03
  3.369841e+00    4.080331e-01   5.276992e-03
  3.372051e+00    4.083599e-01   5.277144e-03
  3.374262e+00    4.186458e-01   5.340753e-03
  3.376472e+00    4.264672e-01   5.387930e-03
  3.378683e+00    4.311191e-01   5.414688e-03
  3.380893e+00    4.242576e-01   5.369100e-03
  3.383103e+00    3.953272e-01   5.180127e-03
  3.385314e+00    4.133361e-01   5.294587e-03
  3.387524e+00    4.197479e-01   5.332751e-03
  3.389735e+00    4.181402e-01   5.319878e-03
  3.391945e+00    4.197954e-01   5.326704e-03
  3.394156e+00    4.056835e-01   5.232232e-03
  3.396366e+00    4.082336e-01   5.245247e-03
  3.398577e+00    3.965380e-01   5.166576e-03
  3.400787e+00    4.226433e-01   5.345996e-03
  3.402998e+00    4.123277e-01   5.318542e-03
  3.405208e+00    4.051338e-01   5.292596e-03
  3.407418e+00    3.972917e-01   5.256808e-03
  3.409629e+00    4.137510e-01   5.378798e-03
  3.411839e+00    4.072005e-01   5.347945e-03
  3.414050e+00    3.852514e-01   5.212652e-03
  3.416260e+00    3.769651e-01   5.165702e-03
  3.418471e+00    3.737219e-01   5.152592e-03
  3.420681e+00    3.767496e-01   5.181747e-03
  3.422892e+00    3.864187e-01   5.255796e-03
  3.425102e+00    3.766670e-01   5.196710e-03
  3.427313e+00    3.957020e-01   5.333676e-03
  3.429523e+00    3.893145e-01   5.297534e-03
  3.431733e+00    3.849998e-01   5.274759e-03
  3.433944e+00    3.796380e-01   5.244338e-03
  3.436154e+00    3.826234e-01   5.271159e-03
  3.438365e+00    3.738716e-01   5.216387e-03
  3.440575e+00    3.645743e-01   5.156923e-03
  3.442786e+00    3.894324e-01   5.335509e-03
  3.444996e+00    3.853314e-01   5.312918e-03
  3.447207e+00    3.774549e-01   5.263630e-03
  3.449417e+00    3.831324e-01   5.344520e-03
  3.451628e+00    3.838023e-01   5.379239e-03
  3.453838e+00    3.842052e-01   5.403665e-03
  3.456049e+00    3.725937e-01   5.345505e-03
  3.458259e+00    3.726523e-01   5.368013e-03
  3.460469e+00    3.736201e-01   5.394957e-03
  3.462680e+00    3.806737e-01   5.465100e-03
  3.464890e+00    3.601766e-01   5.333558e-03
  3.467101e+00    3.664703e-01   5.397421e-03
  3.469311e+00    3.707765e-01   5.445558e-03
  3.471522e+00    3.950481e-01   5.637816e-03
  3.473732e+00    4.098774e-01   5.759259e-03
  3.475943e+00    4.258741e-01   5.887125e-03
  3.478153e+00    4.194542e-01   5.858673e-03
  3.480364e+00    4.034196e-01   5.760925e-03
  3.482574e+00    4.112216e-01   5.831827e-03
  3.484784e+00    4.102545e-01   5.839869e-03
  3.486995e+00    4.080760e-01   5.839237e-03
  3.489205e+00    4.437503e-01   6.104183e-03
  3.491416e+00    4.422114e-01   6.108776e-03
  3.493626e+00    4.410456e-01   6.115403e-03
  3.495837e+00    4.541136e-01   6.220300e-03
  3.498047e+00    4.397821e-01   6.135820e-03
  3.500258e+00    4.572856e-01   6.271335e-03
  3.502468e+00    4.805430e-01   6.443711e-03
  3.504679e+00    4.746534e-01   6.418804e-03
  3.506889e+00    4.779409e-01   6.455627e-03
  3.509099e+00    4.701878e-01   6.417378e-03
  3.511310e+00    4.727046e-01   6.448946e-03
  3.513520e+00    4.821002e-01   6.527144e-03
  3.515731e+00    4.871954e-01   6.575924e-03
  3.517941e+00    4.904583e-01   6.612304e-03
  3.520152e+00    5.087440e-01   6.748937e-03
  3.522362e+00    5.072123e-01   6.753364e-03
  3.524573e+00    4.935322e-01   6.675742e-03
  3.526783e+00    5.104139e-01   6.802322e-03
  3.528994e+00    5.204453e-01   6.881130e-03
  3.531204e+00    5.323512e-01   6.971964e-03
  3.533414e+00    5.299764e-01   6.968537e-03
  3.535625e+00    5.388029e-01   7.038817e-03
  3.537835e+00    5.494190e-01   7.120123e-03
  3.540046e+00    5.544059e-01   7.161478e-03
  3.542256e+00    5.361986e-01   7.050414e-03
  3.544467e+00    5.311050e-01   7.024448e-03
  3.546677e+00    5.451348e-01   7.124262e-03
  3.548888e+00    5.326678e-01   7.049781e-03
  3.551098e+00    5.558530e-01   7.209002e-03
  3.553309e+00    5.543118e-01   7.207314e-03
  3.555519e+00    5.401618e-01   7.126074e-03
  3.557729e+00    5.273582e-01   7.052741e-03
  3.559940e+00    5.456089e-01   7.185364e-03
  3.562150e+00    5.369285e-01   7.139740e-03
  3.564361e+00    5.335820e-01   7.130696e-03
  3.566571e+00    5.658399e-01   7.357312e-03
  3.568782e+00    5.616308e-01   7.344356e-03
  3.570992e+00    5.412062e-01   7.223405e-03
  3.573203e+00    5.357068e-01   7.200728e-03
  3.575413e+00    5.374000e-01   7.225913e-03
  3.577624e+00    5.392905e-01   7.252754e-03
  3.579834e+00    5.401772e-01   7.272664e-03
  3.582045e+00    5.493583e-01   7.348416e-03
  3.584255e+00    5.435089e-01   7.323347e-03
  3.586465e+00    5.363234e-01   7.288699e-03
  3.588676e+00    5.483935e-01   7.384639e-03
  3.590886e+00    5.307442e-01   7.278442e-03
  3.593097e+00    5.507871e-01   7.429320e-03
  3.595307e+00    5.399506e-01   7.369844e-03
  3.597518e+00    5.335631e-01   7.340364e-03
  3.599728e+00    5.163492e-01   7.234763e-03
  3.601939e+00    5.271876e-01   7.324269e-03
  3.604149e+00    5.381942e-01   7.414782e-03
  3.606360e+00    5.411035e-01   7.449008e-03
  3.608570e+00    5.447084e-01   7.488058e-03
  3.610780e+00    5.555941e-01   7.573787e-03
  3.612991e+00    5.447426e-01   7.509603e-03
  3.615201e+00    5.254748e-01   7.385290e-03
  3.617412e+00    5.412309e-01   7.502482e-03
  3.619622e+00    5.325874e-01   7.448307e-03
  3.621833e+00    5.341207e-01   7.465697e-03
  3.624043e+00    5.325916e-01   7.464536e-03
  3.626254e+00    5.317921e-01   7.468583e-03
  3.628464e+00    5.434212e-01   7.560871e-03
  3.630675e+00    5.221858e-01   7.425642e-03
  3.632885e+00    5.228976e-01   7.444991e-03
  3.635095e+00    5.251666e-01   7.475414e-03
  3.637306e+00    5.493992e-01   7.660481e-03
  3.639516e+00    5.499181e-01   7.678957e-03
  3.641727e+00    5.166004e-01   7.456953e-03
  3.643937e+00    5.269611e-01   7.545829e-03
  3.646148e+00    5.555375e-01   7.762652e-03
  3.648358e+00    5.315353e-01   7.607960e-03
  3.650569e+00    5.367826e-01   7.660193e-03
  3.652779e+00    5.292153e-01   7.620723e-03
  3.654990e+00    5.435132e-01   7.738031e-03
  3.657200e+00    5.299383e-01   7.655657e-03
  3.659410e+00    5.353641e-01   7.709724e-03
  3.661621e+00    5.385969e-01   7.748218e-03
  3.663831e+00    5.295839e-01   7.698179e-03
  3.666042e+00    5.383487e-01   7.776889e-03
  3.668252e+00    5.367707e-01   7.780774e-03
  3.670463e+00    5.398775e-01   7.818650e-03
  3.672673e+00    5.270929e-01   7.740864e-03
  3.674884e+00    5.357167e-01   7.819400e-03
  3.677094e+00    5.417988e-01   7.879364e-03
  3.679305e+00    5.552260e-01   7.992293e-03
  3.681515e+00    5.292213e-01   7.818531e-03
  3.683726e+00    5.116444e-01   7.703082e-03
  3.685936e+00    5.371876e-01   7.908862e-03
  3.688146e+00    5.225936e-01   7.816415e-03
  3.690357e+00    5.328777e-01   7.908928e-03
  3.692567e+00    5.466163e-01   8.026681e-03
  3.694778e+00    5.346889e-01   7.954773e-03
  3.696988e+00    5.189804e-01   7.852974e-03
  3.699199e+00    5.213137e-01   7.886734e-03
  3.701409e+00    5.241991e-01   7.924921e-03
  3.703620e+00    5.344226e-01   8.018259e-03
  3.705830e+00    5.498413e-01   8.149923e-03
  3.708041e+00    5.272151e-01   7.997147e-03
  3.710251e+00    5.164036e-01   7.931245e-03
  3.712461e+00    5.300646e-01   8.052389e-03
  3.714672e+00    5.348080e-01   8.105240e-03
  3.716882e+00    5.104632e-01   7.935192e-03
  3.719093e+00    5.197612e-01   8.024233e-03
  3.721303e+00    5.112029e-01   7.974735e-03
  3.723514e+00    5.355279e-01   8.179737e-03
  3.725724e+00    5.438348e-01   8.260574e-03
  3.727935e+00    5.343545e-01   8.206015e-03
  3.730145e+00    5.033924e-01   7.981778e-03
  3.732356e+00    5.305691e-01   8.212189e-03
  3.734566e+00    5.241548e-01   8.180089e-03
  3.736776e+00    5.022503e-01   8.024867e-03
  3.738987e+00    5.259917e-01   8.230302e-03
  3.741197e+00    5.098177e-01   8.120717e-03
  3.743408e+00    4.903514e-01   7.981858e-03
  3.745618e+00    5.044228e-01   8.113632e-03
  3.747829e+00    5.034581e-01   8.123881e-03
  3.750039e+00    5.057381e-01   8.160556e-03
  3.752250e+00    5.100536e-01   8.213699e-03
  3.754460e+00    5.063682e-01   8.202453e-03
  3.756671e+00    5.157636e-01   8.297158e-03
  3.758881e+00    5.092402e-01   8.263144e-03
  3.761091e+00    4.936467e-01   8.154511e-03
  3.763302e+00    5.165594e-01   8.360839e-03
  3.765512e+00    5.123430e-01   8.345969e-03
  3.767723e+00    5.296379e-01   8.505469e-03
  3.769933e+00    5.268006e-01   8.502357e-03
  3.772144e+00    5.559719e-01   8.755107e-03
  3.774354e+00    5.122265e-01   8.423652e-03
  3.776565e+00    4.924419e-01   8.278927e-03
  3.778775e+00    4.969647e-01   8.336675e-03
  3.780986e+00    4.943666e-01   8.334933e-03
  3.783196e+00    5.072365e-01   8.463049e-03
  3.785407e+00    5.273361e-01   8.650026e-03
  3.787617e+00    5.153862e-01   8.572465e-03
  3.789827e+00    5.047322e-01   8.503984e-03
  3.792038e+00    5.056092e-01   8.532281e-03
  3.794248e+00    5.300840e-01   8.758114e-03
  3.796459e+00    5.013942e-01   8.539171e-03
  3.798669e+00    4.993789e-01   8.543322e-03
  3.800880e+00    5.182495e-01   8.725064e-03
  3.803090e+00    5.348729e-01   8.886448e-03
  3.805301e+00    4.967278e-01   8.585766e-03
  3.807511e+00    5.141118e-01   8.757005e-03
  3.809722e+00    4.976495e-01   8.637830e-03
  3.811932e+00    5.049553e-01   8.723374e-03
  3.814142e+00    5.154411e-01   8.836698e-03
  3.816353e+00    5.282263e-01   8.969135e-03
  3.818563e+00    5.145890e-01   8.876065e-03
  3.820774e+00    5.103627e-01   8.862968e-03
  3.822984e+00    5.034407e-01   8.826192e-03
  3.825195e+00    5.268487e-01   9.053420e-03
  3.827405e+00    5.074932e-01   8.909760e-03
  3.829616e+00    4.854471e-01   8.737769e-03
  3.831826e+00    5.135838e-01   9.011998e-03
  3.834037e+00    5.018750e-01   8.933336e-03
  3.836247e+00    4.840579e-01   8.797714e-03
  3.838457e+00    4.524272e-01   8.529264e-03
  3.840668e+00    5.056672e-01   9.042520e-03
  3.842878e+00    5.071931e-01   9.082098e-03
  3.845089e+00    4.883636e-01   8.937220e-03
  3.847299e+00    5.288737e-01   9.327140e-03
  3.849510e+00    5.152863e-01   9.233001e-03
  3.851720e+00    4.825656e-01   8.956160e-03
  3.853931e+00    4.904261e-01   9.047688e-03
  3.856141e+00    4.840179e-01   9.007186e-03
  3.858352e+00    5.220498e-01   9.374135e-03
  3.860562e+00    5.065156e-01   9.253229e-03
  3.862772e+00    5.047857e-01   9.257172e-03
  3.864983e+00    5.074124e-01   9.301119e-03
  3.867193e+00    5.182806e-01   9.420548e-03
  3.869404e+00    4.967065e-01   9.242290e-03
  3.871614e+00    4.872065e-01   9.173256e-03
  3.873825e+00    5.016302e-01   9.328584e-03
  3.876035e+00    4.733991e-01   9.082465e-03
  3.878246e+00    5.175453e-01   9.522831e-03
  3.880456e+00    4.902028e-01   9.296907e-03
  3.882667e+00    4.970736e-01   9.391240e-03
  3.884877e+00    5.035691e-01   9.482550e-03
  3.887087e+00    4.805537e-01   9.292929e-03
  3.889298e+00    4.939980e-01   9.452374e-03
  3.891508e+00    5.378587e-01   9.895106e-03
  3.893719e+00    4.920405e-01   9.495393e-03
  3.895929e+00    4.675004e-01   9.286103e-03
  3.898140e+00    4.875989e-01   9.515323e-03
  3.900350e+00    5.125484e-01   9.788464e-03
  3.902561e+00    5.456603e-01   1.013389e-02
  3.904771e+00    5.124467e-01   9.854285e-03
  3.906982e+00    5.070311e-01   9.835709e-03
  3.909192e+00    5.082415e-01   9.881639e-03
  3.911403e+00    4.860851e-01   9.697735e-03
  3.913613e+00    5.152317e-01   1.001940e-02
  3.915823e+00    4.941291e-01   9.847084e-03
  3.918034e+00    5.136235e-01   1.007566e-02
  3.920244e+00    4.738089e-01   9.712478e-03
  3.922455e+00    4.949487e-01   9.963074e-03
  3.924665e+00    4.683466e-01   9.727284e-03
  3.926876e+00    4.734035e-01   9.816268e-03
  3.929086e+00    4.950742e-01   1.007600e-02
  3.931297e+00    4.728031e-01   9.881131e-03
  3.933507e+00    5.156786e-01   1.034902e-02
  3.935718e+00    5.171620e-01   1.039371e-02
  3.937928e+00    4.909046e-01   1.015591e-02
  3.940138e+00    5.075464e-01   1.035649e-02
  3.942349e+00    5.179092e-01   1.049253e-02
  3.944559e+00    4.842806e-01   1.017618e-02
  3.946770e+00    4.777890e-01   1.013746e-02
  3.948980e+00    5.106001e-01   1.051133e-02
  3.951191e+00    4.743436e-01   1.016175e-02
  3.953401e+00    4.611273e-01   1.004965e-02
  3.955612e+00    5.011700e-01   1.050907e-02
  3.957822e+00    4.974050e-01   1.050155e-02
  3.960033e+00    4.825653e-01   1.037621e-02
  3.962243e+00    4.757431e-01   1.033520e-02
  3.964453e+00    4.383134e-01   9.951697e-03
  3.966664e+00    4.714974e-01   1.035440e-02
  3.968874e+00    4.973909e-01   1.066373e-02
  3.971085e+00    4.830023e-01   1.053015e-02
  3.973295e+00    4.826314e-01   1.054758e-02
  3.975506e+00    4.912829e-01   1.066337e-02
  3.977716e+00    5.164737e-01   1.095612e-02
  3.979927e+00    4.517529e-01   1.026805e-02
  3.982137e+00    4.798640e-01   1.060470e-02
  3.984348e+00    5.146459e-01   1.100563e-02
  3.986558e+00    5.161251e-01   1.104449e-02
  3.988768e+00    4.906207e-01   1.079122e-02
  3.990979e+00    4.685658e-01   1.056843e-02
  3.993189e+00    4.476399e-01   1.035164e-02
  3.995400e+00    4.980752e-01   1.094319e-02
  3.997610e+00    5.000833e-01   1.099556e-02
  3.999821e+00    4.921747e-01   1.094596e-02
  4.002031e+00    5.142906e-01   1.122896e-02
  4.004242e+00    4.410439e-01   1.043521e-02
  4.006452e+00    4.749968e-01   1.086832e-02
  4.008663e+00    5.136452e-01   1.134316e-02
  4.010873e+00    4.672255e-01   1.085765e-02
  4.013084e+00    4.976910e-01   1.124752e-02
  4.015294e+00    4.890865e-01   1.119106e-02
  4.017504e+00    4.965297e-01   1.131835e-02
  4.019715e+00    4.697226e-01   1.105035e-02
  4.021925e+00    4.646459e-01   1.103264e-02
  4.024136e+00    4.950843e-01   1.143236e-02
  4.026346e+00    4.993954e-01   1.152692e-02
  4.028557e+00    4.806403e-01   1.135253e-02
  4.030767e+00    5.111864e-01   1.175469e-02
  4.032978e+00    4.754820e-01   1.138273e-02
  4.035188e+00    4.556370e-01   1.118738e-02
  4.037399e+00    4.639667e-01   1.133576e-02
  4.039609e+00    4.837090e-01   1.162228e-02
  4.041819e+00    4.514231e-01   1.127468e-02
  4.044030e+00    5.063161e-01   1.199170e-02
  4.046240e+00    4.925130e-01   1.187738e-02
  4.048451e+00    5.127627e-01   1.217171e-02
  4.050661e+00    5.141269e-01   1.224094e-02
  4.052872e+00    4.969515e-01   1.208816e-02
  4.055082e+00    5.164057e-01   1.237797e-02
  4.057293e+00    4.944805e-01   1.216663e-02
  4.059503e+00    4.784648e-01   1.202249e-02
  4.061714e+00    4.686446e-01   1.195415e-02
  4.063924e+00    4.733920e-01   1.207073e-02
  4.066134e+00    4.891513e-01   1.232780e-02
  4.068345e+00    4.578515e-01   1.198440e-02
  4.070555e+00    4.700640e-01   1.220168e-02
  4.072766e+00    5.108822e-01   1.278302e-02
  4.074976e+00    5.201199e-01   1.296243e-02
  4.077187e+00    4.802049e-01   1.251723e-02
  4.079397e+00    4.898539e-01   1.270671e-02
  4.081608e+00    4.995661e-01   1.289883e-02
  4.083818e+00    4.839681e-01   1.276193e-02
  4.086029e+00    4.988198e-01   1.302447e-02
  4.088239e+00    4.882056e-01   1.295473e-02
  4.090449e+00    4.857363e-01   1.299189e-02
  4.092660e+00    4.946443e-01   1.318265e-02
  4.094870e+00    4.597812e-01   1.278030e-02
  4.097081e+00    4.596843e-01   1.284878e-02
  4.099291e+00    4.970982e-01   1.341686e-02
  4.101502e+00    5.141848e-01   1.369641e-02
  4.103712e+00    4.835127e-01   1.333110e-02
  4.105923e+00    4.914680e-01   1.349245e-02
  4.108133e+00    4.685089e-01   1.322417e-02
  4.110344e+00    4.939502e-01   1.363048e-02
  4.112554e+00    4.813729e-01   1.350894e-02
  4.114764e+00    4.945992e-01   1.374834e-02
  4.116975e+00    4.493467e-01   1.315606e-02
  4.119185e+00    4.890485e-01   1.378047e-02
  4.121396e+00    4.957630e-01   1.393222e-02
  4.123606e+00    5.036913e-01   1.410066e-02
  4.125817e+00    4.889301e-01   1.395092e-02
  4.128027e+00    5.102578e-01   1.431180e-02
  4.130238e+00    5.075585e-01   1.433522e-02
  4.132448e+00    4.692465e-01   1.384332e-02
  4.134659e+00    5.045696e-01   1.441670e-02
  4.136869e+00    4.898359e-01   1.426798e-02
  4.139080e+00    4.869366e-01   1.428980e-02
  4.141290e+00    4.731677e-01   1.414882e-02
  4.143500e+00    4.972130e-01   1.457051e-02
  4.145711e+00    4.878098e-01   1.449970e-02
  4.147921e+00    4.871415e-01   1.455622e-02
  4.150132e+00    5.263984e-01   1.520354e-02
  4.152342e+00    4.921321e-01   1.477157e-02
  4.154553e+00    4.766866e-01   1.460710e-02
  4.156763e+00    5.471332e-01   1.572679e-02
  4.158974e+00    5.241419e-01   1.546999e-02
  4.161184e+00    4.681949e-01   1.469389e-02
  4.163395e+00    4.944269e-01   1.517671e-02
  4.165605e+00    5.048392e-01   1.541544e-02
  4.167815e+00    4.684740e-01   1.492738e-02
  4.170026e+00    5.265428e-01   1.590887e-02
  4.172236e+00    5.436095e-01   1.625225e-02
  4.174447e+00    5.048910e-01   1.574790e-02
  4.176657e+00    4.702511e-01   1.528094e-02
  4.178868e+00    5.170628e-01   1.611431e-02
  4.181078e+00    4.747409e-01   1.552772e-02
  4.183289e+00    5.131117e-01   1.623540e-02
  4.185499e+00    5.221096e-01   1.647392e-02
  4.187710e+00    5.267804e-01   1.664426e-02
  4.189920e+00    4.933014e-01   1.620384e-02
  4.192130e+00    4.521070e-01   1.560725e-02
  4.194341e+00    4.642266e-01   1.591188e-02
  4.196551e+00    4.903295e-01   1.645683e-02
  4.198762e+00    4.580173e-01   1.600612e-02
  4.200972e+00    4.850470e-01   1.657841e-02
  4.203183e+00    4.807526e-01   1.661357e-02
  4.205393e+00    4.647996e-01   1.644460e-02
  4.207604e+00    4.192766e-01   1.572498e-02
  4.209814e+00    4.831344e-01   1.699550e-02
  4.212025e+00    4.491066e-01   1.650257e-02
  4.214235e+00    5.109409e-01   1.772650e-02
  4.216445e+00    4.966621e-01   1.760361e-02
  4.218656e+00    4.758567e-01   1.736004e-02
  4.220866e+00    4.744789e-01   1.746333e-02
  4.223077e+00    4.111739e-01   1.638181e-02
  4.225287e+00    4.579016e-01   1.742325e-02
  4.227498e+00    4.479879e-01   1.736905e-02
  4.229708e+00    4.510987e-01   1.757077e-02
  4.231919e+00    4.617419e-01   1.792404e-02
  4.234129e+00    4.787609e-01   1.840433e-02
  4.236340e+00    4.944304e-01   1.886320e-02
  4.238550e+00    5.435971e-01   1.995351e-02
  4.240761e+00    4.730228e-01   1.877745e-02
  4.242971e+00    5.027817e-01   1.953665e-02
  4.245181e+00    5.134004e-01   1.992734e-02
  4.247392e+00    4.771304e-01   1.939034e-02
  4.249602e+00    5.001980e-01   2.005036e-02
  4.251813e+00    4.681836e-01   1.958954e-02
  4.254023e+00    4.518522e-01   1.943848e-02
  4.256234e+00    5.140364e-01   2.095463e-02
  4.258444e+00    4.318379e-01   1.940733e-02
  4.260655e+00    4.616269e-01   2.028603e-02
  4.262865e+00    5.090442e-01   2.154413e-02
  4.265076e+00    3.961131e-01   1.922095e-02
  4.267286e+00    3.778594e-01   1.899520e-02
  4.269496e+00    4.035400e-01   1.987003e-02
  4.271707e+00    4.259967e-01   2.066699e-02
  4.273917e+00    5.358642e-01   2.347913e-02
  4.276128e+00    4.821483e-01   2.256792e-02
  4.278338e+00    4.526693e-01   2.215814e-02
  4.280549e+00    5.108610e-01   2.387740e-02
  4.282759e+00    4.351994e-01   2.235571e-02
  4.284970e+00    4.587405e-01   2.329111e-02
  4.287180e+00    4.033929e-01   2.210345e-02
  4.289391e+00    4.260930e-01   2.288670e-02
  4.291601e+00    4.288498e-01   2.314446e-02
  4.293811e+00    4.444847e-01   2.374635e-02
  4.296022e+00    4.503031e-01   2.409376e-02
  4.298232e+00    3.935098e-01   2.271147e-02
  4.300443e+00    4.651565e-01   2.489663e-02
  4.302653e+00    4.749815e-01   2.537561e-02
  4.304864e+00    4.957452e-01   2.614937e-02
  4.307074e+00    4.977101e-01   2.643657e-02
  4.309285e+00    5.130837e-01   2.708540e-02
  4.311495e+00    4.620505e-01   2.594366e-02
  4.313706e+00    4.352238e-01   2.541552e-02
  4.315916e+00    4.866490e-01   2.714000e-02
  4.318126e+00    4.590477e-01   2.661990e-02
  4.320337e+00    4.508966e-01   2.664967e-02
  4.322547e+00    3.602109e-01   2.407169e-02
  4.324758e+00    4.133656e-01   2.605480e-02
  4.326968e+00    5.600179e-01   3.066736e-02
  4.329179e+00    5.546776e-01   3.085797e-02
  4.331389e+00    4.647763e-01   2.857253e-02
  4.333600e+00    4.550659e-01   2.860991e-02
  4.335810e+00    3.717780e-01   2.616680e-02
  4.338021e+00    4.756634e-01   2.997668e-02
  4.340231e+00    5.021374e-01   3.118664e-02
  4.342442e+00    5.184521e-01   3.211350e-02
  4.344652e+00    4.921405e-01   3.171388e-02
  4.346862e+00    4.340391e-01   3.019953e-02
  4.349073e+00    4.831446e-01   3.232637e-02
  4.351283e+00    3.592044e-01   2.829001e-02
  4.353494e+00    3.619400e-01   2.883375e-02
  4.355704e+00    4.470160e-01   3.256252e-02
  4.357915e+00    3.328860e-01   2.856711e-02
  4.360125e+00    5.203023e-01   3.632262e-02
  4.362336e+00    5.238231e-01   3.711175e-02
  4.364546e+00    4.298150e-01   3.422860e-02
  4.366757e+00    4.751070e-01   3.670249e-02
  4.368967e+00    5.910277e-01   4.175226e-02
  4.371177e+00    4.437676e-01   3.694943e-02
  4.373388e+00    4.925675e-01   3.979562e-02
  4.375598e+00    4.809165e-01   4.022120e-02
  4.377809e+00    4.637025e-01   4.049369e-02
  4.380019e+00    3.873446e-01   3.794160e-02
  4.382230e+00    2.748567e-01   3.285116e-02
  4.384440e+00    2.797269e-01   3.409545e-02
  4.386651e+00    5.586140e-01   4.966706e-02
  4.388861e+00    5.010399e-01   4.861755e-02
  4.391072e+00    5.364833e-01   5.207410e-02
  4.393282e+00    5.463763e-01   5.458629e-02
  4.395492e+00    3.620690e-01   4.627933e-02
  4.397703e+00    5.042998e-01   5.711686e-02
  4.399913e+00    3.401999e-01   4.928657e-02
  4.402124e+00    3.902543e-01   5.578003e-02
  4.404334e+00    4.892997e-01   6.639112e-02
  4.406545e+00    4.800165e-01   7.065116e-02
  4.408755e+00    3.547568e-01   6.587931e-02
  4.410966e+00    5.314441e-01   8.922938e-02
  4.413176e+00    5.757769e-01   1.051404e-01
  4.415387e+00   -6.601156e-01            nan
  4.417597e+00   -1.670180e+00            nan
  4.419807e+00   -3.766224e-01            nan
