# == pyFAI calibration ==
# Distance Sample to Detector: 0.216 m
# PONI: 1.166e-01, 1.308e-01 m
# Rotations: 0.000000 0.000000 0.000000 rad
# 
# == Fit2d calibration ==
# Distance Sample-beamCenter: 216.000 mm
# Center: x=1744.293, y=1555.000 pix
# Tilt: 0.000 deg  TiltPlanRot: 0.000 deg
# 
# Detector Eiger 9M	 PixelSize= 7.500e-05, 7.500e-05 m
#    Detector has a mask: True 
#    Detector has a dark current: False 
#    detector has a flat field: False 
# 
# Wavelength: 9.8e-11 m
# Mask applied: from detector
# Dark current applied: False
# Flat field applied: False
# Polarization factor: None
# Normalization factor: 1.0
# 
# Headers of the input frame:
# {
# "_array_data.header_convention": "SLS_1.0",
# "_array_data.header_contents": "# Detector: Dectris Eiger 9M, S/N E-18-0102\r\n# Pixel_size 75e-6 m x 75e-6 m\r\n# Silicon sensor, thickness 0.000450 m\r\n# Exposure_time 0.024997 s\r\n# Exposure_period 0.025000 s\r\n# Count_cutoff 62318 counts\r\n# Wavelength 0.980106 A\r\n# Detector_distance 0.215992 m\r\n# Beam_xy (1555, 1744) pixels\r\n# Start_angle 0.000000 deg.\r\n# Angle_increment 0.000000 deg.",
# "Content-Type": "application/octet-stream;",
# "conversions": "x-CBF_BYTE_OFFSET",
# "Content-Transfer-Encoding": "BINARY",
# "X-Binary-Size": "10166594",
# "X-Binary-ID": "1",
# "X-Binary-Element-Type": "signed 32-bit integer",
# "X-Binary-Element-Byte-Order": "LITTLE_ENDIAN",
# "Content-MD5": "AxaCUSVIOrWT8sdIikFqUg==",
# "X-Binary-Number-of-Elements": "10166590",
# "X-Binary-Size-Fastest-Dimension": "3110",
# "X-Binary-Size-Second-Dimension": "3269",
# "X-Binary-Size-Padding": "4095"
# }
# --> H:/Proxima2a_2019-04-05/RAW_DATA/C5_gel17_position5/C5_mesh_1_data.cbf/C5_mesh_1_data.cbf000168.dat
#        q_A^-1              I           sigma 
  1.105228e-03    1.282823e+00   6.128727e-01
  3.315685e-03    1.428727e+00   3.932059e-01
  5.526141e-03    1.101974e+00   2.670286e-01
  7.736597e-03    1.183211e+00   2.337499e-01
  9.947054e-03    1.336069e+00   2.189732e-01
  1.215751e-02    1.423286e+00   2.043689e-01
  1.436797e-02    1.439679e+00   1.890639e-01
  1.657842e-02    1.609869e+00   1.860971e-01
  1.878888e-02    1.589289e+00   1.736861e-01
  2.099934e-02    1.508087e+00   1.600720e-01
  2.320979e-02    1.435960e+00   1.485607e-01
  2.542025e-02    1.319285e+00   1.360752e-01
  2.763070e-02    1.191903e+00   1.240540e-01
  2.984116e-02    1.401610e+00   1.294464e-01
  3.205162e-02    1.386210e+00   1.242226e-01
  3.426207e-02    1.644296e+00   1.308473e-01
  3.647253e-02    1.573888e+00   1.240728e-01
  3.868299e-02    1.496531e+00   1.174866e-01
  4.089344e-02    1.448861e+00   1.124331e-01
  4.310390e-02    1.358068e+00   1.060192e-01
  4.531436e-02    1.396681e+00   1.048611e-01
  4.752481e-02    1.582323e+00   1.089850e-01
  4.973527e-02    1.398571e+00   1.001600e-01
  5.194572e-02    1.324265e+00   9.536529e-02
  5.415618e-02    1.432702e+00   9.714416e-02
  5.636664e-02    1.351571e+00   9.248785e-02
  5.857709e-02    1.281325e+00   8.833732e-02
  6.078755e-02    1.358515e+00   8.928725e-02
  6.299801e-02    1.490683e+00   9.187326e-02
  6.520846e-02    1.517571e+00   9.111403e-02
  6.741892e-02    1.477427e+00   8.841030e-02
  6.962938e-02    1.434888e+00   8.573839e-02
  7.183983e-02    1.443636e+00   8.466440e-02
  7.405029e-02    1.452418e+00   8.364251e-02
  7.626074e-02    1.347195e+00   7.937898e-02
  7.847120e-02    1.430906e+00   8.064539e-02
  8.068166e-02    1.529606e+00   8.222958e-02
  8.289211e-02    1.446993e+00   7.890415e-02
  8.510257e-02    1.356495e+00   7.539777e-02
  8.731303e-02    1.483560e+00   7.784257e-02
  8.952348e-02    1.537757e+00   7.826928e-02
  9.173394e-02    1.564574e+00   7.798874e-02
  9.394439e-02    1.466473e+00   7.460815e-02
  9.615485e-02    1.543917e+00   7.566617e-02
  9.836531e-02    1.498429e+00   7.369881e-02
  1.005758e-01    1.466266e+00   7.209843e-02
  1.027862e-01    1.533432e+00   7.293233e-02
  1.049967e-01    1.494497e+00   7.123731e-02
  1.072071e-01    1.403802e+00   6.832563e-02
  1.094176e-01    1.481927e+00   6.948734e-02
  1.116280e-01    1.548369e+00   7.031967e-02
  1.138385e-01    1.629451e+00   7.143218e-02
  1.160490e-01    1.577538e+00   6.961165e-02
  1.182594e-01    1.561086e+00   6.859601e-02
  1.204699e-01    1.514573e+00   6.694309e-02
  1.226803e-01    1.508911e+00   6.621039e-02
  1.248908e-01    1.565625e+00   6.684292e-02
  1.271012e-01    1.527624e+00   6.544877e-02
  1.293117e-01    1.578063e+00   6.594864e-02
  1.315222e-01    1.572829e+00   6.528208e-02
  1.337326e-01    1.564943e+00   6.457654e-02
  1.359431e-01    1.598240e+00   6.529815e-02
  1.381535e-01    1.569079e+00   6.556815e-02
  1.403640e-01    1.549377e+00   6.543655e-02
  1.425744e-01    1.514142e+00   6.479152e-02
  1.447849e-01    1.553235e+00   6.563772e-02
  1.469953e-01    1.639770e+00   6.739916e-02
  1.492058e-01    1.558168e+00   6.562435e-02
  1.514163e-01    1.500347e+00   6.428833e-02
  1.536267e-01    1.492301e+00   6.399050e-02
  1.558372e-01    1.615203e+00   6.642644e-02
  1.580476e-01    1.613886e+00   6.623825e-02
  1.602581e-01    1.569880e+00   6.516302e-02
  1.624685e-01    1.667945e+00   6.698354e-02
  1.646790e-01    1.690291e+00   6.723715e-02
  1.668895e-01    1.708219e+00   6.739755e-02
  1.690999e-01    1.680425e+00   6.664628e-02
  1.713104e-01    1.683222e+00   6.649471e-02
  1.735208e-01    1.702111e+00   6.665885e-02
  1.757313e-01    1.735094e+00   6.709064e-02
  1.779417e-01    1.875661e+00   6.952788e-02
  1.801522e-01    1.900617e+00   6.976599e-02
  1.823626e-01    1.914771e+00   6.979217e-02
  1.845731e-01    1.911837e+00   6.951277e-02
  1.867836e-01    1.917037e+00   6.937235e-02
  1.889940e-01    1.978107e+00   7.023837e-02
  1.912045e-01    2.018172e+00   7.070921e-02
  1.934149e-01    1.955335e+00   6.936678e-02
  1.956254e-01    1.945493e+00   6.896376e-02
  1.978358e-01    1.920456e+00   6.828378e-02
  2.000463e-01    1.905646e+00   6.779455e-02
  2.022568e-01    1.898645e+00   6.744780e-02
  2.044672e-01    1.976837e+00   6.858687e-02
  2.066777e-01    1.949046e+00   6.787702e-02
  2.088881e-01    1.991335e+00   6.838497e-02
  2.110986e-01    1.987225e+00   6.808010e-02
  2.133090e-01    1.976101e+00   6.766858e-02
  2.155195e-01    1.987602e+00   6.764010e-02
  2.177300e-01    1.985531e+00   6.707375e-02
  2.199404e-01    1.877873e+00   6.351122e-02
  2.221509e-01    1.918264e+00   6.313653e-02
  2.243613e-01    1.982467e+00   6.337073e-02
  2.265718e-01    2.014657e+00   6.317903e-02
  2.287822e-01    2.063379e+00   6.330555e-02
  2.309927e-01    2.055694e+00   6.261195e-02
  2.332031e-01    2.046595e+00   6.193850e-02
  2.354136e-01    2.111389e+00   6.240145e-02
  2.376241e-01    2.178805e+00   6.289784e-02
  2.398345e-01    2.257539e+00   6.355036e-02
  2.420450e-01    2.169007e+00   6.184665e-02
  2.442554e-01    2.138358e+00   6.098505e-02
  2.464659e-01    2.241567e+00   6.202023e-02
  2.486763e-01    2.073010e+00   5.925083e-02
  2.508868e-01    2.060658e+00   5.870136e-02
  2.530973e-01    2.053579e+00   5.823712e-02
  2.553077e-01    2.059504e+00   5.796731e-02
  2.575182e-01    2.075109e+00   5.784224e-02
  2.597286e-01    2.067917e+00   5.740627e-02
  2.619391e-01    2.054308e+00   5.688766e-02
  2.641495e-01    2.059809e+00   5.664849e-02
  2.663600e-01    2.117102e+00   5.711509e-02
  2.685704e-01    2.054842e+00   5.596399e-02
  2.707809e-01    1.992334e+00   5.481372e-02
  2.729914e-01    2.051137e+00   5.532688e-02
  2.752018e-01    2.055192e+00   5.509330e-02
  2.774123e-01    1.959892e+00   5.352599e-02
  2.796227e-01    1.970913e+00   5.341074e-02
  2.818332e-01    2.002257e+00   5.356521e-02
  2.840436e-01    2.029218e+00   5.366326e-02
  2.862541e-01    1.942564e+00   5.225257e-02
  2.884646e-01    1.919352e+00   5.169296e-02
  2.906750e-01    1.943257e+00   5.176721e-02
  2.928855e-01    2.022348e+00   5.256550e-02
  2.950959e-01    1.904950e+00   5.078264e-02
  2.973064e-01    1.838912e+00   4.967037e-02
  2.995168e-01    1.900715e+00   5.026943e-02
  3.017273e-01    1.932201e+00   5.046064e-02
  3.039377e-01    1.927783e+00   5.018222e-02
  3.061482e-01    1.925993e+00   4.994193e-02
  3.083587e-01    1.950299e+00   5.003855e-02
  3.105691e-01    1.870500e+00   4.879485e-02
  3.127796e-01    1.883278e+00   4.875540e-02
  3.149900e-01    1.860194e+00   4.825376e-02
  3.172005e-01    1.951815e+00   4.922570e-02
  3.194109e-01    1.918668e+00   4.860446e-02
  3.216214e-01    1.843309e+00   4.744600e-02
  3.238319e-01    1.817958e+00   4.693190e-02
  3.260423e-01    1.913511e+00   4.795771e-02
  3.282528e-01    1.896481e+00   4.755376e-02
  3.304632e-01    1.869059e+00   4.702584e-02
  3.326737e-01    1.893086e+00   4.714246e-02
  3.348841e-01    1.865752e+00   4.661942e-02
  3.370946e-01    1.845387e+00   4.618983e-02
  3.393050e-01    1.822953e+00   4.573431e-02
  3.415155e-01    1.854532e+00   4.595529e-02
  3.437260e-01    1.799037e+00   4.509474e-02
  3.459364e-01    1.825513e+00   4.525730e-02
  3.481469e-01    1.806244e+00   4.485349e-02
  3.503573e-01    1.839000e+00   4.509351e-02
  3.525678e-01    1.801495e+00   4.447227e-02
  3.547782e-01    1.750505e+00   4.367992e-02
  3.569887e-01    1.791165e+00   4.402773e-02
  3.591992e-01    1.823645e+00   4.426794e-02
  3.614096e-01    1.820910e+00   4.408136e-02
  3.636201e-01    1.784788e+00   4.348859e-02
  3.658305e-01    1.777187e+00   4.324783e-02
  3.680410e-01    1.861639e+00   4.411125e-02
  3.702514e-01    1.805935e+00   4.330017e-02
  3.724619e-01    1.802064e+00   4.310646e-02
  3.746724e-01    1.794954e+00   4.287780e-02
  3.768828e-01    1.764739e+00   4.237231e-02
  3.790933e-01    1.725760e+00   4.176522e-02
  3.813037e-01    1.753116e+00   4.195718e-02
  3.835142e-01    1.789335e+00   4.224919e-02
  3.857246e-01    1.812930e+00   4.238918e-02
  3.879351e-01    1.790619e+00   4.199120e-02
  3.901455e-01    1.828493e+00   4.229787e-02
  3.923560e-01    1.847927e+00   4.238691e-02
  3.945665e-01    1.809829e+00   4.181468e-02
  3.967769e-01    1.783049e+00   4.137418e-02
  3.989874e-01    1.832076e+00   4.180817e-02
  4.011978e-01    1.789278e+00   4.118992e-02
  4.034083e-01    1.733246e+00   4.041539e-02
  4.056187e-01    1.743448e+00   4.040927e-02
  4.078292e-01    1.812375e+00   4.107565e-02
  4.100397e-01    1.811594e+00   4.094141e-02
  4.122501e-01    1.790614e+00   4.058189e-02
  4.144606e-01    1.750126e+00   4.000148e-02
  4.166710e-01    1.736781e+00   3.973019e-02
  4.188815e-01    1.779874e+00   4.010125e-02
  4.210919e-01    1.777766e+00   3.996005e-02
  4.233024e-01    1.823153e+00   4.034789e-02
  4.255128e-01    1.834664e+00   4.035809e-02
  4.277233e-01    1.832396e+00   4.021724e-02
  4.299338e-01    1.809861e+00   3.985417e-02
  4.321442e-01    1.804308e+00   3.967912e-02
  4.343547e-01    1.767438e+00   3.916058e-02
  4.365651e-01    1.746167e+00   3.881361e-02
  4.387756e-01    1.721508e+00   3.843068e-02
  4.409860e-01    1.740484e+00   3.853483e-02
  4.431965e-01    1.745656e+00   3.848534e-02
  4.454070e-01    1.717136e+00   3.806347e-02
  4.476174e-01    1.784343e+00   3.869466e-02
  4.498279e-01    1.722444e+00   3.791416e-02
  4.520383e-01    1.760307e+00   3.822339e-02
  4.542488e-01    1.753036e+00   3.804157e-02
  4.564592e-01    1.683037e+00   3.717429e-02
  4.586697e-01    1.705627e+00   3.732361e-02
  4.608801e-01    1.727811e+00   3.746494e-02
  4.630906e-01    1.681308e+00   3.685947e-02
  4.653011e-01    1.731542e+00   3.730767e-02
  4.675115e-01    1.743108e+00   3.733351e-02
  4.697220e-01    1.685788e+00   3.661842e-02
  4.719324e-01    1.680637e+00   3.646784e-02
  4.741429e-01    1.699998e+00   3.658279e-02
  4.763533e-01    1.735635e+00   3.686948e-02
  4.785638e-01    1.727940e+00   3.669264e-02
  4.807743e-01    1.674640e+00   3.603044e-02
  4.829847e-01    1.644536e+00   3.561491e-02
  4.851952e-01    1.700368e+00   3.612278e-02
  4.874056e-01    1.729011e+00   3.633391e-02
  4.896161e-01    1.723811e+00   3.618927e-02
  4.918265e-01    1.724999e+00   3.611184e-02
  4.940370e-01    1.698329e+00   3.574313e-02
  4.962475e-01    1.682705e+00   3.549046e-02
  4.984579e-01    1.671518e+00   3.528513e-02
  5.006684e-01    1.674908e+00   3.523477e-02
  5.028788e-01    1.669662e+00   3.509431e-02
  5.050893e-01    1.719243e+00   3.552495e-02
  5.072997e-01    1.677579e+00   3.500710e-02
  5.095102e-01    1.677216e+00   3.491948e-02
  5.117206e-01    1.663706e+00   3.469585e-02
  5.139311e-01    1.687165e+00   3.485693e-02
  5.161416e-01    1.662379e+00   3.451817e-02
  5.183520e-01    1.678210e+00   3.459971e-02
  5.205625e-01    1.715149e+00   3.489650e-02
  5.227729e-01    1.699008e+00   3.465090e-02
  5.249834e-01    1.655924e+00   3.412932e-02
  5.271938e-01    1.635508e+00   3.383913e-02
  5.294043e-01    1.689553e+00   3.431430e-02
  5.316148e-01    1.704464e+00   3.438647e-02
  5.338252e-01    1.713213e+00   3.439582e-02
  5.360357e-01    1.747926e+00   3.466343e-02
  5.382461e-01    1.765442e+00   3.475794e-02
  5.404566e-01    1.763761e+00   3.466233e-02
  5.426670e-01    1.790779e+00   3.484809e-02
  5.448775e-01    1.783435e+00   3.469889e-02
  5.470879e-01    1.742832e+00   3.422512e-02
  5.492984e-01    1.720224e+00   3.392679e-02
  5.515089e-01    1.776195e+00   3.439786e-02
  5.537193e-01    1.739486e+00   3.396557e-02
  5.559298e-01    1.726370e+00   3.376304e-02
  5.581402e-01    1.769454e+00   3.410704e-02
  5.603507e-01    1.791874e+00   3.424777e-02
  5.625611e-01    1.793694e+00   3.419079e-02
  5.647716e-01    1.777399e+00   3.396123e-02
  5.669821e-01    1.787556e+00   3.398472e-02
  5.691925e-01    1.725199e+00   3.331503e-02
  5.714030e-01    1.755643e+00   3.353602e-02
  5.736134e-01    1.784627e+00   3.373982e-02
  5.758239e-01    1.728910e+00   3.313807e-02
  5.780343e-01    1.722888e+00   3.301033e-02
  5.802448e-01    1.692891e+00   3.265320e-02
  5.824552e-01    1.635509e+00   3.202770e-02
  5.846657e-01    1.632692e+00   3.193337e-02
  5.868762e-01    1.627916e+00   3.182025e-02
  5.890866e-01    1.635172e+00   3.182493e-02
  5.912971e-01    1.675038e+00   3.214384e-02
  5.935075e-01    1.631767e+00   3.166040e-02
  5.957180e-01    1.610435e+00   3.138822e-02
  5.979284e-01    1.619416e+00   3.141137e-02
  6.001389e-01    1.644881e+00   3.159290e-02
  6.023494e-01    1.664972e+00   3.172073e-02
  6.045598e-01    1.630351e+00   3.132531e-02
  6.067703e-01    1.639390e+00   3.134884e-02
  6.089807e-01    1.659653e+00   3.147856e-02
  6.111912e-01    1.716932e+00   3.195323e-02
  6.134016e-01    1.684172e+00   3.158381e-02
  6.156121e-01    1.644587e+00   3.114838e-02
  6.178226e-01    1.664526e+00   3.127459e-02
  6.200330e-01    1.672381e+00   3.128646e-02
  6.222435e-01    1.733736e+00   3.179209e-02
  6.244539e-01    1.684550e+00   3.127655e-02
  6.266644e-01    1.693714e+00   3.130028e-02
  6.288748e-01    1.749453e+00   3.174924e-02
  6.310853e-01    1.736372e+00   3.156893e-02
  6.332957e-01    1.665431e+00   3.085764e-02
  6.355062e-01    1.654467e+00   3.069612e-02
  6.377167e-01    1.709274e+00   3.114055e-02
  6.399271e-01    1.690373e+00   3.090857e-02
  6.421376e-01    1.690072e+00   3.084681e-02
  6.443480e-01    1.714085e+00   3.100608e-02
  6.465585e-01    1.714809e+00   3.095388e-02
  6.487689e-01    1.726048e+00   3.099652e-02
  6.509794e-01    1.724245e+00   3.092190e-02
  6.531899e-01    1.691623e+00   3.057040e-02
  6.554003e-01    1.648782e+00   3.012406e-02
  6.576108e-01    1.625317e+00   2.985326e-02
  6.598212e-01    1.577960e+00   2.936046e-02
  6.620317e-01    1.579717e+00   2.932234e-02
  6.642421e-01    1.592293e+00   2.938437e-02
  6.664526e-01    1.587839e+00   2.928917e-02
  6.686630e-01    1.589327e+00   2.924871e-02
  6.708735e-01    1.610050e+00   2.938478e-02
  6.730840e-01    1.607172e+00   2.930498e-02
  6.752944e-01    1.602705e+00   2.921102e-02
  6.775049e-01    1.592021e+00   2.906062e-02
  6.797153e-01    1.600991e+00   2.908961e-02
  6.819258e-01    1.590265e+00   2.893971e-02
  6.841362e-01    1.601134e+00   2.898621e-02
  6.863467e-01    1.652537e+00   2.939510e-02
  6.885572e-01    1.624196e+00   2.908973e-02
  6.907676e-01    1.606450e+00   2.887852e-02
  6.929781e-01    1.620958e+00   2.895707e-02
  6.951885e-01    1.621887e+00   2.891408e-02
  6.973990e-01    1.584569e+00   2.852896e-02
  6.996094e-01    1.579612e+00   2.843419e-02
  7.018199e-01    1.614185e+00   2.869322e-02
  7.040303e-01    1.615131e+00   2.865122e-02
  7.062408e-01    1.575704e+00   2.824979e-02
  7.084513e-01    1.584495e+00   2.827919e-02
  7.106617e-01    1.613377e+00   2.848619e-02
  7.128722e-01    1.556445e+00   2.793067e-02
  7.150826e-01    1.572027e+00   2.802174e-02
  7.172931e-01    1.578048e+00   2.802695e-02
  7.195035e-01    1.528677e+00   2.753763e-02
  7.217140e-01    1.572386e+00   2.797793e-02
  7.239245e-01    1.552566e+00   2.802621e-02
  7.261349e-01    1.593431e+00   2.850189e-02
  7.283454e-01    1.575969e+00   2.841775e-02
  7.305558e-01    1.564825e+00   2.837089e-02
  7.327663e-01    1.590316e+00   2.864377e-02
  7.349767e-01    1.559288e+00   2.837926e-02
  7.371872e-01    1.549428e+00   2.827828e-02
  7.393976e-01    1.549273e+00   2.826273e-02
  7.416081e-01    1.562483e+00   2.836685e-02
  7.438186e-01    1.590160e+00   2.847196e-02
  7.460290e-01    1.596275e+00   2.823040e-02
  7.482395e-01    1.577476e+00   2.789236e-02
  7.504499e-01    1.565022e+00   2.764618e-02
  7.526604e-01    1.572451e+00   2.759525e-02
  7.548708e-01    1.578148e+00   2.755566e-02
  7.570813e-01    1.598604e+00   2.768234e-02
  7.592918e-01    1.571772e+00   2.741388e-02
  7.615022e-01    1.527933e+00   2.699558e-02
  7.637127e-01    1.545681e+00   2.711943e-02
  7.659231e-01    1.553277e+00   2.715420e-02
  7.681336e-01    1.589022e+00   2.743313e-02
  7.703440e-01    1.596218e+00   2.746374e-02
  7.725545e-01    1.577571e+00   2.727194e-02
  7.747650e-01    1.611292e+00   2.752323e-02
  7.769754e-01    1.588259e+00   2.727290e-02
  7.791859e-01    1.523647e+00   2.665979e-02
  7.813963e-01    1.546082e+00   2.680329e-02
  7.836068e-01    1.574827e+00   2.699948e-02
  7.858172e-01    1.591279e+00   2.708940e-02
  7.880277e-01    1.598869e+00   2.710228e-02
  7.902381e-01    1.609821e+00   2.714553e-02
  7.924486e-01    1.623073e+00   2.720653e-02
  7.946591e-01    1.634233e+00   2.725112e-02
  7.968695e-01    1.593554e+00   2.686167e-02
  7.990800e-01    1.588181e+00   2.676841e-02
  8.012904e-01    1.620130e+00   2.698955e-02
  8.035009e-01    1.612807e+00   2.688057e-02
  8.057113e-01    1.632331e+00   2.699602e-02
  8.079218e-01    1.641705e+00   2.702670e-02
  8.101323e-01    1.651842e+00   2.706400e-02
  8.123427e-01    1.675432e+00   2.721007e-02
  8.145532e-01    1.697109e+00   2.733869e-02
  8.167636e-01    1.652691e+00   2.693320e-02
  8.189741e-01    1.637464e+00   2.676414e-02
  8.211845e-01    1.683858e+00   2.709514e-02
  8.233950e-01    1.691605e+00   2.711325e-02
  8.256054e-01    1.656907e+00   2.678926e-02
  8.278159e-01    1.652980e+00   2.671332e-02
  8.300264e-01    1.693051e+00   2.699137e-02
  8.322368e-01    1.655566e+00   2.664756e-02
  8.344473e-01    1.593450e+00   2.610011e-02
  8.366577e-01    1.601989e+00   2.612784e-02
  8.388682e-01    1.619802e+00   2.623070e-02
  8.410786e-01    1.630027e+00   2.627143e-02
  8.432891e-01    1.629284e+00   2.622371e-02
  8.454996e-01    1.620649e+00   2.611274e-02
  8.477100e-01    1.635331e+00   2.618913e-02
  8.499205e-01    1.618305e+00   2.601153e-02
  8.521309e-01    1.630959e+00   2.607230e-02
  8.543414e-01    1.639775e+00   2.610190e-02
  8.565518e-01    1.634848e+00   2.602206e-02
  8.587623e-01    1.642350e+00   2.604111e-02
  8.609727e-01    1.631822e+00   2.591725e-02
  8.631832e-01    1.624460e+00   2.581885e-02
  8.653937e-01    1.616770e+00   2.571808e-02
  8.676041e-01    1.612763e+00   2.564743e-02
  8.698146e-01    1.612667e+00   2.560747e-02
  8.720250e-01    1.604480e+00   2.550346e-02
  8.742355e-01    1.607615e+00   2.548949e-02
  8.764459e-01    1.596664e+00   2.536380e-02
  8.786564e-01    1.593539e+00   2.530117e-02
  8.808669e-01    1.611570e+00   2.540535e-02
  8.830773e-01    1.608711e+00   2.534459e-02
  8.852878e-01    1.603803e+00   2.526796e-02
  8.874982e-01    1.599046e+00   2.519384e-02
  8.897087e-01    1.598094e+00   2.514870e-02
  8.919191e-01    1.584531e+00   2.500418e-02
  8.941296e-01    1.546071e+00   2.466222e-02
  8.963401e-01    1.599715e+00   2.504997e-02
  8.985505e-01    1.597293e+00   2.499411e-02
  9.007610e-01    1.572511e+00   2.476302e-02
  9.029714e-01    1.581085e+00   2.479481e-02
  9.051819e-01    1.577457e+00   2.472939e-02
  9.073923e-01    1.621867e+00   2.503824e-02
  9.096028e-01    1.613420e+00   2.493790e-02
  9.118132e-01    1.646701e+00   2.515705e-02
  9.140237e-01    1.597131e+00   2.473892e-02
  9.162342e-01    1.599735e+00   2.472453e-02
  9.184446e-01    1.614828e+00   2.480495e-02
  9.206551e-01    1.646029e+00   2.500736e-02
  9.228655e-01    1.638678e+00   2.491578e-02
  9.250760e-01    1.616797e+00   2.471336e-02
  9.272864e-01    1.617446e+00   2.468390e-02
  9.294969e-01    1.612933e+00   2.461352e-02
  9.317074e-01    1.617953e+00   2.461694e-02
  9.339178e-01    1.600779e+00   2.445252e-02
  9.361283e-01    1.596131e+00   2.438098e-02
  9.383387e-01    1.636078e+00   2.465063e-02
  9.405492e-01    1.646618e+00   2.469536e-02
  9.427596e-01    1.640549e+00   2.461434e-02
  9.449701e-01    1.661564e+00   2.473781e-02
  9.471805e-01    1.645312e+00   2.458169e-02
  9.493910e-01    1.650558e+00   2.458703e-02
  9.516015e-01    1.644277e+00   2.450595e-02
  9.538119e-01    1.708640e+00   2.494673e-02
  9.560224e-01    1.702661e+00   2.486800e-02
  9.582328e-01    1.737996e+00   2.509102e-02
  9.604433e-01    1.748957e+00   2.513435e-02
  9.626537e-01    1.788225e+00   2.538079e-02
  9.648642e-01    1.743597e+00   2.502777e-02
  9.670747e-01    1.743606e+00   2.499330e-02
  9.692851e-01    1.789070e+00   2.528340e-02
  9.714956e-01    1.786437e+00   2.522917e-02
  9.737060e-01    1.813749e+00   2.538790e-02
  9.759165e-01    1.820511e+00   2.539931e-02
  9.781269e-01    1.791696e+00   2.516456e-02
  9.803374e-01    1.798088e+00   2.517452e-02
  9.825478e-01    1.810200e+00   2.522585e-02
  9.847583e-01    1.783064e+00   2.500208e-02
  9.869688e-01    1.766136e+00   2.484978e-02
  9.891792e-01    1.799227e+00   2.504818e-02
  9.913897e-01    1.796750e+00   2.499715e-02
  9.936001e-01    1.827661e+00   2.517824e-02
  9.958106e-01    1.867031e+00   2.541341e-02
  9.980210e-01    1.774494e+00   2.474348e-02
  1.000231e+00    1.705412e+00   2.438992e-02
  1.002442e+00    1.673721e+00   2.429063e-02
  1.004652e+00    1.634648e+00   2.407239e-02
  1.006863e+00    1.631185e+00   2.409677e-02
  1.009073e+00    1.575812e+00   2.372050e-02
  1.011284e+00    1.562864e+00   2.365441e-02
  1.013494e+00    1.576059e+00   2.377762e-02
  1.015705e+00    1.590750e+00   2.391076e-02
  1.017915e+00    1.593129e+00   2.394512e-02
  1.020126e+00    1.641942e+00   2.432561e-02
  1.022336e+00    1.619881e+00   2.417357e-02
  1.024547e+00    1.549610e+00   2.365465e-02
  1.026757e+00    1.479495e+00   2.312147e-02
  1.028967e+00    1.506921e+00   2.334235e-02
  1.031178e+00    1.558912e+00   2.374783e-02
  1.033388e+00    1.563445e+00   2.378746e-02
  1.035599e+00    1.559065e+00   2.375756e-02
  1.037809e+00    1.581276e+00   2.392951e-02
  1.040020e+00    1.605519e+00   2.411355e-02
  1.042230e+00    1.621458e+00   2.423496e-02
  1.044441e+00    1.622109e+00   2.423960e-02
  1.046651e+00    1.629748e+00   2.429679e-02
  1.048862e+00    1.631003e+00   2.430531e-02
  1.051072e+00    1.631830e+00   2.430902e-02
  1.053282e+00    1.653657e+00   2.447005e-02
  1.055493e+00    1.688123e+00   2.471917e-02
  1.057703e+00    1.780923e+00   2.538782e-02
  1.059914e+00    1.924538e+00   2.638681e-02
  1.062124e+00    1.784007e+00   2.540082e-02
  1.064335e+00    1.560329e+00   2.375159e-02
  1.066545e+00    1.462007e+00   2.298507e-02
  1.068756e+00    1.462747e+00   2.298717e-02
  1.070966e+00    1.472639e+00   2.305824e-02
  1.073177e+00    1.471434e+00   2.304276e-02
  1.075387e+00    1.479506e+00   2.310060e-02
  1.077597e+00    1.574857e+00   2.382587e-02
  1.079808e+00    1.583479e+00   2.375299e-02
  1.082018e+00    1.604834e+00   2.371455e-02
  1.084229e+00    1.598472e+00   2.355242e-02
  1.086439e+00    1.520336e+00   2.288019e-02
  1.088650e+00    1.467610e+00   2.240392e-02
  1.090860e+00    1.481910e+00   2.244452e-02
  1.093071e+00    1.472115e+00   2.230761e-02
  1.095281e+00    1.422552e+00   2.187206e-02
  1.097492e+00    1.416417e+00   2.177048e-02
  1.099702e+00    1.460181e+00   2.205250e-02
  1.101912e+00    1.432905e+00   2.179686e-02
  1.104123e+00    1.412048e+00   2.158979e-02
  1.106333e+00    1.437618e+00   2.173990e-02
  1.108544e+00    1.418673e+00   2.155212e-02
  1.110754e+00    1.385334e+00   2.125497e-02
  1.112965e+00    1.379038e+00   2.116669e-02
  1.115175e+00    1.390393e+00   2.121290e-02
  1.117386e+00    1.402753e+00   2.126789e-02
  1.119596e+00    1.402405e+00   2.122753e-02
  1.121807e+00    1.353358e+00   2.081498e-02
  1.124017e+00    1.373084e+00   2.092992e-02
  1.126228e+00    1.364190e+00   2.082678e-02
  1.128438e+00    1.389327e+00   2.098118e-02
  1.130648e+00    1.416803e+00   2.115309e-02
  1.132859e+00    1.415675e+00   2.111009e-02
  1.135069e+00    1.391257e+00   2.089254e-02
  1.137280e+00    1.367403e+00   2.067992e-02
  1.139490e+00    1.369380e+00   2.066201e-02
  1.141701e+00    1.341427e+00   2.041745e-02
  1.143911e+00    1.340510e+00   2.037909e-02
  1.146122e+00    1.378518e+00   2.063398e-02
  1.148332e+00    1.398359e+00   2.074986e-02
  1.150543e+00    1.393119e+00   2.067996e-02
  1.152753e+00    1.372522e+00   2.049570e-02
  1.154963e+00    1.351879e+00   2.031019e-02
  1.157174e+00    1.369568e+00   2.041251e-02
  1.159384e+00    1.376544e+00   2.043454e-02
  1.161595e+00    1.355481e+00   2.024791e-02
  1.163805e+00    1.372158e+00   2.034278e-02
  1.166016e+00    1.385985e+00   2.041540e-02
  1.168226e+00    1.431551e+00   2.071863e-02
  1.170437e+00    1.477107e+00   2.101594e-02
  1.172647e+00    1.469699e+00   2.093323e-02
  1.174858e+00    1.472438e+00   2.092351e-02
  1.177068e+00    1.535079e+00   2.133394e-02
  1.179278e+00    1.637179e+00   2.200067e-02
  1.181489e+00    1.653877e+00   2.208282e-02
  1.183699e+00    1.560817e+00   2.142304e-02
  1.185910e+00    1.462093e+00   2.070561e-02
  1.188120e+00    1.429118e+00   2.044338e-02
  1.190331e+00    1.427843e+00   2.040678e-02
  1.192541e+00    1.429943e+00   2.039367e-02
  1.194752e+00    1.392172e+00   2.009507e-02
  1.196962e+00    1.366892e+00   1.988591e-02
  1.199173e+00    1.329996e+00   1.958939e-02
  1.201383e+00    1.329120e+00   1.955597e-02
  1.203593e+00    1.324617e+00   1.949822e-02
  1.205804e+00    1.369183e+00   1.979741e-02
  1.208014e+00    1.345530e+00   1.959889e-02
  1.210225e+00    1.329728e+00   1.945830e-02
  1.212435e+00    1.331278e+00   1.944503e-02
  1.214646e+00    1.332874e+00   1.943073e-02
  1.216856e+00    1.356013e+00   1.957314e-02
  1.219067e+00    1.339747e+00   1.943102e-02
  1.221277e+00    1.355598e+00   1.952055e-02
  1.223488e+00    1.338681e+00   1.937274e-02
  1.225698e+00    1.321115e+00   1.921858e-02
  1.227909e+00    1.366087e+00   1.951261e-02
  1.230119e+00    1.373658e+00   1.953447e-02
  1.232329e+00    1.381195e+00   1.955694e-02
  1.234540e+00    1.394783e+00   1.962210e-02
  1.236750e+00    1.378253e+00   1.947491e-02
  1.238961e+00    1.375658e+00   1.942933e-02
  1.241171e+00    1.408752e+00   1.963696e-02
  1.243382e+00    1.364897e+00   1.930525e-02
  1.245592e+00    1.359952e+00   1.924605e-02
  1.247803e+00    1.360216e+00   1.922416e-02
  1.250013e+00    1.356561e+00   1.917473e-02
  1.252224e+00    1.344354e+00   1.906507e-02
  1.254434e+00    1.319043e+00   1.886127e-02
  1.256644e+00    1.300852e+00   1.870798e-02
  1.258855e+00    1.314012e+00   1.877940e-02
  1.261065e+00    1.326813e+00   1.884749e-02
  1.263276e+00    1.336627e+00   1.889423e-02
  1.265486e+00    1.324255e+00   1.878394e-02
  1.267697e+00    1.360863e+00   1.901868e-02
  1.269907e+00    1.376015e+00   1.910136e-02
  1.272118e+00    1.337096e+00   1.880683e-02
  1.274328e+00    1.312467e+00   1.861040e-02
  1.276539e+00    1.331853e+00   1.872469e-02
  1.278749e+00    1.332688e+00   1.870842e-02
  1.280959e+00    1.342054e+00   1.875159e-02
  1.283170e+00    1.347494e+00   1.876715e-02
  1.285380e+00    1.328479e+00   1.861199e-02
  1.287591e+00    1.321510e+00   1.854131e-02
  1.289801e+00    1.326574e+00   1.855575e-02
  1.292012e+00    1.341357e+00   1.864182e-02
  1.294222e+00    1.354742e+00   1.871833e-02
  1.296433e+00    1.321220e+00   1.846987e-02
  1.298643e+00    1.356284e+00   1.869683e-02
  1.300854e+00    1.337215e+00   1.854861e-02
  1.303064e+00    1.347975e+00   1.860387e-02
  1.305274e+00    1.346550e+00   1.857262e-02
  1.307485e+00    1.351440e+00   1.858475e-02
  1.309695e+00    1.352442e+00   1.856939e-02
  1.311906e+00    1.328254e+00   1.838105e-02
  1.314116e+00    1.355379e+00   1.854695e-02
  1.316327e+00    1.369131e+00   1.861897e-02
  1.318537e+00    1.363626e+00   1.855950e-02
  1.320748e+00    1.353871e+00   1.847141e-02
  1.322958e+00    1.360058e+00   1.849298e-02
  1.325169e+00    1.358024e+00   1.845805e-02
  1.327379e+00    1.350493e+00   1.838499e-02
  1.329589e+00    1.346530e+00   1.833696e-02
  1.331800e+00    1.347129e+00   1.832036e-02
  1.334010e+00    1.355671e+00   1.835766e-02
  1.336221e+00    1.359393e+00   1.836101e-02
  1.338431e+00    1.341691e+00   1.822027e-02
  1.340642e+00    1.363311e+00   1.843095e-02
  1.342852e+00    1.374495e+00   1.860799e-02
  1.345063e+00    1.374809e+00   1.866006e-02
  1.347273e+00    1.360956e+00   1.860119e-02
  1.349484e+00    1.363142e+00   1.864393e-02
  1.351694e+00    1.360315e+00   1.864739e-02
  1.353905e+00    1.351661e+00   1.860598e-02
  1.356115e+00    1.345989e+00   1.858194e-02
  1.358325e+00    1.337342e+00   1.853539e-02
  1.360536e+00    1.345939e+00   1.860648e-02
  1.362746e+00    1.336722e+00   1.855218e-02
  1.364957e+00    1.352377e+00   1.866819e-02
  1.367167e+00    1.325673e+00   1.849006e-02
  1.369378e+00    1.296433e+00   1.829089e-02
  1.371588e+00    1.314887e+00   1.842570e-02
  1.373799e+00    1.299291e+00   1.831972e-02
  1.376009e+00    1.272717e+00   1.813472e-02
  1.378220e+00    1.280080e+00   1.818955e-02
  1.380430e+00    1.306785e+00   1.838101e-02
  1.382640e+00    1.292061e+00   1.827807e-02
  1.384851e+00    1.292877e+00   1.828469e-02
  1.387061e+00    1.294329e+00   1.829525e-02
  1.389272e+00    1.301624e+00   1.834694e-02
  1.391482e+00    1.295833e+00   1.830543e-02
  1.393693e+00    1.262917e+00   1.807056e-02
  1.395903e+00    1.256397e+00   1.802238e-02
  1.398114e+00    1.260575e+00   1.805092e-02
  1.400324e+00    1.335130e+00   1.857490e-02
  1.402535e+00    1.267710e+00   1.809756e-02
  1.404745e+00    1.267167e+00   1.809128e-02
  1.406955e+00    1.275909e+00   1.815091e-02
  1.409166e+00    1.274207e+00   1.813547e-02
  1.411376e+00    1.279444e+00   1.816960e-02
  1.413587e+00    1.227712e+00   1.779473e-02
  1.415797e+00    1.225938e+00   1.777838e-02
  1.418008e+00    1.261212e+00   1.799059e-02
  1.420218e+00    1.271755e+00   1.791582e-02
  1.422429e+00    1.246871e+00   1.765515e-02
  1.424639e+00    1.267209e+00   1.773392e-02
  1.426850e+00    1.270307e+00   1.770089e-02
  1.429060e+00    1.265582e+00   1.761903e-02
  1.431270e+00    1.282607e+00   1.769262e-02
  1.433481e+00    1.291010e+00   1.770919e-02
  1.435691e+00    1.291220e+00   1.767189e-02
  1.437902e+00    1.273587e+00   1.751427e-02
  1.440112e+00    1.290464e+00   1.759432e-02
  1.442323e+00    1.297682e+00   1.761006e-02
  1.444533e+00    1.272718e+00   1.740726e-02
  1.446744e+00    1.281704e+00   1.743734e-02
  1.448954e+00    1.273159e+00   1.734887e-02
  1.451165e+00    1.263325e+00   1.725208e-02
  1.453375e+00    1.238543e+00   1.705433e-02
  1.455586e+00    1.240812e+00   1.704210e-02
  1.457796e+00    1.256162e+00   1.711982e-02
  1.460006e+00    1.264366e+00   1.714845e-02
  1.462217e+00    1.255302e+00   1.706080e-02
  1.464427e+00    1.244739e+00   1.696352e-02
  1.466638e+00    1.241990e+00   1.691971e-02
  1.468848e+00    1.257190e+00   1.699773e-02
  1.471059e+00    1.238388e+00   1.684537e-02
  1.473269e+00    1.256634e+00   1.694473e-02
  1.475480e+00    1.255307e+00   1.691217e-02
  1.477690e+00    1.248574e+00   1.684309e-02
  1.479901e+00    1.233423e+00   1.671708e-02
  1.482111e+00    1.252951e+00   1.682570e-02
  1.484321e+00    1.234033e+00   1.667538e-02
  1.486532e+00    1.256167e+00   1.680202e-02
  1.488742e+00    1.275548e+00   1.690839e-02
  1.490953e+00    1.249787e+00   1.671433e-02
  1.493163e+00    1.253087e+00   1.671416e-02
  1.495374e+00    1.245584e+00   1.664273e-02
  1.497584e+00    1.239208e+00   1.657860e-02
  1.499795e+00    1.260753e+00   1.670045e-02
  1.502005e+00    1.238572e+00   1.653142e-02
  1.504216e+00    1.249319e+00   1.658199e-02
  1.506426e+00    1.263507e+00   1.665504e-02
  1.508636e+00    1.268831e+00   1.666956e-02
  1.510847e+00    1.259148e+00   1.658398e-02
  1.513057e+00    1.258316e+00   1.655339e-02
  1.515268e+00    1.256462e+00   1.651546e-02
  1.517478e+00    1.247058e+00   1.642846e-02
  1.519689e+00    1.247243e+00   1.640479e-02
  1.521899e+00    1.243474e+00   1.635696e-02
  1.524110e+00    1.226928e+00   1.622766e-02
  1.526320e+00    1.254872e+00   1.639180e-02
  1.528531e+00    1.253827e+00   1.636519e-02
  1.530741e+00    1.244985e+00   1.628829e-02
  1.532951e+00    1.232648e+00   1.618792e-02
  1.535162e+00    1.234165e+00   1.628394e-02
  1.537372e+00    1.249614e+00   1.645246e-02
  1.539583e+00    1.261817e+00   1.656701e-02
  1.541793e+00    1.270136e+00   1.662856e-02
  1.544004e+00    1.259486e+00   1.655896e-02
  1.546214e+00    1.243392e+00   1.645130e-02
  1.548425e+00    1.258945e+00   1.655414e-02
  1.550635e+00    1.227779e+00   1.635758e-02
  1.552846e+00    1.240342e+00   1.645067e-02
  1.555056e+00    1.251862e+00   1.648531e-02
  1.557266e+00    1.229768e+00   1.622938e-02
  1.559477e+00    1.237896e+00   1.622395e-02
  1.561687e+00    1.246794e+00   1.625148e-02
  1.563898e+00    1.240754e+00   1.619492e-02
  1.566108e+00    1.260451e+00   1.630691e-02
  1.568319e+00    1.246411e+00   1.620020e-02
  1.570529e+00    1.239241e+00   1.612846e-02
  1.572740e+00    1.244196e+00   1.613305e-02
  1.574950e+00    1.235443e+00   1.604999e-02
  1.577161e+00    1.243821e+00   1.607884e-02
  1.579371e+00    1.244397e+00   1.605890e-02
  1.581582e+00    1.250096e+00   1.607583e-02
  1.583792e+00    1.238400e+00   1.598246e-02
  1.586002e+00    1.242835e+00   1.599346e-02
  1.588213e+00    1.229186e+00   1.588825e-02
  1.590423e+00    1.229329e+00   1.586922e-02
  1.592634e+00    1.227759e+00   1.583760e-02
  1.594844e+00    1.219596e+00   1.576367e-02
  1.597055e+00    1.238847e+00   1.586713e-02
  1.599265e+00    1.238607e+00   1.584490e-02
  1.601476e+00    1.228142e+00   1.575762e-02
  1.603686e+00    1.223927e+00   1.571093e-02
  1.605897e+00    1.216413e+00   1.564263e-02
  1.608107e+00    1.227884e+00   1.569675e-02
  1.610317e+00    1.207435e+00   1.554641e-02
  1.612528e+00    1.216913e+00   1.558829e-02
  1.614738e+00    1.213927e+00   1.555032e-02
  1.616949e+00    1.194816e+00   1.540873e-02
  1.619159e+00    1.195596e+00   1.539522e-02
  1.621370e+00    1.195985e+00   1.537946e-02
  1.623580e+00    1.157497e+00   1.511206e-02
  1.625791e+00    1.167425e+00   1.515879e-02
  1.628001e+00    1.168450e+00   1.514744e-02
  1.630212e+00    1.149532e+00   1.500688e-02
  1.632422e+00    1.160494e+00   1.506057e-02
  1.634632e+00    1.158671e+00   1.503162e-02
  1.636843e+00    1.129943e+00   1.482690e-02
  1.639053e+00    1.137658e+00   1.486042e-02
  1.641264e+00    1.146053e+00   1.489822e-02
  1.643474e+00    1.139423e+00   1.483785e-02
  1.645685e+00    1.137116e+00   1.480630e-02
  1.647895e+00    1.121590e+00   1.468855e-02
  1.650106e+00    1.111990e+00   1.460881e-02
  1.652316e+00    1.143480e+00   1.479778e-02
  1.654527e+00    1.120314e+00   1.463062e-02
  1.656737e+00    1.103079e+00   1.450132e-02
  1.658947e+00    1.082522e+00   1.434964e-02
  1.661158e+00    1.076899e+00   1.429642e-02
  1.663368e+00    1.088464e+00   1.435720e-02
  1.665579e+00    1.083052e+00   1.430558e-02
  1.667789e+00    1.094881e+00   1.436741e-02
  1.670000e+00    1.091490e+00   1.432981e-02
  1.672210e+00    1.074364e+00   1.420130e-02
  1.674421e+00    1.096352e+00   1.433062e-02
  1.676631e+00    1.105916e+00   1.437710e-02
  1.678842e+00    1.085783e+00   1.422996e-02
  1.681052e+00    1.071022e+00   1.411766e-02
  1.683263e+00    1.095263e+00   1.426136e-02
  1.685473e+00    1.079746e+00   1.414487e-02
  1.687683e+00    1.086883e+00   1.417610e-02
  1.689894e+00    1.061404e+00   1.399333e-02
  1.692104e+00    1.073865e+00   1.406032e-02
  1.694315e+00    1.071976e+00   1.403345e-02
  1.696525e+00    1.078256e+00   1.405928e-02
  1.698736e+00    1.054822e+00   1.389092e-02
  1.700946e+00    1.035009e+00   1.374489e-02
  1.703157e+00    1.017031e+00   1.361063e-02
  1.705367e+00    1.030643e+00   1.368704e-02
  1.707578e+00    1.031639e+00   1.367923e-02
  1.709788e+00    1.054555e+00   1.381614e-02
  1.711998e+00    1.036419e+00   1.368188e-02
  1.714209e+00    1.004634e+00   1.345624e-02
  1.716419e+00    1.005125e+00   1.344546e-02
  1.718630e+00    1.006176e+00   1.343838e-02
  1.720840e+00    1.037171e+00   1.362957e-02
  1.723051e+00    1.054148e+00   1.372658e-02
  1.725261e+00    1.089397e+00   1.393904e-02
  1.727472e+00    1.027022e+00   1.351988e-02
  1.729682e+00    1.022076e+00   1.347378e-02
  1.731893e+00    9.930500e-01   1.326731e-02
  1.734103e+00    1.006576e+00   1.334356e-02
  1.736313e+00    1.010384e+00   1.335475e-02
  1.738524e+00    1.000896e+00   1.327808e-02
  1.740734e+00    9.852794e-01   1.316048e-02
  1.742945e+00    9.732278e-01   1.306646e-02
  1.745155e+00    9.533206e-01   1.291894e-02
  1.747366e+00    9.542435e-01   1.291163e-02
  1.749576e+00    9.592598e-01   1.293202e-02
  1.751787e+00    9.687619e-01   1.298269e-02
  1.753997e+00    9.443191e-01   1.280471e-02
  1.756208e+00    9.368250e-01   1.274087e-02
  1.758418e+00    9.411309e-01   1.275720e-02
  1.760628e+00    9.395217e-01   1.273315e-02
  1.762839e+00    9.259730e-01   1.262806e-02
  1.765049e+00    9.236025e-01   1.259902e-02
  1.767260e+00    9.221944e-01   1.257687e-02
  1.769470e+00    9.312512e-01   1.262563e-02
  1.771681e+00    9.490705e-01   1.273276e-02
  1.773891e+00    9.127815e-01   1.247417e-02
  1.776102e+00    9.173769e-01   1.249285e-02
  1.778312e+00    9.196888e-01   1.249603e-02
  1.780523e+00    9.401613e-01   1.262159e-02
  1.782733e+00    1.017064e+00   1.311446e-02
  1.784944e+00    1.036674e+00   1.322676e-02
  1.787154e+00    9.693954e-01   1.277758e-02
  1.789364e+00    9.326524e-01   1.252059e-02
  1.791575e+00    9.079459e-01   1.234122e-02
  1.793785e+00    8.995023e-01   1.227145e-02
  1.795996e+00    8.822075e-01   1.214066e-02
  1.798206e+00    9.087729e-01   1.230964e-02
  1.800417e+00    8.820280e-01   1.211473e-02
  1.802627e+00    8.950110e-01   1.219173e-02
  1.804838e+00    9.266535e-01   1.239316e-02
  1.807048e+00    9.878078e-01   1.278219e-02
  1.809259e+00    1.061222e+00   1.323394e-02
  1.811469e+00    1.141441e+00   1.370824e-02
  1.813679e+00    1.053704e+00   1.315473e-02
  1.815890e+00    9.222637e-01   1.229197e-02
  1.818100e+00    9.151528e-01   1.222920e-02
  1.820311e+00    9.121411e-01   1.219415e-02
  1.822521e+00    8.921478e-01   1.204492e-02
  1.824732e+00    8.698115e-01   1.187853e-02
  1.826942e+00    8.579441e-01   1.178508e-02
  1.829153e+00    8.749369e-01   1.188958e-02
  1.831363e+00    9.210042e-01   1.218629e-02
  1.833574e+00    9.090576e-01   1.209516e-02
  1.835784e+00    8.892599e-01   1.195124e-02
  1.837994e+00    8.696670e-01   1.180717e-02
  1.840205e+00    8.803558e-01   1.186830e-02
  1.842415e+00    8.772333e-01   1.183544e-02
  1.844626e+00    8.931514e-01   1.193063e-02
  1.846836e+00    8.697585e-01   1.176192e-02
  1.849047e+00    8.681799e-01   1.173961e-02
  1.851257e+00    8.400338e-01   1.153832e-02
  1.853468e+00    8.434474e-01   1.155301e-02
  1.855678e+00    8.534248e-01   1.161231e-02
  1.857889e+00    8.297307e-01   1.144162e-02
  1.860099e+00    8.429986e-01   1.152417e-02
  1.862309e+00    8.488656e-01   1.155573e-02
  1.864520e+00    8.420287e-01   1.150061e-02
  1.866730e+00    8.338420e-01   1.143529e-02
  1.868941e+00    8.349584e-01   1.143211e-02
  1.871151e+00    8.422082e-01   1.147029e-02
  1.873362e+00    8.665843e-01   1.162366e-02
  1.875572e+00    8.566283e-01   1.154571e-02
  1.877783e+00    8.622992e-01   1.157234e-02
  1.879993e+00    8.551476e-01   1.151306e-02
  1.882204e+00    8.420317e-01   1.141353e-02
  1.884414e+00    8.257434e-01   1.129165e-02
  1.886624e+00    8.233563e-01   1.126440e-02
  1.888835e+00    8.039761e-01   1.112029e-02
  1.891045e+00    8.164330e-01   1.119538e-02
  1.893256e+00    8.185906e-01   1.119920e-02
  1.895466e+00    8.341523e-01   1.129401e-02
  1.897677e+00    8.520092e-01   1.140322e-02
  1.899887e+00    8.478092e-01   1.136402e-02
  1.902098e+00    8.416550e-01   1.131179e-02
  1.904308e+00    8.467538e-01   1.133532e-02
  1.906519e+00    8.487614e-01   1.133778e-02
  1.908729e+00    8.606852e-01   1.140634e-02
  1.910940e+00    8.600373e-01   1.139069e-02
  1.913150e+00    9.328396e-01   1.185173e-02
  1.915360e+00    9.707071e-01   1.207841e-02
  1.917571e+00    9.098927e-01   1.168255e-02
  1.919781e+00    8.275373e-01   1.113055e-02
  1.921992e+00    8.366207e-01   1.118074e-02
  1.924202e+00    8.227772e-01   1.107704e-02
  1.926413e+00    8.021147e-01   1.092688e-02
  1.928623e+00    8.078700e-01   1.095548e-02
  1.930834e+00    7.986565e-01   1.088251e-02
  1.933044e+00    7.853934e-01   1.078128e-02
  1.935255e+00    7.703346e-01   1.066734e-02
  1.937465e+00    7.813938e-01   1.073341e-02
  1.939675e+00    7.718462e-01   1.065703e-02
  1.941886e+00    7.814206e-01   1.071279e-02
  1.944096e+00    7.896438e-01   1.075891e-02
  1.946307e+00    7.972645e-01   1.080040e-02
  1.948517e+00    7.995569e-01   1.080547e-02
  1.950728e+00    8.036098e-01   1.082256e-02
  1.952938e+00    7.861585e-01   1.069438e-02
  1.955149e+00    7.866152e-01   1.068732e-02
  1.957359e+00    7.830605e-01   1.065317e-02
  1.959570e+00    7.887191e-01   1.068077e-02
  1.961780e+00    7.789890e-01   1.060485e-02
  1.963990e+00    7.732338e-01   1.055562e-02
  1.966201e+00    7.964428e-01   1.070275e-02
  1.968411e+00    7.970206e-01   1.069645e-02
  1.970622e+00    7.877625e-01   1.062403e-02
  1.972832e+00    7.967071e-01   1.067417e-02
  1.975043e+00    7.870151e-01   1.059898e-02
  1.977253e+00    7.843391e-01   1.057101e-02
  1.979464e+00    7.847431e-01   1.056368e-02
  1.981674e+00    7.665498e-01   1.043037e-02
  1.983885e+00    7.712842e-01   1.045256e-02
  1.986095e+00    7.799451e-01   1.050138e-02
  1.988305e+00    7.885054e-01   1.054891e-02
  1.990516e+00    7.771004e-01   1.046244e-02
  1.992726e+00    7.585112e-01   1.032699e-02
  1.994937e+00    7.671656e-01   1.037567e-02
  1.997147e+00    7.643829e-01   1.034719e-02
  1.999358e+00    7.601300e-01   1.030859e-02
  2.001568e+00    7.640238e-01   1.032422e-02
  2.003779e+00    7.589893e-01   1.027833e-02
  2.005989e+00    7.614445e-01   1.028301e-02
  2.008200e+00    7.672839e-01   1.031086e-02
  2.010410e+00    7.480574e-01   1.016927e-02
  2.012621e+00    7.609774e-01   1.024505e-02
  2.014831e+00    7.774560e-01   1.034385e-02
  2.017041e+00    7.600483e-01   1.021706e-02
  2.019252e+00    7.630495e-01   1.022726e-02
  2.021462e+00    7.603957e-01   1.019998e-02
  2.023673e+00    7.708560e-01   1.026047e-02
  2.025883e+00    7.732250e-01   1.026665e-02
  2.028094e+00    7.532083e-01   1.012331e-02
  2.030304e+00    7.605039e-01   1.016269e-02
  2.032515e+00    7.502980e-01   1.008503e-02
  2.034725e+00    7.637138e-01   1.016532e-02
  2.036936e+00    7.584212e-01   1.012070e-02
  2.039146e+00    7.565994e-01   1.009897e-02
  2.041356e+00    7.543923e-01   1.007461e-02
  2.043567e+00    7.402282e-01   9.970353e-03
  2.045777e+00    7.502323e-01   1.002830e-02
  2.047988e+00    7.425597e-01   9.967580e-03
  2.050198e+00    7.504988e-01   1.001232e-02
  2.052409e+00    7.676532e-01   1.011836e-02
  2.054619e+00    7.441986e-01   9.955266e-03
  2.056830e+00    7.447048e-01   9.951491e-03
  2.059040e+00    7.405415e-01   9.916186e-03
  2.061251e+00    7.369837e-01   9.885139e-03
  2.063461e+00    7.354452e-01   9.867297e-03
  2.065671e+00    7.280015e-01   9.808647e-03
  2.067882e+00    7.347859e-01   9.845302e-03
  2.070092e+00    7.374032e-01   9.853707e-03
  2.072303e+00    7.441858e-01   9.889782e-03
  2.074513e+00    7.352700e-01   9.821115e-03
  2.076724e+00    7.293810e-01   9.772332e-03
  2.078934e+00    7.219092e-01   9.713288e-03
  2.081145e+00    7.288035e-01   9.750544e-03
  2.083355e+00    7.325371e-01   9.766383e-03
  2.085566e+00    7.526204e-01   9.890363e-03
  2.087776e+00    7.361243e-01   9.771916e-03
  2.089986e+00    7.233723e-01   9.678197e-03
  2.092197e+00    7.176073e-01   9.630725e-03
  2.094407e+00    7.068006e-01   9.548879e-03
  2.096618e+00    7.269810e-01   9.675398e-03
  2.098828e+00    7.175865e-01   9.603471e-03
  2.101039e+00    7.347450e-01   9.708624e-03
  2.103249e+00    7.104900e-01   9.538495e-03
  2.105460e+00    7.146452e-01   9.557408e-03
  2.107670e+00    7.213786e-01   9.593643e-03
  2.109881e+00    7.125595e-01   9.525752e-03
  2.112091e+00    7.155958e-01   9.537110e-03
  2.114301e+00    7.077913e-01   9.476271e-03
  2.116512e+00    7.011951e-01   9.423353e-03
  2.118722e+00    6.995980e-01   9.403927e-03
  2.120933e+00    7.086738e-01   9.455944e-03
  2.123143e+00    6.972981e-01   9.370971e-03
  2.125354e+00    6.922461e-01   9.328580e-03
  2.127564e+00    7.006873e-01   9.376642e-03
  2.129775e+00    7.003939e-01   9.366063e-03
  2.131985e+00    6.985067e-01   9.344462e-03
  2.134196e+00    6.997799e-01   9.344485e-03
  2.136406e+00    6.911780e-01   9.278251e-03
  2.138617e+00    6.966677e-01   9.306643e-03
  2.140827e+00    7.037163e-01   9.369620e-03
  2.143037e+00    6.986600e-01   9.381104e-03
  2.145248e+00    7.026529e-01   9.429817e-03
  2.147458e+00    7.045227e-01   9.457489e-03
  2.149669e+00    7.059475e-01   9.478943e-03
  2.151879e+00    6.886423e-01   9.371164e-03
  2.154090e+00    7.086080e-01   9.513382e-03
  2.156300e+00    6.923663e-01   9.410326e-03
  2.158511e+00    6.946824e-01   9.431297e-03
  2.160721e+00    7.101077e-01   9.540314e-03
  2.162932e+00    7.042395e-01   9.504567e-03
  2.165142e+00    6.918626e-01   9.423679e-03
  2.167352e+00    7.107586e-01   9.554447e-03
  2.169563e+00    7.016711e-01   9.495132e-03
  2.171773e+00    7.139305e-01   9.580207e-03
  2.173984e+00    7.003797e-01   9.490279e-03
  2.176194e+00    6.961308e-01   9.462638e-03
  2.178405e+00    6.902728e-01   9.423446e-03
  2.180615e+00    6.937259e-01   9.447664e-03
  2.182826e+00    6.872902e-01   9.404422e-03
  2.185036e+00    6.876557e-01   9.406974e-03
  2.187247e+00    6.763124e-01   9.329004e-03
  2.189457e+00    6.766987e-01   9.331279e-03
  2.191667e+00    6.760470e-01   9.326588e-03
  2.193878e+00    6.799523e-01   9.352947e-03
  2.196088e+00    6.755854e-01   9.322165e-03
  2.198299e+00    6.952990e-01   9.456108e-03
  2.200509e+00    6.935302e-01   9.443015e-03
  2.202720e+00    6.822504e-01   9.364754e-03
  2.204930e+00    6.833164e-01   9.370824e-03
  2.207141e+00    6.889980e-01   9.408568e-03
  2.209351e+00    6.783688e-01   9.333853e-03
  2.211562e+00    6.799892e-01   9.343364e-03
  2.213772e+00    6.628364e-01   9.169870e-03
  2.215982e+00    6.611781e-01   9.114655e-03
  2.218193e+00    6.551985e-01   9.044169e-03
  2.220403e+00    6.591266e-01   9.046934e-03
  2.222614e+00    6.609785e-01   9.038888e-03
  2.224824e+00    6.720672e-01   9.095035e-03
  2.227035e+00    6.727618e-01   9.082277e-03
  2.229245e+00    6.760911e-01   9.087719e-03
  2.231456e+00    6.691939e-01   9.025645e-03
  2.233666e+00    6.623217e-01   8.964184e-03
  2.235877e+00    6.731475e-01   9.022850e-03
  2.238087e+00    6.753564e-01   9.024114e-03
  2.240298e+00    6.733796e-01   8.997083e-03
  2.242508e+00    6.924363e-01   9.108105e-03
  2.244718e+00    6.802319e-01   9.011552e-03
  2.246929e+00    6.912314e-01   9.069446e-03
  2.249139e+00    6.858557e-01   9.021556e-03
  2.251350e+00    7.148122e-01   9.197894e-03
  2.253560e+00    7.156881e-01   9.191581e-03
  2.255771e+00    6.998492e-01   9.077584e-03
  2.257981e+00    7.049444e-01   9.099065e-03
  2.260192e+00    7.148257e-01   9.151082e-03
  2.262402e+00    7.204723e-01   9.175861e-03
  2.264613e+00    7.137983e-01   9.122037e-03
  2.266823e+00    6.846710e-01   8.923408e-03
  2.269033e+00    7.213106e-01   9.148206e-03
  2.271244e+00    8.311900e-01   9.808599e-03
  2.273454e+00    1.048834e+00   1.100528e-02
  2.275665e+00    1.183868e+00   1.167862e-02
  2.277875e+00    1.019399e+00   1.082483e-02
  2.280086e+00    8.221833e-01   9.710309e-03
  2.282296e+00    6.971087e-01   8.931519e-03
  2.284507e+00    6.786987e-01   8.802491e-03
  2.286717e+00    6.637630e-01   8.695603e-03
  2.288928e+00    6.587513e-01   8.652814e-03
  2.291138e+00    6.586518e-01   8.642741e-03
  2.293348e+00    6.500454e-01   8.576573e-03
  2.295559e+00    6.575433e-01   8.616575e-03
  2.297769e+00    6.535982e-01   8.581457e-03
  2.299980e+00    6.472645e-01   8.530460e-03
  2.302190e+00    6.572652e-01   8.586975e-03
  2.304401e+00    6.534956e-01   8.552971e-03
  2.306611e+00    6.486033e-01   8.511744e-03
  2.308822e+00    6.397560e-01   8.445160e-03
  2.311032e+00    6.543251e-01   8.534309e-03
  2.313243e+00    6.539139e-01   8.525344e-03
  2.315453e+00    6.424285e-01   8.442615e-03
  2.317663e+00    6.358606e-01   8.390297e-03
  2.319874e+00    6.397374e-01   8.407144e-03
  2.322084e+00    6.417358e-01   8.411338e-03
  2.324295e+00    6.566540e-01   8.500234e-03
  2.326505e+00    6.517555e-01   8.459387e-03
  2.328716e+00    6.378583e-01   8.360191e-03
  2.330926e+00    6.353655e-01   8.335087e-03
  2.333137e+00    6.494803e-01   8.418747e-03
  2.335347e+00    6.398008e-01   8.346918e-03
  2.337558e+00    6.312288e-01   8.282646e-03
  2.339768e+00    6.316754e-01   8.277042e-03
  2.341979e+00    6.484905e-01   8.378061e-03
  2.344189e+00    6.463027e-01   8.355482e-03
  2.346399e+00    6.239446e-01   8.201272e-03
  2.348610e+00    6.289178e-01   8.225453e-03
  2.350820e+00    6.419423e-01   8.301979e-03
  2.353031e+00    6.392651e-01   8.276335e-03
  2.355241e+00    6.369823e-01   8.253461e-03
  2.357452e+00    6.247548e-01   8.165505e-03
  2.359662e+00    6.260015e-01   8.165439e-03
  2.361873e+00    6.115643e-01   8.062641e-03
  2.364083e+00    6.182385e-01   8.098585e-03
  2.366294e+00    6.236531e-01   8.125894e-03
  2.368504e+00    6.137271e-01   8.052985e-03
  2.370714e+00    6.321801e-01   8.165036e-03
  2.372925e+00    6.275393e-01   8.126960e-03
  2.375135e+00    6.240033e-01   8.095977e-03
  2.377346e+00    6.060504e-01   7.970825e-03
  2.379556e+00    6.112558e-01   7.997159e-03
  2.381767e+00    6.188734e-01   8.038990e-03
  2.383977e+00    6.195533e-01   8.035483e-03
  2.386188e+00    6.072917e-01   7.947733e-03
  2.388398e+00    6.124089e-01   7.973224e-03
  2.390609e+00    6.105831e-01   7.953652e-03
  2.392819e+00    6.008834e-01   7.882554e-03
  2.395029e+00    5.999343e-01   7.868743e-03
  2.397240e+00    6.070978e-01   7.907777e-03
  2.399450e+00    6.013569e-01   7.862565e-03
  2.401661e+00    6.011755e-01   7.853772e-03
  2.403871e+00    5.949096e-01   7.805074e-03
  2.406082e+00    5.871410e-01   7.746660e-03
  2.408292e+00    5.927228e-01   7.775698e-03
  2.410503e+00    6.002927e-01   7.817759e-03
  2.412713e+00    6.015645e-01   7.818287e-03
  2.414924e+00    5.935546e-01   7.758640e-03
  2.417134e+00    6.109110e-01   7.863585e-03
  2.419344e+00    6.044052e-01   7.814200e-03
  2.421555e+00    5.821499e-01   7.661609e-03
  2.423765e+00    5.889059e-01   7.698575e-03
  2.425976e+00    6.096331e-01   7.825026e-03
  2.428186e+00    5.961911e-01   7.731077e-03
  2.430397e+00    6.016343e-01   7.758778e-03
  2.432607e+00    5.977482e-01   7.726395e-03
  2.434818e+00    5.863578e-01   7.644946e-03
  2.437028e+00    5.732696e-01   7.552105e-03
  2.439239e+00    5.984098e-01   7.708240e-03
  2.441449e+00    5.900021e-01   7.646728e-03
  2.443659e+00    5.743591e-01   7.537421e-03
  2.445870e+00    5.737435e-01   7.545472e-03
  2.448080e+00    5.669730e-01   7.535129e-03
  2.450291e+00    5.670292e-01   7.551965e-03
  2.452501e+00    5.792683e-01   7.644231e-03
  2.454712e+00    5.645902e-01   7.555122e-03
  2.456922e+00    5.602561e-01   7.532628e-03
  2.459133e+00    5.623180e-01   7.551888e-03
  2.461343e+00    5.445352e-01   7.435782e-03
  2.463554e+00    5.500422e-01   7.476706e-03
  2.465764e+00    5.555177e-01   7.516942e-03
  2.467975e+00    5.656846e-01   7.587717e-03
  2.470185e+00    5.361370e-01   7.389119e-03
  2.472395e+00    5.333517e-01   7.371070e-03
  2.474606e+00    5.505236e-01   7.490356e-03
  2.476816e+00    5.489911e-01   7.480663e-03
  2.479027e+00    5.564327e-01   7.532031e-03
  2.481237e+00    5.444365e-01   7.450707e-03
  2.483448e+00    5.330397e-01   7.372589e-03
  2.485658e+00    5.201414e-01   7.282700e-03
  2.487869e+00    5.392977e-01   7.415629e-03
  2.490079e+00    5.385514e-01   7.409988e-03
  2.492290e+00    5.375600e-01   7.402726e-03
  2.494500e+00    5.438687e-01   7.445300e-03
  2.496710e+00    5.527823e-01   7.505354e-03
  2.498921e+00    5.411070e-01   7.424695e-03
  2.501131e+00    5.403034e-01   7.418206e-03
  2.503342e+00    5.428224e-01   7.434209e-03
  2.505552e+00    5.410964e-01   7.421234e-03
  2.507763e+00    5.397875e-01   7.410830e-03
  2.509973e+00    5.432711e-01   7.433287e-03
  2.512184e+00    5.381488e-01   7.396544e-03
  2.514394e+00    5.252278e-01   7.297853e-03
  2.516605e+00    5.384929e-01   7.341829e-03
  2.518815e+00    5.225684e-01   7.204246e-03
  2.521025e+00    5.289832e-01   7.227277e-03
  2.523236e+00    5.236331e-01   7.172701e-03
  2.525446e+00    5.244549e-01   7.162723e-03
  2.527657e+00    5.265386e-01   7.162327e-03
  2.529867e+00    5.293396e-01   7.167110e-03
  2.532078e+00    5.286396e-01   7.147280e-03
  2.534288e+00    5.305621e-01   7.146309e-03
  2.536499e+00    5.270652e-01   7.110746e-03
  2.538709e+00    5.313189e-01   7.128319e-03
  2.540920e+00    5.210084e-01   7.048201e-03
  2.543130e+00    5.202893e-01   7.033007e-03
  2.545340e+00    5.178813e-01   7.006714e-03
  2.547551e+00    5.133623e-01   6.966223e-03
  2.549761e+00    5.024371e-01   6.882290e-03
  2.551972e+00    5.131782e-01   6.946186e-03
  2.554182e+00    5.264065e-01   7.025928e-03
  2.556393e+00    5.190521e-01   6.967613e-03
  2.558603e+00    5.122321e-01   6.912668e-03
  2.560814e+00    5.055327e-01   6.858745e-03
  2.563024e+00    5.181184e-01   6.935017e-03
  2.565235e+00    5.202177e-01   6.939535e-03
  2.567445e+00    5.339229e-01   7.020658e-03
  2.569656e+00    5.191544e-01   6.913152e-03
  2.571866e+00    5.005962e-01   6.779240e-03
  2.574076e+00    5.126406e-01   6.851077e-03
  2.576287e+00    5.151165e-01   6.859296e-03
  2.578497e+00    5.122374e-01   6.832285e-03
  2.580708e+00    5.075358e-01   6.792822e-03
  2.582918e+00    5.211406e-01   6.875464e-03
  2.585129e+00    5.011801e-01   6.734863e-03
  2.587339e+00    5.116326e-01   6.797046e-03
  2.589550e+00    5.234758e-01   6.867655e-03
  2.591760e+00    5.165034e-01   6.813999e-03
  2.593971e+00    4.985716e-01   6.687241e-03
  2.596181e+00    4.919975e-01   6.636898e-03
  2.598391e+00    4.955814e-01   6.655906e-03
  2.600602e+00    5.114660e-01   6.755820e-03
  2.602812e+00    5.112624e-01   6.746917e-03
  2.605023e+00    5.050121e-01   6.698422e-03
  2.607233e+00    5.027809e-01   6.676496e-03
  2.609444e+00    5.052691e-01   6.685789e-03
  2.611654e+00    5.024106e-01   6.659538e-03
  2.613865e+00    5.076671e-01   6.687274e-03
  2.616075e+00    4.929192e-01   6.582362e-03
  2.618286e+00    4.988892e-01   6.615145e-03
  2.620496e+00    5.094314e-01   6.677953e-03
  2.622706e+00    5.166963e-01   6.719597e-03
  2.624917e+00    5.048715e-01   6.636405e-03
  2.627127e+00    4.967202e-01   6.576924e-03
  2.629338e+00    5.002511e-01   6.594301e-03
  2.631548e+00    4.969526e-01   6.566379e-03
  2.633759e+00    4.986987e-01   6.570802e-03
  2.635969e+00    4.932767e-01   6.528340e-03
  2.638180e+00    5.049277e-01   6.597986e-03
  2.640390e+00    5.032622e-01   6.580481e-03
  2.642601e+00    4.951604e-01   6.520673e-03
  2.644811e+00    5.100532e-01   6.610845e-03
  2.647021e+00    5.134102e-01   6.625936e-03
  2.649232e+00    5.006217e-01   6.536158e-03
  2.651442e+00    4.951277e-01   6.493723e-03
  2.653653e+00    4.926672e-01   6.470816e-03
  2.655863e+00    4.964163e-01   6.488712e-03
  2.658074e+00    5.008316e-01   6.510875e-03
  2.660284e+00    5.053586e-01   6.533833e-03
  2.662495e+00    4.896815e-01   6.424997e-03
  2.664705e+00    4.977120e-01   6.470879e-03
  2.666916e+00    5.002338e-01   6.480771e-03
  2.669126e+00    4.951922e-01   6.441568e-03
  2.671337e+00    4.961030e-01   6.440913e-03
  2.673547e+00    4.943311e-01   6.423034e-03
  2.675757e+00    4.906583e-01   6.392681e-03
  2.677968e+00    4.965172e-01   6.424215e-03
  2.680178e+00    4.880453e-01   6.362804e-03
  2.682389e+00    5.071341e-01   6.479550e-03
  2.684599e+00    5.027328e-01   6.445149e-03
  2.686810e+00    4.848452e-01   6.322872e-03
  2.689020e+00    4.904235e-01   6.352863e-03
  2.691231e+00    4.839134e-01   6.304322e-03
  2.693441e+00    4.886651e-01   6.329043e-03
  2.695652e+00    4.812642e-01   6.274506e-03
  2.697862e+00    4.893973e-01   6.320933e-03
  2.700072e+00    4.841955e-01   6.281225e-03
  2.702283e+00    4.781693e-01   6.235858e-03
  2.704493e+00    4.831380e-01   6.261920e-03
  2.706704e+00    4.956910e-01   6.336299e-03
  2.708914e+00    4.969693e-01   6.338446e-03
  2.711125e+00    4.812503e-01   6.231201e-03
  2.713335e+00    4.891796e-01   6.276214e-03
  2.715546e+00    4.841753e-01   6.237601e-03
  2.717756e+00    4.737107e-01   6.163993e-03
  2.719967e+00    4.869624e-01   6.243420e-03
  2.722177e+00    4.853231e-01   6.226766e-03
  2.724387e+00    4.896795e-01   6.248516e-03
  2.726598e+00    4.999472e-01   6.307540e-03
  2.728808e+00    4.929339e-01   6.256959e-03
  2.731019e+00    4.748664e-01   6.135152e-03
  2.733229e+00    4.772468e-01   6.144739e-03
  2.735440e+00    4.797541e-01   6.154626e-03
  2.737650e+00    4.781311e-01   6.138213e-03
  2.739861e+00    4.919822e-01   6.220377e-03
  2.742071e+00    4.781801e-01   6.126782e-03
  2.744282e+00    4.897453e-01   6.194140e-03
  2.746492e+00    4.937437e-01   6.213263e-03
  2.748702e+00    4.863392e-01   6.160580e-03
  2.750913e+00    4.777281e-01   6.100026e-03
  2.753123e+00    4.695580e-01   6.041584e-03
  2.755334e+00    4.831280e-01   6.122191e-03
  2.757544e+00    4.871417e-01   6.141776e-03
  2.759755e+00    4.829592e-01   6.109460e-03
  2.761965e+00    4.645275e-01   5.985867e-03
  2.764176e+00    4.687904e-01   6.007343e-03
  2.766386e+00    4.776049e-01   6.057779e-03
  2.768597e+00    4.790148e-01   6.060864e-03
  2.770807e+00    4.754846e-01   6.032624e-03
  2.773017e+00    4.804264e-01   6.057922e-03
  2.775228e+00    4.750669e-01   6.018267e-03
  2.777438e+00    4.767714e-01   6.023282e-03
  2.779649e+00    4.713140e-01   5.982832e-03
  2.781859e+00    4.726662e-01   5.985688e-03
  2.784070e+00    4.803203e-01   6.028067e-03
  2.786280e+00    4.853507e-01   6.053741e-03
  2.788491e+00    4.818417e-01   6.025957e-03
  2.790701e+00    4.722984e-01   5.960360e-03
  2.792912e+00    4.737933e-01   5.963835e-03
  2.795122e+00    4.818635e-01   6.008639e-03
  2.797333e+00    4.677898e-01   5.914737e-03
  2.799543e+00    4.733574e-01   5.943980e-03
  2.801753e+00    4.713660e-01   5.925633e-03
  2.803964e+00    4.742785e-01   5.938246e-03
  2.806174e+00    4.742368e-01   5.931855e-03
  2.808385e+00    4.775457e-01   5.945696e-03
  2.810595e+00    4.713246e-01   5.899992e-03
  2.812806e+00    4.789471e-01   5.940875e-03
  2.815016e+00    4.753796e-01   5.913967e-03
  2.817227e+00    4.687242e-01   5.898196e-03
  2.819437e+00    4.599820e-01   5.853851e-03
  2.821648e+00    4.686565e-01   5.911060e-03
  2.823858e+00    4.737401e-01   5.948395e-03
  2.826068e+00    4.546430e-01   5.832138e-03
  2.828279e+00    4.592824e-01   5.865800e-03
  2.830489e+00    4.761547e-01   5.975917e-03
  2.832700e+00    4.692273e-01   5.934845e-03
  2.834910e+00    4.664488e-01   5.919301e-03
  2.837121e+00    4.616624e-01   5.890549e-03
  2.839331e+00    4.788674e-01   6.000528e-03
  2.841542e+00    4.697561e-01   5.944212e-03
  2.843752e+00    4.589068e-01   5.875920e-03
  2.845963e+00    4.758419e-01   5.983770e-03
  2.848173e+00    4.739842e-01   5.972157e-03
  2.850383e+00    4.688204e-01   5.939839e-03
  2.852594e+00    4.664847e-01   5.924949e-03
  2.854804e+00    4.575742e-01   5.867572e-03
  2.857015e+00    4.661826e-01   5.922091e-03
  2.859225e+00    4.715625e-01   5.955900e-03
  2.861436e+00    4.634424e-01   5.903769e-03
  2.863646e+00    4.567066e-01   5.860726e-03
  2.865857e+00    4.686239e-01   5.937043e-03
  2.868067e+00    4.649956e-01   5.914237e-03
  2.870278e+00    4.559703e-01   5.856216e-03
  2.872488e+00    4.518043e-01   5.828252e-03
  2.874698e+00    4.583455e-01   5.869256e-03
  2.876909e+00    4.568342e-01   5.858240e-03
  2.879119e+00    4.555505e-01   5.848412e-03
  2.881330e+00    4.611114e-01   5.882518e-03
  2.883540e+00    4.590674e-01   5.868086e-03
  2.885751e+00    4.462291e-01   5.783836e-03
  2.887961e+00    4.522566e-01   5.820897e-03
  2.890172e+00    4.795370e-01   5.992246e-03
  2.892382e+00    4.628995e-01   5.885588e-03
  2.894593e+00    4.515741e-01   5.811343e-03
  2.896803e+00    4.614228e-01   5.872386e-03
  2.899014e+00    4.606460e-01   5.865527e-03
  2.901224e+00    4.555858e-01   5.831249e-03
  2.903434e+00    4.554338e-01   5.828328e-03
  2.905645e+00    4.630603e-01   5.874706e-03
  2.907855e+00    4.564956e-01   5.830823e-03
  2.910066e+00    4.496232e-01   5.784691e-03
  2.912276e+00    4.541418e-01   5.811590e-03
  2.914487e+00    4.533280e-01   5.803935e-03
  2.916697e+00    4.474588e-01   5.764053e-03
  2.918908e+00    4.449209e-01   5.745688e-03
  2.921118e+00    4.648914e-01   5.870518e-03
  2.923329e+00    4.572858e-01   5.819988e-03
  2.925539e+00    4.586017e-01   5.826079e-03
  2.927749e+00    4.656259e-01   5.868179e-03
  2.929960e+00    4.581481e-01   5.818101e-03
  2.932170e+00    4.635203e-01   5.849762e-03
  2.934381e+00    4.553689e-01   5.795652e-03
  2.936591e+00    4.513152e-01   5.767252e-03
  2.938802e+00    4.532204e-01   5.776695e-03
  2.941012e+00    4.484626e-01   5.743985e-03
  2.943223e+00    4.580110e-01   5.802101e-03
  2.945433e+00    4.604498e-01   5.813785e-03
  2.947644e+00    4.514166e-01   5.752349e-03
  2.949854e+00    4.441028e-01   5.701355e-03
  2.952064e+00    4.520761e-01   5.748079e-03
  2.954275e+00    4.562468e-01   5.770129e-03
  2.956485e+00    4.461064e-01   5.701504e-03
  2.958696e+00    4.600006e-01   5.785203e-03
  2.960906e+00    4.584938e-01   5.771522e-03
  2.963117e+00    4.613068e-01   5.784689e-03
  2.965327e+00    4.613689e-01   5.781146e-03
  2.967538e+00    4.456696e-01   5.679058e-03
  2.969748e+00    4.444357e-01   5.668400e-03
  2.971959e+00    4.481952e-01   5.689204e-03
  2.974169e+00    4.577327e-01   5.746820e-03
  2.976379e+00    4.544513e-01   5.723272e-03
  2.978590e+00    4.698158e-01   5.816033e-03
  2.980800e+00    4.643149e-01   5.779048e-03
  2.983011e+00    4.587461e-01   5.741486e-03
  2.985221e+00    4.573790e-01   5.729740e-03
  2.987432e+00    4.527050e-01   5.697293e-03
  2.989642e+00    4.696175e-01   5.800064e-03
  2.991853e+00    4.567050e-01   5.716495e-03
  2.994063e+00    4.431409e-01   5.628088e-03
  2.996274e+00    4.479509e-01   5.655381e-03
  2.998484e+00    4.603115e-01   5.730151e-03
  3.000694e+00    4.601593e-01   5.725736e-03
  3.002905e+00    4.558058e-01   5.695636e-03
  3.005115e+00    4.575195e-01   5.703350e-03
  3.007326e+00    4.530587e-01   5.672312e-03
  3.009536e+00    4.639314e-01   5.736686e-03
  3.011747e+00    4.606537e-01   5.713449e-03
  3.013957e+00    4.482085e-01   5.632581e-03
  3.016168e+00    4.527918e-01   5.658038e-03
  3.018378e+00    4.561032e-01   5.675652e-03
  3.020589e+00    4.501688e-01   5.635389e-03
  3.022799e+00    4.594383e-01   5.689934e-03
  3.025010e+00    4.494565e-01   5.624555e-03
  3.027220e+00    4.515078e-01   5.634268e-03
  3.029430e+00    4.517754e-01   5.632702e-03
  3.031641e+00    4.499618e-01   5.618236e-03
  3.033851e+00    4.574120e-01   5.661034e-03
  3.036062e+00    4.412307e-01   5.557259e-03
  3.038272e+00    4.473486e-01   5.592068e-03
  3.040483e+00    4.439318e-01   5.567494e-03
  3.042693e+00    4.471604e-01   5.584452e-03
  3.044904e+00    4.532335e-01   5.618214e-03
  3.047114e+00    4.422438e-01   5.544922e-03
  3.049325e+00    4.429610e-01   5.545066e-03
  3.051535e+00    4.438635e-01   5.546336e-03
  3.053745e+00    4.459092e-01   5.554379e-03
  3.055956e+00    4.548571e-01   5.605251e-03
  3.058166e+00    4.519584e-01   5.583094e-03
  3.060377e+00    4.347048e-01   5.470785e-03
  3.062587e+00    4.568227e-01   5.603578e-03
  3.064798e+00    4.420874e-01   5.508276e-03
  3.067008e+00    4.268422e-01   5.407826e-03
  3.069219e+00    4.447254e-01   5.515466e-03
  3.071429e+00    4.477644e-01   5.530770e-03
  3.073640e+00    4.479277e-01   5.528461e-03
  3.075850e+00    4.583693e-01   5.588907e-03
  3.078060e+00    4.501552e-01   5.535493e-03
  3.080271e+00    4.506012e-01   5.534758e-03
  3.082481e+00    4.365855e-01   5.444609e-03
  3.084692e+00    4.306387e-01   5.404072e-03
  3.086902e+00    4.385773e-01   5.450451e-03
  3.089113e+00    4.490167e-01   5.511369e-03
  3.091323e+00    4.413437e-01   5.460722e-03
  3.093534e+00    4.477749e-01   5.496985e-03
  3.095744e+00    4.483696e-01   5.497273e-03
  3.097955e+00    4.510367e-01   5.510023e-03
  3.100165e+00    4.508389e-01   5.505476e-03
  3.102375e+00    4.424201e-01   5.450426e-03
  3.104586e+00    4.447413e-01   5.461215e-03
  3.106796e+00    4.473557e-01   5.473719e-03
  3.109007e+00    4.586794e-01   5.539308e-03
  3.111217e+00    4.556469e-01   5.517236e-03
  3.113428e+00    4.621969e-01   5.553267e-03
  3.115638e+00    4.583993e-01   5.527136e-03
  3.117849e+00    4.479021e-01   5.459751e-03
  3.120059e+00    4.489647e-01   5.462721e-03
  3.122270e+00    4.452742e-01   5.436999e-03
  3.124480e+00    4.400904e-01   5.401566e-03
  3.126691e+00    4.549670e-01   5.488495e-03
  3.128901e+00    4.496473e-01   5.453201e-03
  3.131111e+00    4.457878e-01   5.425876e-03
  3.133322e+00    4.564902e-01   5.487141e-03
  3.135532e+00    4.541950e-01   5.469881e-03
  3.137743e+00    4.538183e-01   5.464091e-03
  3.139953e+00    4.542114e-01   5.462750e-03
  3.142164e+00    4.499455e-01   5.449135e-03
  3.144374e+00    4.419711e-01   5.429029e-03
  3.146585e+00    4.535753e-01   5.514561e-03
  3.148795e+00    4.542393e-01   5.529544e-03
  3.151006e+00    4.449762e-01   5.481452e-03
  3.153216e+00    4.530078e-01   5.537895e-03
  3.155426e+00    4.554092e-01   5.558983e-03
  3.157637e+00    4.511860e-01   5.538743e-03
  3.159847e+00    4.471875e-01   5.519053e-03
  3.162058e+00    4.434787e-01   5.500573e-03
  3.164268e+00    4.354013e-01   5.454285e-03
  3.166479e+00    4.331816e-01   5.443988e-03
  3.168689e+00    4.404660e-01   5.492940e-03
  3.170900e+00    4.324447e-01   5.445839e-03
  3.173110e+00    4.348129e-01   5.463604e-03
  3.175321e+00    4.355661e-01   5.470795e-03
  3.177531e+00    4.325177e-01   5.454362e-03
  3.179741e+00    4.386034e-01   5.494652e-03
  3.181952e+00    4.564017e-01   5.607189e-03
  3.184162e+00    4.499204e-01   5.569472e-03
  3.186373e+00    4.386941e-01   5.501152e-03
  3.188583e+00    4.440584e-01   5.536459e-03
  3.190794e+00    4.596473e-01   5.634622e-03
  3.193004e+00    4.316901e-01   5.461837e-03
  3.195215e+00    4.285732e-01   5.443537e-03
  3.197425e+00    4.298832e-01   5.453058e-03
  3.199636e+00    4.422643e-01   5.530244e-03
  3.201846e+00    4.270869e-01   5.433959e-03
  3.204056e+00    4.197370e-01   5.387850e-03
  3.206267e+00    4.209582e-01   5.396510e-03
  3.208477e+00    4.345295e-01   5.483727e-03
  3.210688e+00    4.320070e-01   5.468658e-03
  3.212898e+00    4.224754e-01   5.408545e-03
  3.215109e+00    4.418733e-01   5.532076e-03
  3.217319e+00    4.300316e-01   5.458090e-03
  3.219530e+00    4.278615e-01   5.444695e-03
  3.221740e+00    4.236526e-01   5.418397e-03
  3.223951e+00    4.241918e-01   5.422324e-03
  3.226161e+00    4.269891e-01   5.440336e-03
  3.228372e+00    4.207011e-01   5.400671e-03
  3.230582e+00    4.277931e-01   5.446129e-03
  3.232792e+00    4.304159e-01   5.463043e-03
  3.235003e+00    4.192033e-01   5.391641e-03
  3.237213e+00    4.233875e-01   5.418592e-03
  3.239424e+00    4.185274e-01   5.387401e-03
  3.241634e+00    4.301845e-01   5.462028e-03
  3.243845e+00    4.217706e-01   5.408424e-03
  3.246055e+00    4.255342e-01   5.432241e-03
  3.248266e+00    4.193979e-01   5.393118e-03
  3.250476e+00    4.189069e-01   5.389663e-03
  3.252687e+00    4.148263e-01   5.363261e-03
  3.254897e+00    4.384895e-01   5.513980e-03
  3.257107e+00    4.339738e-01   5.485238e-03
  3.259318e+00    4.137313e-01   5.355531e-03
  3.261528e+00    4.268849e-01   5.439838e-03
  3.263739e+00    4.417524e-01   5.533210e-03
  3.265949e+00    4.312425e-01   5.466870e-03
  3.268160e+00    4.255006e-01   5.429931e-03
  3.270370e+00    4.187399e-01   5.386112e-03
  3.272581e+00    4.201559e-01   5.394950e-03
  3.274791e+00    4.124848e-01   5.344941e-03
  3.277002e+00    4.176922e-01   5.378025e-03
  3.279212e+00    4.147806e-01   5.358863e-03
  3.281422e+00    4.255106e-01   5.427144e-03
  3.283633e+00    4.260913e-01   5.430195e-03
  3.285843e+00    4.192977e-01   5.386381e-03
  3.288054e+00    4.180122e-01   5.377177e-03
  3.290264e+00    4.283031e-01   5.442671e-03
  3.292475e+00    4.216461e-01   5.399353e-03
  3.294685e+00    4.175231e-01   5.372284e-03
  3.296896e+00    4.217757e-01   5.398789e-03
  3.299106e+00    4.209509e-01   5.392984e-03
  3.301317e+00    4.145231e-01   5.350618e-03
  3.303527e+00    4.172417e-01   5.367688e-03
  3.305737e+00    4.178691e-01   5.370665e-03
  3.307948e+00    4.155625e-01   5.355170e-03
  3.310158e+00    4.295695e-01   5.443790e-03
  3.312369e+00    4.276014e-01   5.430455e-03
  3.314579e+00    4.328772e-01   5.462897e-03
  3.316790e+00    4.361216e-01   5.482643e-03
  3.319000e+00    4.173722e-01   5.362309e-03
  3.321211e+00    4.319507e-01   5.454529e-03
  3.323421e+00    4.115610e-01   5.323077e-03
  3.325632e+00    4.188680e-01   5.369203e-03
  3.327842e+00    4.243251e-01   5.403160e-03
  3.330052e+00    4.207764e-01   5.379447e-03
  3.332263e+00    4.134198e-01   5.331226e-03
  3.334473e+00    4.286238e-01   5.427435e-03
  3.336684e+00    4.200792e-01   5.371807e-03
  3.338894e+00    4.263540e-01   5.410933e-03
  3.341105e+00    4.213667e-01   5.377990e-03
  3.343315e+00    4.335437e-01   5.453967e-03
  3.345526e+00    4.228063e-01   5.385133e-03
  3.347736e+00    4.214678e-01   5.375170e-03
  3.349947e+00    4.200644e-01   5.365300e-03
  3.352157e+00    4.202172e-01   5.365075e-03
  3.354368e+00    4.255171e-01   5.397511e-03
  3.356578e+00    4.245576e-01   5.390393e-03
  3.358788e+00    4.283594e-01   5.413145e-03
  3.360999e+00    4.067094e-01   5.273332e-03
  3.363209e+00    4.041711e-01   5.255862e-03
  3.365420e+00    4.163674e-01   5.333042e-03
  3.367630e+00    4.143860e-01   5.319345e-03
  3.369841e+00    4.333279e-01   5.438089e-03
  3.372051e+00    4.190955e-01   5.346073e-03
  3.374262e+00    4.216931e-01   5.360149e-03
  3.376472e+00    4.122468e-01   5.297360e-03
  3.378683e+00    4.027891e-01   5.233749e-03
  3.380893e+00    4.209694e-01   5.348238e-03
  3.383103e+00    4.119967e-01   5.288217e-03
  3.385314e+00    4.182563e-01   5.326005e-03
  3.387524e+00    4.211380e-01   5.341587e-03
  3.389735e+00    4.140873e-01   5.294049e-03
  3.391945e+00    3.970658e-01   5.180495e-03
  3.394156e+00    3.878161e-01   5.115699e-03
  3.396366e+00    4.115320e-01   5.266384e-03
  3.398577e+00    4.091989e-01   5.248405e-03
  3.400787e+00    4.035350e-01   5.223775e-03
  3.402998e+00    4.106771e-01   5.307868e-03
  3.405208e+00    4.100956e-01   5.324903e-03
  3.407418e+00    4.042700e-01   5.302798e-03
  3.409629e+00    3.909126e-01   5.228242e-03
  3.411839e+00    3.824726e-01   5.183002e-03
  3.414050e+00    3.978586e-01   5.297238e-03
  3.416260e+00    3.769986e-01   5.165946e-03
  3.418471e+00    3.804559e-01   5.198799e-03
  3.420681e+00    3.863840e-01   5.247604e-03
  3.422892e+00    3.809123e-01   5.218211e-03
  3.425102e+00    3.739109e-01   5.177671e-03
  3.427313e+00    3.881661e-01   5.282635e-03
  3.429523e+00    3.774934e-01   5.216501e-03
  3.431733e+00    3.736720e-01   5.196564e-03
  3.433944e+00    3.812000e-01   5.255126e-03
  3.436154e+00    3.875876e-01   5.305206e-03
  3.438365e+00    3.784696e-01   5.248382e-03
  3.440575e+00    3.745739e-01   5.227171e-03
  3.442786e+00    3.814254e-01   5.280368e-03
  3.444996e+00    3.798302e-01   5.274860e-03
  3.447207e+00    3.670003e-01   5.190228e-03
  3.449417e+00    3.771347e-01   5.302525e-03
  3.451628e+00    3.699736e-01   5.281428e-03
  3.453838e+00    3.619709e-01   5.245015e-03
  3.456049e+00    3.688855e-01   5.318800e-03
  3.458259e+00    3.646369e-01   5.309974e-03
  3.460469e+00    3.729208e-01   5.389927e-03
  3.462680e+00    3.693711e-01   5.383334e-03
  3.464890e+00    3.653405e-01   5.371674e-03
  3.467101e+00    3.752570e-01   5.461713e-03
  3.469311e+00    3.826576e-01   5.532141e-03
  3.471522e+00    3.906753e-01   5.606523e-03
  3.473732e+00    4.039109e-01   5.717194e-03
  3.475943e+00    3.994304e-01   5.701431e-03
  3.478153e+00    3.960767e-01   5.693059e-03
  3.480364e+00    4.113543e-01   5.817279e-03
  3.482574e+00    4.117989e-01   5.835945e-03
  3.484784e+00    4.254322e-01   5.946881e-03
  3.486995e+00    4.343499e-01   6.024317e-03
  3.489205e+00    4.456428e-01   6.117178e-03
  3.491416e+00    4.453630e-01   6.130502e-03
  3.493626e+00    4.578272e-01   6.230652e-03
  3.495837e+00    4.512025e-01   6.200364e-03
  3.498047e+00    4.603883e-01   6.277877e-03
  3.500258e+00    4.752751e-01   6.393536e-03
  3.502468e+00    4.732471e-01   6.394611e-03
  3.504679e+00    4.534690e-01   6.273934e-03
  3.506889e+00    4.719118e-01   6.414761e-03
  3.509099e+00    4.789938e-01   6.477198e-03
  3.511310e+00    4.972025e-01   6.613944e-03
  3.513520e+00    4.913934e-01   6.589745e-03
  3.515731e+00    5.086945e-01   6.719461e-03
  3.517941e+00    5.033309e-01   6.698503e-03
  3.520152e+00    5.045270e-01   6.720921e-03
  3.522362e+00    5.030494e-01   6.725586e-03
  3.524573e+00    4.995656e-01   6.716430e-03
  3.526783e+00    5.178719e-01   6.851838e-03
  3.528994e+00    5.078121e-01   6.797096e-03
  3.531204e+00    5.289177e-01   6.949443e-03
  3.533414e+00    5.263481e-01   6.944644e-03
  3.535625e+00    5.398263e-01   7.045496e-03
  3.537835e+00    5.396032e-01   7.056263e-03
  3.540046e+00    5.346884e-01   7.032940e-03
  3.542256e+00    5.509385e-01   7.146678e-03
  3.544467e+00    5.480943e-01   7.135905e-03
  3.546677e+00    5.333331e-01   7.046744e-03
  3.548888e+00    5.279161e-01   7.018253e-03
  3.551098e+00    5.498768e-01   7.170137e-03
  3.553309e+00    5.455926e-01   7.150410e-03
  3.555519e+00    5.537472e-01   7.215125e-03
  3.557729e+00    5.262671e-01   7.045447e-03
  3.559940e+00    5.332101e-01   7.103264e-03
  3.562150e+00    5.289856e-01   7.086717e-03
  3.564361e+00    5.304554e-01   7.109788e-03
  3.566571e+00    5.483398e-01   7.242650e-03
  3.568782e+00    5.376626e-01   7.185918e-03
  3.570992e+00    5.348667e-01   7.180961e-03
  3.573203e+00    5.468038e-01   7.274944e-03
  3.575413e+00    5.251532e-01   7.143124e-03
  3.577624e+00    5.262080e-01   7.164213e-03
  3.579834e+00    5.419711e-01   7.284731e-03
  3.582045e+00    5.458030e-01   7.324599e-03
  3.584255e+00    5.398256e-01   7.298487e-03
  3.586465e+00    5.386019e-01   7.304181e-03
  3.588676e+00    5.365123e-01   7.304178e-03
  3.590886e+00    5.373739e-01   7.323788e-03
  3.593097e+00    5.321714e-01   7.302697e-03
  3.595307e+00    5.266407e-01   7.278431e-03
  3.597518e+00    5.469856e-01   7.432094e-03
  3.599728e+00    5.279186e-01   7.315386e-03
  3.601939e+00    5.371625e-01   7.393242e-03
  3.604149e+00    5.579975e-01   7.549948e-03
  3.606360e+00    5.535278e-01   7.534065e-03
  3.608570e+00    5.358582e-01   7.426984e-03
  3.610780e+00    5.413329e-01   7.475969e-03
  3.612991e+00    5.412887e-01   7.485714e-03
  3.615201e+00    5.440146e-01   7.514429e-03
  3.617412e+00    5.526894e-01   7.581521e-03
  3.619622e+00    5.285147e-01   7.419757e-03
  3.621833e+00    5.423679e-01   7.523139e-03
  3.624043e+00    5.312065e-01   7.454803e-03
  3.626254e+00    5.201740e-01   7.386554e-03
  3.628464e+00    5.318967e-01   7.480280e-03
  3.630675e+00    5.242891e-01   7.440566e-03
  3.632885e+00    5.399378e-01   7.565329e-03
  3.635095e+00    5.202373e-01   7.440267e-03
  3.637306e+00    5.222603e-01   7.468888e-03
  3.639516e+00    5.267789e-01   7.515605e-03
  3.641727e+00    5.222842e-01   7.497896e-03
  3.643937e+00    5.284970e-01   7.556828e-03
  3.646148e+00    5.316935e-01   7.594221e-03
  3.648358e+00    5.480691e-01   7.725365e-03
  3.650569e+00    5.368335e-01   7.660570e-03
  3.652779e+00    5.203935e-01   7.556949e-03
  3.654990e+00    5.363165e-01   7.686639e-03
  3.657200e+00    5.355827e-01   7.696295e-03
  3.659410e+00    5.312714e-01   7.680230e-03
  3.661621e+00    5.271325e-01   7.665302e-03
  3.663831e+00    5.309219e-01   7.707884e-03
  3.666042e+00    5.428814e-01   7.809547e-03
  3.668252e+00    5.252154e-01   7.696614e-03
  3.670463e+00    5.034257e-01   7.550079e-03
  3.672673e+00    5.136853e-01   7.641765e-03
  3.674884e+00    5.206554e-01   7.708713e-03
  3.677094e+00    5.332737e-01   7.817102e-03
  3.679305e+00    5.292547e-01   7.803157e-03
  3.681515e+00    5.310761e-01   7.832163e-03
  3.683726e+00    5.481428e-01   7.973130e-03
  3.685936e+00    5.448968e-01   7.965416e-03
  3.688146e+00    5.310667e-01   7.879512e-03
  3.690357e+00    5.274385e-01   7.868479e-03
  3.692567e+00    5.346684e-01   7.938488e-03
  3.694778e+00    5.018778e-01   7.706846e-03
  3.696988e+00    5.186832e-01   7.850688e-03
  3.699199e+00    5.435507e-01   8.053184e-03
  3.701409e+00    5.189383e-01   7.885072e-03
  3.703620e+00    5.032839e-01   7.781178e-03
  3.705830e+00    5.194619e-01   7.921547e-03
  3.708041e+00    5.449043e-01   8.130159e-03
  3.710251e+00    5.411968e-01   8.119474e-03
  3.712461e+00    5.357903e-01   8.095709e-03
  3.714672e+00    5.128512e-01   7.937163e-03
  3.716882e+00    5.139119e-01   7.961932e-03
  3.719093e+00    5.215336e-01   8.037880e-03
  3.721303e+00    5.249684e-01   8.081409e-03
  3.723514e+00    5.240275e-01   8.091469e-03
  3.725724e+00    5.080726e-01   7.984352e-03
  3.727935e+00    5.169488e-01   8.071212e-03
  3.730145e+00    5.158967e-01   8.080317e-03
  3.732356e+00    4.996752e-01   7.969537e-03
  3.734566e+00    4.925658e-01   7.929751e-03
  3.736776e+00    5.065349e-01   8.059007e-03
  3.738987e+00    5.160767e-01   8.152358e-03
  3.741197e+00    5.312006e-01   8.289254e-03
  3.743408e+00    5.184909e-01   8.207678e-03
  3.745618e+00    5.031206e-01   8.103204e-03
  3.747829e+00    5.097040e-01   8.174123e-03
  3.750039e+00    4.983461e-01   8.100693e-03
  3.752250e+00    4.903260e-01   8.053306e-03
  3.754460e+00    4.902559e-01   8.070889e-03
  3.756671e+00    5.309941e-01   8.418720e-03
  3.758881e+00    5.120021e-01   8.285546e-03
  3.761091e+00    5.123841e-01   8.307821e-03
  3.763302e+00    4.992074e-01   8.219242e-03
  3.765512e+00    4.861896e-01   8.130179e-03
  3.767723e+00    5.042245e-01   8.298862e-03
  3.769933e+00    5.198573e-01   8.446166e-03
  3.772144e+00    5.095704e-01   8.381825e-03
  3.774354e+00    4.952772e-01   8.283055e-03
  3.776565e+00    4.879844e-01   8.241395e-03
  3.778775e+00    5.005353e-01   8.366535e-03
  3.780986e+00    5.072819e-01   8.443122e-03
  3.783196e+00    5.247666e-01   8.608049e-03
  3.785407e+00    5.077520e-01   8.487896e-03
  3.787617e+00    5.094875e-01   8.523258e-03
  3.789827e+00    5.045444e-01   8.502427e-03
  3.792038e+00    4.969285e-01   8.458713e-03
  3.794248e+00    4.893005e-01   8.414462e-03
  3.796459e+00    4.782306e-01   8.339575e-03
  3.798669e+00    4.988120e-01   8.538463e-03
  3.800880e+00    4.947340e-01   8.524843e-03
  3.803090e+00    5.125600e-01   8.699089e-03
  3.805301e+00    5.095833e-01   8.696175e-03
  3.807511e+00    5.018438e-01   8.651892e-03
  3.809722e+00    4.895381e-01   8.567158e-03
  3.811932e+00    5.005263e-01   8.685019e-03
  3.814142e+00    4.866210e-01   8.586087e-03
  3.816353e+00    5.004848e-01   8.730483e-03
  3.818563e+00    4.859468e-01   8.625479e-03
  3.820774e+00    4.996222e-01   8.769223e-03
  3.822984e+00    4.994884e-01   8.791467e-03
  3.825195e+00    4.749721e-01   8.596150e-03
  3.827405e+00    4.874789e-01   8.732277e-03
  3.829616e+00    4.813927e-01   8.701213e-03
  3.831826e+00    4.997196e-01   8.889521e-03
  3.834037e+00    4.985111e-01   8.903366e-03
  3.836247e+00    4.591357e-01   8.568257e-03
  3.838457e+00    4.476812e-01   8.484354e-03
  3.840668e+00    4.949675e-01   8.946408e-03
  3.842878e+00    5.096385e-01   9.103890e-03
  3.845089e+00    5.011181e-01   9.053189e-03
  3.847299e+00    5.298817e-01   9.336059e-03
  3.849510e+00    4.797121e-01   8.908590e-03
  3.851720e+00    4.990651e-01   9.107924e-03
  3.853931e+00    5.126707e-01   9.250636e-03
  3.856141e+00    4.925525e-01   9.086267e-03
  3.858352e+00    4.820445e-01   9.007849e-03
  3.860562e+00    4.752245e-01   8.962840e-03
  3.862772e+00    4.875132e-01   9.097381e-03
  3.864983e+00    4.973856e-01   9.208839e-03
  3.867193e+00    5.075786e-01   9.322714e-03
  3.869404e+00    5.176648e-01   9.435209e-03
  3.871614e+00    5.101025e-01   9.386374e-03
  3.873825e+00    5.012515e-01   9.325074e-03
  3.876035e+00    4.652157e-01   9.003617e-03
  3.878246e+00    4.962955e-01   9.325315e-03
  3.880456e+00    4.627130e-01   9.032466e-03
  3.882667e+00    4.682730e-01   9.115100e-03
  3.884877e+00    4.779265e-01   9.237953e-03
  3.887087e+00    4.777444e-01   9.265732e-03
  3.889298e+00    4.787730e-01   9.305573e-03
  3.891508e+00    5.029142e-01   9.568290e-03
  3.893719e+00    4.903007e-01   9.478498e-03
  3.895929e+00    4.957977e-01   9.563061e-03
  3.898140e+00    4.854029e-01   9.493846e-03
  3.900350e+00    4.921891e-01   9.592135e-03
  3.902561e+00    4.864458e-01   9.568283e-03
  3.904771e+00    4.953709e-01   9.688600e-03
  3.906982e+00    5.108277e-01   9.872497e-03
  3.909192e+00    5.211980e-01   1.000678e-02
  3.911403e+00    4.963091e-01   9.799177e-03
  3.913613e+00    4.919468e-01   9.790421e-03
  3.915823e+00    4.861866e-01   9.767686e-03
  3.918034e+00    4.945152e-01   9.886398e-03
  3.920244e+00    4.897788e-01   9.874786e-03
  3.922455e+00    4.815396e-01   9.827171e-03
  3.924665e+00    4.847186e-01   9.895862e-03
  3.926876e+00    5.139872e-01   1.022829e-02
  3.929086e+00    5.174357e-01   1.030114e-02
  3.931297e+00    5.063245e-01   1.022539e-02
  3.933507e+00    4.755734e-01   9.938587e-03
  3.935718e+00    4.908960e-01   1.012623e-02
  3.937928e+00    4.992408e-01   1.024175e-02
  3.940138e+00    4.840304e-01   1.011379e-02
  3.942349e+00    4.851340e-01   1.015506e-02
  3.944559e+00    5.027009e-01   1.036784e-02
  3.946770e+00    4.821708e-01   1.018386e-02
  3.948980e+00    4.829633e-01   1.022294e-02
  3.951191e+00    4.902909e-01   1.033111e-02
  3.953401e+00    4.826794e-01   1.028185e-02
  3.955612e+00    4.717702e-01   1.019617e-02
  3.957822e+00    4.867972e-01   1.038893e-02
  3.960033e+00    4.828363e-01   1.037920e-02
  3.962243e+00    4.723223e-01   1.029794e-02
  3.964453e+00    4.808556e-01   1.042341e-02
  3.966664e+00    4.377760e-01   9.977344e-03
  3.968874e+00    5.027911e-01   1.072134e-02
  3.971085e+00    5.300964e-01   1.103162e-02
  3.973295e+00    5.055991e-01   1.079565e-02
  3.975506e+00    5.020292e-01   1.077933e-02
  3.977716e+00    5.371162e-01   1.117294e-02
  3.979927e+00    4.760351e-01   1.054035e-02
  3.982137e+00    4.762384e-01   1.056468e-02
  3.984348e+00    4.925182e-01   1.076640e-02
  3.986558e+00    4.866188e-01   1.072410e-02
  3.988768e+00    4.656162e-01   1.051273e-02
  3.990979e+00    4.832754e-01   1.073280e-02
  3.993189e+00    4.974763e-01   1.091284e-02
  3.995400e+00    5.082762e-01   1.105459e-02
  3.997610e+00    5.279095e-01   1.129737e-02
  3.999821e+00    4.801200e-01   1.081123e-02
  4.002031e+00    4.571780e-01   1.058699e-02
  4.004242e+00    4.805826e-01   1.089286e-02
  4.006452e+00    4.968987e-01   1.111617e-02
  4.008663e+00    4.807211e-01   1.097352e-02
  4.010873e+00    4.815672e-01   1.102308e-02
  4.013084e+00    4.556666e-01   1.076221e-02
  4.015294e+00    4.707753e-01   1.097958e-02
  4.017504e+00    4.902178e-01   1.124611e-02
  4.019715e+00    5.157058e-01   1.157859e-02
  4.021925e+00    5.085311e-01   1.154188e-02
  4.024136e+00    4.826086e-01   1.128752e-02
  4.026346e+00    4.734663e-01   1.122369e-02
  4.028557e+00    4.755182e-01   1.129191e-02
  4.030767e+00    4.650187e-01   1.121130e-02
  4.032978e+00    5.233346e-01   1.194167e-02
  4.035188e+00    4.810067e-01   1.149476e-02
  4.037399e+00    4.843504e-01   1.158203e-02
  4.039609e+00    5.007066e-01   1.182463e-02
  4.041819e+00    4.865033e-01   1.170474e-02
  4.044030e+00    4.607543e-01   1.143946e-02
  4.046240e+00    4.738759e-01   1.165045e-02
  4.048451e+00    5.079196e-01   1.211403e-02
  4.050661e+00    5.121167e-01   1.221690e-02
  4.052872e+00    4.944808e-01   1.205827e-02
  4.055082e+00    4.420909e-01   1.145267e-02
  4.057293e+00    4.605315e-01   1.174153e-02
  4.059503e+00    4.638866e-01   1.183794e-02
  4.061714e+00    4.496463e-01   1.170935e-02
  4.063924e+00    4.700217e-01   1.202764e-02
  4.066134e+00    4.774553e-01   1.217955e-02
  4.068345e+00    4.480618e-01   1.185564e-02
  4.070555e+00    4.810978e-01   1.234396e-02
  4.072766e+00    4.911020e-01   1.253328e-02
  4.074976e+00    4.668761e-01   1.228105e-02
  4.077187e+00    5.229907e-01   1.306276e-02
  4.079397e+00    4.678730e-01   1.241854e-02
  4.081608e+00    4.770356e-01   1.260454e-02
  4.083818e+00    4.892587e-01   1.283143e-02
  4.086029e+00    5.128537e-01   1.320654e-02
  4.088239e+00    4.868504e-01   1.293672e-02
  4.090449e+00    4.884121e-01   1.302756e-02
  4.092660e+00    4.810972e-01   1.300090e-02
  4.094870e+00    4.774821e-01   1.302401e-02
  4.097081e+00    4.416803e-01   1.259466e-02
  4.099291e+00    4.807182e-01   1.319395e-02
  4.101502e+00    4.840942e-01   1.328964e-02
  4.103712e+00    5.085806e-01   1.367221e-02
  4.105923e+00    4.959819e-01   1.355424e-02
  4.108133e+00    5.196478e-01   1.392712e-02
  4.110344e+00    4.991935e-01   1.370271e-02
  4.112554e+00    5.262175e-01   1.412422e-02
  4.114764e+00    4.903954e-01   1.368988e-02
  4.116975e+00    4.659342e-01   1.339644e-02
  4.119185e+00    5.028315e-01   1.397340e-02
  4.121396e+00    5.270565e-01   1.436528e-02
  4.123606e+00    4.788610e-01   1.374878e-02
  4.125817e+00    4.691743e-01   1.366611e-02
  4.128027e+00    4.674704e-01   1.369861e-02
  4.130238e+00    4.798756e-01   1.393886e-02
  4.132448e+00    4.595103e-01   1.369882e-02
  4.134659e+00    4.939878e-01   1.426481e-02
  4.136869e+00    4.952642e-01   1.434676e-02
  4.139080e+00    4.846382e-01   1.425596e-02
  4.141290e+00    4.771098e-01   1.420776e-02
  4.143500e+00    4.529877e-01   1.390746e-02
  4.145711e+00    4.749614e-01   1.430753e-02
  4.147921e+00    4.253718e-01   1.360201e-02
  4.150132e+00    4.514549e-01   1.407970e-02
  4.152342e+00    4.868605e-01   1.469218e-02
  4.154553e+00    5.348073e-01   1.547197e-02
  4.156763e+00    4.865590e-01   1.483075e-02
  4.158974e+00    4.865957e-01   1.490559e-02
  4.161184e+00    4.619246e-01   1.459504e-02
  4.163395e+00    5.238854e-01   1.562216e-02
  4.165605e+00    5.441987e-01   1.600529e-02
  4.167815e+00    4.795895e-01   1.510363e-02
  4.170026e+00    4.843509e-01   1.525807e-02
  4.172236e+00    5.303369e-01   1.605254e-02
  4.174447e+00    4.955107e-01   1.560081e-02
  4.176657e+00    4.997871e-01   1.575375e-02
  4.178868e+00    4.999345e-01   1.584518e-02
  4.181078e+00    4.649999e-01   1.536761e-02
  4.183289e+00    4.878575e-01   1.583079e-02
  4.185499e+00    4.850760e-01   1.587902e-02
  4.187710e+00    5.208129e-01   1.654961e-02
  4.189920e+00    5.051638e-01   1.639743e-02
  4.192130e+00    4.758621e-01   1.601220e-02
  4.194341e+00    4.416342e-01   1.551993e-02
  4.196551e+00    4.740797e-01   1.618153e-02
  4.198762e+00    5.328917e-01   1.726514e-02
  4.200972e+00    4.900574e-01   1.666383e-02
  4.203183e+00    4.635577e-01   1.631395e-02
  4.205393e+00    4.648410e-01   1.644494e-02
  4.207604e+00    4.926749e-01   1.704579e-02
  4.209814e+00    5.480022e-01   1.810080e-02
  4.212025e+00    4.832454e-01   1.711825e-02
  4.214235e+00    5.164390e-01   1.782167e-02
  4.216445e+00    4.671929e-01   1.707347e-02
  4.218656e+00    4.308070e-01   1.651796e-02
  4.220866e+00    4.189955e-01   1.641052e-02
  4.223077e+00    4.646540e-01   1.741438e-02
  4.225287e+00    4.822641e-01   1.788070e-02
  4.227498e+00    4.364281e-01   1.714355e-02
  4.229708e+00    5.537389e-01   1.946732e-02
  4.231919e+00    5.078609e-01   1.879775e-02
  4.234129e+00    5.221440e-01   1.922047e-02
  4.236340e+00    4.501993e-01   1.799960e-02
  4.238550e+00    4.533449e-01   1.822202e-02
  4.240761e+00    4.602884e-01   1.852316e-02
  4.242971e+00    4.723561e-01   1.893628e-02
  4.245181e+00    4.331445e-01   1.830338e-02
  4.247392e+00    5.043207e-01   1.993475e-02
  4.249602e+00    4.569527e-01   1.916440e-02
  4.251813e+00    5.184221e-01   2.061357e-02
  4.254023e+00    4.962126e-01   2.037042e-02
  4.256234e+00    4.885615e-01   2.042889e-02
  4.258444e+00    4.638243e-01   2.011310e-02
  4.260655e+00    5.193866e-01   2.151789e-02
  4.262865e+00    4.885705e-01   2.110629e-02
  4.265076e+00    5.115046e-01   2.184185e-02
  4.267286e+00    4.890368e-01   2.160965e-02
  4.269496e+00    5.468616e-01   2.313088e-02
  4.271707e+00    4.878872e-01   2.211785e-02
  4.273917e+00    4.893962e-01   2.243829e-02
  4.276128e+00    5.314138e-01   2.369269e-02
  4.278338e+00    4.719563e-01   2.262563e-02
  4.280549e+00    4.335089e-01   2.199586e-02
  4.282759e+00    4.902214e-01   2.372610e-02
  4.284970e+00    4.412893e-01   2.284422e-02
  4.287180e+00    4.205750e-01   2.256865e-02
  4.289391e+00    4.866779e-01   2.445998e-02
  4.291601e+00    5.157188e-01   2.538018e-02
  4.293811e+00    5.237079e-01   2.577622e-02
  4.296022e+00    5.349541e-01   2.626063e-02
  4.298232e+00    4.859025e-01   2.523792e-02
  4.300443e+00    4.219640e-01   2.371305e-02
  4.302653e+00    3.940325e-01   2.311274e-02
  4.304864e+00    4.288431e-01   2.432057e-02
  4.307074e+00    3.916000e-01   2.344969e-02
  4.309285e+00    4.278445e-01   2.473316e-02
  4.311495e+00    4.498321e-01   2.559790e-02
  4.313706e+00    5.045906e-01   2.736647e-02
  4.315916e+00    4.676364e-01   2.660468e-02
  4.318126e+00    4.079155e-01   2.509329e-02
  4.320337e+00    4.686250e-01   2.716833e-02
  4.322547e+00    4.828527e-01   2.786988e-02
  4.324758e+00    5.693459e-01   3.057813e-02
  4.326968e+00    4.101697e-01   2.624618e-02
  4.329179e+00    4.202694e-01   2.686025e-02
  4.331389e+00    4.649734e-01   2.857840e-02
  4.333600e+00    4.825974e-01   2.946224e-02
  4.335810e+00    4.318586e-01   2.820215e-02
  4.338021e+00    5.217896e-01   3.139596e-02
  4.340231e+00    5.389152e-01   3.230860e-02
  4.342442e+00    4.788203e-01   3.086230e-02
  4.344652e+00    5.374430e-01   3.314150e-02
  4.346862e+00    3.655635e-01   2.771569e-02
  4.349073e+00    4.799760e-01   3.221933e-02
  4.351283e+00    3.666283e-01   2.858063e-02
  4.353494e+00    4.009398e-01   3.034964e-02
  4.355704e+00    4.825645e-01   3.383141e-02
  4.357915e+00    4.321805e-01   3.254971e-02
  4.360125e+00    5.174891e-01   3.622602e-02
  4.362336e+00    4.104152e-01   3.284971e-02
  4.364546e+00    2.941282e-01   2.831475e-02
  4.366757e+00    4.918541e-01   3.734379e-02
  4.368967e+00    3.932490e-01   3.405766e-02
  4.371177e+00    4.479381e-01   3.712073e-02
  4.373388e+00    4.652534e-01   3.867817e-02
  4.375598e+00    5.532923e-01   4.313923e-02
  4.377809e+00    6.320160e-01   4.727568e-02
  4.380019e+00    4.858915e-01   4.249430e-02
  4.382230e+00    4.528250e-01   4.216752e-02
  4.384440e+00    3.668410e-01   3.904436e-02
  4.386651e+00    4.456261e-01   4.436273e-02
  4.388861e+00    4.988850e-01   4.851097e-02
  4.391072e+00    6.134527e-01   5.568482e-02
  4.393282e+00    4.701941e-01   5.063853e-02
  4.395492e+00    3.699344e-01   4.678148e-02
  4.397703e+00    3.171246e-01   4.529252e-02
  4.399913e+00    4.946837e-01   5.943267e-02
  4.402124e+00    3.126254e-01   4.992367e-02
  4.404334e+00    3.670217e-01   5.750416e-02
  4.406545e+00    2.923543e-01   5.513753e-02
  4.408755e+00    5.420469e-01   8.142892e-02
  4.410966e+00    4.897825e-01   8.566179e-02
  4.413176e+00    2.628202e-01   7.104542e-02
  4.415387e+00   -8.918665e-01            nan
  4.417597e+00   -2.044852e+00            nan
  4.419807e+00   -3.766224e-01            nan
