# == pyFAI calibration ==
# Distance Sample to Detector: 0.216 m
# PONI: 1.166e-01, 1.308e-01 m
# Rotations: 0.000000 0.000000 0.000000 rad
# 
# == Fit2d calibration ==
# Distance Sample-beamCenter: 216.000 mm
# Center: x=1744.293, y=1555.000 pix
# Tilt: 0.000 deg  TiltPlanRot: 0.000 deg
# 
# Detector Eiger 9M	 PixelSize= 7.500e-05, 7.500e-05 m
#    Detector has a mask: True 
#    Detector has a dark current: False 
#    detector has a flat field: False 
# 
# Wavelength: 9.8e-11 m
# Mask applied: from detector
# Dark current applied: False
# Flat field applied: False
# Polarization factor: None
# Normalization factor: 1.0
# 
# Headers of the input frame:
# {
# "_array_data.header_convention": "SLS_1.0",
# "_array_data.header_contents": "# Detector: Dectris Eiger 9M, S/N E-18-0102\r\n# Pixel_size 75e-6 m x 75e-6 m\r\n# Silicon sensor, thickness 0.000450 m\r\n# Exposure_time 0.024997 s\r\n# Exposure_period 0.025000 s\r\n# Count_cutoff 62318 counts\r\n# Wavelength 0.980106 A\r\n# Detector_distance 0.215992 m\r\n# Beam_xy (1555, 1744) pixels\r\n# Start_angle 0.000000 deg.\r\n# Angle_increment 0.000000 deg.",
# "Content-Type": "application/octet-stream;",
# "conversions": "x-CBF_BYTE_OFFSET",
# "Content-Transfer-Encoding": "BINARY",
# "X-Binary-Size": "10166622",
# "X-Binary-ID": "1",
# "X-Binary-Element-Type": "signed 32-bit integer",
# "X-Binary-Element-Byte-Order": "LITTLE_ENDIAN",
# "Content-MD5": "gjx348F87u3o0bquBI6sXg==",
# "X-Binary-Number-of-Elements": "10166590",
# "X-Binary-Size-Fastest-Dimension": "3110",
# "X-Binary-Size-Second-Dimension": "3269",
# "X-Binary-Size-Padding": "4095"
# }
# --> H:/Proxima2a_2019-04-05/RAW_DATA/C5_gel17_position5/C5_mesh_1_data.cbf/C5_mesh_1_data.cbf000057.dat
#        q_A^-1              I           sigma 
  1.105228e-03    1.137326e+00   5.770711e-01
  3.315685e-03    1.159025e+00   3.541537e-01
  5.526141e-03    1.064554e+00   2.624557e-01
  7.736597e-03    1.294415e+00   2.444877e-01
  9.947054e-03    1.561222e+00   2.367058e-01
  1.215751e-02    1.335167e+00   1.979413e-01
  1.436797e-02    1.509558e+00   1.935979e-01
  1.657842e-02    1.544483e+00   1.822787e-01
  1.878888e-02    1.512860e+00   1.694584e-01
  2.099934e-02    1.532028e+00   1.613375e-01
  2.320979e-02    1.644411e+00   1.589784e-01
  2.542025e-02    1.515267e+00   1.458324e-01
  2.763070e-02    1.483503e+00   1.383995e-01
  2.984116e-02    1.545044e+00   1.359086e-01
  3.205162e-02    1.392821e+00   1.245185e-01
  3.426207e-02    1.331154e+00   1.177305e-01
  3.647253e-02    1.384519e+00   1.163695e-01
  3.868299e-02    1.322524e+00   1.104453e-01
  4.089344e-02    1.337601e+00   1.080299e-01
  4.310390e-02    1.274437e+00   1.027030e-01
  4.531436e-02    1.332895e+00   1.024386e-01
  4.752481e-02    1.336712e+00   1.001700e-01
  4.973527e-02    1.368286e+00   9.906956e-02
  5.194572e-02    1.348886e+00   9.624775e-02
  5.415618e-02    1.462942e+00   9.816401e-02
  5.636664e-02    1.500327e+00   9.744468e-02
  5.857709e-02    1.471378e+00   9.466221e-02
  6.078755e-02    1.520114e+00   9.444857e-02
  6.299801e-02    1.565935e+00   9.416365e-02
  6.520846e-02    1.465257e+00   8.952981e-02
  6.741892e-02    1.468460e+00   8.814159e-02
  6.962938e-02    1.498242e+00   8.761075e-02
  7.183983e-02    1.497485e+00   8.622898e-02
  7.405029e-02    1.573939e+00   8.707134e-02
  7.626074e-02    1.486153e+00   8.337236e-02
  7.847120e-02    1.444363e+00   8.102372e-02
  8.068166e-02    1.451372e+00   8.009909e-02
  8.289211e-02    1.443593e+00   7.881142e-02
  8.510257e-02    1.448695e+00   7.791799e-02
  8.731303e-02    1.613686e+00   8.118471e-02
  8.952348e-02    1.473701e+00   7.662182e-02
  9.173394e-02    1.416234e+00   7.419955e-02
  9.394439e-02    1.381773e+00   7.242153e-02
  9.615485e-02    1.483780e+00   7.417786e-02
  9.836531e-02    1.561198e+00   7.522661e-02
  1.005758e-01    1.447783e+00   7.164256e-02
  1.027862e-01    1.486826e+00   7.181546e-02
  1.049967e-01    1.462286e+00   7.046543e-02
  1.072071e-01    1.541587e+00   7.160028e-02
  1.094176e-01    1.562427e+00   7.134972e-02
  1.116280e-01    1.493478e+00   6.906199e-02
  1.138385e-01    1.535943e+00   6.935227e-02
  1.160490e-01    1.619554e+00   7.053258e-02
  1.182594e-01    1.537173e+00   6.806857e-02
  1.204699e-01    1.460546e+00   6.573828e-02
  1.226803e-01    1.484693e+00   6.567690e-02
  1.248908e-01    1.546598e+00   6.643550e-02
  1.271012e-01    1.547459e+00   6.587230e-02
  1.293117e-01    1.588984e+00   6.617647e-02
  1.315222e-01    1.645995e+00   6.678326e-02
  1.337326e-01    1.589529e+00   6.508184e-02
  1.359431e-01    1.575586e+00   6.483372e-02
  1.381535e-01    1.530113e+00   6.474889e-02
  1.403640e-01    1.535768e+00   6.514853e-02
  1.425744e-01    1.458547e+00   6.359093e-02
  1.447849e-01    1.494480e+00   6.438427e-02
  1.469953e-01    1.548228e+00   6.549080e-02
  1.492058e-01    1.514203e+00   6.469189e-02
  1.514163e-01    1.612387e+00   6.664547e-02
  1.536267e-01    1.580538e+00   6.585518e-02
  1.558372e-01    1.577467e+00   6.564590e-02
  1.580476e-01    1.594254e+00   6.583413e-02
  1.602581e-01    1.614230e+00   6.607705e-02
  1.624685e-01    1.679563e+00   6.721642e-02
  1.646790e-01    1.686569e+00   6.716307e-02
  1.668895e-01    1.776136e+00   6.872433e-02
  1.690999e-01    1.708375e+00   6.719825e-02
  1.713104e-01    1.747094e+00   6.774457e-02
  1.735208e-01    1.747707e+00   6.754577e-02
  1.757313e-01    1.716379e+00   6.672784e-02
  1.779417e-01    1.760453e+00   6.735876e-02
  1.801522e-01    1.753214e+00   6.700604e-02
  1.823626e-01    1.836995e+00   6.836000e-02
  1.845731e-01    1.896709e+00   6.923722e-02
  1.867836e-01    1.905292e+00   6.915948e-02
  1.889940e-01    2.025680e+00   7.107797e-02
  1.912045e-01    1.996206e+00   7.032335e-02
  1.934149e-01    1.965514e+00   6.954711e-02
  1.956254e-01    1.809417e+00   6.650825e-02
  1.978358e-01    1.903136e+00   6.797516e-02
  2.000463e-01    1.965622e+00   6.885314e-02
  2.022568e-01    1.987300e+00   6.900452e-02
  2.044672e-01    1.963139e+00   6.834885e-02
  2.066777e-01    1.983888e+00   6.848101e-02
  2.088881e-01    2.080016e+00   6.989110e-02
  2.110986e-01    2.019229e+00   6.862614e-02
  2.133090e-01    1.996059e+00   6.800944e-02
  2.155195e-01    1.889653e+00   6.595242e-02
  2.177300e-01    1.908389e+00   6.575784e-02
  2.199404e-01    1.974204e+00   6.511982e-02
  2.221509e-01    1.983558e+00   6.420209e-02
  2.243613e-01    1.964715e+00   6.308638e-02
  2.265718e-01    1.999906e+00   6.294731e-02
  2.287822e-01    2.034859e+00   6.286653e-02
  2.309927e-01    2.075511e+00   6.291301e-02
  2.332031e-01    2.066130e+00   6.223341e-02
  2.354136e-01    2.161549e+00   6.313832e-02
  2.376241e-01    2.153736e+00   6.253496e-02
  2.398345e-01    2.151240e+00   6.203616e-02
  2.420450e-01    2.129752e+00   6.128442e-02
  2.442554e-01    2.085788e+00   6.023076e-02
  2.464659e-01    2.124253e+00   6.037550e-02
  2.486763e-01    2.095362e+00   5.956939e-02
  2.508868e-01    2.084594e+00   5.904127e-02
  2.530973e-01    2.189486e+00   6.013335e-02
  2.553077e-01    2.122816e+00   5.885157e-02
  2.575182e-01    2.040305e+00   5.735515e-02
  2.597286e-01    2.074521e+00   5.749784e-02
  2.619391e-01    2.062033e+00   5.699452e-02
  2.641495e-01    2.007537e+00   5.592508e-02
  2.663600e-01    2.079271e+00   5.660250e-02
  2.685704e-01    2.045722e+00   5.583967e-02
  2.707809e-01    2.016339e+00   5.514294e-02
  2.729914e-01    1.956110e+00   5.403008e-02
  2.752018e-01    1.990741e+00   5.422254e-02
  2.774123e-01    2.012422e+00   5.423854e-02
  2.796227e-01    2.014198e+00   5.399405e-02
  2.818332e-01    2.032831e+00   5.397264e-02
  2.840436e-01    2.027910e+00   5.364595e-02
  2.862541e-01    2.054137e+00   5.373221e-02
  2.884646e-01    2.014643e+00   5.296063e-02
  2.906750e-01    1.943894e+00   5.177571e-02
  2.928855e-01    1.971845e+00   5.190501e-02
  2.950959e-01    1.955419e+00   5.145092e-02
  2.973064e-01    2.006771e+00   5.188787e-02
  2.995168e-01    2.006642e+00   5.165121e-02
  3.017273e-01    1.945382e+00   5.063247e-02
  3.039377e-01    1.914685e+00   5.001145e-02
  3.061482e-01    1.899229e+00   4.959372e-02
  3.083587e-01    1.924471e+00   4.970610e-02
  3.105691e-01    1.938098e+00   4.966873e-02
  3.127796e-01    1.880619e+00   4.872096e-02
  3.149900e-01    1.887545e+00   4.860722e-02
  3.172005e-01    1.878569e+00   4.829323e-02
  3.194109e-01    1.870419e+00   4.798943e-02
  3.216214e-01    1.826277e+00   4.722625e-02
  3.238319e-01    1.882314e+00   4.775539e-02
  3.260423e-01    1.853735e+00   4.720270e-02
  3.282528e-01    1.872368e+00   4.725048e-02
  3.304632e-01    1.812481e+00   4.630862e-02
  3.326737e-01    1.756269e+00   4.540696e-02
  3.348841e-01    1.843895e+00   4.634552e-02
  3.370946e-01    1.831617e+00   4.601717e-02
  3.393050e-01    1.822349e+00   4.572675e-02
  3.415155e-01    1.803049e+00   4.531292e-02
  3.437260e-01    1.816102e+00   4.530810e-02
  3.459364e-01    1.843557e+00   4.548042e-02
  3.481469e-01    1.838457e+00   4.525169e-02
  3.503573e-01    1.809781e+00   4.473383e-02
  3.525678e-01    1.727798e+00   4.355312e-02
  3.547782e-01    1.771752e+00   4.394419e-02
  3.569887e-01    1.829084e+00   4.449133e-02
  3.591992e-01    1.785614e+00   4.380392e-02
  3.614096e-01    1.814235e+00   4.400048e-02
  3.636201e-01    1.802143e+00   4.369953e-02
  3.658305e-01    1.747691e+00   4.288744e-02
  3.680410e-01    1.795530e+00   4.332095e-02
  3.702514e-01    1.788823e+00   4.309454e-02
  3.724619e-01    1.781372e+00   4.285826e-02
  3.746724e-01    1.753124e+00   4.237525e-02
  3.768828e-01    1.694340e+00   4.151856e-02
  3.790933e-01    1.748273e+00   4.203673e-02
  3.813037e-01    1.738837e+00   4.178598e-02
  3.835142e-01    1.715519e+00   4.136854e-02
  3.857246e-01    1.744976e+00   4.158717e-02
  3.879351e-01    1.765487e+00   4.169546e-02
  3.901455e-01    1.830001e+00   4.231530e-02
  3.923560e-01    1.837784e+00   4.227044e-02
  3.945665e-01    1.782503e+00   4.149780e-02
  3.967769e-01    1.748290e+00   4.096892e-02
  3.989874e-01    1.769406e+00   4.108687e-02
  4.011978e-01    1.866027e+00   4.206403e-02
  4.034083e-01    1.806192e+00   4.125709e-02
  4.056187e-01    1.755437e+00   4.054800e-02
  4.078292e-01    1.842921e+00   4.142034e-02
  4.100397e-01    1.809513e+00   4.091790e-02
  4.122501e-01    1.774727e+00   4.040144e-02
  4.144606e-01    1.794546e+00   4.050593e-02
  4.166710e-01    1.828249e+00   4.076297e-02
  4.188815e-01    1.812957e+00   4.047223e-02
  4.210919e-01    1.808489e+00   4.030385e-02
  4.233024e-01    1.811338e+00   4.021695e-02
  4.255128e-01    1.826996e+00   4.027364e-02
  4.277233e-01    1.824518e+00   4.013069e-02
  4.299338e-01    1.833359e+00   4.011206e-02
  4.321442e-01    1.801573e+00   3.964903e-02
  4.343547e-01    1.795350e+00   3.946858e-02
  4.365651e-01    1.767623e+00   3.905135e-02
  4.387756e-01    1.743975e+00   3.868064e-02
  4.409860e-01    1.706249e+00   3.815397e-02
  4.431965e-01    1.756400e+00   3.860359e-02
  4.454070e-01    1.717436e+00   3.806680e-02
  4.476174e-01    1.722845e+00   3.802200e-02
  4.498279e-01    1.776000e+00   3.849906e-02
  4.520383e-01    1.719175e+00   3.777421e-02
  4.542488e-01    1.730363e+00   3.779473e-02
  4.564592e-01    1.711064e+00   3.748255e-02
  4.586697e-01    1.763958e+00   3.795646e-02
  4.608801e-01    1.739434e+00   3.759075e-02
  4.630906e-01    1.625502e+00   3.624259e-02
  4.653011e-01    1.701959e+00   3.698761e-02
  4.675115e-01    1.708262e+00   3.695844e-02
  4.697220e-01    1.697233e+00   3.674252e-02
  4.719324e-01    1.671632e+00   3.637001e-02
  4.741429e-01    1.707035e+00   3.665843e-02
  4.763533e-01    1.712752e+00   3.662563e-02
  4.785638e-01    1.711805e+00   3.652091e-02
  4.807743e-01    1.738697e+00   3.671307e-02
  4.829847e-01    1.679209e+00   3.598841e-02
  4.851952e-01    1.652082e+00   3.560619e-02
  4.874056e-01    1.697879e+00   3.600532e-02
  4.896161e-01    1.680957e+00   3.573662e-02
  4.918265e-01    1.635696e+00   3.516465e-02
  4.940370e-01    1.682813e+00   3.557948e-02
  4.962475e-01    1.677250e+00   3.543289e-02
  4.984579e-01    1.688141e+00   3.546014e-02
  5.006684e-01    1.654481e+00   3.501926e-02
  5.028788e-01    1.680421e+00   3.520719e-02
  5.050893e-01    1.623145e+00   3.451783e-02
  5.072997e-01    1.651904e+00   3.473818e-02
  5.095102e-01    1.647708e+00   3.461094e-02
  5.117206e-01    1.665269e+00   3.471214e-02
  5.139311e-01    1.679770e+00   3.478045e-02
  5.161416e-01    1.653238e+00   3.442314e-02
  5.183520e-01    1.612046e+00   3.391083e-02
  5.205625e-01    1.618563e+00   3.389968e-02
  5.227729e-01    1.684416e+00   3.450175e-02
  5.249834e-01    1.769486e+00   3.528019e-02
  5.271938e-01    1.755172e+00   3.505523e-02
  5.294043e-01    1.713937e+00   3.456105e-02
  5.316148e-01    1.706139e+00   3.440335e-02
  5.338252e-01    1.799772e+00   3.525400e-02
  5.360357e-01    1.817925e+00   3.535072e-02
  5.382461e-01    1.686092e+00   3.396785e-02
  5.404566e-01    1.726279e+00   3.429202e-02
  5.426670e-01    1.761539e+00   3.456242e-02
  5.448775e-01    1.766665e+00   3.453536e-02
  5.470879e-01    1.772751e+00   3.451764e-02
  5.492984e-01    1.781892e+00   3.452957e-02
  5.515089e-01    1.773558e+00   3.437232e-02
  5.537193e-01    1.715057e+00   3.372623e-02
  5.559298e-01    1.673759e+00   3.324461e-02
  5.581402e-01    1.717779e+00   3.360533e-02
  5.603507e-01    1.763274e+00   3.397335e-02
  5.625611e-01    1.784430e+00   3.410238e-02
  5.647716e-01    1.785864e+00   3.404203e-02
  5.669821e-01    1.746745e+00   3.359452e-02
  5.691925e-01    1.769805e+00   3.374297e-02
  5.714030e-01    1.742360e+00   3.340894e-02
  5.736134e-01    1.737687e+00   3.329312e-02
  5.758239e-01    1.741560e+00   3.325909e-02
  5.780343e-01    1.674120e+00   3.253978e-02
  5.802448e-01    1.672187e+00   3.245290e-02
  5.824552e-01    1.663305e+00   3.229871e-02
  5.846657e-01    1.604836e+00   3.165980e-02
  5.868762e-01    1.623417e+00   3.177625e-02
  5.890866e-01    1.619111e+00   3.166824e-02
  5.912971e-01    1.672797e+00   3.212233e-02
  5.935075e-01    1.680267e+00   3.212746e-02
  5.957180e-01    1.657952e+00   3.184792e-02
  5.979284e-01    1.688227e+00   3.207180e-02
  6.001389e-01    1.653525e+00   3.167581e-02
  6.023494e-01    1.656642e+00   3.164129e-02
  6.045598e-01    1.654256e+00   3.155411e-02
  6.067703e-01    1.654416e+00   3.149219e-02
  6.089807e-01    1.672984e+00   3.160474e-02
  6.111912e-01    1.648627e+00   3.131120e-02
  6.134016e-01    1.698642e+00   3.171917e-02
  6.156121e-01    1.701446e+00   3.168226e-02
  6.178226e-01    1.725972e+00   3.184663e-02
  6.200330e-01    1.717970e+00   3.171002e-02
  6.222435e-01    1.706230e+00   3.153891e-02
  6.244539e-01    1.657835e+00   3.102753e-02
  6.266644e-01    1.673296e+00   3.111105e-02
  6.288748e-01    1.695841e+00   3.125900e-02
  6.310853e-01    1.714951e+00   3.137359e-02
  6.332957e-01    1.740768e+00   3.154783e-02
  6.355062e-01    1.692154e+00   3.104378e-02
  6.377167e-01    1.693314e+00   3.099483e-02
  6.399271e-01    1.681014e+00   3.082288e-02
  6.421376e-01    1.704308e+00   3.097646e-02
  6.443480e-01    1.657306e+00   3.048823e-02
  6.465585e-01    1.688143e+00   3.071226e-02
  6.487689e-01    1.707942e+00   3.083351e-02
  6.509794e-01    1.695582e+00   3.066380e-02
  6.531899e-01    1.652865e+00   3.021816e-02
  6.554003e-01    1.673045e+00   3.034488e-02
  6.576108e-01    1.625755e+00   2.985728e-02
  6.598212e-01    1.578313e+00   2.936373e-02
  6.620317e-01    1.592363e+00   2.943947e-02
  6.642421e-01    1.602957e+00   2.948260e-02
  6.664526e-01    1.605361e+00   2.945032e-02
  6.686630e-01    1.562081e+00   2.899694e-02
  6.708735e-01    1.574576e+00   2.905925e-02
  6.730840e-01    1.640312e+00   2.960556e-02
  6.752944e-01    1.634795e+00   2.950200e-02
  6.775049e-01    1.609285e+00   2.921777e-02
  6.797153e-01    1.575264e+00   2.885494e-02
  6.819258e-01    1.576284e+00   2.881223e-02
  6.841362e-01    1.585556e+00   2.884485e-02
  6.863467e-01    1.608382e+00   2.899973e-02
  6.885572e-01    1.597617e+00   2.885072e-02
  6.907676e-01    1.602415e+00   2.884224e-02
  6.929781e-01    1.599304e+00   2.876301e-02
  6.951885e-01    1.603231e+00   2.874730e-02
  6.973990e-01    1.563480e+00   2.833848e-02
  6.996094e-01    1.568045e+00   2.832989e-02
  7.018199e-01    1.586996e+00   2.845054e-02
  7.040303e-01    1.607140e+00   2.858025e-02
  7.062408e-01    1.581816e+00   2.830453e-02
  7.084513e-01    1.560734e+00   2.806636e-02
  7.106617e-01    1.607902e+00   2.843781e-02
  7.128722e-01    1.596501e+00   2.828779e-02
  7.150826e-01    1.600112e+00   2.827094e-02
  7.172931e-01    1.580444e+00   2.804823e-02
  7.195035e-01    1.573027e+00   2.793422e-02
  7.217140e-01    1.565227e+00   2.791419e-02
  7.239245e-01    1.556963e+00   2.806585e-02
  7.261349e-01    1.586080e+00   2.843608e-02
  7.283454e-01    1.560194e+00   2.827516e-02
  7.305558e-01    1.541937e+00   2.816265e-02
  7.327663e-01    1.555224e+00   2.832596e-02
  7.349767e-01    1.575451e+00   2.852597e-02
  7.371872e-01    1.520194e+00   2.801025e-02
  7.393976e-01    1.530916e+00   2.809478e-02
  7.416081e-01    1.577182e+00   2.849998e-02
  7.438186e-01    1.549735e+00   2.810773e-02
  7.460290e-01    1.522197e+00   2.756758e-02
  7.482395e-01    1.559254e+00   2.773079e-02
  7.504499e-01    1.556835e+00   2.757378e-02
  7.526604e-01    1.560758e+00   2.749245e-02
  7.548708e-01    1.565373e+00   2.744392e-02
  7.570813e-01    1.574029e+00   2.746872e-02
  7.592918e-01    1.586443e+00   2.754153e-02
  7.615022e-01    1.543039e+00   2.712871e-02
  7.637127e-01    1.521285e+00   2.690457e-02
  7.659231e-01    1.517454e+00   2.683925e-02
  7.681336e-01    1.567930e+00   2.725044e-02
  7.703440e-01    1.565636e+00   2.719938e-02
  7.725545e-01    1.553835e+00   2.706599e-02
  7.747650e-01    1.600115e+00   2.742761e-02
  7.769754e-01    1.567965e+00   2.709809e-02
  7.791859e-01    1.545361e+00   2.684908e-02
  7.813963e-01    1.581348e+00   2.710726e-02
  7.836068e-01    1.557769e+00   2.685287e-02
  7.858172e-01    1.571970e+00   2.692453e-02
  7.880277e-01    1.593974e+00   2.706077e-02
  7.902381e-01    1.626029e+00   2.728183e-02
  7.924486e-01    1.639624e+00   2.734491e-02
  7.946591e-01    1.663382e+00   2.749306e-02
  7.968695e-01    1.651397e+00   2.734484e-02
  7.990800e-01    1.622506e+00   2.705614e-02
  8.012904e-01    1.611190e+00   2.691499e-02
  8.035009e-01    1.620619e+00   2.694559e-02
  8.057113e-01    1.686973e+00   2.744412e-02
  8.079218e-01    1.713875e+00   2.761438e-02
  8.101323e-01    1.674196e+00   2.724650e-02
  8.123427e-01    1.709491e+00   2.748525e-02
  8.145532e-01    1.775457e+00   2.796261e-02
  8.167636e-01    1.732570e+00   2.757641e-02
  8.189741e-01    1.648429e+00   2.685359e-02
  8.211845e-01    1.647564e+00   2.680155e-02
  8.233950e-01    1.660866e+00   2.686577e-02
  8.256054e-01    1.659883e+00   2.681331e-02
  8.278159e-01    1.647866e+00   2.667197e-02
  8.300264e-01    1.601910e+00   2.625482e-02
  8.322368e-01    1.640792e+00   2.652836e-02
  8.344473e-01    1.683537e+00   2.682776e-02
  8.366577e-01    1.641210e+00   2.644577e-02
  8.388682e-01    1.584285e+00   2.594155e-02
  8.410786e-01    1.603748e+00   2.605878e-02
  8.432891e-01    1.630213e+00   2.623120e-02
  8.454996e-01    1.626773e+00   2.616202e-02
  8.477100e-01    1.641149e+00   2.623567e-02
  8.499205e-01    1.657934e+00   2.632808e-02
  8.521309e-01    1.622780e+00   2.600686e-02
  8.543414e-01    1.621024e+00   2.595223e-02
  8.565518e-01    1.605680e+00   2.578888e-02
  8.587623e-01    1.654117e+00   2.613421e-02
  8.609727e-01    1.638686e+00   2.597171e-02
  8.631832e-01    1.613185e+00   2.572910e-02
  8.653937e-01    1.595696e+00   2.554993e-02
  8.676041e-01    1.570854e+00   2.531202e-02
  8.698146e-01    1.608664e+00   2.557566e-02
  8.720250e-01    1.649929e+00   2.586214e-02
  8.742355e-01    1.677314e+00   2.603619e-02
  8.764459e-01    1.607115e+00   2.544669e-02
  8.786564e-01    1.578194e+00   2.517906e-02
  8.808669e-01    1.621863e+00   2.548633e-02
  8.830773e-01    1.658245e+00   2.573184e-02
  8.852878e-01    1.653869e+00   2.565932e-02
  8.874982e-01    1.672438e+00   2.576551e-02
  8.897087e-01    1.780467e+00   2.654490e-02
  8.919191e-01    1.668602e+00   2.565896e-02
  8.941296e-01    1.588844e+00   2.500103e-02
  8.963401e-01    1.591882e+00   2.498859e-02
  8.985505e-01    1.609150e+00   2.508669e-02
  9.007610e-01    1.588637e+00   2.488967e-02
  9.029714e-01    1.585278e+00   2.482766e-02
  9.051819e-01    1.591942e+00   2.484267e-02
  9.073923e-01    1.571463e+00   2.464612e-02
  9.096028e-01    1.591736e+00   2.476976e-02
  9.118132e-01    1.562893e+00   2.450852e-02
  9.140237e-01    1.574162e+00   2.456038e-02
  9.162342e-01    1.580557e+00   2.457588e-02
  9.184446e-01    1.591116e+00   2.462217e-02
  9.206551e-01    1.604702e+00   2.469143e-02
  9.228655e-01    1.600358e+00   2.462272e-02
  9.250760e-01    1.629854e+00   2.481295e-02
  9.272864e-01    1.593621e+00   2.450143e-02
  9.294969e-01    1.615000e+00   2.462928e-02
  9.317074e-01    1.591145e+00   2.441217e-02
  9.339178e-01    1.623778e+00   2.462753e-02
  9.361283e-01    1.643286e+00   2.473852e-02
  9.383387e-01    1.614800e+00   2.448981e-02
  9.405492e-01    1.615108e+00   2.445794e-02
  9.427596e-01    1.643343e+00   2.463528e-02
  9.449701e-01    1.666685e+00   2.477590e-02
  9.471805e-01    1.692500e+00   2.493169e-02
  9.493910e-01    1.680538e+00   2.480933e-02
  9.516015e-01    1.689597e+00   2.484138e-02
  9.538119e-01    1.714543e+00   2.498980e-02
  9.560224e-01    1.707681e+00   2.490464e-02
  9.582328e-01    1.741350e+00   2.511520e-02
  9.604433e-01    1.766422e+00   2.525955e-02
  9.626537e-01    1.802131e+00   2.547928e-02
  9.648642e-01    1.791073e+00   2.536621e-02
  9.670747e-01    1.801229e+00   2.540294e-02
  9.692851e-01    1.782020e+00   2.523354e-02
  9.714956e-01    1.803701e+00   2.535078e-02
  9.737060e-01    1.814617e+00   2.539398e-02
  9.759165e-01    1.799850e+00   2.525478e-02
  9.781269e-01    1.826673e+00   2.540898e-02
  9.803374e-01    1.828203e+00   2.538448e-02
  9.825478e-01    1.793016e+00   2.510584e-02
  9.847583e-01    1.773651e+00   2.493599e-02
  9.869688e-01    1.779549e+00   2.494397e-02
  9.891792e-01    1.774946e+00   2.487859e-02
  9.913897e-01    1.782002e+00   2.489435e-02
  9.936001e-01    1.745169e+00   2.460348e-02
  9.958106e-01    1.721658e+00   2.440398e-02
  9.980210e-01    1.701683e+00   2.423050e-02
  1.000231e+00    1.685618e+00   2.424797e-02
  1.002442e+00    1.655742e+00   2.415982e-02
  1.004652e+00    1.599131e+00   2.380944e-02
  1.006863e+00    1.592158e+00   2.380676e-02
  1.009073e+00    1.575470e+00   2.371793e-02
  1.011284e+00    1.561266e+00   2.364231e-02
  1.013494e+00    1.562925e+00   2.367834e-02
  1.015705e+00    1.540999e+00   2.353388e-02
  1.017915e+00    1.570608e+00   2.377526e-02
  1.020126e+00    1.521382e+00   2.341555e-02
  1.022336e+00    1.531435e+00   2.350435e-02
  1.024547e+00    1.502708e+00   2.329390e-02
  1.026757e+00    1.489553e+00   2.319992e-02
  1.028967e+00    1.485585e+00   2.317654e-02
  1.031178e+00    1.471516e+00   2.307256e-02
  1.033388e+00    1.488969e+00   2.321397e-02
  1.035599e+00    1.493478e+00   2.325249e-02
  1.037809e+00    1.488023e+00   2.321319e-02
  1.040020e+00    1.510364e+00   2.338807e-02
  1.042230e+00    1.484511e+00   2.318896e-02
  1.044441e+00    1.473131e+00   2.309969e-02
  1.046651e+00    1.484155e+00   2.318612e-02
  1.048862e+00    1.471411e+00   2.308559e-02
  1.051072e+00    1.466832e+00   2.304730e-02
  1.053282e+00    1.483350e+00   2.317576e-02
  1.055493e+00    1.494560e+00   2.325888e-02
  1.057703e+00    1.498999e+00   2.329187e-02
  1.059914e+00    1.461070e+00   2.299110e-02
  1.062124e+00    1.437176e+00   2.279832e-02
  1.064335e+00    1.486398e+00   2.318201e-02
  1.066545e+00    1.477607e+00   2.310738e-02
  1.068756e+00    1.456213e+00   2.293579e-02
  1.070966e+00    1.443325e+00   2.282758e-02
  1.073177e+00    1.445407e+00   2.283805e-02
  1.075387e+00    1.435081e+00   2.275116e-02
  1.077597e+00    1.431904e+00   2.271881e-02
  1.079808e+00    1.417145e+00   2.247082e-02
  1.082018e+00    1.411814e+00   2.224278e-02
  1.084229e+00    1.429928e+00   2.227612e-02
  1.086439e+00    1.445277e+00   2.230823e-02
  1.088650e+00    1.438627e+00   2.218160e-02
  1.090860e+00    1.392786e+00   2.175915e-02
  1.093071e+00    1.390228e+00   2.167828e-02
  1.095281e+00    1.404758e+00   2.173482e-02
  1.097492e+00    1.391400e+00   2.157737e-02
  1.099702e+00    1.412089e+00   2.168631e-02
  1.101912e+00    1.415697e+00   2.166557e-02
  1.104123e+00    1.399106e+00   2.149062e-02
  1.106333e+00    1.430360e+00   2.168495e-02
  1.108544e+00    1.417987e+00   2.154690e-02
  1.110754e+00    1.421478e+00   2.153045e-02
  1.112965e+00    1.417042e+00   2.145637e-02
  1.115175e+00    1.421798e+00   2.145115e-02
  1.117386e+00    1.440622e+00   2.155305e-02
  1.119596e+00    1.483119e+00   2.182981e-02
  1.121807e+00    1.515993e+00   2.203020e-02
  1.124017e+00    1.484764e+00   2.176448e-02
  1.126228e+00    1.444625e+00   2.143198e-02
  1.128438e+00    1.481659e+00   2.166716e-02
  1.130648e+00    1.463399e+00   2.149812e-02
  1.132859e+00    1.673311e+00   2.295062e-02
  1.135069e+00    2.548810e+00   2.827818e-02
  1.137280e+00    3.067947e+00   3.097602e-02
  1.139490e+00    2.268084e+00   2.659158e-02
  1.141701e+00    1.617705e+00   2.242174e-02
  1.143911e+00    1.459015e+00   2.126084e-02
  1.146122e+00    1.398013e+00   2.077940e-02
  1.148332e+00    1.394389e+00   2.072039e-02
  1.150543e+00    1.367095e+00   2.048589e-02
  1.152753e+00    1.369650e+00   2.047424e-02
  1.154963e+00    1.400069e+00   2.066901e-02
  1.157174e+00    1.414177e+00   2.074228e-02
  1.159384e+00    1.437212e+00   2.087999e-02
  1.161595e+00    1.466812e+00   2.106300e-02
  1.163805e+00    1.512173e+00   2.135546e-02
  1.166016e+00    1.590243e+00   2.186804e-02
  1.168226e+00    1.667213e+00   2.235905e-02
  1.170437e+00    1.667434e+00   2.232892e-02
  1.172647e+00    1.608651e+00   2.190046e-02
  1.174858e+00    1.514765e+00   2.122217e-02
  1.177068e+00    1.392990e+00   2.032268e-02
  1.179278e+00    1.411662e+00   2.042929e-02
  1.181489e+00    1.401720e+00   2.032983e-02
  1.183699e+00    1.373752e+00   2.009826e-02
  1.185910e+00    1.373229e+00   2.006649e-02
  1.188120e+00    1.395669e+00   2.020271e-02
  1.190331e+00    1.402257e+00   2.022312e-02
  1.192541e+00    1.379243e+00   2.002887e-02
  1.194752e+00    1.342826e+00   1.973573e-02
  1.196962e+00    1.338652e+00   1.967939e-02
  1.199173e+00    1.369055e+00   1.987495e-02
  1.201383e+00    1.344883e+00   1.967161e-02
  1.203593e+00    1.346423e+00   1.965805e-02
  1.205804e+00    1.352843e+00   1.967896e-02
  1.208014e+00    1.349741e+00   1.962951e-02
  1.210225e+00    1.335465e+00   1.950025e-02
  1.212435e+00    1.327325e+00   1.941613e-02
  1.214646e+00    1.315424e+00   1.930313e-02
  1.216856e+00    1.321754e+00   1.932430e-02
  1.219067e+00    1.331143e+00   1.936852e-02
  1.221277e+00    1.339426e+00   1.940377e-02
  1.223488e+00    1.319875e+00   1.923617e-02
  1.225698e+00    1.324761e+00   1.924510e-02
  1.227909e+00    1.309983e+00   1.910773e-02
  1.230119e+00    1.333186e+00   1.924456e-02
  1.232329e+00    1.354129e+00   1.936435e-02
  1.234540e+00    1.349594e+00   1.930165e-02
  1.236750e+00    1.325940e+00   1.910173e-02
  1.238961e+00    1.337058e+00   1.915481e-02
  1.241171e+00    1.370439e+00   1.936807e-02
  1.243382e+00    1.349220e+00   1.919406e-02
  1.245592e+00    1.339161e+00   1.909837e-02
  1.247803e+00    1.320732e+00   1.894311e-02
  1.250013e+00    1.312635e+00   1.886172e-02
  1.252224e+00    1.335371e+00   1.900126e-02
  1.254434e+00    1.334120e+00   1.896875e-02
  1.256644e+00    1.354466e+00   1.908959e-02
  1.258855e+00    1.379867e+00   1.924424e-02
  1.261065e+00    1.351003e+00   1.901854e-02
  1.263276e+00    1.342312e+00   1.893437e-02
  1.265486e+00    1.320984e+00   1.876074e-02
  1.267697e+00    1.327096e+00   1.878124e-02
  1.269907e+00    1.319442e+00   1.870457e-02
  1.272118e+00    1.324672e+00   1.871924e-02
  1.274328e+00    1.323583e+00   1.868905e-02
  1.276539e+00    1.346655e+00   1.882845e-02
  1.278749e+00    1.355203e+00   1.886581e-02
  1.280959e+00    1.299568e+00   1.845240e-02
  1.283170e+00    1.307507e+00   1.848657e-02
  1.285380e+00    1.306752e+00   1.845916e-02
  1.287591e+00    1.350417e+00   1.874298e-02
  1.289801e+00    1.350635e+00   1.872329e-02
  1.292012e+00    1.325934e+00   1.853435e-02
  1.294222e+00    1.328690e+00   1.853748e-02
  1.296433e+00    1.332849e+00   1.855097e-02
  1.298643e+00    1.364794e+00   1.875540e-02
  1.300854e+00    1.338030e+00   1.855425e-02
  1.303064e+00    1.352673e+00   1.863626e-02
  1.305274e+00    1.373742e+00   1.875920e-02
  1.307485e+00    1.348027e+00   1.856127e-02
  1.309695e+00    1.363042e+00   1.864201e-02
  1.311906e+00    1.356978e+00   1.857875e-02
  1.314116e+00    1.339069e+00   1.843502e-02
  1.316327e+00    1.353165e+00   1.851008e-02
  1.318537e+00    1.370082e+00   1.860337e-02
  1.320748e+00    1.384509e+00   1.867924e-02
  1.322958e+00    1.367617e+00   1.854431e-02
  1.325169e+00    1.360650e+00   1.847588e-02
  1.327379e+00    1.362066e+00   1.846361e-02
  1.329589e+00    1.382928e+00   1.858313e-02
  1.331800e+00    1.414005e+00   1.876958e-02
  1.334010e+00    1.400213e+00   1.865682e-02
  1.336221e+00    1.367335e+00   1.841457e-02
  1.338431e+00    1.356971e+00   1.832373e-02
  1.340642e+00    1.376200e+00   1.851787e-02
  1.342852e+00    1.363086e+00   1.853062e-02
  1.345063e+00    1.334465e+00   1.838422e-02
  1.347273e+00    1.325028e+00   1.835402e-02
  1.349484e+00    1.355933e+00   1.859456e-02
  1.351694e+00    1.338935e+00   1.850028e-02
  1.353905e+00    1.307661e+00   1.830064e-02
  1.356115e+00    1.318248e+00   1.838944e-02
  1.358325e+00    1.320804e+00   1.842043e-02
  1.360536e+00    1.320209e+00   1.842778e-02
  1.362746e+00    1.318071e+00   1.842231e-02
  1.364957e+00    1.295266e+00   1.826975e-02
  1.367167e+00    1.318063e+00   1.843690e-02
  1.369378e+00    1.306746e+00   1.836350e-02
  1.371588e+00    1.311980e+00   1.840531e-02
  1.373799e+00    1.331599e+00   1.854608e-02
  1.376009e+00    1.323370e+00   1.849206e-02
  1.378220e+00    1.335247e+00   1.857739e-02
  1.380430e+00    1.310488e+00   1.840704e-02
  1.382640e+00    1.308909e+00   1.839683e-02
  1.384851e+00    1.285212e+00   1.823043e-02
  1.387061e+00    1.302832e+00   1.835524e-02
  1.389272e+00    1.306080e+00   1.837833e-02
  1.391482e+00    1.293866e+00   1.829152e-02
  1.393693e+00    1.290722e+00   1.826840e-02
  1.395903e+00    1.277442e+00   1.817268e-02
  1.398114e+00    1.295280e+00   1.829775e-02
  1.400324e+00    1.281420e+00   1.819745e-02
  1.402535e+00    1.283930e+00   1.821294e-02
  1.404745e+00    1.312189e+00   1.840988e-02
  1.406955e+00    1.274522e+00   1.814105e-02
  1.409166e+00    1.243085e+00   1.791264e-02
  1.411376e+00    1.249319e+00   1.795440e-02
  1.413587e+00    1.260844e+00   1.803322e-02
  1.415797e+00    1.283890e+00   1.819373e-02
  1.418008e+00    1.271044e+00   1.806060e-02
  1.420218e+00    1.272891e+00   1.792382e-02
  1.422429e+00    1.289577e+00   1.795493e-02
  1.424639e+00    1.264411e+00   1.771436e-02
  1.426850e+00    1.274704e+00   1.773150e-02
  1.429060e+00    1.265877e+00   1.762109e-02
  1.431270e+00    1.274419e+00   1.763605e-02
  1.433481e+00    1.265908e+00   1.753619e-02
  1.435691e+00    1.253356e+00   1.741084e-02
  1.437902e+00    1.285005e+00   1.759261e-02
  1.440112e+00    1.283558e+00   1.754719e-02
  1.442323e+00    1.265617e+00   1.739113e-02
  1.444533e+00    1.248238e+00   1.723904e-02
  1.446744e+00    1.256341e+00   1.726394e-02
  1.448954e+00    1.264109e+00   1.728711e-02
  1.451165e+00    1.276450e+00   1.734146e-02
  1.453375e+00    1.252385e+00   1.714937e-02
  1.455586e+00    1.236243e+00   1.701070e-02
  1.457796e+00    1.238054e+00   1.699598e-02
  1.460006e+00    1.238863e+00   1.697463e-02
  1.462217e+00    1.245287e+00   1.699259e-02
  1.464427e+00    1.270789e+00   1.714010e-02
  1.466638e+00    1.278564e+00   1.716703e-02
  1.468848e+00    1.258581e+00   1.700713e-02
  1.471059e+00    1.260469e+00   1.699489e-02
  1.473269e+00    1.275045e+00   1.706841e-02
  1.475480e+00    1.284224e+00   1.710584e-02
  1.477690e+00    1.277096e+00   1.703440e-02
  1.479901e+00    1.256244e+00   1.687102e-02
  1.482111e+00    1.251842e+00   1.681825e-02
  1.484321e+00    1.277647e+00   1.696749e-02
  1.486532e+00    1.280811e+00   1.696604e-02
  1.488742e+00    1.248028e+00   1.672501e-02
  1.490953e+00    1.266454e+00   1.682539e-02
  1.493163e+00    1.265417e+00   1.679621e-02
  1.495374e+00    1.271431e+00   1.681450e-02
  1.497584e+00    1.278572e+00   1.683987e-02
  1.499795e+00    1.250807e+00   1.663445e-02
  1.502005e+00    1.243806e+00   1.656630e-02
  1.504216e+00    1.249782e+00   1.658508e-02
  1.506426e+00    1.284659e+00   1.679385e-02
  1.508636e+00    1.286174e+00   1.678311e-02
  1.510847e+00    1.262026e+00   1.660292e-02
  1.513057e+00    1.269241e+00   1.662510e-02
  1.515268e+00    1.258339e+00   1.652779e-02
  1.517478e+00    1.251098e+00   1.645506e-02
  1.519689e+00    1.251798e+00   1.643471e-02
  1.521899e+00    1.266188e+00   1.650568e-02
  1.524110e+00    1.274798e+00   1.654120e-02
  1.526320e+00    1.285339e+00   1.658959e-02
  1.528531e+00    1.291427e+00   1.660877e-02
  1.530741e+00    1.287569e+00   1.656450e-02
  1.532951e+00    1.269856e+00   1.643043e-02
  1.535162e+00    1.256287e+00   1.642924e-02
  1.537372e+00    1.257084e+00   1.650156e-02
  1.539583e+00    1.264908e+00   1.658731e-02
  1.541793e+00    1.241768e+00   1.644180e-02
  1.544004e+00    1.251030e+00   1.650328e-02
  1.546214e+00    1.243608e+00   1.645274e-02
  1.548425e+00    1.234562e+00   1.639305e-02
  1.550635e+00    1.223801e+00   1.633105e-02
  1.552846e+00    1.226120e+00   1.635609e-02
  1.555056e+00    1.227966e+00   1.632720e-02
  1.557266e+00    1.243917e+00   1.632247e-02
  1.559477e+00    1.238805e+00   1.622993e-02
  1.561687e+00    1.231556e+00   1.615184e-02
  1.563898e+00    1.244712e+00   1.622074e-02
  1.566108e+00    1.239473e+00   1.617065e-02
  1.568319e+00    1.217575e+00   1.601170e-02
  1.570529e+00    1.244190e+00   1.616061e-02
  1.572740e+00    1.257593e+00   1.621968e-02
  1.574950e+00    1.243777e+00   1.610403e-02
  1.577161e+00    1.246687e+00   1.609736e-02
  1.579371e+00    1.246218e+00   1.607066e-02
  1.581582e+00    1.247073e+00   1.605637e-02
  1.583792e+00    1.246047e+00   1.603173e-02
  1.586002e+00    1.221798e+00   1.585752e-02
  1.588213e+00    1.246633e+00   1.600060e-02
  1.590423e+00    1.229141e+00   1.586801e-02
  1.592634e+00    1.244793e+00   1.594708e-02
  1.594844e+00    1.248162e+00   1.594721e-02
  1.597055e+00    1.249528e+00   1.593540e-02
  1.599265e+00    1.219454e+00   1.572191e-02
  1.601476e+00    1.224165e+00   1.573209e-02
  1.603686e+00    1.234303e+00   1.577737e-02
  1.605897e+00    1.226793e+00   1.570926e-02
  1.608107e+00    1.201494e+00   1.552714e-02
  1.610317e+00    1.217538e+00   1.561132e-02
  1.612528e+00    1.213371e+00   1.556558e-02
  1.614738e+00    1.184186e+00   1.535868e-02
  1.616949e+00    1.187424e+00   1.536095e-02
  1.619159e+00    1.204245e+00   1.545081e-02
  1.621370e+00    1.191294e+00   1.534928e-02
  1.623580e+00    1.159132e+00   1.512272e-02
  1.625791e+00    1.166164e+00   1.515060e-02
  1.628001e+00    1.172795e+00   1.517558e-02
  1.630212e+00    1.150338e+00   1.501215e-02
  1.632422e+00    1.135300e+00   1.489620e-02
  1.634632e+00    1.135177e+00   1.487843e-02
  1.636843e+00    1.127439e+00   1.481047e-02
  1.639053e+00    1.143637e+00   1.489940e-02
  1.641264e+00    1.140762e+00   1.486380e-02
  1.643474e+00    1.132691e+00   1.479395e-02
  1.645685e+00    1.150955e+00   1.489612e-02
  1.647895e+00    1.149010e+00   1.486701e-02
  1.650106e+00    1.105082e+00   1.456338e-02
  1.652316e+00    1.104337e+00   1.454229e-02
  1.654527e+00    1.112033e+00   1.457642e-02
  1.656737e+00    1.099326e+00   1.447664e-02
  1.658947e+00    1.104889e+00   1.449711e-02
  1.661158e+00    1.092534e+00   1.439983e-02
  1.663368e+00    1.093018e+00   1.438720e-02
  1.665579e+00    1.102394e+00   1.443276e-02
  1.667789e+00    1.099088e+00   1.439499e-02
  1.670000e+00    1.084908e+00   1.428653e-02
  1.672210e+00    1.072545e+00   1.418929e-02
  1.674421e+00    1.067106e+00   1.413819e-02
  1.676631e+00    1.062508e+00   1.409213e-02
  1.678842e+00    1.070809e+00   1.413148e-02
  1.681052e+00    1.092205e+00   1.425659e-02
  1.683263e+00    1.083303e+00   1.418331e-02
  1.685473e+00    1.046170e+00   1.392321e-02
  1.687683e+00    1.046393e+00   1.390953e-02
  1.689894e+00    1.036703e+00   1.382954e-02
  1.692104e+00    1.044595e+00   1.386738e-02
  1.694315e+00    1.035367e+00   1.379175e-02
  1.696525e+00    1.022808e+00   1.369302e-02
  1.698736e+00    1.031067e+00   1.373361e-02
  1.700946e+00    1.030534e+00   1.371513e-02
  1.703157e+00    1.039711e+00   1.376154e-02
  1.705367e+00    1.050114e+00   1.381575e-02
  1.707578e+00    1.051051e+00   1.380732e-02
  1.709788e+00    1.058474e+00   1.384179e-02
  1.711998e+00    1.030470e+00   1.364255e-02
  1.714209e+00    1.020826e+00   1.356423e-02
  1.716419e+00    1.015064e+00   1.351178e-02
  1.718630e+00    1.028444e+00   1.358628e-02
  1.720840e+00    1.028615e+00   1.357322e-02
  1.723051e+00    1.019168e+00   1.349692e-02
  1.725261e+00    1.007476e+00   1.340471e-02
  1.727472e+00    9.901919e-01   1.327525e-02
  1.729682e+00    9.945092e-01   1.329083e-02
  1.731893e+00    1.002269e+00   1.332873e-02
  1.734103e+00    1.000414e+00   1.330267e-02
  1.736313e+00    1.013368e+00   1.337447e-02
  1.738524e+00    1.003025e+00   1.329218e-02
  1.740734e+00    9.958357e-01   1.323079e-02
  1.742945e+00    1.001558e+00   1.325525e-02
  1.745155e+00    1.008655e+00   1.328859e-02
  1.747366e+00    1.014447e+00   1.331270e-02
  1.749576e+00    9.994086e-01   1.319989e-02
  1.751787e+00    9.823942e-01   1.307371e-02
  1.753997e+00    9.777781e-01   1.302958e-02
  1.756208e+00    9.675625e-01   1.294819e-02
  1.758418e+00    9.797016e-01   1.301599e-02
  1.760628e+00    9.778870e-01   1.299052e-02
  1.762839e+00    9.843936e-01   1.302032e-02
  1.765049e+00    9.753451e-01   1.294715e-02
  1.767260e+00    9.594976e-01   1.282870e-02
  1.769470e+00    9.437161e-01   1.270988e-02
  1.771681e+00    9.408557e-01   1.267752e-02
  1.773891e+00    9.338204e-01   1.261711e-02
  1.776102e+00    9.249966e-01   1.254463e-02
  1.778312e+00    9.225848e-01   1.251568e-02
  1.780523e+00    9.209033e-01   1.249168e-02
  1.782733e+00    9.168659e-01   1.245173e-02
  1.784944e+00    9.354504e-01   1.256442e-02
  1.787154e+00    9.245929e-01   1.247879e-02
  1.789364e+00    9.534616e-01   1.265948e-02
  1.791575e+00    9.382148e-01   1.254526e-02
  1.793785e+00    9.219274e-01   1.242348e-02
  1.795996e+00    9.076943e-01   1.231478e-02
  1.798206e+00    8.965028e-01   1.222626e-02
  1.800417e+00    8.948755e-01   1.220263e-02
  1.802627e+00    8.928729e-01   1.217717e-02
  1.804838e+00    8.893057e-01   1.214086e-02
  1.807048e+00    9.117324e-01   1.228014e-02
  1.809259e+00    9.169165e-01   1.230132e-02
  1.811469e+00    9.424846e-01   1.245638e-02
  1.813679e+00    9.420478e-01   1.243819e-02
  1.815890e+00    9.388948e-01   1.240228e-02
  1.818100e+00    9.322885e-01   1.234318e-02
  1.820311e+00    9.504872e-01   1.244783e-02
  1.822521e+00    9.426658e-01   1.238123e-02
  1.824732e+00    9.181041e-01   1.220381e-02
  1.826942e+00    9.037331e-01   1.209548e-02
  1.829153e+00    8.770834e-01   1.190418e-02
  1.831363e+00    8.929578e-01   1.199931e-02
  1.833574e+00    8.955452e-01   1.200491e-02
  1.835784e+00    8.962484e-01   1.199811e-02
  1.837994e+00    8.911620e-01   1.195219e-02
  1.840205e+00    9.072040e-01   1.204791e-02
  1.842415e+00    9.296141e-01   1.218367e-02
  1.844626e+00    8.981144e-01   1.196374e-02
  1.846836e+00    9.035509e-01   1.198822e-02
  1.849047e+00    9.070534e-01   1.199957e-02
  1.851257e+00    8.852937e-01   1.184506e-02
  1.853468e+00    8.731697e-01   1.175484e-02
  1.855678e+00    8.565291e-01   1.163340e-02
  1.857889e+00    8.490059e-01   1.157376e-02
  1.860099e+00    8.661225e-01   1.168115e-02
  1.862309e+00    8.824723e-01   1.178227e-02
  1.864520e+00    8.759605e-01   1.173003e-02
  1.866730e+00    8.813866e-01   1.175679e-02
  1.868941e+00    8.470902e-01   1.151487e-02
  1.871151e+00    8.425686e-01   1.147276e-02
  1.873362e+00    8.437201e-01   1.146930e-02
  1.875572e+00    8.410342e-01   1.144014e-02
  1.877783e+00    8.386890e-01   1.141282e-02
  1.879993e+00    8.238094e-01   1.130012e-02
  1.882204e+00    8.312932e-01   1.134052e-02
  1.884414e+00    8.498749e-01   1.145544e-02
  1.886624e+00    8.461367e-01   1.141916e-02
  1.888835e+00    8.267021e-01   1.127637e-02
  1.891045e+00    8.214722e-01   1.122987e-02
  1.893256e+00    8.300058e-01   1.127704e-02
  1.895466e+00    8.258420e-01   1.123760e-02
  1.897677e+00    8.232917e-01   1.120940e-02
  1.899887e+00    8.292729e-01   1.123910e-02
  1.902098e+00    8.219034e-01   1.117827e-02
  1.904308e+00    8.473589e-01   1.133935e-02
  1.906519e+00    8.450919e-01   1.131326e-02
  1.908729e+00    8.340272e-01   1.122831e-02
  1.910940e+00    8.160760e-01   1.109578e-02
  1.913150e+00    8.070430e-01   1.102371e-02
  1.915360e+00    8.208895e-01   1.110728e-02
  1.917571e+00    8.427669e-01   1.124331e-02
  1.919781e+00    8.404276e-01   1.121689e-02
  1.921992e+00    8.066290e-01   1.097852e-02
  1.924202e+00    8.025334e-01   1.093991e-02
  1.926413e+00    8.351890e-01   1.114985e-02
  1.928623e+00    8.393219e-01   1.116674e-02
  1.930834e+00    8.225015e-01   1.104375e-02
  1.933044e+00    8.180090e-01   1.100286e-02
  1.935255e+00    8.158523e-01   1.097798e-02
  1.937465e+00    8.041187e-01   1.088838e-02
  1.939675e+00    7.975153e-01   1.083279e-02
  1.941886e+00    8.120111e-01   1.092046e-02
  1.944096e+00    8.338307e-01   1.105585e-02
  1.946307e+00    8.130103e-01   1.090654e-02
  1.948517e+00    7.827227e-01   1.069113e-02
  1.950728e+00    8.124308e-01   1.088176e-02
  1.952938e+00    8.326169e-01   1.100584e-02
  1.955149e+00    8.158131e-01   1.088385e-02
  1.957359e+00    7.954493e-01   1.073714e-02
  1.959570e+00    7.809822e-01   1.062826e-02
  1.961780e+00    7.855501e-01   1.064942e-02
  1.963990e+00    7.987680e-01   1.072849e-02
  1.966201e+00    7.957177e-01   1.069788e-02
  1.968411e+00    8.086980e-01   1.077452e-02
  1.970622e+00    7.965299e-01   1.068301e-02
  1.972832e+00    7.991697e-01   1.069063e-02
  1.975043e+00    7.861750e-01   1.059334e-02
  1.977253e+00    7.962003e-01   1.065062e-02
  1.979464e+00    7.787332e-01   1.052317e-02
  1.981674e+00    7.721350e-01   1.046828e-02
  1.983885e+00    7.796448e-01   1.050907e-02
  1.986095e+00    7.707089e-01   1.043902e-02
  1.988305e+00    7.828876e-01   1.051126e-02
  1.990516e+00    7.988793e-01   1.060803e-02
  1.992726e+00    7.825902e-01   1.048964e-02
  1.994937e+00    7.547829e-01   1.029160e-02
  1.997147e+00    7.581006e-01   1.030457e-02
  1.999358e+00    7.671652e-01   1.035619e-02
  2.001568e+00    7.780761e-01   1.041872e-02
  2.003779e+00    7.822870e-01   1.043490e-02
  2.005989e+00    7.556987e-01   1.024415e-02
  2.008200e+00    7.558118e-01   1.023347e-02
  2.010410e+00    7.734581e-01   1.034047e-02
  2.012621e+00    7.676321e-01   1.028977e-02
  2.014831e+00    7.638694e-01   1.025306e-02
  2.017041e+00    7.547002e-01   1.018106e-02
  2.019252e+00    7.540675e-01   1.016688e-02
  2.021462e+00    7.627212e-01   1.021557e-02
  2.023673e+00    7.596494e-01   1.018562e-02
  2.025883e+00    7.647242e-01   1.021006e-02
  2.028094e+00    7.512549e-01   1.011017e-02
  2.030304e+00    7.580716e-01   1.014641e-02
  2.032515e+00    7.734009e-01   1.023912e-02
  2.034725e+00    7.365257e-01   9.982751e-03
  2.036936e+00    7.357768e-01   9.968463e-03
  2.039146e+00    7.495825e-01   1.005203e-02
  2.041356e+00    7.522106e-01   1.006002e-02
  2.043567e+00    7.475410e-01   1.001948e-02
  2.045777e+00    7.443756e-01   9.989087e-03
  2.047988e+00    7.444803e-01   9.980462e-03
  2.050198e+00    7.360436e-01   9.915441e-03
  2.052409e+00    7.348192e-01   9.899599e-03
  2.054619e+00    7.473071e-01   9.976033e-03
  2.056830e+00    7.384754e-01   9.909785e-03
  2.059040e+00    7.347249e-01   9.877158e-03
  2.061251e+00    7.448418e-01   9.937700e-03
  2.063461e+00    7.536080e-01   9.988399e-03
  2.065671e+00    7.406580e-01   9.893529e-03
  2.067882e+00    7.488457e-01   9.939065e-03
  2.070092e+00    7.281728e-01   9.791842e-03
  2.072303e+00    7.155282e-01   9.697500e-03
  2.074513e+00    7.278038e-01   9.771116e-03
  2.076724e+00    7.357688e-01   9.815025e-03
  2.078934e+00    7.403024e-01   9.836247e-03
  2.081145e+00    7.314197e-01   9.768047e-03
  2.083355e+00    7.384506e-01   9.805704e-03
  2.085566e+00    7.274995e-01   9.723937e-03
  2.087776e+00    7.116984e-01   9.608402e-03
  2.089986e+00    7.222289e-01   9.670543e-03
  2.092197e+00    7.293866e-01   9.709447e-03
  2.094407e+00    7.099854e-01   9.570370e-03
  2.096618e+00    7.350608e-01   9.729016e-03
  2.098828e+00    7.292207e-01   9.681011e-03
  2.101039e+00    7.272477e-01   9.658967e-03
  2.103249e+00    7.169576e-01   9.581813e-03
  2.105460e+00    7.137479e-01   9.551408e-03
  2.107670e+00    7.100023e-01   9.517707e-03
  2.109881e+00    7.061074e-01   9.482522e-03
  2.112091e+00    7.281343e-01   9.620278e-03
  2.114301e+00    7.236047e-01   9.581556e-03
  2.116512e+00    7.162600e-01   9.524042e-03
  2.118722e+00    7.254284e-01   9.575955e-03
  2.120933e+00    7.334397e-01   9.619745e-03
  2.123143e+00    7.214575e-01   9.531935e-03
  2.125354e+00    7.098184e-01   9.446245e-03
  2.127564e+00    7.060132e-01   9.412214e-03
  2.129775e+00    7.138857e-01   9.455839e-03
  2.131985e+00    7.095712e-01   9.418181e-03
  2.134196e+00    7.113867e-01   9.421656e-03
  2.136406e+00    7.123958e-01   9.419596e-03
  2.138617e+00    7.051273e-01   9.362987e-03
  2.140827e+00    6.902707e-01   9.279680e-03
  2.143037e+00    6.927992e-01   9.341671e-03
  2.145248e+00    6.848139e-01   9.309344e-03
  2.147458e+00    6.976325e-01   9.411132e-03
  2.149669e+00    6.977257e-01   9.423580e-03
  2.151879e+00    7.008928e-01   9.454147e-03
  2.154090e+00    7.021964e-01   9.470251e-03
  2.156300e+00    7.004298e-01   9.464949e-03
  2.158511e+00    7.040758e-01   9.494859e-03
  2.160721e+00    6.946572e-01   9.435957e-03
  2.162932e+00    6.971803e-01   9.456803e-03
  2.165142e+00    6.880423e-01   9.397637e-03
  2.167352e+00    6.874465e-01   9.396446e-03
  2.169563e+00    6.913287e-01   9.424900e-03
  2.171773e+00    6.915303e-01   9.428719e-03
  2.173984e+00    6.826326e-01   9.369257e-03
  2.176194e+00    6.819057e-01   9.365467e-03
  2.178405e+00    6.833642e-01   9.376168e-03
  2.180615e+00    6.814477e-01   9.363672e-03
  2.182826e+00    6.900442e-01   9.423239e-03
  2.185036e+00    6.950870e-01   9.457663e-03
  2.187247e+00    6.905116e-01   9.426437e-03
  2.189457e+00    6.820570e-01   9.368134e-03
  2.191667e+00    6.808398e-01   9.359607e-03
  2.193878e+00    6.766962e-01   9.330521e-03
  2.196088e+00    6.762772e-01   9.326941e-03
  2.198299e+00    6.880137e-01   9.406441e-03
  2.200509e+00    6.714854e-01   9.291727e-03
  2.202720e+00    6.753257e-01   9.317094e-03
  2.204930e+00    6.884994e-01   9.406292e-03
  2.207141e+00    6.748034e-01   9.311168e-03
  2.209351e+00    6.675763e-01   9.259297e-03
  2.211562e+00    6.659862e-01   9.246658e-03
  2.213772e+00    6.580158e-01   9.136450e-03
  2.215982e+00    6.652670e-01   9.142798e-03
  2.218193e+00    6.668092e-01   9.123947e-03
  2.220403e+00    6.740298e-01   9.148641e-03
  2.222614e+00    6.921488e-01   9.249552e-03
  2.224824e+00    6.896635e-01   9.213340e-03
  2.227035e+00    6.781288e-01   9.118441e-03
  2.229245e+00    6.789996e-01   9.107243e-03
  2.231456e+00    6.617984e-01   8.975636e-03
  2.233666e+00    6.761962e-01   9.057588e-03
  2.235877e+00    6.706696e-01   9.006229e-03
  2.238087e+00    6.722206e-01   9.003136e-03
  2.240298e+00    6.707290e-01   8.979371e-03
  2.242508e+00    6.802919e-01   9.027869e-03
  2.244718e+00    6.942972e-01   9.104246e-03
  2.246929e+00    6.719878e-01   8.942321e-03
  2.249139e+00    6.636615e-01   8.874389e-03
  2.251350e+00    6.557949e-01   8.810033e-03
  2.253560e+00    6.391888e-01   8.686457e-03
  2.255771e+00    6.556631e-01   8.786333e-03
  2.257981e+00    6.884537e-01   8.991999e-03
  2.260192e+00    6.767980e-01   8.904362e-03
  2.262402e+00    6.855367e-01   8.950611e-03
  2.264613e+00    6.950997e-01   9.001758e-03
  2.266823e+00    6.804647e-01   8.895962e-03
  2.269033e+00    6.778699e-01   8.868477e-03
  2.271244e+00    6.809954e-01   8.878354e-03
  2.273454e+00    6.984078e-01   8.980620e-03
  2.275665e+00    6.628618e-01   8.738805e-03
  2.277875e+00    6.605157e-01   8.713381e-03
  2.280086e+00    6.542975e-01   8.662271e-03
  2.282296e+00    6.557847e-01   8.662727e-03
  2.284507e+00    6.598150e-01   8.679180e-03
  2.286717e+00    6.416378e-01   8.549438e-03
  2.288928e+00    6.447657e-01   8.560477e-03
  2.291138e+00    6.464229e-01   8.562114e-03
  2.293348e+00    6.575887e-01   8.626195e-03
  2.295559e+00    6.523425e-01   8.582434e-03
  2.297769e+00    6.463029e-01   8.533422e-03
  2.299980e+00    6.476585e-01   8.533069e-03
  2.302190e+00    6.466688e-01   8.517468e-03
  2.304401e+00    6.504910e-01   8.533279e-03
  2.306611e+00    6.637827e-01   8.610762e-03
  2.308822e+00    6.465101e-01   8.489628e-03
  2.311032e+00    6.530299e-01   8.525866e-03
  2.313243e+00    6.455171e-01   8.470427e-03
  2.315453e+00    6.441599e-01   8.453975e-03
  2.317663e+00    6.418105e-01   8.429457e-03
  2.319874e+00    6.502262e-01   8.475787e-03
  2.322084e+00    6.389421e-01   8.393014e-03
  2.324295e+00    6.271630e-01   8.307181e-03
  2.326505e+00    6.399024e-01   8.382091e-03
  2.328716e+00    6.410997e-01   8.381396e-03
  2.330926e+00    6.521559e-01   8.444515e-03
  2.333137e+00    6.413453e-01   8.365862e-03
  2.335347e+00    6.359379e-01   8.321667e-03
  2.337558e+00    6.474444e-01   8.388359e-03
  2.339768e+00    6.283450e-01   8.255207e-03
  2.341979e+00    6.437810e-01   8.347579e-03
  2.344189e+00    6.411219e-01   8.321923e-03
  2.346399e+00    6.176463e-01   8.159774e-03
  2.348610e+00    6.238563e-01   8.192291e-03
  2.350820e+00    6.370662e-01   8.270387e-03
  2.353031e+00    6.367022e-01   8.259725e-03
  2.355241e+00    6.375273e-01   8.256991e-03
  2.357452e+00    6.222522e-01   8.149132e-03
  2.359662e+00    6.208019e-01   8.131459e-03
  2.361873e+00    6.428595e-01   8.266344e-03
  2.364083e+00    6.305840e-01   8.179058e-03
  2.366294e+00    6.321087e-01   8.180792e-03
  2.368504e+00    6.345682e-01   8.188579e-03
  2.370714e+00    6.071994e-01   8.002098e-03
  2.372925e+00    6.204056e-01   8.080634e-03
  2.375135e+00    6.312223e-01   8.142649e-03
  2.377346e+00    6.164960e-01   8.039246e-03
  2.379556e+00    6.167783e-01   8.033196e-03
  2.381767e+00    6.129745e-01   8.000597e-03
  2.383977e+00    6.172674e-01   8.020632e-03
  2.386188e+00    6.145983e-01   7.995407e-03
  2.388398e+00    6.073366e-01   7.940141e-03
  2.390609e+00    6.062003e-01   7.925042e-03
  2.392819e+00    6.038559e-01   7.902026e-03
  2.395029e+00    6.078310e-01   7.920363e-03
  2.397240e+00    6.174037e-01   7.974608e-03
  2.399450e+00    6.149865e-01   7.951171e-03
  2.401661e+00    6.115559e-01   7.921275e-03
  2.403871e+00    6.049866e-01   7.870920e-03
  2.406082e+00    6.065678e-01   7.873756e-03
  2.408292e+00    6.125422e-01   7.904643e-03
  2.410503e+00    6.041294e-01   7.842700e-03
  2.412713e+00    6.080443e-01   7.860284e-03
  2.414924e+00    5.921355e-01   7.749361e-03
  2.417134e+00    6.055537e-01   7.829037e-03
  2.419344e+00    6.006522e-01   7.789888e-03
  2.421555e+00    6.047914e-01   7.809164e-03
  2.423765e+00    6.029178e-01   7.789643e-03
  2.425976e+00    6.006696e-01   7.767279e-03
  2.428186e+00    6.074772e-01   7.803917e-03
  2.430397e+00    5.923844e-01   7.698905e-03
  2.432607e+00    5.849814e-01   7.643440e-03
  2.434818e+00    5.816856e-01   7.614422e-03
  2.437028e+00    5.863850e-01   7.638001e-03
  2.439239e+00    6.070053e-01   7.763405e-03
  2.441449e+00    5.926315e-01   7.663748e-03
  2.443659e+00    5.697168e-01   7.506907e-03
  2.445870e+00    5.640557e-01   7.481493e-03
  2.448080e+00    5.516926e-01   7.432882e-03
  2.450291e+00    5.726038e-01   7.589011e-03
  2.452501e+00    5.668504e-01   7.561838e-03
  2.454712e+00    5.676616e-01   7.575647e-03
  2.456922e+00    5.773003e-01   7.646344e-03
  2.459133e+00    5.616626e-01   7.547491e-03
  2.461343e+00    5.531812e-01   7.494576e-03
  2.463554e+00    5.629562e-01   7.563965e-03
  2.465764e+00    5.629762e-01   7.567243e-03
  2.467975e+00    5.426897e-01   7.431912e-03
  2.470185e+00    5.520830e-01   7.498164e-03
  2.472395e+00    5.568610e-01   7.531793e-03
  2.474606e+00    5.417162e-01   7.430199e-03
  2.476816e+00    5.428279e-01   7.438562e-03
  2.479027e+00    5.326293e-01   7.369163e-03
  2.481237e+00    5.521541e-01   7.503306e-03
  2.483448e+00    5.626280e-01   7.574441e-03
  2.485658e+00    5.461279e-01   7.462425e-03
  2.487869e+00    5.328726e-01   7.371331e-03
  2.490079e+00    5.334508e-01   7.374800e-03
  2.492290e+00    5.495853e-01   7.485069e-03
  2.494500e+00    5.459853e-01   7.459782e-03
  2.496710e+00    5.426796e-01   7.436462e-03
  2.498921e+00    5.593053e-01   7.548491e-03
  2.501131e+00    5.491419e-01   7.478657e-03
  2.503342e+00    5.331292e-01   7.367534e-03
  2.505552e+00    5.312877e-01   7.353657e-03
  2.507763e+00    5.413969e-01   7.421868e-03
  2.509973e+00    5.395173e-01   7.407565e-03
  2.512184e+00    5.301645e-01   7.341470e-03
  2.514394e+00    5.147321e-01   7.224571e-03
  2.516605e+00    5.194915e-01   7.211126e-03
  2.518815e+00    5.270237e-01   7.234885e-03
  2.521025e+00    5.444363e-01   7.332078e-03
  2.523236e+00    5.367481e-01   7.261978e-03
  2.525446e+00    5.307890e-01   7.205850e-03
  2.527657e+00    5.297700e-01   7.184257e-03
  2.529867e+00    5.454854e-01   7.275605e-03
  2.532078e+00    5.297297e-01   7.154653e-03
  2.534288e+00    5.237355e-01   7.100184e-03
  2.536499e+00    5.155876e-01   7.032902e-03
  2.538709e+00    5.209605e-01   7.058484e-03
  2.540920e+00    5.198159e-01   7.040128e-03
  2.543130e+00    5.136328e-01   6.987886e-03
  2.545340e+00    5.170326e-01   7.000953e-03
  2.547551e+00    5.249162e-01   7.044173e-03
  2.549761e+00    5.230002e-01   7.021710e-03
  2.551972e+00    5.364941e-01   7.102242e-03
  2.554182e+00    5.285674e-01   7.040348e-03
  2.556393e+00    5.206705e-01   6.978451e-03
  2.558603e+00    5.170385e-01   6.945030e-03
  2.560814e+00    5.125408e-01   6.906124e-03
  2.563024e+00    5.047570e-01   6.845008e-03
  2.565235e+00    5.213190e-01   6.946877e-03
  2.567445e+00    5.214955e-01   6.938485e-03
  2.569656e+00    5.067774e-01   6.830236e-03
  2.571866e+00    4.996203e-01   6.772628e-03
  2.574076e+00    5.183957e-01   6.889430e-03
  2.576287e+00    5.241897e-01   6.919431e-03
  2.578497e+00    5.436735e-01   7.038792e-03
  2.580708e+00    5.493106e-01   7.066875e-03
  2.582918e+00    5.266766e-01   6.911876e-03
  2.585129e+00    5.357742e-01   6.963423e-03
  2.587339e+00    5.278226e-01   6.903771e-03
  2.589550e+00    5.148669e-01   6.810942e-03
  2.591760e+00    5.208084e-01   6.842331e-03
  2.593971e+00    5.082451e-01   6.751816e-03
  2.596181e+00    5.031883e-01   6.711939e-03
  2.598391e+00    5.060678e-01   6.725969e-03
  2.600602e+00    5.027913e-01   6.698282e-03
  2.602812e+00    5.077349e-01   6.723606e-03
  2.605023e+00    5.001750e-01   6.666257e-03
  2.607233e+00    5.055367e-01   6.694774e-03
  2.609444e+00    4.954831e-01   6.620722e-03
  2.611654e+00    5.065537e-01   6.686955e-03
  2.613865e+00    5.019812e-01   6.649698e-03
  2.616075e+00    5.007696e-01   6.634578e-03
  2.618286e+00    4.874278e-01   6.538720e-03
  2.620496e+00    4.937149e-01   6.574143e-03
  2.622706e+00    5.011667e-01   6.617835e-03
  2.624917e+00    5.104995e-01   6.673289e-03
  2.627127e+00    5.052167e-01   6.632938e-03
  2.629338e+00    5.000607e-01   6.593033e-03
  2.631548e+00    4.994171e-01   6.582650e-03
  2.633759e+00    5.089071e-01   6.637709e-03
  2.635969e+00    4.916703e-01   6.517712e-03
  2.638180e+00    5.005257e-01   6.569155e-03
  2.640390e+00    5.091718e-01   6.618994e-03
  2.642601e+00    5.048705e-01   6.584306e-03
  2.644811e+00    4.939404e-01   6.505600e-03
  2.647021e+00    4.968594e-01   6.518261e-03
  2.649232e+00    4.816404e-01   6.411047e-03
  2.651442e+00    5.007148e-01   6.530249e-03
  2.653653e+00    5.013852e-01   6.527802e-03
  2.655863e+00    5.165721e-01   6.619145e-03
  2.658074e+00    5.078140e-01   6.556106e-03
  2.660284e+00    5.026740e-01   6.516465e-03
  2.662495e+00    4.882964e-01   6.415897e-03
  2.664705e+00    4.977387e-01   6.471045e-03
  2.666916e+00    5.109136e-01   6.549585e-03
  2.669126e+00    4.994414e-01   6.469155e-03
  2.671337e+00    4.931600e-01   6.421784e-03
  2.673547e+00    4.915555e-01   6.404966e-03
  2.675757e+00    4.803581e-01   6.325243e-03
  2.677968e+00    4.998334e-01   6.445614e-03
  2.680178e+00    5.092828e-01   6.499768e-03
  2.682389e+00    5.098509e-01   6.496891e-03
  2.684599e+00    5.096470e-01   6.489315e-03
  2.686810e+00    4.885630e-01   6.347075e-03
  2.689020e+00    4.920673e-01   6.363488e-03
  2.691231e+00    5.060326e-01   6.446790e-03
  2.693441e+00    4.995042e-01   6.398867e-03
  2.695652e+00    4.865062e-01   6.308566e-03
  2.697862e+00    4.857155e-01   6.297129e-03
  2.700072e+00    4.805332e-01   6.257412e-03
  2.702283e+00    4.930689e-01   6.332269e-03
  2.704493e+00    4.806404e-01   6.245721e-03
  2.706704e+00    4.742541e-01   6.197781e-03
  2.708914e+00    4.710797e-01   6.171132e-03
  2.711125e+00    4.812385e-01   6.231111e-03
  2.713335e+00    4.818211e-01   6.228843e-03
  2.715546e+00    4.789603e-01   6.203908e-03
  2.717756e+00    4.844142e-01   6.233248e-03
  2.719967e+00    4.777022e-01   6.183774e-03
  2.722177e+00    4.744258e-01   6.156457e-03
  2.724387e+00    4.822935e-01   6.201219e-03
  2.726598e+00    4.829094e-01   6.199134e-03
  2.728808e+00    4.816826e-01   6.185128e-03
  2.731019e+00    4.926103e-01   6.248717e-03
  2.733229e+00    4.942432e-01   6.253207e-03
  2.735440e+00    4.861206e-01   6.195330e-03
  2.737650e+00    4.716807e-01   6.096683e-03
  2.739861e+00    4.801920e-01   6.145376e-03
  2.742071e+00    4.915701e-01   6.211977e-03
  2.744282e+00    4.833343e-01   6.153464e-03
  2.746492e+00    4.811827e-01   6.133719e-03
  2.748702e+00    4.897717e-01   6.182274e-03
  2.750913e+00    4.753767e-01   6.084997e-03
  2.753123e+00    4.708203e-01   6.049706e-03
  2.755334e+00    4.753109e-01   6.072453e-03
  2.757544e+00    4.722351e-01   6.047080e-03
  2.759755e+00    4.775982e-01   6.075454e-03
  2.761965e+00    4.752567e-01   6.054588e-03
  2.764176e+00    4.946857e-01   6.171028e-03
  2.766386e+00    4.948730e-01   6.166332e-03
  2.768597e+00    4.736527e-01   6.026852e-03
  2.770807e+00    4.768045e-01   6.040977e-03
  2.773017e+00    4.747967e-01   6.022345e-03
  2.775228e+00    4.749423e-01   6.017470e-03
  2.777438e+00    4.784631e-01   6.033942e-03
  2.779649e+00    4.828641e-01   6.055706e-03
  2.781859e+00    4.732319e-01   5.989263e-03
  2.784070e+00    4.757666e-01   5.999431e-03
  2.786280e+00    4.754695e-01   5.991800e-03
  2.788491e+00    4.724152e-01   5.966727e-03
  2.790701e+00    4.589252e-01   5.875373e-03
  2.792912e+00    4.667130e-01   5.919091e-03
  2.795122e+00    4.730705e-01   5.953578e-03
  2.797333e+00    4.516683e-01   5.811923e-03
  2.799543e+00    4.703916e-01   5.925320e-03
  2.801753e+00    4.728547e-01   5.934989e-03
  2.803964e+00    4.671652e-01   5.893548e-03
  2.806174e+00    4.745016e-01   5.933510e-03
  2.808385e+00    4.784900e-01   5.951569e-03
  2.810595e+00    4.766792e-01   5.933408e-03
  2.812806e+00    4.834959e-01   5.969028e-03
  2.815016e+00    4.797068e-01   5.940808e-03
  2.817227e+00    4.886018e-01   6.021964e-03
  2.819437e+00    4.739457e-01   5.942048e-03
  2.821648e+00    4.685555e-01   5.910428e-03
  2.823858e+00    4.729676e-01   5.943532e-03
  2.826068e+00    4.635544e-01   5.889027e-03
  2.828279e+00    4.632905e-01   5.891329e-03
  2.830489e+00    4.791628e-01   5.994766e-03
  2.832700e+00    4.664063e-01   5.916993e-03
  2.834910e+00    4.649865e-01   5.910004e-03
  2.837121e+00    4.781865e-01   5.995030e-03
  2.839331e+00    4.894295e-01   6.066354e-03
  2.841542e+00    4.894304e-01   6.067401e-03
  2.843752e+00    4.765053e-01   5.987535e-03
  2.845963e+00    4.765324e-01   5.988112e-03
  2.848173e+00    4.650117e-01   5.915369e-03
  2.850383e+00    4.743271e-01   5.974617e-03
  2.852594e+00    4.681746e-01   5.935670e-03
  2.854804e+00    4.664608e-01   5.924275e-03
  2.857015e+00    4.699268e-01   5.945830e-03
  2.859225e+00    4.668481e-01   5.926054e-03
  2.861436e+00    4.689176e-01   5.938528e-03
  2.863646e+00    4.641964e-01   5.908596e-03
  2.865857e+00    4.676331e-01   5.930761e-03
  2.868067e+00    4.670460e-01   5.927259e-03
  2.870278e+00    4.666621e-01   5.924483e-03
  2.872488e+00    4.607393e-01   5.885593e-03
  2.874698e+00    4.542086e-01   5.842709e-03
  2.876909e+00    4.603204e-01   5.880558e-03
  2.879119e+00    4.610626e-01   5.883676e-03
  2.881330e+00    4.742329e-01   5.965625e-03
  2.883540e+00    4.658495e-01   5.911284e-03
  2.885751e+00    4.547418e-01   5.838741e-03
  2.887961e+00    4.609331e-01   5.876472e-03
  2.890172e+00    4.523007e-01   5.819607e-03
  2.892382e+00    4.523791e-01   5.818306e-03
  2.894593e+00    4.612094e-01   5.873009e-03
  2.896803e+00    4.594988e-01   5.860134e-03
  2.899014e+00    4.536999e-01   5.821137e-03
  2.901224e+00    4.592386e-01   5.854570e-03
  2.903434e+00    4.552775e-01   5.827338e-03
  2.905645e+00    4.628885e-01   5.873606e-03
  2.907855e+00    4.661039e-01   5.891853e-03
  2.910066e+00    4.709889e-01   5.920551e-03
  2.912276e+00    4.449314e-01   5.752375e-03
  2.914487e+00    4.457003e-01   5.754887e-03
  2.916697e+00    4.520480e-01   5.793523e-03
  2.918908e+00    4.555958e-01   5.814223e-03
  2.921118e+00    4.550528e-01   5.808066e-03
  2.923329e+00    4.472481e-01   5.755754e-03
  2.925539e+00    4.546922e-01   5.801189e-03
  2.927749e+00    4.539722e-01   5.794289e-03
  2.929960e+00    4.396679e-01   5.699546e-03
  2.932170e+00    4.462237e-01   5.739572e-03
  2.934381e+00    4.510113e-01   5.767856e-03
  2.936591e+00    4.666642e-01   5.864490e-03
  2.938802e+00    4.567964e-01   5.799455e-03
  2.941012e+00    4.491283e-01   5.748240e-03
  2.943223e+00    4.601382e-01   5.815568e-03
  2.945433e+00    4.501842e-01   5.748606e-03
  2.947644e+00    4.487416e-01   5.735280e-03
  2.949854e+00    4.550079e-01   5.770925e-03
  2.952064e+00    4.567620e-01   5.777791e-03
  2.954275e+00    4.590775e-01   5.788009e-03
  2.956485e+00    4.519286e-01   5.738577e-03
  2.958696e+00    4.670933e-01   5.829631e-03
  2.960906e+00    4.701226e-01   5.844260e-03
  2.963117e+00    4.518246e-01   5.724933e-03
  2.965327e+00    4.664108e-01   5.812650e-03
  2.967538e+00    4.541955e-01   5.733116e-03
  2.969748e+00    4.640249e-01   5.791967e-03
  2.971959e+00    4.594863e-01   5.760428e-03
  2.974169e+00    4.505087e-01   5.701296e-03
  2.976379e+00    4.693619e-01   5.816400e-03
  2.978590e+00    4.592037e-01   5.749973e-03
  2.980800e+00    4.710782e-01   5.820985e-03
  2.983011e+00    4.505493e-01   5.689958e-03
  2.985221e+00    4.546478e-01   5.712615e-03
  2.987432e+00    4.586150e-01   5.734368e-03
  2.989642e+00    4.497399e-01   5.675992e-03
  2.991853e+00    4.506191e-01   5.678265e-03
  2.994063e+00    4.536917e-01   5.694700e-03
  2.996274e+00    4.429071e-01   5.623443e-03
  2.998484e+00    4.615872e-01   5.738091e-03
  3.000694e+00    4.576878e-01   5.710337e-03
  3.002905e+00    4.658792e-01   5.758232e-03
  3.005115e+00    4.723584e-01   5.795081e-03
  3.007326e+00    4.726985e-01   5.793959e-03
  3.009536e+00    4.639528e-01   5.736825e-03
  3.011747e+00    4.588274e-01   5.702121e-03
  3.013957e+00    4.529895e-01   5.662526e-03
  3.016168e+00    4.503748e-01   5.642924e-03
  3.018378e+00    4.636187e-01   5.722211e-03
  3.020589e+00    4.488068e-01   5.626866e-03
  3.022799e+00    4.509764e-01   5.637295e-03
  3.025010e+00    4.563196e-01   5.667323e-03
  3.027220e+00    4.558261e-01   5.661154e-03
  3.029430e+00    4.618485e-01   5.695143e-03
  3.031641e+00    4.478759e-01   5.605221e-03
  3.033851e+00    4.419094e-01   5.564264e-03
  3.036062e+00    4.497369e-01   5.610556e-03
  3.038272e+00    4.490273e-01   5.602569e-03
  3.040483e+00    4.518650e-01   5.617007e-03
  3.042693e+00    4.566589e-01   5.643453e-03
  3.044904e+00    4.556187e-01   5.632976e-03
  3.047114e+00    4.543060e-01   5.620026e-03
  3.049325e+00    4.675187e-01   5.696692e-03
  3.051535e+00    4.589472e-01   5.639807e-03
  3.053745e+00    4.530510e-01   5.598698e-03
  3.055956e+00    4.565586e-01   5.615707e-03
  3.058166e+00    4.648668e-01   5.662255e-03
  3.060377e+00    4.542924e-01   5.592699e-03
  3.062587e+00    4.602265e-01   5.624416e-03
  3.064798e+00    4.536397e-01   5.579759e-03
  3.067008e+00    4.517420e-01   5.563334e-03
  3.069219e+00    4.512990e-01   5.556077e-03
  3.071429e+00    4.455296e-01   5.516974e-03
  3.073640e+00    4.470633e-01   5.523108e-03
  3.075850e+00    4.443859e-01   5.503009e-03
  3.078060e+00    4.349614e-01   5.441278e-03
  3.080271e+00    4.370798e-01   5.451065e-03
  3.082481e+00    4.599566e-01   5.588427e-03
  3.084692e+00    4.383080e-01   5.451999e-03
  3.086902e+00    4.465251e-01   5.499600e-03
  3.089113e+00    4.511099e-01   5.524205e-03
  3.091323e+00    4.537051e-01   5.536669e-03
  3.093534e+00    4.563613e-01   5.549441e-03
  3.095744e+00    4.524060e-01   5.521966e-03
  3.097955e+00    4.290499e-01   5.374054e-03
  3.100165e+00    4.434280e-01   5.460027e-03
  3.102375e+00    4.395451e-01   5.432687e-03
  3.104586e+00    4.495115e-01   5.490427e-03
  3.106796e+00    4.357008e-01   5.401963e-03
  3.109007e+00    4.360654e-01   5.401010e-03
  3.111217e+00    4.580532e-01   5.531793e-03
  3.113428e+00    4.393129e-01   5.414046e-03
  3.115638e+00    4.406779e-01   5.419234e-03
  3.117849e+00    4.587215e-01   5.525284e-03
  3.120059e+00    4.497595e-01   5.467578e-03
  3.122270e+00    4.379371e-01   5.392007e-03
  3.124480e+00    4.354821e-01   5.373209e-03
  3.126691e+00    4.450105e-01   5.428117e-03
  3.128901e+00    4.465588e-01   5.434426e-03
  3.131111e+00    4.473318e-01   5.435279e-03
  3.133322e+00    4.454991e-01   5.420673e-03
  3.135532e+00    4.466729e-01   5.424395e-03
  3.137743e+00    4.486153e-01   5.432713e-03
  3.139953e+00    4.293712e-01   5.311250e-03
  3.142164e+00    4.358055e-01   5.362822e-03
  3.144374e+00    4.453538e-01   5.449767e-03
  3.146585e+00    4.347283e-01   5.398791e-03
  3.148795e+00    4.370720e-01   5.424040e-03
  3.151006e+00    4.472021e-01   5.495127e-03
  3.153216e+00    4.313765e-01   5.404087e-03
  3.155426e+00    4.412083e-01   5.471615e-03
  3.157637e+00    4.402673e-01   5.471312e-03
  3.159847e+00    4.407946e-01   5.479460e-03
  3.162058e+00    4.321729e-01   5.430003e-03
  3.164268e+00    4.281397e-01   5.408612e-03
  3.166479e+00    4.440168e-01   5.511641e-03
  3.168689e+00    4.384365e-01   5.480283e-03
  3.170900e+00    4.285443e-01   5.421234e-03
  3.173110e+00    4.369469e-01   5.476980e-03
  3.175321e+00    4.260453e-01   5.410691e-03
  3.177531e+00    4.243447e-01   5.402566e-03
  3.179741e+00    4.437765e-01   5.526968e-03
  3.181952e+00    4.301842e-01   5.443782e-03
  3.184162e+00    4.345492e-01   5.473482e-03
  3.186373e+00    4.442320e-01   5.535751e-03
  3.188583e+00    4.524493e-01   5.588544e-03
  3.190794e+00    4.389501e-01   5.506306e-03
  3.193004e+00    4.296644e-01   5.448977e-03
  3.195215e+00    4.358648e-01   5.489657e-03
  3.197425e+00    4.399189e-01   5.516345e-03
  3.199636e+00    4.397627e-01   5.514583e-03
  3.201846e+00    4.472343e-01   5.560635e-03
  3.204056e+00    4.385681e-01   5.507392e-03
  3.206267e+00    4.263461e-01   5.430951e-03
  3.208477e+00    4.259324e-01   5.429212e-03
  3.210688e+00    4.422396e-01   5.533030e-03
  3.212898e+00    4.453476e-01   5.553017e-03
  3.215109e+00    4.320422e-01   5.470209e-03
  3.217319e+00    4.251706e-01   5.427155e-03
  3.219530e+00    4.342781e-01   5.485351e-03
  3.221740e+00    4.481974e-01   5.573141e-03
  3.223951e+00    4.477308e-01   5.570740e-03
  3.226161e+00    4.184617e-01   5.385759e-03
  3.228372e+00    4.361936e-01   5.499185e-03
  3.230582e+00    4.382715e-01   5.512447e-03
  3.232792e+00    4.346254e-01   5.489693e-03
  3.235003e+00    4.270711e-01   5.441986e-03
  3.237213e+00    4.237964e-01   5.421213e-03
  3.239424e+00    4.154733e-01   5.367715e-03
  3.241634e+00    4.130589e-01   5.352202e-03
  3.243845e+00    4.302188e-01   5.462315e-03
  3.246055e+00    4.192449e-01   5.391937e-03
  3.248266e+00    4.291828e-01   5.455667e-03
  3.250476e+00    4.362121e-01   5.499858e-03
  3.252687e+00    4.164599e-01   5.373834e-03
  3.254897e+00    4.259331e-01   5.434459e-03
  3.257107e+00    4.153686e-01   5.366354e-03
  3.259318e+00    4.258400e-01   5.433342e-03
  3.261528e+00    4.108839e-01   5.336939e-03
  3.263739e+00    4.237918e-01   5.419530e-03
  3.265949e+00    4.317173e-01   5.469882e-03
  3.268160e+00    4.364438e-01   5.499299e-03
  3.270370e+00    4.288327e-01   5.450647e-03
  3.272581e+00    4.345487e-01   5.486562e-03
  3.274791e+00    4.206806e-01   5.397790e-03
  3.277002e+00    4.340314e-01   5.482185e-03
  3.279212e+00    4.358955e-01   5.493580e-03
  3.281422e+00    4.174387e-01   5.375450e-03
  3.283633e+00    4.112503e-01   5.334758e-03
  3.285843e+00    4.391663e-01   5.512524e-03
  3.288054e+00    4.160960e-01   5.364847e-03
  3.290264e+00    4.240056e-01   5.415294e-03
  3.292475e+00    4.183799e-01   5.378400e-03
  3.294685e+00    4.267296e-01   5.431186e-03
  3.296896e+00    4.255194e-01   5.422696e-03
  3.299106e+00    4.512248e-01   5.583527e-03
  3.301317e+00    4.346109e-01   5.478758e-03
  3.303527e+00    4.318306e-01   5.460700e-03
  3.305737e+00    4.458571e-01   5.547618e-03
  3.307948e+00    4.261498e-01   5.422956e-03
  3.310158e+00    4.185540e-01   5.373558e-03
  3.312369e+00    4.313569e-01   5.454225e-03
  3.314579e+00    4.251873e-01   5.414173e-03
  3.316790e+00    4.303086e-01   5.445983e-03
  3.319000e+00    4.286895e-01   5.434508e-03
  3.321211e+00    4.238928e-01   5.403442e-03
  3.323421e+00    4.010198e-01   5.254450e-03
  3.325632e+00    4.089506e-01   5.305260e-03
  3.327842e+00    4.183738e-01   5.365144e-03
  3.330052e+00    4.157212e-01   5.347038e-03
  3.332263e+00    4.206827e-01   5.377835e-03
  3.334473e+00    4.282440e-01   5.425033e-03
  3.336684e+00    4.243009e-01   5.398743e-03
  3.338894e+00    4.226648e-01   5.387469e-03
  3.341105e+00    4.248844e-01   5.400383e-03
  3.343315e+00    4.326047e-01   5.448070e-03
  3.345526e+00    4.208421e-01   5.372599e-03
  3.347736e+00    4.205416e-01   5.369266e-03
  3.349947e+00    4.196263e-01   5.362495e-03
  3.352157e+00    4.213266e-01   5.372158e-03
  3.354368e+00    4.193707e-01   5.358391e-03
  3.356578e+00    4.212751e-01   5.369515e-03
  3.358788e+00    4.157343e-01   5.332779e-03
  3.360999e+00    4.044830e-01   5.258886e-03
  3.363209e+00    4.119862e-01   5.306410e-03
  3.365420e+00    4.195263e-01   5.353249e-03
  3.367630e+00    4.347107e-01   5.448240e-03
  3.369841e+00    4.063801e-01   5.266298e-03
  3.372051e+00    4.100095e-01   5.287790e-03
  3.374262e+00    4.184971e-01   5.339809e-03
  3.376472e+00    4.135719e-01   5.305849e-03
  3.378683e+00    4.176289e-01   5.329309e-03
  3.380893e+00    4.075849e-01   5.262516e-03
  3.383103e+00    4.226967e-01   5.356446e-03
  3.385314e+00    4.205963e-01   5.340896e-03
  3.387524e+00    4.064100e-01   5.247356e-03
  3.389735e+00    4.112207e-01   5.275670e-03
  3.391945e+00    4.129682e-01   5.283210e-03
  3.394156e+00    4.128146e-01   5.277994e-03
  3.396366e+00    4.189936e-01   5.313941e-03
  3.398577e+00    3.992373e-01   5.184133e-03
  3.400787e+00    4.057336e-01   5.237960e-03
  3.402998e+00    3.986742e-01   5.229755e-03
  3.405208e+00    4.080129e-01   5.311345e-03
  3.407418e+00    4.068378e-01   5.319625e-03
  3.409629e+00    3.904145e-01   5.224890e-03
  3.411839e+00    3.947672e-01   5.265667e-03
  3.414050e+00    3.978667e-01   5.297280e-03
  3.416260e+00    3.963072e-01   5.296580e-03
  3.418471e+00    3.842496e-01   5.224681e-03
  3.420681e+00    3.791039e-01   5.197921e-03
  3.422892e+00    3.774158e-01   5.194203e-03
  3.425102e+00    3.852955e-01   5.255899e-03
  3.427313e+00    3.835061e-01   5.250845e-03
  3.429523e+00    3.783113e-01   5.222127e-03
  3.431733e+00    3.802373e-01   5.242023e-03
  3.433944e+00    3.885127e-01   5.305279e-03
  3.436154e+00    3.765187e-01   5.228938e-03
  3.438365e+00    3.813554e-01   5.268343e-03
  3.440575e+00    3.733129e-01   5.218355e-03
  3.442786e+00    3.845524e-01   5.301984e-03
  3.444996e+00    3.693311e-01   5.201444e-03
  3.447207e+00    3.659354e-01   5.182690e-03
  3.449417e+00    3.823285e-01   5.338897e-03
  3.451628e+00    3.856040e-01   5.391841e-03
  3.453838e+00    3.920787e-01   5.458768e-03
  3.456049e+00    3.671769e-01   5.306505e-03
  3.458259e+00    3.584592e-01   5.264802e-03
  3.460469e+00    3.707909e-01   5.374496e-03
  3.462680e+00    3.803845e-01   5.463000e-03
  3.464890e+00    3.822812e-01   5.494792e-03
  3.467101e+00    3.847223e-01   5.530195e-03
  3.469311e+00    3.816546e-01   5.524873e-03
  3.471522e+00    4.007573e-01   5.678418e-03
  3.473732e+00    3.928510e-01   5.638389e-03
  3.475943e+00    4.029317e-01   5.726351e-03
  3.478153e+00    4.107493e-01   5.797533e-03
  3.480364e+00    4.105068e-01   5.811317e-03
  3.482574e+00    4.175626e-01   5.876604e-03
  3.484784e+00    4.303370e-01   5.981085e-03
  3.486995e+00    4.154327e-01   5.891675e-03
  3.489205e+00    4.313157e-01   6.018047e-03
  3.491416e+00    4.320991e-01   6.038527e-03
  3.493626e+00    4.457753e-01   6.148092e-03
  3.495837e+00    4.600920e-01   6.261125e-03
  3.498047e+00    4.533481e-01   6.229720e-03
  3.500258e+00    4.530369e-01   6.242163e-03
  3.502468e+00    4.466228e-01   6.212119e-03
  3.504679e+00    4.653113e-01   6.355318e-03
  3.506889e+00    4.691724e-01   6.396134e-03
  3.509099e+00    4.668241e-01   6.394371e-03
  3.511310e+00    4.705502e-01   6.434247e-03
  3.513520e+00    4.911141e-01   6.587867e-03
  3.515731e+00    5.057195e-01   6.699786e-03
  3.517941e+00    4.976537e-01   6.660635e-03
  3.520152e+00    4.843447e-01   6.585098e-03
  3.522362e+00    5.038893e-01   6.731187e-03
  3.524573e+00    4.995806e-01   6.716552e-03
  3.526783e+00    5.040411e-01   6.759703e-03
  3.528994e+00    5.128714e-01   6.830897e-03
  3.531204e+00    5.014970e-01   6.766901e-03
  3.533414e+00    5.315627e-01   6.978965e-03
  3.535625e+00    5.322785e-01   6.996066e-03
  3.537835e+00    5.337089e-01   7.017582e-03
  3.540046e+00    5.355041e-01   7.038340e-03
  3.542256e+00    5.458294e-01   7.113444e-03
  3.544467e+00    5.498164e-01   7.147113e-03
  3.546677e+00    5.328017e-01   7.043207e-03
  3.548888e+00    5.441927e-01   7.125662e-03
  3.551098e+00    5.424395e-01   7.121481e-03
  3.553309e+00    5.466030e-01   7.157026e-03
  3.555519e+00    5.379179e-01   7.111235e-03
  3.557729e+00    5.354200e-01   7.106452e-03
  3.559940e+00    5.405295e-01   7.151844e-03
  3.562150e+00    5.488368e-01   7.218461e-03
  3.564361e+00    5.518752e-01   7.251916e-03
  3.566571e+00    5.537332e-01   7.278187e-03
  3.568782e+00    5.396951e-01   7.199516e-03
  3.570992e+00    5.365672e-01   7.192349e-03
  3.573203e+00    5.269056e-01   7.141366e-03
  3.575413e+00    5.416813e-01   7.254609e-03
  3.577624e+00    5.294294e-01   7.186179e-03
  3.579834e+00    5.148594e-01   7.100172e-03
  3.582045e+00    5.207165e-01   7.154285e-03
  3.584255e+00    5.267346e-01   7.209450e-03
  3.586465e+00    5.340460e-01   7.273189e-03
  3.588676e+00    5.429466e-01   7.347866e-03
  3.590886e+00    5.397409e-01   7.339905e-03
  3.593097e+00    5.361810e-01   7.330127e-03
  3.595307e+00    5.408612e-01   7.376067e-03
  3.597518e+00    5.396050e-01   7.381771e-03
  3.599728e+00    5.432805e-01   7.421055e-03
  3.601939e+00    5.466130e-01   7.458003e-03
  3.604149e+00    5.419776e-01   7.440779e-03
  3.606360e+00    5.365916e-01   7.417907e-03
  3.608570e+00    5.251977e-01   7.352736e-03
  3.610780e+00    5.358884e-01   7.438282e-03
  3.612991e+00    5.303717e-01   7.409860e-03
  3.615201e+00    5.092893e-01   7.270626e-03
  3.617412e+00    5.441275e-01   7.522577e-03
  3.619622e+00    5.178384e-01   7.344410e-03
  3.621833e+00    5.372064e-01   7.487243e-03
  3.624043e+00    5.420864e-01   7.530777e-03
  3.626254e+00    5.321153e-01   7.470841e-03
  3.628464e+00    5.380958e-01   7.523747e-03
  3.630675e+00    5.341073e-01   7.509930e-03
  3.632885e+00    5.293127e-01   7.490518e-03
  3.635095e+00    5.369465e-01   7.558763e-03
  3.637306e+00    5.316337e-01   7.535669e-03
  3.639516e+00    5.258065e-01   7.508667e-03
  3.641727e+00    5.199393e-01   7.481025e-03
  3.643937e+00    5.441458e-01   7.667859e-03
  3.646148e+00    5.456961e-01   7.693624e-03
  3.648358e+00    5.457413e-01   7.708929e-03
  3.650569e+00    5.481008e-01   7.740549e-03
  3.652779e+00    5.257726e-01   7.595903e-03
  3.654990e+00    5.375133e-01   7.695202e-03
  3.657200e+00    5.283759e-01   7.644341e-03
  3.659410e+00    5.334482e-01   7.695944e-03
  3.661621e+00    5.398377e-01   7.757134e-03
  3.663831e+00    5.089870e-01   7.546995e-03
  3.666042e+00    5.322214e-01   7.732498e-03
  3.668252e+00    5.131907e-01   7.607955e-03
  3.670463e+00    5.310706e-01   7.754611e-03
  3.672673e+00    5.159242e-01   7.658421e-03
  3.674884e+00    5.207006e-01   7.709027e-03
  3.677094e+00    5.594893e-01   8.006939e-03
  3.679305e+00    5.306954e-01   7.813802e-03
  3.681515e+00    5.236391e-01   7.777148e-03
  3.683726e+00    5.409127e-01   7.920329e-03
  3.685936e+00    5.429976e-01   7.951557e-03
  3.688146e+00    5.243965e-01   7.829855e-03
  3.690357e+00    5.292555e-01   7.882035e-03
  3.692567e+00    5.281124e-01   7.889623e-03
  3.694778e+00    5.203816e-01   7.847642e-03
  3.696988e+00    5.311857e-01   7.944757e-03
  3.699199e+00    5.093561e-01   7.795790e-03
  3.701409e+00    5.284944e-01   7.957273e-03
  3.703620e+00    5.457712e-01   8.102969e-03
  3.705830e+00    5.345339e-01   8.035682e-03
  3.708041e+00    5.153750e-01   7.906812e-03
  3.710251e+00    5.203378e-01   7.961435e-03
  3.712461e+00    5.174714e-01   7.956134e-03
  3.714672e+00    5.268825e-01   8.044956e-03
  3.716882e+00    5.497677e-01   8.235010e-03
  3.719093e+00    5.134427e-01   7.975331e-03
  3.721303e+00    5.042467e-01   7.920263e-03
  3.723514e+00    5.326516e-01   8.157781e-03
  3.725724e+00    5.361646e-01   8.202124e-03
  3.727935e+00    5.268583e-01   8.148207e-03
  3.730145e+00    5.199603e-01   8.112079e-03
  3.732356e+00    5.346664e-01   8.243863e-03
  3.734566e+00    4.987456e-01   7.979337e-03
  3.736776e+00    5.014310e-01   8.018360e-03
  3.738987e+00    4.935669e-01   7.972559e-03
  3.741197e+00    5.108998e-01   8.129326e-03
  3.743408e+00    5.269065e-01   8.274002e-03
  3.745618e+00    5.030099e-01   8.102311e-03
  3.747829e+00    5.119069e-01   8.191753e-03
  3.750039e+00    5.106019e-01   8.199671e-03
  3.752250e+00    5.094219e-01   8.208652e-03
  3.754460e+00    5.040498e-01   8.183645e-03
  3.756671e+00    5.143685e-01   8.285903e-03
  3.758881e+00    4.994823e-01   8.183622e-03
  3.761091e+00    4.950374e-01   8.165993e-03
  3.763302e+00    4.904889e-01   8.147103e-03
  3.765512e+00    4.983717e-01   8.231419e-03
  3.767723e+00    5.037279e-01   8.294786e-03
  3.769933e+00    5.027459e-01   8.305986e-03
  3.772144e+00    5.120286e-01   8.402012e-03
  3.774354e+00    5.008519e-01   8.329567e-03
  3.776565e+00    5.036212e-01   8.372328e-03
  3.778775e+00    5.111224e-01   8.454615e-03
  3.780986e+00    4.875685e-01   8.277440e-03
  3.783196e+00    5.028474e-01   8.426366e-03
  3.785407e+00    4.909971e-01   8.346652e-03
  3.787617e+00    5.089042e-01   8.518390e-03
  3.789827e+00    5.168855e-01   8.605754e-03
  3.792038e+00    5.047123e-01   8.524685e-03
  3.794248e+00    5.172376e-01   8.651353e-03
  3.796459e+00    4.801818e-01   8.356618e-03
  3.798669e+00    4.913954e-01   8.474738e-03
  3.800880e+00    5.176799e-01   8.720268e-03
  3.803090e+00    4.979080e-01   8.573869e-03
  3.805301e+00    5.115610e-01   8.713007e-03
  3.807511e+00    5.089772e-01   8.713161e-03
  3.809722e+00    5.053722e-01   8.704610e-03
  3.811932e+00    5.161785e-01   8.819782e-03
  3.814142e+00    5.062297e-01   8.757414e-03
  3.816353e+00    5.092505e-01   8.806533e-03
  3.818563e+00    5.109290e-01   8.844463e-03
  3.820774e+00    5.002456e-01   8.774685e-03
  3.822984e+00    4.944004e-01   8.746604e-03
  3.825195e+00    5.083398e-01   8.892954e-03
  3.827405e+00    5.072707e-01   8.907752e-03
  3.829616e+00    4.991097e-01   8.859908e-03
  3.831826e+00    5.025579e-01   8.914761e-03
  3.834037e+00    5.085533e-01   8.992539e-03
  3.836247e+00    4.926239e-01   8.875214e-03
  3.838457e+00    4.936857e-01   8.909680e-03
  3.840668e+00    5.115325e-01   9.094902e-03
  3.842878e+00    4.961449e-01   8.982567e-03
  3.845089e+00    4.837342e-01   8.894783e-03
  3.847299e+00    4.766238e-01   8.854477e-03
  3.849510e+00    4.960108e-01   9.058604e-03
  3.851720e+00    5.098419e-01   9.205757e-03
  3.853931e+00    4.943301e-01   9.083647e-03
  3.856141e+00    4.933388e-01   9.093528e-03
  3.858352e+00    5.011408e-01   9.184532e-03
  3.860562e+00    4.757507e-01   8.967823e-03
  3.862772e+00    4.861326e-01   9.084485e-03
  3.864983e+00    5.003258e-01   9.235971e-03
  3.867193e+00    4.880581e-01   9.141776e-03
  3.869404e+00    4.926729e-01   9.204603e-03
  3.871614e+00    5.079426e-01   9.366442e-03
  3.873825e+00    5.245254e-01   9.539082e-03
  3.876035e+00    4.782431e-01   9.128831e-03
  3.878246e+00    4.658454e-01   9.034723e-03
  3.880456e+00    4.781609e-01   9.181976e-03
  3.882667e+00    4.904774e-01   9.328719e-03
  3.884877e+00    5.025990e-01   9.473407e-03
  3.887087e+00    4.843551e-01   9.329571e-03
  3.889298e+00    5.067844e-01   9.573987e-03
  3.891508e+00    5.283407e-01   9.807158e-03
  3.893719e+00    5.000784e-01   9.572572e-03
  3.895929e+00    4.857867e-01   9.466041e-03
  3.898140e+00    5.211114e-01   9.836808e-03
  3.900350e+00    4.760236e-01   9.433397e-03
  3.902561e+00    4.731784e-01   9.436832e-03
  3.904771e+00    4.765547e-01   9.502812e-03
  3.906982e+00    5.021810e-01   9.788596e-03
  3.909192e+00    4.925013e-01   9.727378e-03
  3.911403e+00    4.912218e-01   9.748872e-03
  3.913613e+00    5.251694e-01   1.011551e-02
  3.915823e+00    4.978551e-01   9.884245e-03
  3.918034e+00    4.749752e-01   9.689112e-03
  3.920244e+00    5.107964e-01   1.008444e-02
  3.922455e+00    4.790916e-01   9.802124e-03
  3.924665e+00    5.080317e-01   1.013110e-02
  3.926876e+00    4.957687e-01   1.004540e-02
  3.929086e+00    4.951839e-01   1.007722e-02
  3.931297e+00    4.692674e-01   9.844040e-03
  3.933507e+00    4.977214e-01   1.016734e-02
  3.935718e+00    5.036713e-01   1.025717e-02
  3.937928e+00    5.067055e-01   1.031809e-02
  3.940138e+00    4.627914e-01   9.889357e-03
  3.942349e+00    4.986491e-01   1.029553e-02
  3.944559e+00    5.041370e-01   1.038261e-02
  3.946770e+00    4.879566e-01   1.024485e-02
  3.948980e+00    4.897611e-01   1.029460e-02
  3.951191e+00    4.901376e-01   1.032949e-02
  3.953401e+00    4.960461e-01   1.042325e-02
  3.955612e+00    4.737242e-01   1.021727e-02
  3.957822e+00    4.884765e-01   1.040688e-02
  3.960033e+00    4.993175e-01   1.055478e-02
  3.962243e+00    4.952219e-01   1.054467e-02
  3.964453e+00    4.650536e-01   1.025070e-02
  3.966664e+00    4.783852e-01   1.042979e-02
  3.968874e+00    4.826665e-01   1.050469e-02
  3.971085e+00    4.522705e-01   1.018971e-02
  3.973295e+00    4.573629e-01   1.026777e-02
  3.975506e+00    4.565584e-01   1.027956e-02
  3.977716e+00    5.039486e-01   1.082246e-02
  3.979927e+00    4.856658e-01   1.064634e-02
  3.982137e+00    4.876503e-01   1.069058e-02
  3.984348e+00    4.813623e-01   1.064375e-02
  3.986558e+00    4.989106e-01   1.085871e-02
  3.988768e+00    5.044345e-01   1.094213e-02
  3.990979e+00    5.063706e-01   1.098635e-02
  3.993189e+00    5.046381e-01   1.099099e-02
  3.995400e+00    4.915043e-01   1.087087e-02
  3.997610e+00    4.734683e-01   1.069889e-02
  3.999821e+00    5.049757e-01   1.108746e-02
  4.002031e+00    4.777443e-01   1.082253e-02
  4.004242e+00    5.038479e-01   1.115344e-02
  4.006452e+00    5.108206e-01   1.127079e-02
  4.008663e+00    4.939919e-01   1.112398e-02
  4.010873e+00    4.852400e-01   1.106502e-02
  4.013084e+00    4.634393e-01   1.085363e-02
  4.015294e+00    4.598854e-01   1.085178e-02
  4.017504e+00    4.777844e-01   1.110261e-02
  4.019715e+00    4.664522e-01   1.101185e-02
  4.021925e+00    4.817312e-01   1.123356e-02
  4.024136e+00    4.892019e-01   1.136435e-02
  4.026346e+00    4.974339e-01   1.150427e-02
  4.028557e+00    4.756666e-01   1.129364e-02
  4.030767e+00    4.726631e-01   1.130310e-02
  4.032978e+00    4.943573e-01   1.160637e-02
  4.035188e+00    5.256692e-01   1.201636e-02
  4.037399e+00    4.970243e-01   1.173284e-02
  4.039609e+00    4.603680e-01   1.133831e-02
  4.041819e+00    4.911808e-01   1.176076e-02
  4.044030e+00    4.878047e-01   1.177043e-02
  4.046240e+00    5.085357e-01   1.206909e-02
  4.048451e+00    4.519491e-01   1.142718e-02
  4.050661e+00    5.133985e-01   1.223212e-02
  4.052872e+00    5.091085e-01   1.223519e-02
  4.055082e+00    4.939537e-01   1.210591e-02
  4.057293e+00    4.899615e-01   1.211087e-02
  4.059503e+00    5.164939e-01   1.249109e-02
  4.061714e+00    4.814046e-01   1.211580e-02
  4.063924e+00    4.642363e-01   1.195359e-02
  4.066134e+00    4.661109e-01   1.203387e-02
  4.068345e+00    4.693064e-01   1.213337e-02
  4.070555e+00    5.057366e-01   1.265630e-02
  4.072766e+00    4.732997e-01   1.230385e-02
  4.074976e+00    4.911762e-01   1.259666e-02
  4.077187e+00    4.745880e-01   1.244363e-02
  4.079397e+00    4.785655e-01   1.255954e-02
  4.081608e+00    4.968274e-01   1.286344e-02
  4.083818e+00    4.586767e-01   1.242405e-02
  4.086029e+00    4.648275e-01   1.257281e-02
  4.088239e+00    4.823166e-01   1.287632e-02
  4.090449e+00    4.835303e-01   1.296235e-02
  4.092660e+00    4.668373e-01   1.280667e-02
  4.094870e+00    4.919039e-01   1.321923e-02
  4.097081e+00    4.622242e-01   1.288432e-02
  4.099291e+00    4.707094e-01   1.305591e-02
  4.101502e+00    4.902369e-01   1.337364e-02
  4.103712e+00    5.243966e-01   1.388318e-02
  4.105923e+00    4.891058e-01   1.345993e-02
  4.108133e+00    4.955705e-01   1.360069e-02
  4.110344e+00    5.099543e-01   1.384962e-02
  4.112554e+00    4.635914e-01   1.325724e-02
  4.114764e+00    4.260722e-01   1.276035e-02
  4.116975e+00    4.685421e-01   1.343401e-02
  4.119185e+00    5.021923e-01   1.396455e-02
  4.121396e+00    4.791527e-01   1.369682e-02
  4.123606e+00    5.020614e-01   1.407789e-02
  4.125817e+00    4.636092e-01   1.358493e-02
  4.128027e+00    4.413681e-01   1.331071e-02
  4.130238e+00    4.534559e-01   1.354961e-02
  4.132448e+00    4.483387e-01   1.353150e-02
  4.134659e+00    4.532270e-01   1.366343e-02
  4.136869e+00    4.802043e-01   1.412686e-02
  4.139080e+00    4.850231e-01   1.426174e-02
  4.141290e+00    4.863486e-01   1.434455e-02
  4.143500e+00    4.494017e-01   1.385245e-02
  4.145711e+00    4.113170e-01   1.331439e-02
  4.147921e+00    4.758717e-01   1.438666e-02
  4.150132e+00    4.715169e-01   1.438934e-02
  4.152342e+00    4.683871e-01   1.441082e-02
  4.154553e+00    4.710037e-01   1.451982e-02
  4.156763e+00    4.737823e-01   1.463450e-02
  4.158974e+00    4.917763e-01   1.498482e-02
  4.161184e+00    4.892877e-01   1.502107e-02
  4.163395e+00    4.735707e-01   1.485318e-02
  4.165605e+00    4.962104e-01   1.528325e-02
  4.167815e+00    4.759259e-01   1.504573e-02
  4.170026e+00    4.866005e-01   1.529346e-02
  4.172236e+00    4.697228e-01   1.510732e-02
  4.174447e+00    4.628663e-01   1.507827e-02
  4.176657e+00    4.803226e-01   1.544377e-02
  4.178868e+00    4.572734e-01   1.515411e-02
  4.181078e+00    4.647347e-01   1.536312e-02
  4.183289e+00    5.418251e-01   1.668349e-02
  4.185499e+00    5.407447e-01   1.676548e-02
  4.187710e+00    4.588167e-01   1.553361e-02
  4.189920e+00    4.785630e-01   1.595961e-02
  4.192130e+00    4.759607e-01   1.601368e-02
  4.194341e+00    5.170608e-01   1.679307e-02
  4.196551e+00    4.684374e-01   1.608506e-02
  4.198762e+00    5.514569e-01   1.756331e-02
  4.200972e+00    5.113206e-01   1.702145e-02
  4.203183e+00    4.459569e-01   1.600134e-02
  4.205393e+00    4.779542e-01   1.667548e-02
  4.207604e+00    4.223875e-01   1.578306e-02
  4.209814e+00    5.391043e-01   1.795317e-02
  4.212025e+00    5.234514e-01   1.781598e-02
  4.214235e+00    4.930740e-01   1.741404e-02
  4.216445e+00    4.557049e-01   1.686219e-02
  4.218656e+00    4.037219e-01   1.599019e-02
  4.220866e+00    4.900109e-01   1.774680e-02
  4.223077e+00    4.335764e-01   1.682222e-02
  4.225287e+00    4.529196e-01   1.732811e-02
  4.227498e+00    4.819542e-01   1.801533e-02
  4.229708e+00    4.529649e-01   1.760730e-02
  4.231919e+00    5.196936e-01   1.901521e-02
  4.234129e+00    5.291345e-01   1.934875e-02
  4.236340e+00    4.841956e-01   1.866681e-02
  4.238550e+00    4.474810e-01   1.810378e-02
  4.240761e+00    5.072881e-01   1.944579e-02
  4.242971e+00    5.285305e-01   2.003056e-02
  4.245181e+00    4.791376e-01   1.925096e-02
  4.247392e+00    5.170513e-01   2.018493e-02
  4.249602e+00    5.029969e-01   2.010650e-02
  4.251813e+00    4.246571e-01   1.865702e-02
  4.254023e+00    4.240214e-01   1.883001e-02
  4.256234e+00    4.395484e-01   1.937731e-02
  4.258444e+00    4.457496e-01   1.971695e-02
  4.260655e+00    5.385820e-01   2.191196e-02
  4.262865e+00    5.048279e-01   2.145457e-02
  4.265076e+00    5.381889e-01   2.240422e-02
  4.267286e+00    5.173284e-01   2.222619e-02
  4.269496e+00    5.552102e-01   2.330662e-02
  4.271707e+00    4.971429e-01   2.232632e-02
  4.273917e+00    5.171104e-01   2.306527e-02
  4.276128e+00    4.034172e-01   2.064298e-02
  4.278338e+00    4.224708e-01   2.140632e-02
  4.280549e+00    4.405770e-01   2.217440e-02
  4.282759e+00    4.187938e-01   2.192972e-02
  4.284970e+00    4.339879e-01   2.265422e-02
  4.287180e+00    4.675549e-01   2.379607e-02
  4.289391e+00    5.304837e-01   2.553750e-02
  4.291601e+00    3.942840e-01   2.219175e-02
  4.293811e+00    5.340405e-01   2.602857e-02
  4.296022e+00    5.366652e-01   2.630316e-02
  4.298232e+00    4.982002e-01   2.555495e-02
  4.300443e+00    4.274238e-01   2.386534e-02
  4.302653e+00    4.189392e-01   2.383206e-02
  4.304864e+00    4.660937e-01   2.535507e-02
  4.307074e+00    4.923735e-01   2.629450e-02
  4.309285e+00    5.540429e-01   2.814531e-02
  4.311495e+00    5.382006e-01   2.800036e-02
  4.313706e+00    3.995233e-01   2.435164e-02
  4.315916e+00    4.322629e-01   2.557819e-02
  4.318126e+00    4.257038e-01   2.563468e-02
  4.320337e+00    4.669232e-01   2.711871e-02
  4.322547e+00    5.085462e-01   2.860203e-02
  4.324758e+00    4.336082e-01   2.668591e-02
  4.326968e+00    4.453107e-01   2.734675e-02
  4.329179e+00    5.867752e-01   3.173785e-02
  4.331389e+00    4.822842e-01   2.910537e-02
  4.333600e+00    4.818759e-01   2.944067e-02
  4.335810e+00    3.394631e-01   2.500415e-02
  4.338021e+00    3.912212e-01   2.718621e-02
  4.340231e+00    4.647435e-01   3.000192e-02
  4.342442e+00    3.785687e-01   2.744284e-02
  4.344652e+00    4.269072e-01   2.953649e-02
  4.346862e+00    4.396611e-01   3.039518e-02
  4.349073e+00    4.522150e-01   3.127345e-02
  4.351283e+00    4.526891e-01   3.175779e-02
  4.353494e+00    3.956919e-01   3.015046e-02
  4.355704e+00    5.451944e-01   3.595967e-02
  4.357915e+00    4.793812e-01   3.428090e-02
  4.360125e+00    5.236846e-01   3.644148e-02
  4.362336e+00    4.624351e-01   3.487003e-02
  4.364546e+00    3.976447e-01   3.292311e-02
  4.366757e+00    4.564404e-01   3.597303e-02
  4.368967e+00    4.244103e-01   3.538130e-02
  4.371177e+00    4.700947e-01   3.802858e-02
  4.373388e+00    4.060158e-01   3.613125e-02
  4.375598e+00    4.638374e-01   3.950047e-02
  4.377809e+00    5.080579e-01   4.238668e-02
  4.380019e+00    5.341827e-01   4.455430e-02
  4.382230e+00    3.107388e-01   3.493250e-02
  4.384440e+00    4.442241e-01   4.296558e-02
  4.386651e+00    6.166063e-01   5.218342e-02
  4.388861e+00    3.219646e-01   3.897190e-02
  4.391072e+00    4.349569e-01   4.688885e-02
  4.393282e+00    6.060580e-01   5.748727e-02
  4.395492e+00    4.690728e-01   5.268012e-02
  4.397703e+00    3.765400e-01   4.935310e-02
  4.399913e+00    4.304145e-01   5.543850e-02
  4.402124e+00    3.666494e-01   5.406829e-02
  4.404334e+00    3.697611e-01   5.771652e-02
  4.406545e+00    5.192715e-02   2.325039e-02
  4.408755e+00    2.001582e-01   4.948037e-02
  4.410966e+00    3.097455e-01   6.811520e-02
  4.413176e+00    5.393741e-01   1.017599e-01
  4.415387e+00   -2.541652e-01            nan
  4.417597e+00   -1.900416e+00            nan
  4.419807e+00   -3.766224e-01            nan
