# == pyFAI calibration ==
# Distance Sample to Detector: 0.216 m
# PONI: 1.166e-01, 1.308e-01 m
# Rotations: 0.000000 0.000000 0.000000 rad
# 
# == Fit2d calibration ==
# Distance Sample-beamCenter: 216.000 mm
# Center: x=1744.293, y=1555.000 pix
# Tilt: 0.000 deg  TiltPlanRot: 0.000 deg
# 
# Detector Eiger 9M	 PixelSize= 7.500e-05, 7.500e-05 m
#    Detector has a mask: True 
#    Detector has a dark current: False 
#    detector has a flat field: False 
# 
# Wavelength: 9.8e-11 m
# Mask applied: from detector
# Dark current applied: False
# Flat field applied: False
# Polarization factor: None
# Normalization factor: 1.0
# 
# Headers of the input frame:
# {
# "_array_data.header_convention": "SLS_1.0",
# "_array_data.header_contents": "# Detector: Dectris Eiger 9M, S/N E-18-0102\r\n# Pixel_size 75e-6 m x 75e-6 m\r\n# Silicon sensor, thickness 0.000450 m\r\n# Exposure_time 0.024997 s\r\n# Exposure_period 0.025000 s\r\n# Count_cutoff 62318 counts\r\n# Wavelength 0.980106 A\r\n# Detector_distance 0.215992 m\r\n# Beam_xy (1555, 1744) pixels\r\n# Start_angle 0.000000 deg.\r\n# Angle_increment 0.000000 deg.",
# "Content-Type": "application/octet-stream;",
# "conversions": "x-CBF_BYTE_OFFSET",
# "Content-Transfer-Encoding": "BINARY",
# "X-Binary-Size": "10166590",
# "X-Binary-ID": "1",
# "X-Binary-Element-Type": "signed 32-bit integer",
# "X-Binary-Element-Byte-Order": "LITTLE_ENDIAN",
# "Content-MD5": "3+gkc6qZOOUh+PlPVFVmdw==",
# "X-Binary-Number-of-Elements": "10166590",
# "X-Binary-Size-Fastest-Dimension": "3110",
# "X-Binary-Size-Second-Dimension": "3269",
# "X-Binary-Size-Padding": "4095"
# }
# --> H:/Proxima2a_2019-04-05/RAW_DATA/C5_gel17_position5/C5_mesh_1_data.cbf/C5_mesh_1_data.cbf000125.dat
#        q_A^-1              I           sigma 
  1.105228e-03    1.729611e+00   7.116415e-01
  3.315685e-03    1.294718e+00   3.743114e-01
  5.526141e-03    1.382857e+00   2.991305e-01
  7.736597e-03    1.445766e+00   2.583861e-01
  9.947054e-03    1.461799e+00   2.290448e-01
  1.215751e-02    1.042858e+00   1.749369e-01
  1.436797e-02    1.269315e+00   1.775254e-01
  1.657842e-02    1.557678e+00   1.830557e-01
  1.878888e-02    1.540495e+00   1.709990e-01
  2.099934e-02    1.263759e+00   1.465326e-01
  2.320979e-02    1.198501e+00   1.357226e-01
  2.542025e-02    1.482807e+00   1.442619e-01
  2.763070e-02    1.432808e+00   1.360142e-01
  2.984116e-02    1.291947e+00   1.242793e-01
  3.205162e-02    1.322327e+00   1.213265e-01
  3.426207e-02    1.397490e+00   1.206283e-01
  3.647253e-02    1.568895e+00   1.238758e-01
  3.868299e-02    1.488487e+00   1.171705e-01
  4.089344e-02    1.354349e+00   1.087041e-01
  4.310390e-02    1.421673e+00   1.084735e-01
  4.531436e-02    1.411667e+00   1.054222e-01
  4.752481e-02    1.338474e+00   1.002361e-01
  4.973527e-02    1.416385e+00   1.007958e-01
  5.194572e-02    1.502424e+00   1.015779e-01
  5.415618e-02    1.614040e+00   1.031088e-01
  5.636664e-02    1.487738e+00   9.703503e-02
  5.857709e-02    1.354579e+00   9.082738e-02
  6.078755e-02    1.471242e+00   9.291789e-02
  6.299801e-02    1.487087e+00   9.176238e-02
  6.520846e-02    1.436082e+00   8.863400e-02
  6.741892e-02    1.363839e+00   8.494375e-02
  6.962938e-02    1.533995e+00   8.864991e-02
  7.183983e-02    1.452298e+00   8.491807e-02
  7.405029e-02    1.347278e+00   8.055823e-02
  7.626074e-02    1.442178e+00   8.212959e-02
  7.847120e-02    1.407498e+00   7.998303e-02
  8.068166e-02    1.389550e+00   7.837460e-02
  8.289211e-02    1.483086e+00   7.988218e-02
  8.510257e-02    1.428044e+00   7.736068e-02
  8.731303e-02    1.430445e+00   7.643640e-02
  8.952348e-02    1.443814e+00   7.584086e-02
  9.173394e-02    1.400468e+00   7.378539e-02
  9.394439e-02    1.493156e+00   7.528387e-02
  9.615485e-02    1.553798e+00   7.590790e-02
  9.836531e-02    1.536975e+00   7.464071e-02
  1.005758e-01    1.559298e+00   7.435051e-02
  1.027862e-01    1.525711e+00   7.274851e-02
  1.049967e-01    1.462532e+00   7.047135e-02
  1.072071e-01    1.508802e+00   7.083484e-02
  1.094176e-01    1.461663e+00   6.901063e-02
  1.116280e-01    1.456536e+00   6.820250e-02
  1.138385e-01    1.526579e+00   6.914055e-02
  1.160490e-01    1.535156e+00   6.867019e-02
  1.182594e-01    1.484211e+00   6.688568e-02
  1.204699e-01    1.617682e+00   6.918423e-02
  1.226803e-01    1.593606e+00   6.804323e-02
  1.248908e-01    1.537378e+00   6.623718e-02
  1.271012e-01    1.618986e+00   6.737751e-02
  1.293117e-01    1.572281e+00   6.582773e-02
  1.315222e-01    1.625175e+00   6.635953e-02
  1.337326e-01    1.600345e+00   6.530289e-02
  1.359431e-01    1.619470e+00   6.573040e-02
  1.381535e-01    1.629849e+00   6.682581e-02
  1.403640e-01    1.574854e+00   6.597234e-02
  1.425744e-01    1.583948e+00   6.626823e-02
  1.447849e-01    1.568970e+00   6.596936e-02
  1.469953e-01    1.642605e+00   6.745738e-02
  1.492058e-01    1.546057e+00   6.536882e-02
  1.514163e-01    1.568779e+00   6.573808e-02
  1.536267e-01    1.606558e+00   6.639502e-02
  1.558372e-01    1.635076e+00   6.683386e-02
  1.580476e-01    1.713816e+00   6.825814e-02
  1.602581e-01    1.627525e+00   6.634862e-02
  1.624685e-01    1.628669e+00   6.619019e-02
  1.646790e-01    1.649934e+00   6.642963e-02
  1.668895e-01    1.704697e+00   6.732804e-02
  1.690999e-01    1.716645e+00   6.736070e-02
  1.713104e-01    1.692848e+00   6.668459e-02
  1.735208e-01    1.716999e+00   6.694972e-02
  1.757313e-01    1.712083e+00   6.664429e-02
  1.779417e-01    1.811875e+00   6.833541e-02
  1.801522e-01    1.862609e+00   6.906491e-02
  1.823626e-01    1.854662e+00   6.868794e-02
  1.845731e-01    1.892845e+00   6.916664e-02
  1.867836e-01    2.014487e+00   7.111368e-02
  1.889940e-01    1.963955e+00   6.998670e-02
  1.912045e-01    1.827313e+00   6.728269e-02
  1.934149e-01    1.925632e+00   6.883787e-02
  1.956254e-01    1.971132e+00   6.941671e-02
  1.978358e-01    1.949644e+00   6.880074e-02
  2.000463e-01    1.945263e+00   6.849562e-02
  2.022568e-01    1.979191e+00   6.886362e-02
  2.044672e-01    1.911114e+00   6.743710e-02
  2.066777e-01    1.866230e+00   6.641931e-02
  2.088881e-01    1.859094e+00   6.607529e-02
  2.110986e-01    1.947055e+00   6.738850e-02
  2.133090e-01    1.874948e+00   6.591392e-02
  2.155195e-01    1.894923e+00   6.604429e-02
  2.177300e-01    1.975290e+00   6.690054e-02
  2.199404e-01    1.966363e+00   6.499039e-02
  2.221509e-01    1.950066e+00   6.365776e-02
  2.243613e-01    1.946055e+00   6.278607e-02
  2.265718e-01    2.004785e+00   6.302404e-02
  2.287822e-01    2.058171e+00   6.322561e-02
  2.309927e-01    2.122796e+00   6.362562e-02
  2.332031e-01    2.132582e+00   6.322630e-02
  2.354136e-01    2.087069e+00   6.204104e-02
  2.376241e-01    2.077257e+00   6.141459e-02
  2.398345e-01    2.183165e+00   6.249477e-02
  2.420450e-01    2.219712e+00   6.256535e-02
  2.442554e-01    2.211976e+00   6.202596e-02
  2.464659e-01    2.173512e+00   6.107150e-02
  2.486763e-01    2.139354e+00   6.019146e-02
  2.508868e-01    2.041844e+00   5.843277e-02
  2.530973e-01    2.074319e+00   5.853047e-02
  2.553077e-01    2.093893e+00   5.844926e-02
  2.575182e-01    2.089599e+00   5.804387e-02
  2.597286e-01    2.034586e+00   5.694174e-02
  2.619391e-01    2.078240e+00   5.721807e-02
  2.641495e-01    1.976155e+00   5.548626e-02
  2.663600e-01    2.032398e+00   5.596086e-02
  2.685704e-01    2.070206e+00   5.617281e-02
  2.707809e-01    2.074816e+00   5.593684e-02
  2.729914e-01    2.010471e+00   5.477569e-02
  2.752018e-01    1.967678e+00   5.390754e-02
  2.774123e-01    2.015075e+00   5.427429e-02
  2.796227e-01    1.970290e+00   5.340230e-02
  2.818332e-01    1.932045e+00   5.261767e-02
  2.840436e-01    1.900636e+00   5.193524e-02
  2.862541e-01    1.930200e+00   5.208600e-02
  2.884646e-01    1.949825e+00   5.210169e-02
  2.906750e-01    1.922064e+00   5.148418e-02
  2.928855e-01    1.927377e+00   5.131640e-02
  2.950959e-01    1.988654e+00   5.188631e-02
  2.973064e-01    1.986751e+00   5.162842e-02
  2.995168e-01    1.925004e+00   5.058960e-02
  3.017273e-01    1.972189e+00   5.098012e-02
  3.039377e-01    1.926573e+00   5.016648e-02
  3.061482e-01    1.851256e+00   4.896336e-02
  3.083587e-01    1.852322e+00   4.876546e-02
  3.105691e-01    1.929745e+00   4.956155e-02
  3.127796e-01    1.940486e+00   4.949038e-02
  3.149900e-01    1.882635e+00   4.854395e-02
  3.172005e-01    1.884854e+00   4.837394e-02
  3.194109e-01    1.839753e+00   4.759440e-02
  3.216214e-01    1.824744e+00   4.720645e-02
  3.238319e-01    1.818383e+00   4.693741e-02
  3.260423e-01    1.827587e+00   4.686859e-02
  3.282528e-01    1.904960e+00   4.765996e-02
  3.304632e-01    1.815297e+00   4.634457e-02
  3.326737e-01    1.892375e+00   4.713360e-02
  3.348841e-01    1.858503e+00   4.652876e-02
  3.370946e-01    1.802348e+00   4.564802e-02
  3.393050e-01    1.831997e+00   4.584762e-02
  3.415155e-01    1.854521e+00   4.595514e-02
  3.437260e-01    1.882146e+00   4.612458e-02
  3.459364e-01    1.854776e+00   4.561859e-02
  3.481469e-01    1.816142e+00   4.497623e-02
  3.503573e-01    1.803669e+00   4.465823e-02
  3.525678e-01    1.823179e+00   4.473911e-02
  3.547782e-01    1.812605e+00   4.444793e-02
  3.569887e-01    1.779747e+00   4.388718e-02
  3.591992e-01    1.855289e+00   4.465035e-02
  3.614096e-01    1.844704e+00   4.436844e-02
  3.636201e-01    1.846921e+00   4.423907e-02
  3.658305e-01    1.860356e+00   4.424824e-02
  3.680410e-01    1.807829e+00   4.346907e-02
  3.702514e-01    1.844102e+00   4.375534e-02
  3.724619e-01    1.820765e+00   4.332956e-02
  3.746724e-01    1.780615e+00   4.270618e-02
  3.768828e-01    1.755584e+00   4.226225e-02
  3.790933e-01    1.787752e+00   4.250874e-02
  3.813037e-01    1.748091e+00   4.189701e-02
  3.835142e-01    1.800027e+00   4.237523e-02
  3.857246e-01    1.759704e+00   4.176230e-02
  3.879351e-01    1.757292e+00   4.159860e-02
  3.901455e-01    1.759948e+00   4.149748e-02
  3.923560e-01    1.793815e+00   4.176170e-02
  3.945665e-01    1.802139e+00   4.172574e-02
  3.967769e-01    1.817716e+00   4.177443e-02
  3.989874e-01    1.803317e+00   4.147876e-02
  4.011978e-01    1.782886e+00   4.111628e-02
  4.034083e-01    1.775057e+00   4.089994e-02
  4.056187e-01    1.841392e+00   4.152885e-02
  4.078292e-01    1.777172e+00   4.067478e-02
  4.100397e-01    1.780447e+00   4.058792e-02
  4.122501e-01    1.804608e+00   4.074015e-02
  4.144606e-01    1.759751e+00   4.011133e-02
  4.166710e-01    1.728805e+00   3.963887e-02
  4.188815e-01    1.752680e+00   3.979371e-02
  4.210919e-01    1.827702e+00   4.051737e-02
  4.233024e-01    1.801234e+00   4.010463e-02
  4.255128e-01    1.792545e+00   3.989213e-02
  4.277233e-01    1.823428e+00   4.011870e-02
  4.299338e-01    1.812035e+00   3.987809e-02
  4.321442e-01    1.787473e+00   3.949357e-02
  4.343547e-01    1.787588e+00   3.938316e-02
  4.365651e-01    1.787473e+00   3.927001e-02
  4.387756e-01    1.745332e+00   3.869569e-02
  4.409860e-01    1.779335e+00   3.896254e-02
  4.431965e-01    1.776020e+00   3.881861e-02
  4.454070e-01    1.735294e+00   3.826420e-02
  4.476174e-01    1.710123e+00   3.788137e-02
  4.498279e-01    1.757863e+00   3.830196e-02
  4.520383e-01    1.789074e+00   3.853448e-02
  4.542488e-01    1.697943e+00   3.743901e-02
  4.564592e-01    1.736494e+00   3.776003e-02
  4.586697e-01    1.734770e+00   3.764115e-02
  4.608801e-01    1.658094e+00   3.670130e-02
  4.630906e-01    1.699931e+00   3.706304e-02
  4.653011e-01    1.665997e+00   3.659477e-02
  4.675115e-01    1.687177e+00   3.672964e-02
  4.697220e-01    1.670620e+00   3.645331e-02
  4.719324e-01    1.659146e+00   3.623392e-02
  4.741429e-01    1.692134e+00   3.649807e-02
  4.763533e-01    1.711541e+00   3.661269e-02
  4.785638e-01    1.687957e+00   3.626562e-02
  4.807743e-01    1.666262e+00   3.594019e-02
  4.829847e-01    1.690144e+00   3.610538e-02
  4.851952e-01    1.671842e+00   3.581850e-02
  4.874056e-01    1.716979e+00   3.620727e-02
  4.896161e-01    1.710327e+00   3.604745e-02
  4.918265e-01    1.710242e+00   3.595705e-02
  4.940370e-01    1.677327e+00   3.552143e-02
  4.962475e-01    1.720858e+00   3.589057e-02
  4.984579e-01    1.695376e+00   3.553604e-02
  5.006684e-01    1.665655e+00   3.513731e-02
  5.028788e-01    1.716539e+00   3.558354e-02
  5.050893e-01    1.705865e+00   3.538645e-02
  5.072997e-01    1.696174e+00   3.520059e-02
  5.095102e-01    1.670377e+00   3.484821e-02
  5.117206e-01    1.686272e+00   3.493037e-02
  5.139311e-01    1.671134e+00   3.469091e-02
  5.161416e-01    1.694444e+00   3.484950e-02
  5.183520e-01    1.705077e+00   3.487556e-02
  5.205625e-01    1.674202e+00   3.447744e-02
  5.227729e-01    1.662087e+00   3.427233e-02
  5.249834e-01    1.652265e+00   3.409158e-02
  5.271938e-01    1.663736e+00   3.412990e-02
  5.294043e-01    1.654068e+00   3.395206e-02
  5.316148e-01    1.694464e+00   3.428543e-02
  5.338252e-01    1.729296e+00   3.455688e-02
  5.360357e-01    1.707060e+00   3.425584e-02
  5.382461e-01    1.757586e+00   3.468049e-02
  5.404566e-01    1.762967e+00   3.465454e-02
  5.426670e-01    1.733098e+00   3.428227e-02
  5.448775e-01    1.691651e+00   3.379421e-02
  5.470879e-01    1.728111e+00   3.408027e-02
  5.492984e-01    1.742991e+00   3.415056e-02
  5.515089e-01    1.776977e+00   3.440544e-02
  5.537193e-01    1.766499e+00   3.422825e-02
  5.559298e-01    1.812629e+00   3.459626e-02
  5.581402e-01    1.752178e+00   3.394017e-02
  5.603507e-01    1.748288e+00   3.382866e-02
  5.625611e-01    1.767534e+00   3.394055e-02
  5.647716e-01    1.770183e+00   3.389223e-02
  5.669821e-01    1.814037e+00   3.423549e-02
  5.691925e-01    1.818840e+00   3.420723e-02
  5.714030e-01    1.760146e+00   3.357903e-02
  5.736134e-01    1.691571e+00   3.284839e-02
  5.758239e-01    1.720414e+00   3.305654e-02
  5.780343e-01    1.709175e+00   3.287869e-02
  5.802448e-01    1.704004e+00   3.276020e-02
  5.824552e-01    1.620993e+00   3.188525e-02
  5.846657e-01    1.561218e+00   3.122658e-02
  5.868762e-01    1.619198e+00   3.173493e-02
  5.890866e-01    1.601787e+00   3.149837e-02
  5.912971e-01    1.613276e+00   3.154568e-02
  5.935075e-01    1.653449e+00   3.187003e-02
  5.957180e-01    1.643056e+00   3.170453e-02
  5.979284e-01    1.607426e+00   3.129487e-02
  6.001389e-01    1.627663e+00   3.142713e-02
  6.023494e-01    1.602530e+00   3.112023e-02
  6.045598e-01    1.638280e+00   3.140136e-02
  6.067703e-01    1.661242e+00   3.155708e-02
  6.089807e-01    1.661825e+00   3.149917e-02
  6.111912e-01    1.629898e+00   3.113282e-02
  6.134016e-01    1.653238e+00   3.129239e-02
  6.156121e-01    1.677694e+00   3.146034e-02
  6.178226e-01    1.693729e+00   3.154776e-02
  6.200330e-01    1.655411e+00   3.112732e-02
  6.222435e-01    1.693642e+00   3.142234e-02
  6.244539e-01    1.722498e+00   3.162684e-02
  6.266644e-01    1.749850e+00   3.181478e-02
  6.288748e-01    1.702435e+00   3.131971e-02
  6.310853e-01    1.737801e+00   3.158192e-02
  6.332957e-01    1.715659e+00   3.131947e-02
  6.355062e-01    1.722531e+00   3.132118e-02
  6.377167e-01    1.691840e+00   3.098134e-02
  6.399271e-01    1.682329e+00   3.083493e-02
  6.421376e-01    1.721231e+00   3.112987e-02
  6.443480e-01    1.701079e+00   3.088824e-02
  6.465585e-01    1.660454e+00   3.045935e-02
  6.487689e-01    1.661681e+00   3.041306e-02
  6.509794e-01    1.648028e+00   3.023077e-02
  6.531899e-01    1.580729e+00   2.955137e-02
  6.554003e-01    1.626395e+00   2.991883e-02
  6.576108e-01    1.628639e+00   2.988375e-02
  6.598212e-01    1.594657e+00   2.951539e-02
  6.620317e-01    1.583411e+00   2.935661e-02
  6.642421e-01    1.591289e+00   2.937509e-02
  6.664526e-01    1.570623e+00   2.912998e-02
  6.686630e-01    1.558602e+00   2.896461e-02
  6.708735e-01    1.593718e+00   2.923536e-02
  6.730840e-01    1.568947e+00   2.895441e-02
  6.752944e-01    1.562385e+00   2.884123e-02
  6.775049e-01    1.568830e+00   2.884819e-02
  6.797153e-01    1.576937e+00   2.887025e-02
  6.819258e-01    1.589408e+00   2.893191e-02
  6.841362e-01    1.618125e+00   2.913961e-02
  6.863467e-01    1.640560e+00   2.928837e-02
  6.885572e-01    1.640545e+00   2.923577e-02
  6.907676e-01    1.622162e+00   2.901941e-02
  6.929781e-01    1.561589e+00   2.842185e-02
  6.951885e-01    1.568329e+00   2.843265e-02
  6.973990e-01    1.611400e+00   2.876949e-02
  6.996094e-01    1.559788e+00   2.825521e-02
  7.018199e-01    1.597359e+00   2.854328e-02
  7.040303e-01    1.598689e+00   2.850501e-02
  7.062408e-01    1.594634e+00   2.841897e-02
  7.084513e-01    1.598808e+00   2.840664e-02
  7.106617e-01    1.582583e+00   2.821302e-02
  7.128722e-01    1.595814e+00   2.828170e-02
  7.150826e-01    1.557133e+00   2.788869e-02
  7.172931e-01    1.591002e+00   2.814174e-02
  7.195035e-01    1.579757e+00   2.799393e-02
  7.217140e-01    1.560952e+00   2.787604e-02
  7.239245e-01    1.584680e+00   2.831457e-02
  7.261349e-01    1.534159e+00   2.796678e-02
  7.283454e-01    1.563504e+00   2.830511e-02
  7.305558e-01    1.579708e+00   2.850550e-02
  7.327663e-01    1.579276e+00   2.854417e-02
  7.349767e-01    1.573700e+00   2.851011e-02
  7.371872e-01    1.565698e+00   2.842638e-02
  7.393976e-01    1.528870e+00   2.807600e-02
  7.416081e-01    1.572052e+00   2.845359e-02
  7.438186e-01    1.542907e+00   2.804574e-02
  7.460290e-01    1.576168e+00   2.805202e-02
  7.482395e-01    1.576375e+00   2.788264e-02
  7.504499e-01    1.549046e+00   2.750470e-02
  7.526604e-01    1.569139e+00   2.756616e-02
  7.548708e-01    1.559671e+00   2.739390e-02
  7.570813e-01    1.545864e+00   2.722186e-02
  7.592918e-01    1.579768e+00   2.748351e-02
  7.615022e-01    1.621090e+00   2.780635e-02
  7.637127e-01    1.582453e+00   2.744013e-02
  7.659231e-01    1.542064e+00   2.705603e-02
  7.681336e-01    1.555649e+00   2.714350e-02
  7.703440e-01    1.564975e+00   2.719365e-02
  7.725545e-01    1.559427e+00   2.711464e-02
  7.747650e-01    1.603088e+00   2.745307e-02
  7.769754e-01    1.602236e+00   2.739263e-02
  7.791859e-01    1.582959e+00   2.717374e-02
  7.813963e-01    1.566471e+00   2.697945e-02
  7.836068e-01    1.590490e+00   2.713341e-02
  7.858172e-01    1.620386e+00   2.733604e-02
  7.880277e-01    1.567827e+00   2.683789e-02
  7.902381e-01    1.595969e+00   2.702848e-02
  7.924486e-01    1.611726e+00   2.711129e-02
  7.946591e-01    1.598447e+00   2.695109e-02
  7.968695e-01    1.578951e+00   2.673831e-02
  7.990800e-01    1.608929e+00   2.694269e-02
  8.012904e-01    1.609696e+00   2.690251e-02
  8.035009e-01    1.622304e+00   2.695959e-02
  8.057113e-01    1.627532e+00   2.695632e-02
  8.079218e-01    1.584374e+00   2.655062e-02
  8.101323e-01    1.564752e+00   2.634087e-02
  8.123427e-01    1.642462e+00   2.694101e-02
  8.145532e-01    1.649601e+00   2.695332e-02
  8.167636e-01    1.640903e+00   2.683696e-02
  8.189741e-01    1.617847e+00   2.660333e-02
  8.211845e-01    1.628446e+00   2.664559e-02
  8.233950e-01    1.625355e+00   2.657701e-02
  8.256054e-01    1.621684e+00   2.650298e-02
  8.278159e-01    1.595517e+00   2.624490e-02
  8.300264e-01    1.635763e+00   2.653078e-02
  8.322368e-01    1.647228e+00   2.658037e-02
  8.344473e-01    1.682600e+00   2.682028e-02
  8.366577e-01    1.656167e+00   2.656599e-02
  8.388682e-01    1.621987e+00   2.624839e-02
  8.410786e-01    1.634427e+00   2.630686e-02
  8.432891e-01    1.626247e+00   2.619927e-02
  8.454996e-01    1.621661e+00   2.612090e-02
  8.477100e-01    1.612384e+00   2.600473e-02
  8.499205e-01    1.649047e+00   2.625742e-02
  8.521309e-01    1.650696e+00   2.622959e-02
  8.543414e-01    1.649530e+00   2.617941e-02
  8.565518e-01    1.634049e+00   2.601572e-02
  8.587623e-01    1.620712e+00   2.586899e-02
  8.609727e-01    1.604427e+00   2.569878e-02
  8.631832e-01    1.598488e+00   2.561162e-02
  8.653937e-01    1.631705e+00   2.583659e-02
  8.676041e-01    1.581862e+00   2.540056e-02
  8.698146e-01    1.538897e+00   2.501493e-02
  8.720250e-01    1.578368e+00   2.529506e-02
  8.742355e-01    1.607612e+00   2.548949e-02
  8.764459e-01    1.571904e+00   2.516637e-02
  8.786564e-01    1.598082e+00   2.533721e-02
  8.808669e-01    1.600029e+00   2.531422e-02
  8.830773e-01    1.592886e+00   2.521962e-02
  8.852878e-01    1.578555e+00   2.506828e-02
  8.874982e-01    1.567064e+00   2.494061e-02
  8.897087e-01    1.566993e+00   2.490278e-02
  8.919191e-01    1.564556e+00   2.484606e-02
  8.941296e-01    1.560858e+00   2.477988e-02
  8.963401e-01    1.564873e+00   2.477568e-02
  8.985505e-01    1.628746e+00   2.523897e-02
  9.007610e-01    1.615574e+00   2.509980e-02
  9.029714e-01    1.637296e+00   2.523171e-02
  9.051819e-01    1.622380e+00   2.507905e-02
  9.073923e-01    1.616311e+00   2.499532e-02
  9.096028e-01    1.633108e+00   2.508960e-02
  9.118132e-01    1.614676e+00   2.491122e-02
  9.140237e-01    1.610380e+00   2.484132e-02
  9.162342e-01    1.600526e+00   2.473065e-02
  9.184446e-01    1.561276e+00   2.439020e-02
  9.206551e-01    1.578287e+00   2.448736e-02
  9.228655e-01    1.573908e+00   2.441841e-02
  9.250760e-01    1.607611e+00   2.464305e-02
  9.272864e-01    1.600389e+00   2.455341e-02
  9.294969e-01    1.595502e+00   2.448015e-02
  9.317074e-01    1.595846e+00   2.444819e-02
  9.339178e-01    1.622210e+00   2.461565e-02
  9.361283e-01    1.641136e+00   2.472233e-02
  9.383387e-01    1.608227e+00   2.443992e-02
  9.405492e-01    1.619481e+00   2.449103e-02
  9.427596e-01    1.659419e+00   2.475548e-02
  9.449701e-01    1.669207e+00   2.479466e-02
  9.471805e-01    1.647396e+00   2.459725e-02
  9.493910e-01    1.667230e+00   2.471088e-02
  9.516015e-01    1.711393e+00   2.500110e-02
  9.538119e-01    1.691551e+00   2.482169e-02
  9.560224e-01    1.690509e+00   2.477910e-02
  9.582328e-01    1.718504e+00   2.494991e-02
  9.604433e-01    1.731771e+00   2.501058e-02
  9.626537e-01    1.740778e+00   2.504181e-02
  9.648642e-01    1.771003e+00   2.522367e-02
  9.670747e-01    1.801523e+00   2.540501e-02
  9.692851e-01    1.837913e+00   2.562620e-02
  9.714956e-01    1.850986e+00   2.568092e-02
  9.737060e-01    1.916557e+00   2.609750e-02
  9.759165e-01    1.946203e+00   2.626150e-02
  9.781269e-01    1.998958e+00   2.658023e-02
  9.803374e-01    1.951762e+00   2.622826e-02
  9.825478e-01    1.883642e+00   2.573250e-02
  9.847583e-01    1.887472e+00   2.572365e-02
  9.869688e-01    1.936926e+00   2.602358e-02
  9.891792e-01    1.940365e+00   2.601207e-02
  9.913897e-01    1.922193e+00   2.585503e-02
  9.936001e-01    1.837783e+00   2.524791e-02
  9.958106e-01    1.723220e+00   2.441506e-02
  9.980210e-01    1.686462e+00   2.412190e-02
  1.000231e+00    1.656203e+00   2.403546e-02
  1.002442e+00    1.648819e+00   2.410925e-02
  1.004652e+00    1.623573e+00   2.399070e-02
  1.006863e+00    1.589945e+00   2.379022e-02
  1.009073e+00    1.607849e+00   2.396038e-02
  1.011284e+00    1.600469e+00   2.393733e-02
  1.013494e+00    1.530631e+00   2.343244e-02
  1.015705e+00    1.520166e+00   2.337426e-02
  1.017915e+00    1.508637e+00   2.330152e-02
  1.020126e+00    1.502547e+00   2.327013e-02
  1.022336e+00    1.518774e+00   2.340698e-02
  1.024547e+00    1.546322e+00   2.362951e-02
  1.026757e+00    1.499141e+00   2.327449e-02
  1.028967e+00    1.463593e+00   2.300434e-02
  1.031178e+00    1.484362e+00   2.317305e-02
  1.033388e+00    1.474752e+00   2.310290e-02
  1.035599e+00    1.478813e+00   2.313803e-02
  1.037809e+00    1.510044e+00   2.338431e-02
  1.040020e+00    1.521539e+00   2.347445e-02
  1.042230e+00    1.477728e+00   2.313592e-02
  1.044441e+00    1.468221e+00   2.306117e-02
  1.046651e+00    1.469153e+00   2.306864e-02
  1.048862e+00    1.501835e+00   2.332302e-02
  1.051072e+00    1.508919e+00   2.337561e-02
  1.053282e+00    1.511717e+00   2.339632e-02
  1.055493e+00    1.473583e+00   2.309508e-02
  1.057703e+00    1.464607e+00   2.302313e-02
  1.059914e+00    1.463970e+00   2.301388e-02
  1.062124e+00    1.462109e+00   2.299524e-02
  1.064335e+00    1.444516e+00   2.285309e-02
  1.066545e+00    1.434090e+00   2.276456e-02
  1.068756e+00    1.427228e+00   2.270637e-02
  1.070966e+00    1.443400e+00   2.282817e-02
  1.073177e+00    1.433450e+00   2.274340e-02
  1.075387e+00    1.449709e+00   2.286682e-02
  1.077597e+00    1.435027e+00   2.274356e-02
  1.079808e+00    1.443681e+00   2.268022e-02
  1.082018e+00    1.451738e+00   2.255509e-02
  1.084229e+00    1.421695e+00   2.221191e-02
  1.086439e+00    1.410215e+00   2.203597e-02
  1.088650e+00    1.413876e+00   2.198994e-02
  1.090860e+00    1.415582e+00   2.193649e-02
  1.093071e+00    1.414377e+00   2.186574e-02
  1.095281e+00    1.424095e+00   2.188392e-02
  1.097492e+00    1.424497e+00   2.183250e-02
  1.099702e+00    1.413828e+00   2.169967e-02
  1.101912e+00    1.396679e+00   2.151956e-02
  1.104123e+00    1.369609e+00   2.126287e-02
  1.106333e+00    1.401591e+00   2.146577e-02
  1.108544e+00    1.425305e+00   2.160242e-02
  1.110754e+00    1.386387e+00   2.126305e-02
  1.112965e+00    1.401170e+00   2.133586e-02
  1.115175e+00    1.426059e+00   2.148327e-02
  1.117386e+00    1.387293e+00   2.115037e-02
  1.119596e+00    1.398749e+00   2.119982e-02
  1.121807e+00    1.387179e+00   2.107349e-02
  1.124017e+00    1.380819e+00   2.098878e-02
  1.126228e+00    1.403055e+00   2.112138e-02
  1.128438e+00    1.366534e+00   2.080838e-02
  1.130648e+00    1.386647e+00   2.092675e-02
  1.132859e+00    1.394983e+00   2.095525e-02
  1.135069e+00    1.383801e+00   2.083647e-02
  1.137280e+00    1.382008e+00   2.079007e-02
  1.139490e+00    1.373838e+00   2.069562e-02
  1.141701e+00    1.377931e+00   2.069337e-02
  1.143911e+00    1.392778e+00   2.077262e-02
  1.146122e+00    1.341918e+00   2.035824e-02
  1.148332e+00    1.360905e+00   2.047008e-02
  1.150543e+00    1.358864e+00   2.042412e-02
  1.152753e+00    1.342683e+00   2.027168e-02
  1.154963e+00    1.355374e+00   2.033641e-02
  1.157174e+00    1.354153e+00   2.029733e-02
  1.159384e+00    1.326835e+00   2.006218e-02
  1.161595e+00    1.350765e+00   2.021266e-02
  1.163805e+00    1.332127e+00   2.004386e-02
  1.166016e+00    1.343890e+00   2.010299e-02
  1.168226e+00    1.361633e+00   2.020635e-02
  1.170437e+00    1.370106e+00   2.024044e-02
  1.172647e+00    1.387135e+00   2.033673e-02
  1.174858e+00    1.374016e+00   2.021215e-02
  1.177068e+00    1.379087e+00   2.022097e-02
  1.179278e+00    1.380362e+00   2.020156e-02
  1.181489e+00    1.367565e+00   2.008060e-02
  1.183699e+00    1.374636e+00   2.010472e-02
  1.185910e+00    1.363199e+00   1.999308e-02
  1.188120e+00    1.372136e+00   2.003167e-02
  1.190331e+00    1.369244e+00   1.998365e-02
  1.192541e+00    1.395948e+00   2.014977e-02
  1.194752e+00    1.386925e+00   2.005718e-02
  1.196962e+00    1.364351e+00   1.986741e-02
  1.199173e+00    1.366037e+00   1.985303e-02
  1.201383e+00    1.349293e+00   1.970383e-02
  1.203593e+00    1.336493e+00   1.958546e-02
  1.205804e+00    1.321454e+00   1.944929e-02
  1.208014e+00    1.344361e+00   1.959035e-02
  1.210225e+00    1.332590e+00   1.947924e-02
  1.212435e+00    1.316635e+00   1.933780e-02
  1.214646e+00    1.328486e+00   1.939872e-02
  1.216856e+00    1.347129e+00   1.950892e-02
  1.219067e+00    1.317585e+00   1.926965e-02
  1.221277e+00    1.317527e+00   1.924448e-02
  1.223488e+00    1.346731e+00   1.943089e-02
  1.225698e+00    1.332090e+00   1.929826e-02
  1.227909e+00    1.343140e+00   1.934804e-02
  1.230119e+00    1.340582e+00   1.929788e-02
  1.232329e+00    1.335214e+00   1.922864e-02
  1.234540e+00    1.347290e+00   1.928514e-02
  1.236750e+00    1.346215e+00   1.924724e-02
  1.238961e+00    1.316000e+00   1.900338e-02
  1.241171e+00    1.314593e+00   1.896934e-02
  1.243382e+00    1.340371e+00   1.913100e-02
  1.245592e+00    1.356524e+00   1.922178e-02
  1.247803e+00    1.349957e+00   1.915155e-02
  1.250013e+00    1.348549e+00   1.911801e-02
  1.252224e+00    1.361542e+00   1.918655e-02
  1.254434e+00    1.354744e+00   1.911482e-02
  1.256644e+00    1.353424e+00   1.908225e-02
  1.258855e+00    1.352239e+00   1.905062e-02
  1.261065e+00    1.327682e+00   1.885365e-02
  1.263276e+00    1.350301e+00   1.899064e-02
  1.265486e+00    1.340310e+00   1.889745e-02
  1.267697e+00    1.343705e+00   1.889842e-02
  1.269907e+00    1.342924e+00   1.887028e-02
  1.272118e+00    1.334335e+00   1.878741e-02
  1.274328e+00    1.355445e+00   1.891264e-02
  1.276539e+00    1.349868e+00   1.885092e-02
  1.278749e+00    1.358973e+00   1.889202e-02
  1.280959e+00    1.370702e+00   1.895066e-02
  1.283170e+00    1.386961e+00   1.904000e-02
  1.285380e+00    1.366562e+00   1.887687e-02
  1.287591e+00    1.384341e+00   1.897696e-02
  1.289801e+00    1.349181e+00   1.871321e-02
  1.292012e+00    1.342743e+00   1.865144e-02
  1.294222e+00    1.382322e+00   1.890791e-02
  1.296433e+00    1.344685e+00   1.863316e-02
  1.298643e+00    1.346151e+00   1.862687e-02
  1.300854e+00    1.316288e+00   1.840289e-02
  1.303064e+00    1.328524e+00   1.846915e-02
  1.305274e+00    1.347574e+00   1.857968e-02
  1.307485e+00    1.334463e+00   1.846767e-02
  1.309695e+00    1.329501e+00   1.841122e-02
  1.311906e+00    1.333609e+00   1.841806e-02
  1.314116e+00    1.341671e+00   1.845291e-02
  1.316327e+00    1.372561e+00   1.864227e-02
  1.318537e+00    1.369057e+00   1.859643e-02
  1.320748e+00    1.365953e+00   1.855365e-02
  1.322958e+00    1.378364e+00   1.861702e-02
  1.325169e+00    1.354833e+00   1.843635e-02
  1.327379e+00    1.357491e+00   1.843256e-02
  1.329589e+00    1.384228e+00   1.859186e-02
  1.331800e+00    1.379015e+00   1.853592e-02
  1.334010e+00    1.359141e+00   1.838113e-02
  1.336221e+00    1.375923e+00   1.847230e-02
  1.338431e+00    1.363346e+00   1.836673e-02
  1.340642e+00    1.371366e+00   1.848532e-02
  1.342852e+00    1.376052e+00   1.861854e-02
  1.345063e+00    1.362519e+00   1.857647e-02
  1.347273e+00    1.352861e+00   1.854579e-02
  1.349484e+00    1.348481e+00   1.854340e-02
  1.351694e+00    1.374398e+00   1.874366e-02
  1.353905e+00    1.357647e+00   1.864715e-02
  1.356115e+00    1.359383e+00   1.867416e-02
  1.358325e+00    1.353878e+00   1.864963e-02
  1.360536e+00    1.357750e+00   1.868795e-02
  1.362746e+00    1.360023e+00   1.871318e-02
  1.364957e+00    1.345569e+00   1.862114e-02
  1.367167e+00    1.319755e+00   1.844873e-02
  1.369378e+00    1.318875e+00   1.844853e-02
  1.371588e+00    1.326030e+00   1.850361e-02
  1.373799e+00    1.308511e+00   1.838460e-02
  1.376009e+00    1.327545e+00   1.852121e-02
  1.378220e+00    1.323674e+00   1.849671e-02
  1.380430e+00    1.302660e+00   1.835197e-02
  1.382640e+00    1.312709e+00   1.842353e-02
  1.384851e+00    1.301077e+00   1.834259e-02
  1.387061e+00    1.312246e+00   1.842143e-02
  1.389272e+00    1.306378e+00   1.838043e-02
  1.391482e+00    1.267602e+00   1.810492e-02
  1.393693e+00    1.263931e+00   1.807781e-02
  1.395903e+00    1.260073e+00   1.804871e-02
  1.398114e+00    1.302102e+00   1.834586e-02
  1.400324e+00    1.292135e+00   1.827338e-02
  1.402535e+00    1.277823e+00   1.816957e-02
  1.404745e+00    1.314698e+00   1.842746e-02
  1.406955e+00    1.302061e+00   1.833599e-02
  1.409166e+00    1.280284e+00   1.817868e-02
  1.411376e+00    1.259924e+00   1.803045e-02
  1.413587e+00    1.266099e+00   1.807076e-02
  1.415797e+00    1.287655e+00   1.822039e-02
  1.418008e+00    1.283978e+00   1.815227e-02
  1.420218e+00    1.252880e+00   1.778238e-02
  1.422429e+00    1.258030e+00   1.773396e-02
  1.424639e+00    1.273789e+00   1.777992e-02
  1.426850e+00    1.256798e+00   1.760652e-02
  1.429060e+00    1.261965e+00   1.759383e-02
  1.431270e+00    1.278452e+00   1.766394e-02
  1.433481e+00    1.283502e+00   1.765762e-02
  1.435691e+00    1.278092e+00   1.758181e-02
  1.437902e+00    1.272503e+00   1.750683e-02
  1.440112e+00    1.281421e+00   1.753256e-02
  1.442323e+00    1.274660e+00   1.745315e-02
  1.444533e+00    1.268210e+00   1.737640e-02
  1.446744e+00    1.250118e+00   1.722114e-02
  1.448954e+00    1.251220e+00   1.719875e-02
  1.451165e+00    1.256181e+00   1.720322e-02
  1.453375e+00    1.238159e+00   1.705169e-02
  1.455586e+00    1.244688e+00   1.706869e-02
  1.457796e+00    1.251722e+00   1.708953e-02
  1.460006e+00    1.282074e+00   1.726811e-02
  1.462217e+00    1.268064e+00   1.714732e-02
  1.464427e+00    1.262856e+00   1.708652e-02
  1.466638e+00    1.277261e+00   1.715827e-02
  1.468848e+00    1.267295e+00   1.706592e-02
  1.471059e+00    1.259190e+00   1.698625e-02
  1.473269e+00    1.268011e+00   1.702128e-02
  1.475480e+00    1.264035e+00   1.697086e-02
  1.477690e+00    1.256635e+00   1.689737e-02
  1.479901e+00    1.261551e+00   1.690662e-02
  1.482111e+00    1.255090e+00   1.684006e-02
  1.484321e+00    1.244204e+00   1.674396e-02
  1.486532e+00    1.250085e+00   1.676130e-02
  1.488742e+00    1.255293e+00   1.677362e-02
  1.490953e+00    1.215748e+00   1.648513e-02
  1.493163e+00    1.231523e+00   1.656972e-02
  1.495374e+00    1.261318e+00   1.674750e-02
  1.497584e+00    1.249426e+00   1.664683e-02
  1.499795e+00    1.235263e+00   1.653076e-02
  1.502005e+00    1.253530e+00   1.663092e-02
  1.504216e+00    1.231330e+00   1.646220e-02
  1.506426e+00    1.219435e+00   1.636199e-02
  1.508636e+00    1.241835e+00   1.649126e-02
  1.510847e+00    1.250043e+00   1.652392e-02
  1.513057e+00    1.219421e+00   1.629556e-02
  1.515268e+00    1.224864e+00   1.630645e-02
  1.517478e+00    1.240969e+00   1.638830e-02
  1.519689e+00    1.228349e+00   1.628005e-02
  1.521899e+00    1.236379e+00   1.631022e-02
  1.524110e+00    1.258496e+00   1.643509e-02
  1.526320e+00    1.263047e+00   1.644511e-02
  1.528531e+00    1.246284e+00   1.631590e-02
  1.530741e+00    1.238526e+00   1.624597e-02
  1.532951e+00    1.234000e+00   1.619679e-02
  1.535162e+00    1.219232e+00   1.618513e-02
  1.537372e+00    1.236551e+00   1.636624e-02
  1.539583e+00    1.254489e+00   1.651885e-02
  1.541793e+00    1.261801e+00   1.657390e-02
  1.544004e+00    1.241927e+00   1.644313e-02
  1.546214e+00    1.224776e+00   1.632770e-02
  1.548425e+00    1.230119e+00   1.636353e-02
  1.550635e+00    1.216693e+00   1.628354e-02
  1.552846e+00    1.218467e+00   1.630499e-02
  1.555056e+00    1.189559e+00   1.606983e-02
  1.557266e+00    1.210824e+00   1.610390e-02
  1.559477e+00    1.210530e+00   1.604362e-02
  1.561687e+00    1.225278e+00   1.611063e-02
  1.563898e+00    1.225381e+00   1.609429e-02
  1.566108e+00    1.235542e+00   1.614497e-02
  1.568319e+00    1.274442e+00   1.638135e-02
  1.570529e+00    1.265238e+00   1.629675e-02
  1.572740e+00    1.237283e+00   1.608818e-02
  1.574950e+00    1.247706e+00   1.612943e-02
  1.577161e+00    1.269805e+00   1.624592e-02
  1.579371e+00    1.226481e+00   1.594291e-02
  1.581582e+00    1.229309e+00   1.594158e-02
  1.583792e+00    1.248369e+00   1.604668e-02
  1.586002e+00    1.215110e+00   1.581406e-02
  1.588213e+00    1.254197e+00   1.604906e-02
  1.590423e+00    1.256904e+00   1.604622e-02
  1.592634e+00    1.243920e+00   1.594150e-02
  1.594844e+00    1.235817e+00   1.586816e-02
  1.597055e+00    1.227345e+00   1.579330e-02
  1.599265e+00    1.230316e+00   1.579177e-02
  1.601476e+00    1.238259e+00   1.582240e-02
  1.603686e+00    1.224777e+00   1.571636e-02
  1.605897e+00    1.224250e+00   1.569297e-02
  1.608107e+00    1.226735e+00   1.568939e-02
  1.610317e+00    1.246478e+00   1.579576e-02
  1.612528e+00    1.277527e+00   1.597179e-02
  1.614738e+00    1.241150e+00   1.572374e-02
  1.616949e+00    1.227835e+00   1.562017e-02
  1.619159e+00    1.206470e+00   1.546509e-02
  1.621370e+00    1.195180e+00   1.537427e-02
  1.623580e+00    1.203829e+00   1.541154e-02
  1.625791e+00    1.193252e+00   1.532555e-02
  1.628001e+00    1.181891e+00   1.523432e-02
  1.630212e+00    1.171633e+00   1.515046e-02
  1.632422e+00    1.160162e+00   1.505842e-02
  1.634632e+00    1.146919e+00   1.495518e-02
  1.636843e+00    1.148990e+00   1.495134e-02
  1.639053e+00    1.144448e+00   1.490469e-02
  1.641264e+00    1.153279e+00   1.494512e-02
  1.643474e+00    1.147739e+00   1.489188e-02
  1.645685e+00    1.167329e+00   1.500172e-02
  1.647895e+00    1.145495e+00   1.484424e-02
  1.650106e+00    1.126906e+00   1.470649e-02
  1.652316e+00    1.112338e+00   1.459488e-02
  1.654527e+00    1.107157e+00   1.454444e-02
  1.656737e+00    1.129780e+00   1.467578e-02
  1.658947e+00    1.126254e+00   1.463660e-02
  1.661158e+00    1.120997e+00   1.458620e-02
  1.663368e+00    1.122317e+00   1.457875e-02
  1.665579e+00    1.143485e+00   1.469927e-02
  1.667789e+00    1.118179e+00   1.451948e-02
  1.670000e+00    1.111159e+00   1.445835e-02
  1.672210e+00    1.052125e+00   1.405358e-02
  1.674421e+00    1.057085e+00   1.407164e-02
  1.676631e+00    1.069531e+00   1.413861e-02
  1.678842e+00    1.072531e+00   1.414285e-02
  1.681052e+00    1.080919e+00   1.418273e-02
  1.683263e+00    1.070979e+00   1.410239e-02
  1.685473e+00    1.056078e+00   1.398898e-02
  1.687683e+00    1.092048e+00   1.420973e-02
  1.689894e+00    1.073413e+00   1.407227e-02
  1.692104e+00    1.058693e+00   1.396064e-02
  1.694315e+00    1.039584e+00   1.381981e-02
  1.696525e+00    1.038277e+00   1.379617e-02
  1.698736e+00    1.041318e+00   1.380172e-02
  1.700946e+00    1.030915e+00   1.371767e-02
  1.703157e+00    1.043688e+00   1.378785e-02
  1.705367e+00    1.041175e+00   1.375682e-02
  1.707578e+00    1.011478e+00   1.354492e-02
  1.709788e+00    1.018480e+00   1.357775e-02
  1.711998e+00    1.015280e+00   1.354163e-02
  1.714209e+00    9.918923e-01   1.337061e-02
  1.716419e+00    1.015106e+00   1.351205e-02
  1.718630e+00    9.918885e-01   1.334264e-02
  1.720840e+00    1.015708e+00   1.348779e-02
  1.723051e+00    9.927121e-01   1.332060e-02
  1.725261e+00    9.730745e-01   1.317385e-02
  1.727472e+00    1.002496e+00   1.335746e-02
  1.729682e+00    9.917438e-01   1.327235e-02
  1.731893e+00    9.882191e-01   1.323497e-02
  1.734103e+00    1.000696e+00   1.330455e-02
  1.736313e+00    9.676818e-01   1.306950e-02
  1.738524e+00    9.844460e-01   1.316849e-02
  1.740734e+00    9.871377e-01   1.317290e-02
  1.742945e+00    9.539950e-01   1.293670e-02
  1.745155e+00    9.415978e-01   1.283925e-02
  1.747366e+00    9.699149e-01   1.301721e-02
  1.749576e+00    9.722065e-01   1.301901e-02
  1.751787e+00    9.470153e-01   1.283614e-02
  1.753997e+00    9.533291e-01   1.286564e-02
  1.756208e+00    9.471464e-01   1.281087e-02
  1.758418e+00    9.351391e-01   1.271652e-02
  1.760628e+00    9.355150e-01   1.270597e-02
  1.762839e+00    9.410189e-01   1.273023e-02
  1.765049e+00    9.524450e-01   1.279425e-02
  1.767260e+00    9.246844e-01   1.259383e-02
  1.769470e+00    9.349708e-01   1.265084e-02
  1.771681e+00    9.307470e-01   1.260923e-02
  1.773891e+00    9.265620e-01   1.256798e-02
  1.776102e+00    9.273490e-01   1.256057e-02
  1.778312e+00    9.257389e-01   1.253706e-02
  1.780523e+00    9.149477e-01   1.245123e-02
  1.782733e+00    9.072327e-01   1.238615e-02
  1.784944e+00    8.798045e-01   1.218499e-02
  1.787154e+00    9.131566e-01   1.240137e-02
  1.789364e+00    9.167942e-01   1.241368e-02
  1.791575e+00    9.127408e-01   1.237376e-02
  1.793785e+00    9.181656e-01   1.239810e-02
  1.795996e+00    9.195882e-01   1.239521e-02
  1.798206e+00    9.107947e-01   1.232334e-02
  1.800417e+00    8.673552e-01   1.201354e-02
  1.802627e+00    8.756907e-01   1.205944e-02
  1.804838e+00    8.730971e-01   1.202972e-02
  1.807048e+00    8.753013e-01   1.203229e-02
  1.809259e+00    8.892146e-01   1.211407e-02
  1.811469e+00    8.956882e-01   1.214321e-02
  1.813679e+00    8.968238e-01   1.213597e-02
  1.815890e+00    8.764037e-01   1.198244e-02
  1.818100e+00    8.626068e-01   1.187294e-02
  1.820311e+00    8.647033e-01   1.187281e-02
  1.822521e+00    8.861219e-01   1.200415e-02
  1.824732e+00    8.803109e-01   1.195000e-02
  1.826942e+00    8.840503e-01   1.196306e-02
  1.829153e+00    8.489686e-01   1.171182e-02
  1.831363e+00    8.946599e-01   1.201073e-02
  1.833574e+00    9.202575e-01   1.216943e-02
  1.835784e+00    9.055532e-01   1.206023e-02
  1.837994e+00    9.003436e-01   1.201361e-02
  1.840205e+00    8.925005e-01   1.194990e-02
  1.842415e+00    8.847589e-01   1.188609e-02
  1.844626e+00    8.826798e-01   1.186048e-02
  1.846836e+00    8.697885e-01   1.176212e-02
  1.849047e+00    8.836790e-01   1.184394e-02
  1.851257e+00    8.587242e-01   1.166597e-02
  1.853468e+00    8.455955e-01   1.156772e-02
  1.855678e+00    8.554891e-01   1.162634e-02
  1.857889e+00    8.666377e-01   1.169331e-02
  1.860099e+00    8.702346e-01   1.170886e-02
  1.862309e+00    8.589000e-01   1.162383e-02
  1.864520e+00    8.762344e-01   1.173187e-02
  1.866730e+00    8.584760e-01   1.160299e-02
  1.868941e+00    8.463219e-01   1.150963e-02
  1.871151e+00    8.641971e-01   1.161908e-02
  1.873362e+00    8.512320e-01   1.152024e-02
  1.875572e+00    8.391525e-01   1.142734e-02
  1.877783e+00    8.389879e-01   1.141485e-02
  1.879993e+00    8.298090e-01   1.134120e-02
  1.882204e+00    8.244167e-01   1.129351e-02
  1.884414e+00    8.234408e-01   1.127590e-02
  1.886624e+00    8.365715e-01   1.135441e-02
  1.888835e+00    8.300405e-01   1.129911e-02
  1.891045e+00    8.234466e-01   1.124338e-02
  1.893256e+00    8.221408e-01   1.122347e-02
  1.895466e+00    8.382591e-01   1.132178e-02
  1.897677e+00    8.198227e-01   1.118577e-02
  1.899887e+00    8.379774e-01   1.129793e-02
  1.902098e+00    8.388901e-01   1.129319e-02
  1.904308e+00    8.551551e-01   1.139141e-02
  1.906519e+00    8.265045e-01   1.118816e-02
  1.908729e+00    8.139343e-01   1.109222e-02
  1.910940e+00    8.387582e-01   1.124888e-02
  1.913150e+00    8.675189e-01   1.142929e-02
  1.915360e+00    8.372657e-01   1.121754e-02
  1.917571e+00    8.378248e-01   1.121030e-02
  1.919781e+00    8.383101e-01   1.120276e-02
  1.921992e+00    8.006986e-01   1.093808e-02
  1.924202e+00    7.970870e-01   1.090273e-02
  1.926413e+00    8.167058e-01   1.102580e-02
  1.928623e+00    8.051413e-01   1.093698e-02
  1.930834e+00    8.085482e-01   1.094968e-02
  1.933044e+00    8.119619e-01   1.096209e-02
  1.935255e+00    8.244619e-01   1.103575e-02
  1.937465e+00    8.140364e-01   1.095532e-02
  1.939675e+00    7.953952e-01   1.081838e-02
  1.941886e+00    8.120599e-01   1.092079e-02
  1.944096e+00    8.035540e-01   1.085327e-02
  1.946307e+00    8.025500e-01   1.083615e-02
  1.948517e+00    7.947202e-01   1.077274e-02
  1.950728e+00    7.873718e-01   1.071265e-02
  1.952938e+00    7.799597e-01   1.065214e-02
  1.955149e+00    7.737807e-01   1.059976e-02
  1.957359e+00    7.745293e-01   1.059499e-02
  1.959570e+00    7.846017e-01   1.065284e-02
  1.961780e+00    7.935902e-01   1.070379e-02
  1.963990e+00    7.887236e-01   1.066081e-02
  1.966201e+00    7.968332e-01   1.070539e-02
  1.968411e+00    7.741495e-01   1.054185e-02
  1.970622e+00    7.906935e-01   1.064379e-02
  1.972832e+00    7.794577e-01   1.055798e-02
  1.975043e+00    7.887752e-01   1.061083e-02
  1.977253e+00    7.670636e-01   1.045394e-02
  1.979464e+00    7.760975e-01   1.050533e-02
  1.981674e+00    7.648432e-01   1.041875e-02
  1.983885e+00    7.573727e-01   1.035787e-02
  1.986095e+00    7.680544e-01   1.042102e-02
  1.988305e+00    7.899334e-01   1.055845e-02
  1.990516e+00    7.973120e-01   1.059762e-02
  1.992726e+00    7.610728e-01   1.034442e-02
  1.994937e+00    7.848466e-01   1.049455e-02
  1.997147e+00    7.883006e-01   1.050782e-02
  1.999358e+00    7.818776e-01   1.045503e-02
  2.001568e+00    7.684867e-01   1.035433e-02
  2.003779e+00    7.583617e-01   1.027409e-02
  2.005989e+00    7.554469e-01   1.024243e-02
  2.008200e+00    7.795922e-01   1.039321e-02
  2.010410e+00    7.705615e-01   1.032110e-02
  2.012621e+00    7.653208e-01   1.027426e-02
  2.014831e+00    7.594908e-01   1.022363e-02
  2.017041e+00    7.662101e-01   1.025839e-02
  2.019252e+00    7.554924e-01   1.017650e-02
  2.021462e+00    7.566720e-01   1.017498e-02
  2.023673e+00    7.414709e-01   1.006301e-02
  2.025883e+00    7.573643e-01   1.016080e-02
  2.028094e+00    7.541606e-01   1.012971e-02
  2.030304e+00    7.457681e-01   1.006375e-02
  2.032515e+00    7.611752e-01   1.015786e-02
  2.034725e+00    7.491111e-01   1.006768e-02
  2.036936e+00    7.495638e-01   1.006142e-02
  2.039146e+00    7.435855e-01   1.001174e-02
  2.041356e+00    7.476265e-01   1.002932e-02
  2.043567e+00    7.304642e-01   9.904394e-03
  2.045777e+00    7.444824e-01   9.989779e-03
  2.047988e+00    7.439036e-01   9.976611e-03
  2.050198e+00    7.533404e-01   1.003125e-02
  2.052409e+00    7.371311e-01   9.915182e-03
  2.054619e+00    7.334439e-01   9.883065e-03
  2.056830e+00    7.268346e-01   9.831367e-03
  2.059040e+00    7.465403e-01   9.956254e-03
  2.061251e+00    7.429197e-01   9.924890e-03
  2.063461e+00    7.304357e-01   9.833625e-03
  2.065671e+00    7.479023e-01   9.941787e-03
  2.067882e+00    7.602704e-01   1.001460e-02
  2.070092e+00    7.394989e-01   9.867691e-03
  2.072303e+00    7.313766e-01   9.804317e-03
  2.074513e+00    7.275772e-01   9.769586e-03
  2.076724e+00    7.410040e-01   9.849895e-03
  2.078934e+00    7.241132e-01   9.728094e-03
  2.081145e+00    7.313474e-01   9.767564e-03
  2.083355e+00    7.278795e-01   9.735281e-03
  2.085566e+00    7.293105e-01   9.736013e-03
  2.087776e+00    7.233353e-01   9.686640e-03
  2.089986e+00    7.188776e-01   9.648094e-03
  2.092197e+00    7.223980e-01   9.662801e-03
  2.094407e+00    7.240664e-01   9.664813e-03
  2.096618e+00    7.284901e-01   9.685429e-03
  2.098828e+00    7.274132e-01   9.669016e-03
  2.101039e+00    7.200139e-01   9.610806e-03
  2.103249e+00    7.300551e-01   9.668918e-03
  2.105460e+00    7.324055e-01   9.675460e-03
  2.107670e+00    7.113628e-01   9.526805e-03
  2.109881e+00    7.149392e-01   9.541660e-03
  2.112091e+00    6.983112e-01   9.421205e-03
  2.114301e+00    7.139429e-01   9.517367e-03
  2.116512e+00    7.026256e-01   9.432963e-03
  2.118722e+00    7.070019e-01   9.453560e-03
  2.120933e+00    6.907880e-01   9.335858e-03
  2.123143e+00    7.036145e-01   9.413306e-03
  2.125354e+00    7.035141e-01   9.404204e-03
  2.127564e+00    7.013661e-01   9.381194e-03
  2.129775e+00    6.970693e-01   9.343802e-03
  2.131985e+00    7.069877e-01   9.401019e-03
  2.134196e+00    7.116968e-01   9.423712e-03
  2.136406e+00    6.972661e-01   9.319026e-03
  2.138617e+00    6.882857e-01   9.250511e-03
  2.140827e+00    6.923198e-01   9.293431e-03
  2.143037e+00    7.014611e-01   9.399872e-03
  2.145248e+00    7.091864e-01   9.473560e-03
  2.147458e+00    7.004589e-01   9.430194e-03
  2.149669e+00    6.882221e-01   9.359164e-03
  2.151879e+00    6.953992e-01   9.417033e-03
  2.154090e+00    6.954115e-01   9.424392e-03
  2.156300e+00    7.029784e-01   9.482146e-03
  2.158511e+00    6.993819e-01   9.463167e-03
  2.160721e+00    7.026898e-01   9.490337e-03
  2.162932e+00    6.986704e-01   9.466928e-03
  2.165142e+00    6.788827e-01   9.334865e-03
  2.167352e+00    6.872000e-01   9.394761e-03
  2.169563e+00    6.953439e-01   9.452221e-03
  2.171773e+00    7.002224e-01   9.487789e-03
  2.173984e+00    6.913809e-01   9.429110e-03
  2.176194e+00    6.883867e-01   9.409868e-03
  2.178405e+00    6.714598e-01   9.294144e-03
  2.180615e+00    6.666011e-01   9.261122e-03
  2.182826e+00    6.787123e-01   9.345525e-03
  2.185036e+00    6.801733e-01   9.355673e-03
  2.187247e+00    6.612226e-01   9.224344e-03
  2.189457e+00    6.632838e-01   9.238304e-03
  2.191667e+00    6.831489e-01   9.375458e-03
  2.193878e+00    6.941014e-01   9.449740e-03
  2.196088e+00    6.794009e-01   9.348483e-03
  2.198299e+00    6.849971e-01   9.385783e-03
  2.200509e+00    6.886575e-01   9.409781e-03
  2.202720e+00    6.696121e-01   9.277619e-03
  2.204930e+00    6.797978e-01   9.346647e-03
  2.207141e+00    6.762587e-01   9.321213e-03
  2.209351e+00    6.715136e-01   9.286552e-03
  2.211562e+00    6.728762e-01   9.294358e-03
  2.213772e+00    6.749812e-01   9.253497e-03
  2.215982e+00    6.762542e-01   9.217985e-03
  2.218193e+00    6.622670e-01   9.092827e-03
  2.220403e+00    6.639372e-01   9.079888e-03
  2.222614e+00    6.818249e-01   9.180312e-03
  2.224824e+00    6.821100e-01   9.162735e-03
  2.227035e+00    6.891361e-01   9.192158e-03
  2.229245e+00    6.670743e-01   9.026907e-03
  2.231456e+00    6.725111e-01   9.047993e-03
  2.233666e+00    6.720452e-01   9.029742e-03
  2.235877e+00    6.682275e-01   8.989831e-03
  2.238087e+00    6.584378e-01   8.910359e-03
  2.240298e+00    6.657870e-01   8.946219e-03
  2.242508e+00    6.575277e-01   8.875556e-03
  2.244718e+00    6.735717e-01   8.967314e-03
  2.246929e+00    6.591964e-01   8.856804e-03
  2.249139e+00    6.566759e-01   8.827562e-03
  2.251350e+00    6.577603e-01   8.823217e-03
  2.253560e+00    6.681491e-01   8.881044e-03
  2.255771e+00    6.620139e-01   8.828821e-03
  2.257981e+00    6.507277e-01   8.742159e-03
  2.260192e+00    6.579476e-01   8.779470e-03
  2.262402e+00    6.532191e-01   8.737107e-03
  2.264613e+00    6.584623e-01   8.761313e-03
  2.266823e+00    6.509585e-01   8.700943e-03
  2.269033e+00    6.540002e-01   8.710927e-03
  2.271244e+00    6.738220e-01   8.831469e-03
  2.273454e+00    6.851205e-01   8.894777e-03
  2.275665e+00    6.914389e-01   8.925169e-03
  2.277875e+00    6.781430e-01   8.828897e-03
  2.280086e+00    6.642140e-01   8.727664e-03
  2.282296e+00    6.625428e-01   8.707257e-03
  2.284507e+00    6.442442e-01   8.576159e-03
  2.286717e+00    6.539938e-01   8.631355e-03
  2.288928e+00    6.591345e-01   8.655343e-03
  2.291138e+00    6.320100e-01   8.466139e-03
  2.293348e+00    6.556128e-01   8.613206e-03
  2.295559e+00    6.582001e-01   8.620884e-03
  2.297769e+00    6.453760e-01   8.527305e-03
  2.299980e+00    6.420054e-01   8.495747e-03
  2.302190e+00    6.443594e-01   8.502242e-03
  2.304401e+00    6.520995e-01   8.543830e-03
  2.306611e+00    6.367647e-01   8.433715e-03
  2.308822e+00    6.396266e-01   8.444291e-03
  2.311032e+00    6.617805e-01   8.582789e-03
  2.313243e+00    6.728268e-01   8.647759e-03
  2.315453e+00    6.454634e-01   8.462527e-03
  2.317663e+00    6.406156e-01   8.421610e-03
  2.319874e+00    6.292140e-01   8.337730e-03
  2.322084e+00    6.312606e-01   8.342389e-03
  2.324295e+00    6.452688e-01   8.426231e-03
  2.326505e+00    6.405129e-01   8.386103e-03
  2.328716e+00    6.366826e-01   8.352483e-03
  2.330926e+00    6.388243e-01   8.357739e-03
  2.333137e+00    6.464222e-01   8.398909e-03
  2.335347e+00    6.513060e-01   8.421618e-03
  2.337558e+00    6.351227e-01   8.308160e-03
  2.339768e+00    6.360139e-01   8.305429e-03
  2.341979e+00    6.415074e-01   8.332834e-03
  2.344189e+00    6.318039e-01   8.261221e-03
  2.346399e+00    6.207083e-01   8.179970e-03
  2.348610e+00    6.330733e-01   8.252594e-03
  2.350820e+00    6.261336e-01   8.199123e-03
  2.353031e+00    6.077162e-01   8.069521e-03
  2.355241e+00    6.183704e-01   8.131990e-03
  2.357452e+00    6.111878e-01   8.076346e-03
  2.359662e+00    6.128245e-01   8.079047e-03
  2.361873e+00    6.289842e-01   8.176651e-03
  2.364083e+00    6.153381e-01   8.079576e-03
  2.366294e+00    6.224937e-01   8.118336e-03
  2.368504e+00    6.204666e-01   8.097074e-03
  2.370714e+00    6.066355e-01   7.998394e-03
  2.372925e+00    6.044391e-01   7.975965e-03
  2.375135e+00    6.029549e-01   7.958264e-03
  2.377346e+00    6.136045e-01   8.020334e-03
  2.379556e+00    6.245610e-01   8.083737e-03
  2.381767e+00    6.168634e-01   8.025918e-03
  2.383977e+00    6.265073e-01   8.080451e-03
  2.386188e+00    6.184360e-01   8.020326e-03
  2.388398e+00    6.167231e-01   8.001268e-03
  2.390609e+00    6.197178e-01   8.012905e-03
  2.392819e+00    6.204593e-01   8.009938e-03
  2.395029e+00    6.013066e-01   7.877749e-03
  2.397240e+00    5.977973e-01   7.846965e-03
  2.399450e+00    6.133063e-01   7.940291e-03
  2.401661e+00    6.104539e-01   7.914136e-03
  2.403871e+00    6.219253e-01   7.980330e-03
  2.406082e+00    5.992234e-01   7.825973e-03
  2.408292e+00    5.926395e-01   7.775159e-03
  2.410503e+00    5.924659e-01   7.766621e-03
  2.412713e+00    5.889995e-01   7.736200e-03
  2.414924e+00    6.021786e-01   7.814807e-03
  2.417134e+00    6.052635e-01   7.827146e-03
  2.419344e+00    6.014978e-01   7.795390e-03
  2.421555e+00    5.868633e-01   7.692551e-03
  2.423765e+00    5.844256e-01   7.669246e-03
  2.425976e+00    5.965378e-01   7.740518e-03
  2.428186e+00    5.944310e-01   7.719662e-03
  2.430397e+00    5.872416e-01   7.665413e-03
  2.432607e+00    5.963950e-01   7.717634e-03
  2.434818e+00    5.828226e-01   7.621872e-03
  2.437028e+00    5.807179e-01   7.601002e-03
  2.439239e+00    5.802156e-01   7.590152e-03
  2.441449e+00    6.096022e-01   7.772696e-03
  2.443659e+00    5.910590e-01   7.646219e-03
  2.445870e+00    5.759712e-01   7.560101e-03
  2.448080e+00    5.800430e-01   7.621483e-03
  2.450291e+00    5.713307e-01   7.580576e-03
  2.452501e+00    5.651945e-01   7.550790e-03
  2.454712e+00    5.636924e-01   7.549111e-03
  2.456922e+00    5.551605e-01   7.498296e-03
  2.459133e+00    5.647115e-01   7.567936e-03
  2.461343e+00    5.462723e-01   7.447632e-03
  2.463554e+00    5.601347e-01   7.544980e-03
  2.465764e+00    5.595921e-01   7.544473e-03
  2.467975e+00    5.372314e-01   7.394434e-03
  2.470185e+00    5.315456e-01   7.357396e-03
  2.472395e+00    5.382512e-01   7.404856e-03
  2.474606e+00    5.366451e-01   7.395340e-03
  2.476816e+00    5.454817e-01   7.456709e-03
  2.479027e+00    5.505394e-01   7.492051e-03
  2.481237e+00    5.395994e-01   7.417515e-03
  2.483448e+00    5.359418e-01   7.392635e-03
  2.485658e+00    5.342255e-01   7.380636e-03
  2.487869e+00    5.382895e-01   7.408707e-03
  2.490079e+00    5.353880e-01   7.388192e-03
  2.492290e+00    5.295110e-01   7.347098e-03
  2.494500e+00    5.314575e-01   7.359864e-03
  2.496710e+00    5.196357e-01   7.276861e-03
  2.498921e+00    5.343238e-01   7.377995e-03
  2.501131e+00    5.228409e-01   7.297357e-03
  2.503342e+00    5.148109e-01   7.239848e-03
  2.505552e+00    5.183892e-01   7.263849e-03
  2.507763e+00    5.170502e-01   7.253075e-03
  2.509973e+00    5.143260e-01   7.232551e-03
  2.512184e+00    5.195231e-01   7.267404e-03
  2.514394e+00    5.264121e-01   7.306065e-03
  2.516605e+00    5.352846e-01   7.319939e-03
  2.518815e+00    5.302032e-01   7.256668e-03
  2.521025e+00    5.269683e-01   7.213511e-03
  2.523236e+00    5.297919e-01   7.214747e-03
  2.525446e+00    5.283161e-01   7.189054e-03
  2.527657e+00    5.172929e-01   7.099173e-03
  2.529867e+00    5.205738e-01   7.107505e-03
  2.532078e+00    5.235900e-01   7.113070e-03
  2.534288e+00    5.167038e-01   7.052366e-03
  2.536499e+00    5.118589e-01   7.007418e-03
  2.538709e+00    5.146643e-01   7.015700e-03
  2.540920e+00    5.164529e-01   7.017322e-03
  2.543130e+00    5.086703e-01   6.954038e-03
  2.545340e+00    5.206813e-01   7.025620e-03
  2.547551e+00    5.133018e-01   6.965801e-03
  2.549761e+00    5.340067e-01   7.095220e-03
  2.551972e+00    5.111521e-01   6.932476e-03
  2.554182e+00    5.143890e-01   6.945276e-03
  2.556393e+00    5.105559e-01   6.910321e-03
  2.558603e+00    5.311952e-01   7.039476e-03
  2.560814e+00    5.098428e-01   6.887913e-03
  2.563024e+00    5.232947e-01   6.969575e-03
  2.565235e+00    5.196803e-01   6.935961e-03
  2.567445e+00    5.083470e-01   6.850444e-03
  2.569656e+00    5.267298e-01   6.963389e-03
  2.571866e+00    5.132790e-01   6.864590e-03
  2.574076e+00    5.072004e-01   6.814637e-03
  2.576287e+00    5.069585e-01   6.804766e-03
  2.578497e+00    5.126227e-01   6.834840e-03
  2.580708e+00    5.128878e-01   6.828554e-03
  2.582918e+00    5.046818e-01   6.766020e-03
  2.585129e+00    5.194733e-01   6.856662e-03
  2.587339e+00    5.056242e-01   6.757045e-03
  2.589550e+00    5.084220e-01   6.768172e-03
  2.591760e+00    5.132086e-01   6.792233e-03
  2.593971e+00    5.069957e-01   6.743498e-03
  2.596181e+00    5.072377e-01   6.738894e-03
  2.598391e+00    5.264366e-01   6.859984e-03
  2.600602e+00    5.162729e-01   6.787498e-03
  2.602812e+00    5.185066e-01   6.794555e-03
  2.605023e+00    5.074236e-01   6.714393e-03
  2.607233e+00    4.991893e-01   6.652602e-03
  2.609444e+00    5.151293e-01   6.750699e-03
  2.611654e+00    5.109702e-01   6.716049e-03
  2.613865e+00    5.082712e-01   6.691238e-03
  2.616075e+00    4.920211e-01   6.576362e-03
  2.618286e+00    5.070884e-01   6.669287e-03
  2.620496e+00    4.992915e-01   6.611166e-03
  2.622706e+00    4.996303e-01   6.607694e-03
  2.624917e+00    4.897827e-01   6.536487e-03
  2.627127e+00    5.005906e-01   6.602488e-03
  2.629338e+00    4.895579e-01   6.523442e-03
  2.631548e+00    5.071334e-01   6.633298e-03
  2.633759e+00    5.019889e-01   6.592436e-03
  2.635969e+00    5.039189e-01   6.598390e-03
  2.638180e+00    5.020147e-01   6.578930e-03
  2.640390e+00    5.107677e-01   6.629360e-03
  2.642601e+00    4.954154e-01   6.522369e-03
  2.644811e+00    4.867778e-01   6.458247e-03
  2.647021e+00    5.085213e-01   6.594304e-03
  2.649232e+00    5.050578e-01   6.565050e-03
  2.651442e+00    4.974286e-01   6.508801e-03
  2.653653e+00    4.980903e-01   6.506327e-03
  2.655863e+00    4.987863e-01   6.504193e-03
  2.658074e+00    4.995056e-01   6.502251e-03
  2.660284e+00    4.940647e-01   6.460413e-03
  2.662495e+00    4.923741e-01   6.442625e-03
  2.664705e+00    5.039187e-01   6.511105e-03
  2.666916e+00    4.997681e-01   6.477752e-03
  2.669126e+00    5.118886e-01   6.549259e-03
  2.671337e+00    5.009769e-01   6.472483e-03
  2.673547e+00    5.001403e-01   6.460653e-03
  2.675757e+00    4.934959e-01   6.411153e-03
  2.677968e+00    4.965995e-01   6.424743e-03
  2.680178e+00    4.990445e-01   6.434099e-03
  2.682389e+00    5.024608e-01   6.449646e-03
  2.684599e+00    4.880187e-01   6.350116e-03
  2.686810e+00    4.786285e-01   6.282215e-03
  2.689020e+00    4.851891e-01   6.318857e-03
  2.691231e+00    4.917201e-01   6.354966e-03
  2.693441e+00    4.847567e-01   6.303693e-03
  2.695652e+00    4.838853e-01   6.291556e-03
  2.697862e+00    4.853158e-01   6.294521e-03
  2.700072e+00    4.896997e-01   6.316829e-03
  2.702283e+00    4.842544e-01   6.275413e-03
  2.704493e+00    4.835385e-01   6.264513e-03
  2.706704e+00    4.939121e-01   6.324931e-03
  2.708914e+00    4.831415e-01   6.249643e-03
  2.711125e+00    4.779809e-01   6.209983e-03
  2.713335e+00    4.896497e-01   6.279244e-03
  2.715546e+00    4.883357e-01   6.264334e-03
  2.717756e+00    4.733704e-01   6.161791e-03
  2.719967e+00    4.789040e-01   6.191542e-03
  2.722177e+00    4.735599e-01   6.150841e-03
  2.724387e+00    4.858914e-01   6.224304e-03
  2.726598e+00    4.856483e-01   6.216686e-03
  2.728808e+00    4.856427e-01   6.210512e-03
  2.731019e+00    4.818409e-01   6.180027e-03
  2.733229e+00    4.788861e-01   6.155301e-03
  2.735440e+00    4.775172e-01   6.140255e-03
  2.737650e+00    4.710641e-01   6.092692e-03
  2.739861e+00    4.764380e-01   6.121312e-03
  2.742071e+00    4.802975e-01   6.140336e-03
  2.744282e+00    4.654869e-01   6.038787e-03
  2.746492e+00    4.834754e-01   6.148310e-03
  2.748702e+00    4.823895e-01   6.135511e-03
  2.750913e+00    4.717605e-01   6.061805e-03
  2.753123e+00    4.680937e-01   6.032167e-03
  2.755334e+00    4.761649e-01   6.077891e-03
  2.757544e+00    4.773180e-01   6.079548e-03
  2.759755e+00    4.773535e-01   6.073887e-03
  2.761965e+00    4.824533e-01   6.100262e-03
  2.764176e+00    4.925700e-01   6.157830e-03
  2.766386e+00    4.743021e-01   6.036802e-03
  2.768597e+00    4.714702e-01   6.012943e-03
  2.770807e+00    4.812706e-01   6.069228e-03
  2.773017e+00    4.739390e-01   6.016870e-03
  2.775228e+00    4.829004e-01   6.067692e-03
  2.777438e+00    4.717535e-01   5.991487e-03
  2.779649e+00    4.749953e-01   6.006163e-03
  2.781859e+00    4.635788e-01   5.927870e-03
  2.784070e+00    4.776519e-01   6.011295e-03
  2.786280e+00    4.747747e-01   5.987434e-03
  2.788491e+00    4.817599e-01   6.025429e-03
  2.790701e+00    4.764455e-01   5.986478e-03
  2.792912e+00    4.759521e-01   5.977401e-03
  2.795122e+00    4.779554e-01   5.984226e-03
  2.797333e+00    4.742197e-01   5.955248e-03
  2.799543e+00    4.710675e-01   5.929584e-03
  2.801753e+00    4.689183e-01   5.910231e-03
  2.803964e+00    4.637268e-01   5.871822e-03
  2.806174e+00    4.729958e-01   5.924088e-03
  2.808385e+00    4.671504e-01   5.880620e-03
  2.810595e+00    4.737011e-01   5.914851e-03
  2.812806e+00    4.681630e-01   5.873620e-03
  2.815016e+00    4.791616e-01   5.937427e-03
  2.817227e+00    4.686289e-01   5.897605e-03
  2.819437e+00    4.821831e-01   5.993447e-03
  2.821648e+00    4.669011e-01   5.900008e-03
  2.823858e+00    4.569425e-01   5.841968e-03
  2.826068e+00    4.693382e-01   5.925635e-03
  2.828279e+00    4.672908e-01   5.916729e-03
  2.830489e+00    4.621080e-01   5.887116e-03
  2.832700e+00    4.645525e-01   5.905202e-03
  2.834910e+00    4.753664e-01   5.975614e-03
  2.837121e+00    4.740179e-01   5.968843e-03
  2.839331e+00    4.782871e-01   5.996907e-03
  2.841542e+00    4.735070e-01   5.967884e-03
  2.843752e+00    4.620991e-01   5.896341e-03
  2.845963e+00    4.629618e-01   5.902221e-03
  2.848173e+00    4.641270e-01   5.909732e-03
  2.850383e+00    4.718024e-01   5.958694e-03
  2.852594e+00    4.673294e-01   5.930301e-03
  2.854804e+00    4.564405e-01   5.860327e-03
  2.857015e+00    4.595188e-01   5.879595e-03
  2.859225e+00    4.639683e-01   5.907748e-03
  2.861436e+00    4.634914e-01   5.904067e-03
  2.863646e+00    4.647431e-01   5.912080e-03
  2.865857e+00    4.635857e-01   5.905028e-03
  2.868067e+00    4.683798e-01   5.935725e-03
  2.870278e+00    4.576324e-01   5.866886e-03
  2.872488e+00    4.649102e-01   5.912168e-03
  2.874698e+00    4.614922e-01   5.889369e-03
  2.876909e+00    4.526334e-01   5.831251e-03
  2.879119e+00    4.531187e-01   5.832782e-03
  2.881330e+00    4.502489e-01   5.812817e-03
  2.883540e+00    4.705896e-01   5.941265e-03
  2.885751e+00    4.614585e-01   5.881711e-03
  2.887961e+00    4.609776e-01   5.876765e-03
  2.890172e+00    4.567681e-01   5.848260e-03
  2.892382e+00    4.452659e-01   5.772397e-03
  2.894593e+00    4.525379e-01   5.817534e-03
  2.896803e+00    4.476130e-01   5.783847e-03
  2.899014e+00    4.514273e-01   5.806534e-03
  2.901224e+00    4.738777e-01   5.947143e-03
  2.903434e+00    4.659527e-01   5.895267e-03
  2.905645e+00    4.634087e-01   5.876912e-03
  2.907855e+00    4.566866e-01   5.832032e-03
  2.910066e+00    4.650658e-01   5.883196e-03
  2.912276e+00    4.607813e-01   5.853923e-03
  2.914487e+00    4.587928e-01   5.838812e-03
  2.916697e+00    4.569998e-01   5.825174e-03
  2.918908e+00    4.511213e-01   5.785599e-03
  2.921118e+00    4.531612e-01   5.795979e-03
  2.923329e+00    4.531967e-01   5.793910e-03
  2.925539e+00    4.624914e-01   5.850722e-03
  2.927749e+00    4.572731e-01   5.815313e-03
  2.929960e+00    4.524516e-01   5.781814e-03
  2.932170e+00    4.553740e-01   5.798131e-03
  2.934381e+00    4.583786e-01   5.814777e-03
  2.936591e+00    4.441303e-01   5.721160e-03
  2.938802e+00    4.501512e-01   5.757107e-03
  2.941012e+00    4.460981e-01   5.728813e-03
  2.943223e+00    4.526574e-01   5.768104e-03
  2.945433e+00    4.477427e-01   5.732997e-03
  2.947644e+00    4.634871e-01   5.828741e-03
  2.949854e+00    4.460287e-01   5.713713e-03
  2.952064e+00    4.540088e-01   5.760351e-03
  2.954275e+00    4.576494e-01   5.778988e-03
  2.956485e+00    4.554030e-01   5.760602e-03
  2.958696e+00    4.495993e-01   5.719431e-03
  2.960906e+00    4.511897e-01   5.725373e-03
  2.963117e+00    4.484722e-01   5.703646e-03
  2.965327e+00    4.601593e-01   5.773560e-03
  2.967538e+00    4.560852e-01   5.745033e-03
  2.969748e+00    4.609164e-01   5.772535e-03
  2.971959e+00    4.603337e-01   5.765734e-03
  2.974169e+00    4.498153e-01   5.696917e-03
  2.976379e+00    4.461931e-01   5.671033e-03
  2.978590e+00    4.351483e-01   5.597344e-03
  2.980800e+00    4.418386e-01   5.637430e-03
  2.983011e+00    4.451002e-01   5.655440e-03
  2.985221e+00    4.380612e-01   5.607459e-03
  2.987432e+00    4.431374e-01   5.636752e-03
  2.989642e+00    4.516800e-01   5.688223e-03
  2.991853e+00    4.438910e-01   5.635713e-03
  2.994063e+00    4.532351e-01   5.691831e-03
  2.996274e+00    4.432101e-01   5.625370e-03
  2.998484e+00    4.594786e-01   5.724977e-03
  3.000694e+00    4.528136e-01   5.679847e-03
  3.002905e+00    4.480272e-01   5.646842e-03
  3.005115e+00    4.516064e-01   5.666354e-03
  3.007326e+00    4.564001e-01   5.693189e-03
  3.009536e+00    4.538268e-01   5.673875e-03
  3.011747e+00    4.503441e-01   5.649154e-03
  3.013957e+00    4.506435e-01   5.647845e-03
  3.016168e+00    4.572331e-01   5.685731e-03
  3.018378e+00    4.545532e-01   5.665986e-03
  3.020589e+00    4.495371e-01   5.631438e-03
  3.022799e+00    4.603513e-01   5.695588e-03
  3.025010e+00    4.451621e-01   5.597628e-03
  3.027220e+00    4.526702e-01   5.641506e-03
  3.029430e+00    4.419774e-01   5.571299e-03
  3.031641e+00    4.386326e-01   5.547047e-03
  3.033851e+00    4.524746e-01   5.630400e-03
  3.036062e+00    4.521446e-01   5.625559e-03
  3.038272e+00    4.563075e-01   5.647795e-03
  3.040483e+00    4.524246e-01   5.620500e-03
  3.042693e+00    4.469921e-01   5.583403e-03
  3.044904e+00    4.498264e-01   5.597048e-03
  3.047114e+00    4.418883e-01   5.542703e-03
  3.049325e+00    4.454615e-01   5.560682e-03
  3.051535e+00    4.451481e-01   5.554369e-03
  3.053745e+00    4.458059e-01   5.553746e-03
  3.055956e+00    4.445322e-01   5.541261e-03
  3.058166e+00    4.419892e-01   5.521172e-03
  3.060377e+00    4.370498e-01   5.485529e-03
  3.062587e+00    4.538250e-01   5.585160e-03
  3.064798e+00    4.424212e-01   5.510334e-03
  3.067008e+00    4.409821e-01   5.496685e-03
  3.069219e+00    4.489031e-01   5.541301e-03
  3.071429e+00    4.496368e-01   5.542338e-03
  3.073640e+00    4.339793e-01   5.441710e-03
  3.075850e+00    4.363768e-01   5.453173e-03
  3.078060e+00    4.430835e-01   5.491842e-03
  3.080271e+00    4.485895e-01   5.522387e-03
  3.082481e+00    4.522042e-01   5.541123e-03
  3.084692e+00    4.465736e-01   5.503170e-03
  3.086902e+00    4.410270e-01   5.465643e-03
  3.089113e+00    4.507019e-01   5.521696e-03
  3.091323e+00    4.392307e-01   5.447647e-03
  3.093534e+00    4.338934e-01   5.411111e-03
  3.095744e+00    4.414480e-01   5.454664e-03
  3.097955e+00    4.460084e-01   5.479231e-03
  3.100165e+00    4.393626e-01   5.434939e-03
  3.102375e+00    4.535961e-01   5.518845e-03
  3.104586e+00    4.398207e-01   5.430927e-03
  3.106796e+00    4.384727e-01   5.419107e-03
  3.109007e+00    4.455230e-01   5.459290e-03
  3.111217e+00    4.334199e-01   5.380984e-03
  3.113428e+00    4.433914e-01   5.439118e-03
  3.115638e+00    4.399545e-01   5.414798e-03
  3.117849e+00    4.330961e-01   5.368738e-03
  3.120059e+00    4.392329e-01   5.403212e-03
  3.122270e+00    4.355920e-01   5.377544e-03
  3.124480e+00    4.357918e-01   5.375122e-03
  3.126691e+00    4.387692e-01   5.389918e-03
  3.128901e+00    4.488192e-01   5.448156e-03
  3.131111e+00    4.530340e-01   5.469812e-03
  3.133322e+00    4.394040e-01   5.383470e-03
  3.135532e+00    4.506544e-01   5.448506e-03
  3.137743e+00    4.545316e-01   5.468406e-03
  3.139953e+00    4.473947e-01   5.421589e-03
  3.142164e+00    4.355340e-01   5.361176e-03
  3.144374e+00    4.385318e-01   5.407845e-03
  3.146585e+00    4.450736e-01   5.462657e-03
  3.148795e+00    4.459020e-01   5.478541e-03
  3.151006e+00    4.454410e-01   5.484317e-03
  3.153216e+00    4.401457e-01   5.458724e-03
  3.155426e+00    4.449020e-01   5.494484e-03
  3.157637e+00    4.270440e-01   5.388522e-03
  3.159847e+00    4.203727e-01   5.351030e-03
  3.162058e+00    4.321157e-01   5.429631e-03
  3.164268e+00    4.240116e-01   5.382472e-03
  3.166479e+00    4.293389e-01   5.419780e-03
  3.168689e+00    4.322977e-01   5.441784e-03
  3.170900e+00    4.241678e-01   5.393466e-03
  3.173110e+00    4.320714e-01   5.446341e-03
  3.175321e+00    4.300034e-01   5.435766e-03
  3.177531e+00    4.369447e-01   5.482186e-03
  3.179741e+00    4.337462e-01   5.464159e-03
  3.181952e+00    4.333777e-01   5.463936e-03
  3.184162e+00    4.289395e-01   5.438064e-03
  3.186373e+00    4.272257e-01   5.428754e-03
  3.188583e+00    4.223423e-01   5.399404e-03
  3.190794e+00    4.405218e-01   5.516146e-03
  3.193004e+00    4.317064e-01   5.461920e-03
  3.195215e+00    4.201227e-01   5.389608e-03
  3.197425e+00    4.198503e-01   5.389059e-03
  3.199636e+00    4.281044e-01   5.440987e-03
  3.201846e+00    4.331230e-01   5.472218e-03
  3.204056e+00    4.318365e-01   5.464933e-03
  3.206267e+00    4.474884e-01   5.563980e-03
  3.208477e+00    4.231533e-01   5.411497e-03
  3.210688e+00    4.310187e-01   5.462373e-03
  3.212898e+00    4.264389e-01   5.433872e-03
  3.215109e+00    4.232882e-01   5.414477e-03
  3.217319e+00    4.421956e-01   5.534741e-03
  3.219530e+00    4.323819e-01   5.473386e-03
  3.221740e+00    4.257092e-01   5.431529e-03
  3.223951e+00    4.341587e-01   5.485640e-03
  3.226161e+00    4.284774e-01   5.449836e-03
  3.228372e+00    4.149605e-01   5.363693e-03
  3.230582e+00    4.204419e-01   5.399134e-03
  3.232792e+00    4.364618e-01   5.501266e-03
  3.235003e+00    4.239556e-01   5.422123e-03
  3.237213e+00    4.306153e-01   5.464643e-03
  3.239424e+00    4.290295e-01   5.454567e-03
  3.241634e+00    4.246986e-01   5.427100e-03
  3.243845e+00    4.260937e-01   5.436071e-03
  3.246055e+00    4.228989e-01   5.415381e-03
  3.248266e+00    4.371893e-01   5.506312e-03
  3.250476e+00    4.393323e-01   5.519494e-03
  3.252687e+00    4.324237e-01   5.475857e-03
  3.254897e+00    4.164605e-01   5.373716e-03
  3.257107e+00    4.081263e-01   5.319346e-03
  3.259318e+00    4.215562e-01   5.405943e-03
  3.261528e+00    4.284793e-01   5.449990e-03
  3.263739e+00    4.288666e-01   5.451916e-03
  3.265949e+00    4.214590e-01   5.404513e-03
  3.268160e+00    4.196948e-01   5.392751e-03
  3.270370e+00    4.171744e-01   5.376044e-03
  3.272581e+00    4.278150e-01   5.443878e-03
  3.274791e+00    4.303706e-01   5.459594e-03
  3.277002e+00    4.258347e-01   5.430188e-03
  3.279212e+00    4.301168e-01   5.457035e-03
  3.281422e+00    4.232405e-01   5.412668e-03
  3.283633e+00    4.242232e-01   5.418262e-03
  3.285843e+00    4.275099e-01   5.438872e-03
  3.288054e+00    4.173265e-01   5.372787e-03
  3.290264e+00    4.264635e-01   5.430945e-03
  3.292475e+00    4.198909e-01   5.388123e-03
  3.294685e+00    4.139006e-01   5.348910e-03
  3.296896e+00    4.184302e-01   5.377354e-03
  3.299106e+00    4.140508e-01   5.348582e-03
  3.301317e+00    4.295106e-01   5.446495e-03
  3.303527e+00    4.158327e-01   5.358601e-03
  3.305737e+00    4.312754e-01   5.456156e-03
  3.307948e+00    4.233729e-01   5.405247e-03
  3.310158e+00    4.199189e-01   5.382313e-03
  3.312369e+00    4.236524e-01   5.405311e-03
  3.314579e+00    4.238247e-01   5.405476e-03
  3.316790e+00    4.291490e-01   5.438636e-03
  3.319000e+00    4.120531e-01   5.328035e-03
  3.321211e+00    4.213386e-01   5.387109e-03
  3.323421e+00    4.313816e-01   5.449731e-03
  3.325632e+00    4.179014e-01   5.363013e-03
  3.327842e+00    4.338067e-01   5.463192e-03
  3.330052e+00    4.438619e-01   5.525063e-03
  3.332263e+00    4.030406e-01   5.263875e-03
  3.334473e+00    4.161821e-01   5.348072e-03
  3.336684e+00    4.272258e-01   5.417329e-03
  3.338894e+00    4.145960e-01   5.335797e-03
  3.341105e+00    4.168030e-01   5.348768e-03
  3.343315e+00    4.247192e-01   5.398201e-03
  3.345526e+00    4.272009e-01   5.413029e-03
  3.347736e+00    4.110728e-01   5.308472e-03
  3.349947e+00    4.235197e-01   5.387308e-03
  3.352157e+00    4.110879e-01   5.306495e-03
  3.354368e+00    4.169247e-01   5.342740e-03
  3.356578e+00    4.254491e-01   5.396044e-03
  3.358788e+00    4.205001e-01   5.363242e-03
  3.360999e+00    4.183194e-01   5.348087e-03
  3.363209e+00    4.065320e-01   5.271182e-03
  3.365420e+00    4.143579e-01   5.320171e-03
  3.367630e+00    4.041368e-01   5.253135e-03
  3.369841e+00    4.100207e-01   5.289839e-03
  3.372051e+00    4.173464e-01   5.334889e-03
  3.374262e+00    4.162537e-01   5.325485e-03
  3.376472e+00    4.118700e-01   5.294931e-03
  3.378683e+00    4.231712e-01   5.364523e-03
  3.380893e+00    4.288571e-01   5.398116e-03
  3.383103e+00    4.157291e-01   5.312119e-03
  3.385314e+00    4.226971e-01   5.354223e-03
  3.387524e+00    4.233877e-01   5.355807e-03
  3.389735e+00    4.143191e-01   5.295538e-03
  3.391945e+00    4.086858e-01   5.255746e-03
  3.394156e+00    4.020414e-01   5.208674e-03
  3.396366e+00    4.067723e-01   5.235858e-03
  3.398577e+00    4.015763e-01   5.199303e-03
  3.400787e+00    3.969389e-01   5.180881e-03
  3.402998e+00    4.020268e-01   5.251690e-03
  3.405208e+00    3.883187e-01   5.181600e-03
  3.407418e+00    3.816728e-01   5.152447e-03
  3.409629e+00    4.063422e-01   5.330413e-03
  3.411839e+00    3.936670e-01   5.258325e-03
  3.414050e+00    3.938302e-01   5.270357e-03
  3.416260e+00    3.842658e-01   5.215472e-03
  3.418471e+00    3.892233e-01   5.258378e-03
  3.420681e+00    3.859562e-01   5.244692e-03
  3.422892e+00    3.764567e-01   5.187602e-03
  3.425102e+00    3.730169e-01   5.171478e-03
  3.427313e+00    3.790170e-01   5.220009e-03
  3.429523e+00    3.749249e-01   5.198718e-03
  3.431733e+00    3.800648e-01   5.240832e-03
  3.433944e+00    3.912400e-01   5.323852e-03
  3.436154e+00    3.889235e-01   5.314385e-03
  3.438365e+00    3.894891e-01   5.324219e-03
  3.440575e+00    3.777924e-01   5.249590e-03
  3.442786e+00    3.627345e-01   5.149381e-03
  3.444996e+00    3.544594e-01   5.095646e-03
  3.447207e+00    3.530402e-01   5.090556e-03
  3.449417e+00    3.383382e-01   5.022398e-03
  3.451628e+00    3.461459e-01   5.108500e-03
  3.453838e+00    3.659403e-01   5.273672e-03
  3.456049e+00    3.513423e-01   5.190815e-03
  3.458259e+00    3.607440e-01   5.281546e-03
  3.460469e+00    3.657312e-01   5.337702e-03
  3.462680e+00    3.689743e-01   5.380468e-03
  3.464890e+00    3.649323e-01   5.368645e-03
  3.467101e+00    3.517928e-01   5.288234e-03
  3.469311e+00    3.840280e-01   5.542024e-03
  3.471522e+00    3.877901e-01   5.585784e-03
  3.473732e+00    3.946216e-01   5.651063e-03
  3.475943e+00    3.879914e-01   5.619214e-03
  3.478153e+00    3.921379e-01   5.664665e-03
  3.480364e+00    4.021499e-01   5.751839e-03
  3.482574e+00    4.102065e-01   5.824656e-03
  3.484784e+00    4.160038e-01   5.880599e-03
  3.486995e+00    4.360853e-01   6.036336e-03
  3.489205e+00    4.389520e-01   6.071105e-03
  3.491416e+00    4.240612e-01   5.982087e-03
  3.493626e+00    4.412218e-01   6.116636e-03
  3.495837e+00    4.370653e-01   6.102435e-03
  3.498047e+00    4.509040e-01   6.212888e-03
  3.500258e+00    4.482513e-01   6.209095e-03
  3.502468e+00    4.686549e-01   6.363508e-03
  3.504679e+00    4.713248e-01   6.396244e-03
  3.506889e+00    4.886539e-01   6.527566e-03
  3.509099e+00    4.737008e-01   6.441336e-03
  3.511310e+00    4.801475e-01   6.499500e-03
  3.513520e+00    4.835691e-01   6.537094e-03
  3.515731e+00    4.764920e-01   6.503297e-03
  3.517941e+00    4.966278e-01   6.653742e-03
  3.520152e+00    4.951854e-01   6.658393e-03
  3.522362e+00    5.025635e-01   6.722334e-03
  3.524573e+00    4.975072e-01   6.702603e-03
  3.526783e+00    5.013282e-01   6.741485e-03
  3.528994e+00    5.209072e-01   6.884180e-03
  3.531204e+00    5.155552e-01   6.861108e-03
  3.533414e+00    5.319116e-01   6.981244e-03
  3.535625e+00    5.446906e-01   7.077159e-03
  3.537835e+00    5.398832e-01   7.058088e-03
  3.540046e+00    5.442432e-01   7.095505e-03
  3.542256e+00    5.449033e-01   7.107432e-03
  3.544467e+00    5.401194e-01   7.083805e-03
  3.546677e+00    5.408352e-01   7.096104e-03
  3.548888e+00    5.488708e-01   7.156211e-03
  3.551098e+00    5.294505e-01   7.035722e-03
  3.553309e+00    5.332223e-01   7.068889e-03
  3.555519e+00    5.282001e-01   7.046703e-03
  3.557729e+00    5.357668e-01   7.108750e-03
  3.559940e+00    5.135717e-01   6.971245e-03
  3.562150e+00    5.340762e-01   7.120702e-03
  3.564361e+00    5.358424e-01   7.145817e-03
  3.566571e+00    5.354176e-01   7.156809e-03
  3.568782e+00    5.320597e-01   7.148377e-03
  3.570992e+00    5.467983e-01   7.260613e-03
  3.573203e+00    5.533753e-01   7.318521e-03
  3.575413e+00    5.443805e-01   7.272666e-03
  3.577624e+00    5.601693e-01   7.391831e-03
  3.579834e+00    5.484913e-01   7.328415e-03
  3.582045e+00    5.467594e-01   7.331017e-03
  3.584255e+00    5.405774e-01   7.303573e-03
  3.586465e+00    5.293122e-01   7.240921e-03
  3.588676e+00    5.355825e-01   7.297838e-03
  3.590886e+00    5.504014e-01   7.412013e-03
  3.593097e+00    5.513840e-01   7.433353e-03
  3.595307e+00    5.391637e-01   7.364481e-03
  3.597518e+00    5.292752e-01   7.310789e-03
  3.599728e+00    5.215670e-01   7.271211e-03
  3.601939e+00    5.446202e-01   7.444393e-03
  3.604149e+00    5.403386e-01   7.429549e-03
  3.606360e+00    5.560083e-01   7.550906e-03
  3.608570e+00    5.433581e-01   7.478781e-03
  3.610780e+00    5.138120e-01   7.283469e-03
  3.612991e+00    5.361301e-01   7.449955e-03
  3.615201e+00    5.215678e-01   7.357785e-03
  3.617412e+00    5.316078e-01   7.435485e-03
  3.619622e+00    5.370672e-01   7.479555e-03
  3.621833e+00    5.336204e-01   7.462213e-03
  3.624043e+00    5.346237e-01   7.478765e-03
  3.626254e+00    5.297415e-01   7.454162e-03
  3.628464e+00    5.354857e-01   7.505450e-03
  3.630675e+00    5.380303e-01   7.537476e-03
  3.632885e+00    5.430555e-01   7.587131e-03
  3.635095e+00    5.281377e-01   7.496547e-03
  3.637306e+00    5.361970e-01   7.567892e-03
  3.639516e+00    5.311767e-01   7.546916e-03
  3.641727e+00    5.075312e-01   7.391244e-03
  3.643937e+00    5.274707e-01   7.549477e-03
  3.646148e+00    5.418058e-01   7.666088e-03
  3.648358e+00    5.365189e-01   7.643576e-03
  3.650569e+00    5.303186e-01   7.613899e-03
  3.652779e+00    5.303296e-01   7.628759e-03
  3.654990e+00    5.265693e-01   7.616487e-03
  3.657200e+00    5.273644e-01   7.637023e-03
  3.659410e+00    5.133495e-01   7.549587e-03
  3.661621e+00    5.235426e-01   7.639133e-03
  3.663831e+00    5.254350e-01   7.667948e-03
  3.666042e+00    5.329686e-01   7.737929e-03
  3.668252e+00    5.295293e-01   7.728126e-03
  3.670463e+00    5.350026e-01   7.783267e-03
  3.672673e+00    5.268960e-01   7.739413e-03
  3.674884e+00    5.224864e-01   7.722265e-03
  3.677094e+00    5.171054e-01   7.697711e-03
  3.679305e+00    5.187801e-01   7.725548e-03
  3.681515e+00    5.196958e-01   7.747820e-03
  3.683726e+00    5.159232e-01   7.735251e-03
  3.685936e+00    4.997122e-01   7.628000e-03
  3.688146e+00    5.197910e-01   7.795379e-03
  3.690357e+00    5.374398e-01   7.942751e-03
  3.692567e+00    5.146824e-01   7.788676e-03
  3.694778e+00    5.132629e-01   7.793795e-03
  3.696988e+00    5.005066e-01   7.711904e-03
  3.699199e+00    5.185304e-01   7.865655e-03
  3.701409e+00    5.222830e-01   7.910406e-03
  3.703620e+00    5.228465e-01   7.930960e-03
  3.705830e+00    5.403522e-01   8.079273e-03
  3.708041e+00    5.245301e-01   7.976737e-03
  3.710251e+00    5.123274e-01   7.899926e-03
  3.712461e+00    5.142355e-01   7.931206e-03
  3.714672e+00    5.226196e-01   8.012378e-03
  3.716882e+00    5.154923e-01   7.974158e-03
  3.719093e+00    5.198715e-01   8.025075e-03
  3.721303e+00    5.158442e-01   8.010857e-03
  3.723514e+00    4.980730e-01   7.888584e-03
  3.725724e+00    5.028412e-01   7.943090e-03
  3.727935e+00    5.195686e-01   8.091653e-03
  3.730145e+00    5.299171e-01   8.189376e-03
  3.732356e+00    5.061914e-01   8.021332e-03
  3.734566e+00    5.001747e-01   7.990765e-03
  3.736776e+00    5.131590e-01   8.111562e-03
  3.738987e+00    5.065640e-01   8.076872e-03
  3.741197e+00    5.189977e-01   8.193490e-03
  3.743408e+00    4.996755e-01   8.057370e-03
  3.745618e+00    5.027317e-01   8.100066e-03
  3.747829e+00    5.059460e-01   8.143915e-03
  3.750039e+00    5.301421e-01   8.355092e-03
  3.752250e+00    4.912261e-01   8.060727e-03
  3.754460e+00    5.039151e-01   8.182555e-03
  3.756671e+00    5.109212e-01   8.258116e-03
  3.758881e+00    4.811435e-01   8.031944e-03
  3.761091e+00    5.169382e-01   8.344639e-03
  3.763302e+00    5.162479e-01   8.358339e-03
  3.765512e+00    5.003398e-01   8.247625e-03
  3.767723e+00    5.171116e-01   8.404281e-03
  3.769933e+00    5.102026e-01   8.367389e-03
  3.772144e+00    5.022657e-01   8.321477e-03
  3.774354e+00    5.086175e-01   8.393917e-03
  3.776565e+00    4.914311e-01   8.270442e-03
  3.778775e+00    5.076966e-01   8.426133e-03
  3.780986e+00    5.139174e-01   8.498148e-03
  3.783196e+00    5.159311e-01   8.535312e-03
  3.785407e+00    4.931827e-01   8.365264e-03
  3.787617e+00    5.074251e-01   8.505961e-03
  3.789827e+00    5.119566e-01   8.564631e-03
  3.792038e+00    5.090875e-01   8.561566e-03
  3.794248e+00    4.926871e-01   8.443553e-03
  3.796459e+00    5.023358e-01   8.547163e-03
  3.798669e+00    5.002174e-01   8.550476e-03
  3.800880e+00    5.053554e-01   8.615881e-03
  3.803090e+00    5.074673e-01   8.655821e-03
  3.805301e+00    4.917096e-01   8.542250e-03
  3.807511e+00    5.047583e-01   8.676969e-03
  3.809722e+00    5.223218e-01   8.849369e-03
  3.811932e+00    5.065191e-01   8.736878e-03
  3.814142e+00    5.081738e-01   8.774196e-03
  3.816353e+00    4.944405e-01   8.677542e-03
  3.818563e+00    5.034282e-01   8.779312e-03
  3.820774e+00    5.113502e-01   8.871516e-03
  3.822984e+00    5.089127e-01   8.874047e-03
  3.825195e+00    5.018708e-01   8.836180e-03
  3.827405e+00    5.159333e-01   8.983508e-03
  3.829616e+00    5.088837e-01   8.946224e-03
  3.831826e+00    4.879840e-01   8.784541e-03
  3.834037e+00    5.036232e-01   8.948876e-03
  3.836247e+00    4.980727e-01   8.924151e-03
  3.838457e+00    4.667403e-01   8.663146e-03
  3.840668e+00    4.901362e-01   8.902648e-03
  3.842878e+00    4.906704e-01   8.932840e-03
  3.845089e+00    4.754981e-01   8.818761e-03
  3.847299e+00    5.069173e-01   9.131460e-03
  3.849510e+00    5.149010e-01   9.229513e-03
  3.851720e+00    4.993635e-01   9.110698e-03
  3.853931e+00    4.961630e-01   9.100481e-03
  3.856141e+00    4.821403e-01   8.989730e-03
  3.858352e+00    4.924423e-01   9.104454e-03
  3.860562e+00    4.959978e-01   9.156617e-03
  3.862772e+00    4.959311e-01   9.175618e-03
  3.864983e+00    4.911849e-01   9.151245e-03
  3.867193e+00    4.611746e-01   8.886420e-03
  3.869404e+00    4.804744e-01   9.089935e-03
  3.871614e+00    4.920710e-01   9.218980e-03
  3.873825e+00    4.716265e-01   9.045307e-03
  3.876035e+00    4.735360e-01   9.083729e-03
  3.878246e+00    5.045146e-01   9.402202e-03
  3.880456e+00    4.813046e-01   9.212178e-03
  3.882667e+00    4.679030e-01   9.111519e-03
  3.884877e+00    4.936259e-01   9.388421e-03
  3.887087e+00    4.787112e-01   9.275111e-03
  3.889298e+00    4.805374e-01   9.322716e-03
  3.891508e+00    4.890076e-01   9.435067e-03
  3.893719e+00    5.135216e-01   9.700360e-03
  3.895929e+00    4.977481e-01   9.581885e-03
  3.898140e+00    4.876864e-01   9.516117e-03
  3.900350e+00    4.827560e-01   9.499799e-03
  3.902561e+00    5.088944e-01   9.786528e-03
  3.904771e+00    4.913020e-01   9.648758e-03
  3.906982e+00    4.971331e-01   9.739278e-03
  3.909192e+00    5.143543e-01   9.940838e-03
  3.911403e+00    4.680622e-01   9.516306e-03
  3.913613e+00    4.775583e-01   9.646161e-03
  3.915823e+00    4.777983e-01   9.683011e-03
  3.918034e+00    4.817613e-01   9.758109e-03
  3.920244e+00    4.792505e-01   9.768045e-03
  3.922455e+00    4.822251e-01   9.834191e-03
  3.924665e+00    5.025227e-01   1.007593e-02
  3.926876e+00    4.916594e-01   1.000376e-02
  3.929086e+00    4.948938e-01   1.007418e-02
  3.931297e+00    4.966125e-01   1.012684e-02
  3.933507e+00    4.894463e-01   1.008251e-02
  3.935718e+00    4.761561e-01   9.973085e-03
  3.937928e+00    4.645762e-01   9.879762e-03
  3.940138e+00    4.807817e-01   1.007977e-02
  3.942349e+00    4.733516e-01   1.003103e-02
  3.944559e+00    4.806870e-01   1.013824e-02
  3.946770e+00    4.609976e-01   9.957815e-03
  3.948980e+00    4.640982e-01   1.002126e-02
  3.951191e+00    4.535208e-01   9.936143e-03
  3.953401e+00    4.650879e-01   1.009279e-02
  3.955612e+00    4.668467e-01   1.014277e-02
  3.957822e+00    4.873248e-01   1.039457e-02
  3.960033e+00    4.922603e-01   1.047996e-02
  3.962243e+00    4.807684e-01   1.038959e-02
  3.964453e+00    4.590729e-01   1.018459e-02
  3.966664e+00    4.960766e-01   1.062091e-02
  3.968874e+00    4.916796e-01   1.060227e-02
  3.971085e+00    5.191809e-01   1.091745e-02
  3.973295e+00    4.833426e-01   1.055538e-02
  3.975506e+00    4.830260e-01   1.057340e-02
  3.977716e+00    4.996732e-01   1.077638e-02
  3.979927e+00    5.014489e-01   1.081801e-02
  3.982137e+00    4.947135e-01   1.076764e-02
  3.984348e+00    4.898605e-01   1.073743e-02
  3.986558e+00    4.791515e-01   1.064145e-02
  3.988768e+00    4.675364e-01   1.053434e-02
  3.990979e+00    5.087241e-01   1.101179e-02
  3.993189e+00    5.255190e-01   1.121617e-02
  3.995400e+00    4.970166e-01   1.093167e-02
  3.997610e+00    4.633175e-01   1.058358e-02
  3.999821e+00    4.748226e-01   1.075140e-02
  4.002031e+00    4.823694e-01   1.087466e-02
  4.004242e+00    4.943976e-01   1.104841e-02
  4.006452e+00    4.941750e-01   1.108558e-02
  4.008663e+00    4.996606e-01   1.118765e-02
  4.010873e+00    5.032532e-01   1.126849e-02
  4.013084e+00    5.156463e-01   1.144865e-02
  4.015294e+00    4.964073e-01   1.127456e-02
  4.017504e+00    4.720742e-01   1.103603e-02
  4.019715e+00    5.025851e-01   1.143040e-02
  4.021925e+00    4.659217e-01   1.104773e-02
  4.024136e+00    4.855053e-01   1.132133e-02
  4.026346e+00    4.806931e-01   1.130899e-02
  4.028557e+00    4.668341e-01   1.118838e-02
  4.030767e+00    4.571887e-01   1.111651e-02
  4.032978e+00    4.772519e-01   1.140376e-02
  4.035188e+00    4.520140e-01   1.114288e-02
  4.037399e+00    4.598573e-01   1.128555e-02
  4.039609e+00    4.448119e-01   1.114500e-02
  4.041819e+00    4.709060e-01   1.151553e-02
  4.044030e+00    4.764346e-01   1.163243e-02
  4.046240e+00    4.657481e-01   1.155017e-02
  4.048451e+00    4.812135e-01   1.179137e-02
  4.050661e+00    4.710070e-01   1.171627e-02
  4.052872e+00    4.672515e-01   1.172145e-02
  4.055082e+00    4.635285e-01   1.172709e-02
  4.057293e+00    4.667265e-01   1.182028e-02
  4.059503e+00    4.711013e-01   1.192962e-02
  4.061714e+00    4.433697e-01   1.162726e-02
  4.063924e+00    4.839026e-01   1.220399e-02
  4.066134e+00    4.715971e-01   1.210468e-02
  4.068345e+00    4.538345e-01   1.193170e-02
  4.070555e+00    4.714107e-01   1.221913e-02
  4.072766e+00    5.038974e-01   1.269544e-02
  4.074976e+00    4.605088e-01   1.219704e-02
  4.077187e+00    4.728598e-01   1.242100e-02
  4.079397e+00    4.597132e-01   1.230964e-02
  4.081608e+00    4.371912e-01   1.206677e-02
  4.083818e+00    4.388644e-01   1.215259e-02
  4.086029e+00    5.011153e-01   1.305451e-02
  4.088239e+00    4.654850e-01   1.264963e-02
  4.090449e+00    4.402994e-01   1.236926e-02
  4.092660e+00    5.172917e-01   1.348099e-02
  4.094870e+00    4.661117e-01   1.286795e-02
  4.097081e+00    4.932127e-01   1.330926e-02
  4.099291e+00    4.779228e-01   1.315539e-02
  4.101502e+00    5.050864e-01   1.357484e-02
  4.103712e+00    4.504443e-01   1.286721e-02
  4.105923e+00    4.583374e-01   1.302960e-02
  4.108133e+00    5.154257e-01   1.387044e-02
  4.110344e+00    4.875998e-01   1.354272e-02
  4.112554e+00    4.693374e-01   1.333889e-02
  4.114764e+00    5.004349e-01   1.382920e-02
  4.116975e+00    5.161577e-01   1.410013e-02
  4.119185e+00    5.012969e-01   1.395210e-02
  4.121396e+00    4.555316e-01   1.335498e-02
  4.123606e+00    5.137917e-01   1.424144e-02
  4.125817e+00    4.377614e-01   1.320056e-02
  4.128027e+00    4.892791e-01   1.401464e-02
  4.130238e+00    4.410788e-01   1.336343e-02
  4.132448e+00    4.730881e-01   1.389978e-02
  4.134659e+00    4.801729e-01   1.406385e-02
  4.136869e+00    4.544198e-01   1.374262e-02
  4.139080e+00    4.495615e-01   1.373031e-02
  4.141290e+00    4.642871e-01   1.401537e-02
  4.143500e+00    4.536306e-01   1.391737e-02
  4.145711e+00    4.984128e-01   1.465639e-02
  4.147921e+00    4.995406e-01   1.474013e-02
  4.150132e+00    5.060061e-01   1.490629e-02
  4.152342e+00    4.855407e-01   1.467227e-02
  4.154553e+00    4.547320e-01   1.426683e-02
  4.156763e+00    4.535672e-01   1.431878e-02
  4.158974e+00    4.960690e-01   1.505000e-02
  4.161184e+00    5.345179e-01   1.569996e-02
  4.163395e+00    4.917683e-01   1.513606e-02
  4.165605e+00    5.041943e-01   1.540577e-02
  4.167815e+00    4.845223e-01   1.518077e-02
  4.170026e+00    4.756896e-01   1.512119e-02
  4.172236e+00    4.852600e-01   1.535514e-02
  4.174447e+00    4.451159e-01   1.478632e-02
  4.176657e+00    4.927457e-01   1.564229e-02
  4.178868e+00    5.097468e-01   1.599983e-02
  4.181078e+00    5.246696e-01   1.632397e-02
  4.183289e+00    4.643552e-01   1.544482e-02
  4.185499e+00    4.604795e-01   1.547118e-02
  4.187710e+00    4.208746e-01   1.487736e-02
  4.189920e+00    4.512949e-01   1.549846e-02
  4.192130e+00    4.384933e-01   1.537052e-02
  4.194341e+00    4.440852e-01   1.556266e-02
  4.196551e+00    5.361520e-01   1.720847e-02
  4.198762e+00    4.898485e-01   1.655325e-02
  4.200972e+00    4.576299e-01   1.610312e-02
  4.203183e+00    4.221086e-01   1.556749e-02
  4.205393e+00    3.854663e-01   1.497525e-02
  4.207604e+00    5.086691e-01   1.732031e-02
  4.209814e+00    4.887405e-01   1.709396e-02
  4.212025e+00    5.068141e-01   1.753060e-02
  4.214235e+00    4.716155e-01   1.703085e-02
  4.216445e+00    4.890579e-01   1.746836e-02
  4.218656e+00    4.814866e-01   1.746243e-02
  4.220866e+00    4.899156e-01   1.774512e-02
  4.223077e+00    4.873348e-01   1.783430e-02
  4.225287e+00    4.429468e-01   1.713654e-02
  4.227498e+00    4.916176e-01   1.819503e-02
  4.229708e+00    4.601996e-01   1.774730e-02
  4.231919e+00    4.549294e-01   1.779125e-02
  4.234129e+00    4.511351e-01   1.786570e-02
  4.236340e+00    4.916085e-01   1.880906e-02
  4.238550e+00    4.189462e-01   1.751714e-02
  4.240761e+00    5.109253e-01   1.951520e-02
  4.242971e+00    4.987530e-01   1.945821e-02
  4.245181e+00    5.322196e-01   2.028913e-02
  4.247392e+00    5.204557e-01   2.025164e-02
  4.249602e+00    4.412096e-01   1.883101e-02
  4.251813e+00    4.224136e-01   1.860730e-02
  4.254023e+00    4.187886e-01   1.871354e-02
  4.256234e+00    4.779031e-01   2.020494e-02
  4.258444e+00    4.527970e-01   1.987239e-02
  4.260655e+00    4.996454e-01   2.110499e-02
  4.262865e+00    4.605055e-01   2.049091e-02
  4.265076e+00    4.468000e-01   2.041409e-02
  4.267286e+00    4.480166e-01   2.068335e-02
  4.269496e+00    4.903903e-01   2.190405e-02
  4.271707e+00    4.335387e-01   2.084936e-02
  4.273917e+00    4.640257e-01   2.184881e-02
  4.276128e+00    4.492620e-01   2.178470e-02
  4.278338e+00    4.221407e-01   2.139818e-02
  4.280549e+00    4.122799e-01   2.145066e-02
  4.282759e+00    4.243988e-01   2.207544e-02
  4.284970e+00    4.846221e-01   2.393995e-02
  4.287180e+00    4.575061e-01   2.353903e-02
  4.289391e+00    4.689517e-01   2.401024e-02
  4.291601e+00    4.424034e-01   2.350768e-02
  4.293811e+00    4.023003e-01   2.259113e-02
  4.296022e+00    5.112003e-01   2.567115e-02
  4.298232e+00    5.261409e-01   2.626170e-02
  4.300443e+00    5.410772e-01   2.685161e-02
  4.302653e+00    4.058854e-01   2.345805e-02
  4.304864e+00    4.320963e-01   2.441261e-02
  4.307074e+00    5.063208e-01   2.666432e-02
  4.309285e+00    4.780649e-01   2.614468e-02
  4.311495e+00    5.074455e-01   2.718821e-02
  4.313706e+00    5.247142e-01   2.790643e-02
  4.315916e+00    4.803688e-01   2.696463e-02
  4.318126e+00    4.612356e-01   2.668365e-02
  4.320337e+00    3.951824e-01   2.494867e-02
  4.322547e+00    4.329100e-01   2.638917e-02
  4.324758e+00    3.991187e-01   2.560187e-02
  4.326968e+00    4.610451e-01   2.782576e-02
  4.329179e+00    5.082974e-01   2.953986e-02
  4.331389e+00    4.547457e-01   2.826250e-02
  4.333600e+00    3.969192e-01   2.671963e-02
  4.335810e+00    4.678634e-01   2.935375e-02
  4.338021e+00    4.974279e-01   3.065564e-02
  4.340231e+00    4.418434e-01   2.925376e-02
  4.342442e+00    5.152400e-01   3.201453e-02
  4.344652e+00    3.773966e-01   2.777151e-02
  4.346862e+00    4.133169e-01   2.946942e-02
  4.349073e+00    4.662454e-01   3.175595e-02
  4.351283e+00    4.998875e-01   3.337208e-02
  4.353494e+00    5.022324e-01   3.396758e-02
  4.355704e+00    4.896654e-01   3.408005e-02
  4.357915e+00    4.348841e-01   3.265251e-02
  4.360125e+00    4.802606e-01   3.489738e-02
  4.362336e+00    4.469702e-01   3.428095e-02
  4.364546e+00    4.696646e-01   3.578058e-02
  4.366757e+00    3.968789e-01   3.354486e-02
  4.368967e+00    4.525608e-01   3.653589e-02
  4.371177e+00    3.639190e-01   3.346017e-02
  4.373388e+00    5.137342e-01   4.064193e-02
  4.375598e+00    4.409707e-01   3.851507e-02
  4.377809e+00    3.491580e-01   3.513673e-02
  4.380019e+00    3.974217e-01   3.843286e-02
  4.382230e+00    2.592400e-01   3.190478e-02
  4.384440e+00    4.193933e-01   4.174881e-02
  4.386651e+00    3.484079e-01   3.922607e-02
  4.388861e+00    3.054933e-01   3.796277e-02
  4.391072e+00    4.747522e-01   4.898459e-02
  4.393282e+00    3.736049e-01   4.514002e-02
  4.395492e+00    4.181007e-01   4.973076e-02
  4.397703e+00    2.654401e-01   4.143828e-02
  4.399913e+00    2.082444e-01   3.856308e-02
  4.402124e+00    3.134716e-01   4.999265e-02
  4.404334e+00    3.273984e-01   5.430755e-02
  4.406545e+00    2.412913e-01   5.009496e-02
  4.408755e+00    7.278545e-02   2.983859e-02
  4.410966e+00    4.938270e-01   8.601298e-02
  4.413176e+00    3.213599e-01   7.855221e-02
  4.415387e+00   -7.071718e-01            nan
  4.417597e+00   -1.898528e+00            nan
  4.419807e+00   -3.766224e-01            nan
