# == pyFAI calibration ==
# Distance Sample to Detector: 0.216 m
# PONI: 1.166e-01, 1.308e-01 m
# Rotations: 0.000000 0.000000 0.000000 rad
# 
# == Fit2d calibration ==
# Distance Sample-beamCenter: 216.000 mm
# Center: x=1744.293, y=1555.000 pix
# Tilt: 0.000 deg  TiltPlanRot: 0.000 deg
# 
# Detector Eiger 9M	 PixelSize= 7.500e-05, 7.500e-05 m
#    Detector has a mask: True 
#    Detector has a dark current: False 
#    detector has a flat field: False 
# 
# Wavelength: 9.8e-11 m
# Mask applied: from detector
# Dark current applied: False
# Flat field applied: False
# Polarization factor: None
# Normalization factor: 1.0
# 
# Headers of the input frame:
# {
# "_array_data.header_convention": "SLS_1.0",
# "_array_data.header_contents": "# Detector: Dectris Eiger 9M, S/N E-18-0102\r\n# Pixel_size 75e-6 m x 75e-6 m\r\n# Silicon sensor, thickness 0.000450 m\r\n# Exposure_time 0.024997 s\r\n# Exposure_period 0.025000 s\r\n# Count_cutoff 62318 counts\r\n# Wavelength 0.980106 A\r\n# Detector_distance 0.215992 m\r\n# Beam_xy (1555, 1744) pixels\r\n# Start_angle 0.000000 deg.\r\n# Angle_increment 0.000000 deg.",
# "Content-Type": "application/octet-stream;",
# "conversions": "x-CBF_BYTE_OFFSET",
# "Content-Transfer-Encoding": "BINARY",
# "X-Binary-Size": "10166598",
# "X-Binary-ID": "1",
# "X-Binary-Element-Type": "signed 32-bit integer",
# "X-Binary-Element-Byte-Order": "LITTLE_ENDIAN",
# "Content-MD5": "nx2nAYrU4ILaxwPkQK/7jA==",
# "X-Binary-Number-of-Elements": "10166590",
# "X-Binary-Size-Fastest-Dimension": "3110",
# "X-Binary-Size-Second-Dimension": "3269",
# "X-Binary-Size-Padding": "4095"
# }
# --> H:/Proxima2a_2019-04-05/RAW_DATA/C5_gel17_position5/C5_mesh_1_data.cbf/C5_mesh_1_data.cbf000012.dat
#        q_A^-1              I           sigma 
  1.105228e-03    1.997122e+00   7.646969e-01
  3.315685e-03    7.339343e-01   2.818215e-01
  5.526141e-03    1.062204e+00   2.621658e-01
  7.736597e-03    1.567345e+00   2.690311e-01
  9.947054e-03    1.364318e+00   2.212760e-01
  1.215751e-02    1.509667e+00   2.104792e-01
  1.436797e-02    1.487603e+00   1.921850e-01
  1.657842e-02    1.358312e+00   1.709402e-01
  1.878888e-02    1.428347e+00   1.646570e-01
  2.099934e-02    1.525249e+00   1.609802e-01
  2.320979e-02    1.389642e+00   1.461451e-01
  2.542025e-02    1.448125e+00   1.425649e-01
  2.763070e-02    1.273891e+00   1.282497e-01
  2.984116e-02    1.239450e+00   1.217281e-01
  3.205162e-02    1.508945e+00   1.296053e-01
  3.426207e-02    1.506394e+00   1.252403e-01
  3.647253e-02    1.415737e+00   1.176741e-01
  3.868299e-02    1.344522e+00   1.113601e-01
  4.089344e-02    1.315415e+00   1.071302e-01
  4.310390e-02    1.378606e+00   1.068179e-01
  4.531436e-02    1.424341e+00   1.058943e-01
  4.752481e-02    1.317198e+00   9.943622e-02
  4.973527e-02    1.409050e+00   1.005345e-01
  5.194572e-02    1.362301e+00   9.672517e-02
  5.415618e-02    1.458440e+00   9.801284e-02
  5.636664e-02    1.498815e+00   9.739559e-02
  5.857709e-02    1.415755e+00   9.285569e-02
  6.078755e-02    1.365493e+00   8.951629e-02
  6.299801e-02    1.473976e+00   9.135696e-02
  6.520846e-02    1.522385e+00   9.125844e-02
  6.741892e-02    1.422861e+00   8.676233e-02
  6.962938e-02    1.317677e+00   8.216197e-02
  7.183983e-02    1.448147e+00   8.479658e-02
  7.405029e-02    1.554592e+00   8.653452e-02
  7.626074e-02    1.637734e+00   8.752096e-02
  7.847120e-02    1.453180e+00   8.127066e-02
  8.068166e-02    1.392343e+00   7.845333e-02
  8.289211e-02    1.373931e+00   7.688633e-02
  8.510257e-02    1.476238e+00   7.865522e-02
  8.731303e-02    1.500916e+00   7.829660e-02
  8.952348e-02    1.471127e+00   7.655486e-02
  9.173394e-02    1.428686e+00   7.452504e-02
  9.394439e-02    1.442282e+00   7.399023e-02
  9.615485e-02    1.470432e+00   7.384349e-02
  9.836531e-02    1.540422e+00   7.472435e-02
  1.005758e-01    1.570952e+00   7.462787e-02
  1.027862e-01    1.468700e+00   7.137637e-02
  1.049967e-01    1.626855e+00   7.432488e-02
  1.072071e-01    1.684896e+00   7.485441e-02
  1.094176e-01    1.583033e+00   7.181868e-02
  1.116280e-01    1.545043e+00   7.024413e-02
  1.138385e-01    1.609927e+00   7.100295e-02
  1.160490e-01    1.518536e+00   6.829747e-02
  1.182594e-01    1.439233e+00   6.586443e-02
  1.204699e-01    1.526126e+00   6.719790e-02
  1.226803e-01    1.593116e+00   6.803278e-02
  1.248908e-01    1.589304e+00   6.734649e-02
  1.271012e-01    1.596341e+00   6.690463e-02
  1.293117e-01    1.534278e+00   6.502731e-02
  1.315222e-01    1.511712e+00   6.400114e-02
  1.337326e-01    1.562952e+00   6.453546e-02
  1.359431e-01    1.477022e+00   6.277306e-02
  1.381535e-01    1.534027e+00   6.483164e-02
  1.403640e-01    1.579853e+00   6.607696e-02
  1.425744e-01    1.637329e+00   6.737562e-02
  1.447849e-01    1.677102e+00   6.820478e-02
  1.469953e-01    1.573229e+00   6.601748e-02
  1.492058e-01    1.473435e+00   6.381509e-02
  1.514163e-01    1.515734e+00   6.461712e-02
  1.536267e-01    1.544488e+00   6.509979e-02
  1.558372e-01    1.665435e+00   6.745145e-02
  1.580476e-01    1.685486e+00   6.769163e-02
  1.602581e-01    1.689372e+00   6.759749e-02
  1.624685e-01    1.688307e+00   6.739118e-02
  1.646790e-01    1.650547e+00   6.644195e-02
  1.668895e-01    1.709459e+00   6.742201e-02
  1.690999e-01    1.758283e+00   6.817273e-02
  1.713104e-01    1.807938e+00   6.891413e-02
  1.735208e-01    1.809971e+00   6.873842e-02
  1.757313e-01    1.832794e+00   6.895367e-02
  1.779417e-01    1.857580e+00   6.919196e-02
  1.801522e-01    1.833172e+00   6.851695e-02
  1.823626e-01    1.921181e+00   6.990888e-02
  1.845731e-01    1.904472e+00   6.937876e-02
  1.867836e-01    1.958272e+00   7.011445e-02
  1.889940e-01    1.953465e+00   6.979951e-02
  1.912045e-01    1.892434e+00   6.847110e-02
  1.934149e-01    1.933163e+00   6.897236e-02
  1.956254e-01    1.908244e+00   6.830037e-02
  1.978358e-01    1.926981e+00   6.839970e-02
  2.000463e-01    1.922310e+00   6.809032e-02
  2.022568e-01    1.996842e+00   6.916999e-02
  2.044672e-01    2.030622e+00   6.951366e-02
  2.066777e-01    2.021723e+00   6.913096e-02
  2.088881e-01    1.929449e+00   6.731397e-02
  2.110986e-01    1.981723e+00   6.798578e-02
  2.133090e-01    1.978710e+00   6.771327e-02
  2.155195e-01    1.901055e+00   6.615108e-02
  2.177300e-01    1.915058e+00   6.587265e-02
  2.199404e-01    1.978675e+00   6.519351e-02
  2.221509e-01    2.009124e+00   6.461450e-02
  2.243613e-01    2.039717e+00   6.427925e-02
  2.265718e-01    2.018879e+00   6.324521e-02
  2.287822e-01    2.047331e+00   6.305890e-02
  2.309927e-01    2.111873e+00   6.346170e-02
  2.332031e-01    2.216475e+00   6.445792e-02
  2.354136e-01    2.094944e+00   6.215797e-02
  2.376241e-01    2.125035e+00   6.211686e-02
  2.398345e-01    2.182944e+00   6.249163e-02
  2.420450e-01    2.103606e+00   6.090708e-02
  2.442554e-01    2.217549e+00   6.210404e-02
  2.464659e-01    2.152429e+00   6.077459e-02
  2.486763e-01    2.143775e+00   6.025361e-02
  2.508868e-01    2.152311e+00   5.999260e-02
  2.530973e-01    2.145935e+00   5.953227e-02
  2.553077e-01    2.134299e+00   5.901054e-02
  2.575182e-01    2.086807e+00   5.800508e-02
  2.597286e-01    2.019364e+00   5.672833e-02
  2.619391e-01    2.105162e+00   5.758747e-02
  2.641495e-01    2.072531e+00   5.682318e-02
  2.663600e-01    2.037939e+00   5.603709e-02
  2.685704e-01    1.980632e+00   5.494415e-02
  2.707809e-01    2.038179e+00   5.544075e-02
  2.729914e-01    2.111210e+00   5.613125e-02
  2.752018e-01    2.063019e+00   5.519809e-02
  2.774123e-01    2.073877e+00   5.506049e-02
  2.796227e-01    1.945617e+00   5.306689e-02
  2.818332e-01    1.928014e+00   5.256274e-02
  2.840436e-01    1.990488e+00   5.314867e-02
  2.862541e-01    1.970053e+00   5.262098e-02
  2.884646e-01    1.998329e+00   5.274574e-02
  2.906750e-01    2.019076e+00   5.276746e-02
  2.928855e-01    2.035373e+00   5.273451e-02
  2.950959e-01    1.984944e+00   5.183791e-02
  2.973064e-01    1.901874e+00   5.051357e-02
  2.995168e-01    1.986746e+00   5.139450e-02
  3.017273e-01    1.958382e+00   5.080137e-02
  3.039377e-01    1.989259e+00   5.097607e-02
  3.061482e-01    1.965990e+00   5.045785e-02
  3.083587e-01    1.902117e+00   4.941658e-02
  3.105691e-01    1.891089e+00   4.906267e-02
  3.127796e-01    1.849404e+00   4.831492e-02
  3.149900e-01    1.825283e+00   4.779882e-02
  3.172005e-01    1.875752e+00   4.825699e-02
  3.194109e-01    1.936554e+00   4.883047e-02
  3.216214e-01    1.838138e+00   4.737938e-02
  3.238319e-01    1.915850e+00   4.817891e-02
  3.260423e-01    1.911436e+00   4.793171e-02
  3.282528e-01    1.880566e+00   4.735381e-02
  3.304632e-01    1.774485e+00   4.582064e-02
  3.326737e-01    1.812429e+00   4.612724e-02
  3.348841e-01    1.838687e+00   4.628003e-02
  3.370946e-01    1.873019e+00   4.653435e-02
  3.393050e-01    1.829189e+00   4.581248e-02
  3.415155e-01    1.781596e+00   4.504254e-02
  3.437260e-01    1.813449e+00   4.527499e-02
  3.459364e-01    1.832283e+00   4.534114e-02
  3.481469e-01    1.847278e+00   4.536013e-02
  3.503573e-01    1.776592e+00   4.432175e-02
  3.525678e-01    1.793698e+00   4.437590e-02
  3.547782e-01    1.799165e+00   4.428285e-02
  3.569887e-01    1.811460e+00   4.427645e-02
  3.591992e-01    1.825041e+00   4.428490e-02
  3.614096e-01    1.806625e+00   4.390810e-02
  3.636201e-01    1.865464e+00   4.446059e-02
  3.658305e-01    1.826031e+00   4.383815e-02
  3.680410e-01    1.770889e+00   4.302266e-02
  3.702514e-01    1.795276e+00   4.317221e-02
  3.724619e-01    1.786780e+00   4.292326e-02
  3.746724e-01    1.856117e+00   4.360220e-02
  3.768828e-01    1.766236e+00   4.239029e-02
  3.790933e-01    1.809126e+00   4.276207e-02
  3.813037e-01    1.782265e+00   4.230458e-02
  3.835142e-01    1.784565e+00   4.219282e-02
  3.857246e-01    1.773674e+00   4.192776e-02
  3.879351e-01    1.722607e+00   4.118602e-02
  3.901455e-01    1.693509e+00   4.070667e-02
  3.923560e-01    1.726027e+00   4.096499e-02
  3.945665e-01    1.845953e+00   4.222990e-02
  3.967769e-01    1.818183e+00   4.177982e-02
  3.989874e-01    1.800942e+00   4.145142e-02
  4.011978e-01    1.814468e+00   4.147884e-02
  4.034083e-01    1.779877e+00   4.095544e-02
  4.056187e-01    1.774821e+00   4.077125e-02
  4.078292e-01    1.813794e+00   4.109172e-02
  4.100397e-01    1.836668e+00   4.122378e-02
  4.122501e-01    1.825936e+00   4.098019e-02
  4.144606e-01    1.764097e+00   4.016082e-02
  4.166710e-01    1.784950e+00   4.027737e-02
  4.188815e-01    1.793673e+00   4.025639e-02
  4.210919e-01    1.810122e+00   4.032205e-02
  4.233024e-01    1.818038e+00   4.029125e-02
  4.255128e-01    1.799955e+00   3.997450e-02
  4.277233e-01    1.835029e+00   4.024611e-02
  4.299338e-01    1.808355e+00   3.983759e-02
  4.321442e-01    1.765279e+00   3.924763e-02
  4.343547e-01    1.742566e+00   3.888404e-02
  4.365651e-01    1.767562e+00   3.905067e-02
  4.387756e-01    1.737180e+00   3.860521e-02
  4.409860e-01    1.746607e+00   3.860256e-02
  4.431965e-01    1.731133e+00   3.832491e-02
  4.454070e-01    1.758450e+00   3.851865e-02
  4.476174e-01    1.742319e+00   3.823629e-02
  4.498279e-01    1.747954e+00   3.819388e-02
  4.520383e-01    1.713180e+00   3.770828e-02
  4.542488e-01    1.774865e+00   3.827764e-02
  4.564592e-01    1.783023e+00   3.826261e-02
  4.586697e-01    1.767418e+00   3.799369e-02
  4.608801e-01    1.747898e+00   3.768209e-02
  4.630906e-01    1.720113e+00   3.728240e-02
  4.653011e-01    1.750698e+00   3.751347e-02
  4.675115e-01    1.822464e+00   3.817384e-02
  4.697220e-01    1.760875e+00   3.742506e-02
  4.719324e-01    1.717675e+00   3.686750e-02
  4.741429e-01    1.715499e+00   3.674919e-02
  4.763533e-01    1.760442e+00   3.713204e-02
  4.785638e-01    1.697029e+00   3.636296e-02
  4.807743e-01    1.725813e+00   3.657678e-02
  4.829847e-01    1.724548e+00   3.647101e-02
  4.851952e-01    1.706972e+00   3.619288e-02
  4.874056e-01    1.679169e+00   3.580638e-02
  4.896161e-01    1.660200e+00   3.551529e-02
  4.918265e-01    1.670454e+00   3.553630e-02
  4.940370e-01    1.718754e+00   3.595742e-02
  4.962475e-01    1.772271e+00   3.642276e-02
  4.984579e-01    1.740441e+00   3.600525e-02
  5.006684e-01    1.707419e+00   3.557508e-02
  5.028788e-01    1.754653e+00   3.597642e-02
  5.050893e-01    1.674915e+00   3.506399e-02
  5.072997e-01    1.675708e+00   3.498756e-02
  5.095102e-01    1.694569e+00   3.509966e-02
  5.117206e-01    1.696702e+00   3.503822e-02
  5.139311e-01    1.654330e+00   3.451608e-02
  5.161416e-01    1.659925e+00   3.449268e-02
  5.183520e-01    1.716660e+00   3.499384e-02
  5.205625e-01    1.687955e+00   3.461875e-02
  5.227729e-01    1.694294e+00   3.460278e-02
  5.249834e-01    1.704089e+00   3.462213e-02
  5.271938e-01    1.674507e+00   3.424020e-02
  5.294043e-01    1.776377e+00   3.518495e-02
  5.316148e-01    1.735235e+00   3.469547e-02
  5.338252e-01    1.800419e+00   3.526035e-02
  5.360357e-01    1.774404e+00   3.492502e-02
  5.382461e-01    1.684906e+00   3.395590e-02
  5.404566e-01    1.752142e+00   3.454794e-02
  5.426670e-01    1.769992e+00   3.464526e-02
  5.448775e-01    1.756296e+00   3.443386e-02
  5.470879e-01    1.759302e+00   3.438646e-02
  5.492984e-01    1.739585e+00   3.411719e-02
  5.515089e-01    1.747696e+00   3.412079e-02
  5.537193e-01    1.784854e+00   3.440563e-02
  5.559298e-01    1.756633e+00   3.405770e-02
  5.581402e-01    1.806072e+00   3.445816e-02
  5.603507e-01    1.777813e+00   3.411313e-02
  5.625611e-01    1.802650e+00   3.427603e-02
  5.647716e-01    1.819995e+00   3.436577e-02
  5.669821e-01    1.808617e+00   3.418433e-02
  5.691925e-01    1.771618e+00   3.376026e-02
  5.714030e-01    1.714124e+00   3.313711e-02
  5.736134e-01    1.773046e+00   3.363016e-02
  5.758239e-01    1.734654e+00   3.319307e-02
  5.780343e-01    1.722818e+00   3.300965e-02
  5.802448e-01    1.698957e+00   3.271166e-02
  5.824552e-01    1.641331e+00   3.208464e-02
  5.846657e-01    1.628769e+00   3.189499e-02
  5.868762e-01    1.608249e+00   3.162747e-02
  5.890866e-01    1.636579e+00   3.183860e-02
  5.912971e-01    1.666611e+00   3.206290e-02
  5.935075e-01    1.664547e+00   3.197682e-02
  5.957180e-01    1.682124e+00   3.207924e-02
  5.979284e-01    1.670176e+00   3.189986e-02
  6.001389e-01    1.671298e+00   3.184560e-02
  6.023494e-01    1.654122e+00   3.161721e-02
  6.045598e-01    1.637163e+00   3.139067e-02
  6.067703e-01    1.628113e+00   3.124084e-02
  6.089807e-01    1.637658e+00   3.126928e-02
  6.111912e-01    1.705825e+00   3.184970e-02
  6.134016e-01    1.695109e+00   3.168620e-02
  6.156121e-01    1.677491e+00   3.145843e-02
  6.178226e-01    1.668651e+00   3.131332e-02
  6.200330e-01    1.706832e+00   3.160706e-02
  6.222435e-01    1.754270e+00   3.197982e-02
  6.244539e-01    1.685000e+00   3.128071e-02
  6.266644e-01    1.657989e+00   3.096845e-02
  6.288748e-01    1.665257e+00   3.097581e-02
  6.310853e-01    1.709638e+00   3.132496e-02
  6.332957e-01    1.725944e+00   3.141323e-02
  6.355062e-01    1.701542e+00   3.112977e-02
  6.377167e-01    1.728891e+00   3.131875e-02
  6.399271e-01    1.710097e+00   3.108837e-02
  6.421376e-01    1.691630e+00   3.086103e-02
  6.443480e-01    1.709366e+00   3.096337e-02
  6.465585e-01    1.725706e+00   3.105207e-02
  6.487689e-01    1.734812e+00   3.107512e-02
  6.509794e-01    1.690570e+00   3.061846e-02
  6.531899e-01    1.651586e+00   3.020645e-02
  6.554003e-01    1.632447e+00   2.997446e-02
  6.576108e-01    1.589396e+00   2.952152e-02
  6.598212e-01    1.589473e+00   2.946736e-02
  6.620317e-01    1.593595e+00   2.945087e-02
  6.642421e-01    1.628586e+00   2.971734e-02
  6.664526e-01    1.639820e+00   2.976474e-02
  6.686630e-01    1.614531e+00   2.947973e-02
  6.708735e-01    1.593936e+00   2.923737e-02
  6.730840e-01    1.618535e+00   2.940840e-02
  6.752944e-01    1.601629e+00   2.920121e-02
  6.775049e-01    1.580142e+00   2.895200e-02
  6.797153e-01    1.598427e+00   2.906630e-02
  6.819258e-01    1.604546e+00   2.906937e-02
  6.841362e-01    1.575582e+00   2.875401e-02
  6.863467e-01    1.589651e+00   2.883035e-02
  6.885572e-01    1.609440e+00   2.895728e-02
  6.907676e-01    1.607001e+00   2.888347e-02
  6.929781e-01    1.619562e+00   2.894461e-02
  6.951885e-01    1.572956e+00   2.847457e-02
  6.973990e-01    1.583417e+00   2.851858e-02
  6.996094e-01    1.566752e+00   2.831821e-02
  7.018199e-01    1.591884e+00   2.849433e-02
  7.040303e-01    1.593233e+00   2.845632e-02
  7.062408e-01    1.554199e+00   2.805636e-02
  7.084513e-01    1.560237e+00   2.806189e-02
  7.106617e-01    1.579956e+00   2.818960e-02
  7.128722e-01    1.577586e+00   2.811970e-02
  7.150826e-01    1.605155e+00   2.831546e-02
  7.172931e-01    1.593570e+00   2.816446e-02
  7.195035e-01    1.565879e+00   2.787068e-02
  7.217140e-01    1.600823e+00   2.822981e-02
  7.239245e-01    1.560102e+00   2.809414e-02
  7.261349e-01    1.591366e+00   2.848342e-02
  7.283454e-01    1.576926e+00   2.842638e-02
  7.305558e-01    1.553343e+00   2.826662e-02
  7.327663e-01    1.545856e+00   2.824053e-02
  7.349767e-01    1.527162e+00   2.808539e-02
  7.371872e-01    1.528432e+00   2.808603e-02
  7.393976e-01    1.543976e+00   2.821437e-02
  7.416081e-01    1.544860e+00   2.820643e-02
  7.438186e-01    1.545278e+00   2.806728e-02
  7.460290e-01    1.558561e+00   2.789492e-02
  7.482395e-01    1.558921e+00   2.772783e-02
  7.504499e-01    1.592125e+00   2.788455e-02
  7.526604e-01    1.563963e+00   2.752066e-02
  7.548708e-01    1.527914e+00   2.711358e-02
  7.570813e-01    1.521810e+00   2.700925e-02
  7.592918e-01    1.560220e+00   2.731294e-02
  7.615022e-01    1.592229e+00   2.755771e-02
  7.637127e-01    1.591355e+00   2.751720e-02
  7.659231e-01    1.570949e+00   2.730824e-02
  7.681336e-01    1.569962e+00   2.726810e-02
  7.703440e-01    1.567995e+00   2.721987e-02
  7.725545e-01    1.569497e+00   2.720206e-02
  7.747650e-01    1.617113e+00   2.757289e-02
  7.769754e-01    1.610899e+00   2.746659e-02
  7.791859e-01    1.579711e+00   2.714585e-02
  7.813963e-01    1.584139e+00   2.713118e-02
  7.836068e-01    1.575588e+00   2.700599e-02
  7.858172e-01    1.631391e+00   2.742870e-02
  7.880277e-01    1.614503e+00   2.723446e-02
  7.902381e-01    1.612134e+00   2.716502e-02
  7.924486e-01    1.606669e+00   2.706871e-02
  7.946591e-01    1.616757e+00   2.710500e-02
  7.968695e-01    1.625501e+00   2.712959e-02
  7.990800e-01    1.625116e+00   2.707789e-02
  8.012904e-01    1.639895e+00   2.715369e-02
  8.035009e-01    1.620150e+00   2.694170e-02
  8.057113e-01    1.620737e+00   2.689998e-02
  8.079218e-01    1.625122e+00   2.688986e-02
  8.101323e-01    1.627374e+00   2.686279e-02
  8.123427e-01    1.618066e+00   2.674020e-02
  8.145532e-01    1.620852e+00   2.671742e-02
  8.167636e-01    1.655588e+00   2.695677e-02
  8.189741e-01    1.643785e+00   2.681575e-02
  8.211845e-01    1.637240e+00   2.671744e-02
  8.233950e-01    1.640375e+00   2.669953e-02
  8.256054e-01    1.644653e+00   2.669001e-02
  8.278159e-01    1.659614e+00   2.676688e-02
  8.300264e-01    1.636473e+00   2.653655e-02
  8.322368e-01    1.650308e+00   2.660520e-02
  8.344473e-01    1.628852e+00   2.638846e-02
  8.366577e-01    1.600157e+00   2.611290e-02
  8.388682e-01    1.631893e+00   2.632842e-02
  8.410786e-01    1.643815e+00   2.638230e-02
  8.432891e-01    1.650234e+00   2.639178e-02
  8.454996e-01    1.662838e+00   2.645045e-02
  8.477100e-01    1.624687e+00   2.610377e-02
  8.499205e-01    1.600911e+00   2.587134e-02
  8.521309e-01    1.637990e+00   2.612846e-02
  8.543414e-01    1.586194e+00   2.567190e-02
  8.565518e-01    1.625834e+00   2.595022e-02
  8.587623e-01    1.675635e+00   2.630366e-02
  8.609727e-01    1.617605e+00   2.580412e-02
  8.631832e-01    1.598334e+00   2.561039e-02
  8.653937e-01    1.609516e+00   2.566031e-02
  8.676041e-01    1.603555e+00   2.557413e-02
  8.698146e-01    1.599791e+00   2.550504e-02
  8.720250e-01    1.608158e+00   2.553267e-02
  8.742355e-01    1.621577e+00   2.559995e-02
  8.764459e-01    1.628141e+00   2.561258e-02
  8.786564e-01    1.613801e+00   2.546153e-02
  8.808669e-01    1.604607e+00   2.535040e-02
  8.830773e-01    1.617910e+00   2.541695e-02
  8.852878e-01    1.603673e+00   2.526693e-02
  8.874982e-01    1.626434e+00   2.540868e-02
  8.897087e-01    1.566691e+00   2.490038e-02
  8.919191e-01    1.593844e+00   2.507754e-02
  8.941296e-01    1.613899e+00   2.519739e-02
  8.963401e-01    1.611437e+00   2.514161e-02
  8.985505e-01    1.616731e+00   2.514571e-02
  9.007610e-01    1.615341e+00   2.509799e-02
  9.029714e-01    1.623685e+00   2.512661e-02
  9.051819e-01    1.585798e+00   2.479470e-02
  9.073923e-01    1.576344e+00   2.468436e-02
  9.096028e-01    1.558132e+00   2.450689e-02
  9.118132e-01    1.614554e+00   2.491028e-02
  9.140237e-01    1.596839e+00   2.473667e-02
  9.162342e-01    1.562455e+00   2.443474e-02
  9.184446e-01    1.593175e+00   2.463807e-02
  9.206551e-01    1.638500e+00   2.495010e-02
  9.228655e-01    1.594898e+00   2.458071e-02
  9.250760e-01    1.575790e+00   2.439793e-02
  9.272864e-01    1.615074e+00   2.466579e-02
  9.294969e-01    1.664845e+00   2.500646e-02
  9.317074e-01    1.629913e+00   2.470780e-02
  9.339178e-01    1.567032e+00   2.419338e-02
  9.361283e-01    1.631045e+00   2.464620e-02
  9.383387e-01    1.630661e+00   2.460979e-02
  9.405492e-01    1.610333e+00   2.442176e-02
  9.427596e-01    1.644766e+00   2.464593e-02
  9.449701e-01    1.640590e+00   2.458120e-02
  9.471805e-01    1.625707e+00   2.443479e-02
  9.493910e-01    1.636893e+00   2.448504e-02
  9.516015e-01    1.680374e+00   2.477347e-02
  9.538119e-01    1.702515e+00   2.490200e-02
  9.560224e-01    1.696977e+00   2.482646e-02
  9.582328e-01    1.740874e+00   2.511177e-02
  9.604433e-01    1.757543e+00   2.519598e-02
  9.626537e-01    1.763898e+00   2.520757e-02
  9.648642e-01    1.792441e+00   2.537588e-02
  9.670747e-01    1.801399e+00   2.540415e-02
  9.692851e-01    1.836321e+00   2.561509e-02
  9.714956e-01    1.867495e+00   2.579519e-02
  9.737060e-01    1.879306e+00   2.584264e-02
  9.759165e-01    1.939896e+00   2.621888e-02
  9.781269e-01    1.942164e+00   2.619992e-02
  9.803374e-01    1.895492e+00   2.584741e-02
  9.825478e-01    1.839915e+00   2.543207e-02
  9.847583e-01    1.802116e+00   2.513528e-02
  9.869688e-01    1.815864e+00   2.519720e-02
  9.891792e-01    1.811044e+00   2.513030e-02
  9.913897e-01    1.794148e+00   2.497905e-02
  9.936001e-01    1.762830e+00   2.472766e-02
  9.958106e-01    1.726313e+00   2.443696e-02
  9.980210e-01    1.716596e+00   2.433644e-02
  1.000231e+00    1.722367e+00   2.451086e-02
  1.002442e+00    1.675885e+00   2.430634e-02
  1.004652e+00    1.683015e+00   2.442591e-02
  1.006863e+00    1.690626e+00   2.453190e-02
  1.009073e+00    1.625137e+00   2.408889e-02
  1.011284e+00    1.560237e+00   2.363454e-02
  1.013494e+00    1.557040e+00   2.363371e-02
  1.015705e+00    1.610169e+00   2.405624e-02
  1.017915e+00    1.721999e+00   2.489474e-02
  1.020126e+00    1.792642e+00   2.541744e-02
  1.022336e+00    1.749167e+00   2.511971e-02
  1.024547e+00    1.707757e+00   2.483238e-02
  1.026757e+00    1.604835e+00   2.408099e-02
  1.028967e+00    1.525228e+00   2.348373e-02
  1.031178e+00    1.545983e+00   2.364915e-02
  1.033388e+00    1.598742e+00   2.405445e-02
  1.035599e+00    1.649330e+00   2.443564e-02
  1.037809e+00    1.667703e+00   2.457476e-02
  1.040020e+00    1.677366e+00   2.464720e-02
  1.042230e+00    1.655752e+00   2.448992e-02
  1.044441e+00    1.651051e+00   2.445489e-02
  1.046651e+00    1.715465e+00   2.492752e-02
  1.048862e+00    1.794994e+00   2.549794e-02
  1.051072e+00    1.812586e+00   2.562003e-02
  1.053282e+00    1.725426e+00   2.499544e-02
  1.055493e+00    1.644795e+00   2.439993e-02
  1.057703e+00    1.532966e+00   2.355431e-02
  1.059914e+00    1.524493e+00   2.348476e-02
  1.062124e+00    1.544347e+00   2.363310e-02
  1.064335e+00    1.526424e+00   2.349207e-02
  1.066545e+00    1.525765e+00   2.348091e-02
  1.068756e+00    1.511224e+00   2.336500e-02
  1.070966e+00    1.477135e+00   2.309341e-02
  1.073177e+00    1.495149e+00   2.322771e-02
  1.075387e+00    1.448400e+00   2.285651e-02
  1.077597e+00    1.429256e+00   2.269778e-02
  1.079808e+00    1.453242e+00   2.275521e-02
  1.082018e+00    1.453197e+00   2.256642e-02
  1.084229e+00    1.431207e+00   2.228609e-02
  1.086439e+00    1.432989e+00   2.221319e-02
  1.088650e+00    1.434773e+00   2.215186e-02
  1.090860e+00    1.443575e+00   2.215232e-02
  1.093071e+00    1.439727e+00   2.206084e-02
  1.095281e+00    1.403655e+00   2.172630e-02
  1.097492e+00    1.411608e+00   2.173350e-02
  1.099702e+00    1.436527e+00   2.187316e-02
  1.101912e+00    1.457737e+00   2.198488e-02
  1.104123e+00    1.445826e+00   2.184651e-02
  1.106333e+00    1.411049e+00   2.153808e-02
  1.108544e+00    1.421410e+00   2.157288e-02
  1.110754e+00    1.404665e+00   2.140276e-02
  1.112965e+00    1.377451e+00   2.115452e-02
  1.115175e+00    1.372464e+00   2.107569e-02
  1.117386e+00    1.377393e+00   2.107477e-02
  1.119596e+00    1.375533e+00   2.102317e-02
  1.121807e+00    1.374486e+00   2.097682e-02
  1.124017e+00    1.374007e+00   2.093697e-02
  1.126228e+00    1.376484e+00   2.092041e-02
  1.128438e+00    1.370797e+00   2.084081e-02
  1.130648e+00    1.364780e+00   2.076111e-02
  1.132859e+00    1.400745e+00   2.099846e-02
  1.135069e+00    1.411769e+00   2.104600e-02
  1.137280e+00    1.348923e+00   2.053971e-02
  1.139490e+00    1.364747e+00   2.062701e-02
  1.141701e+00    1.389178e+00   2.077766e-02
  1.143911e+00    1.391149e+00   2.076045e-02
  1.146122e+00    1.375477e+00   2.061124e-02
  1.148332e+00    1.372736e+00   2.055887e-02
  1.150543e+00    1.359658e+00   2.043010e-02
  1.152753e+00    1.346980e+00   2.030409e-02
  1.154963e+00    1.370180e+00   2.044719e-02
  1.157174e+00    1.374808e+00   2.045152e-02
  1.159384e+00    1.372250e+00   2.040264e-02
  1.161595e+00    1.359700e+00   2.027939e-02
  1.163805e+00    1.366088e+00   2.029776e-02
  1.166016e+00    1.332785e+00   2.001976e-02
  1.168226e+00    1.349113e+00   2.011324e-02
  1.170437e+00    1.380938e+00   2.032029e-02
  1.172647e+00    1.405223e+00   2.046891e-02
  1.174858e+00    1.388330e+00   2.031714e-02
  1.177068e+00    1.365140e+00   2.011848e-02
  1.179278e+00    1.347069e+00   1.995645e-02
  1.181489e+00    1.328982e+00   1.979532e-02
  1.183699e+00    1.352545e+00   1.994250e-02
  1.185910e+00    1.360662e+00   1.997447e-02
  1.188120e+00    1.372753e+00   2.003617e-02
  1.190331e+00    1.373051e+00   2.001141e-02
  1.192541e+00    1.380813e+00   2.004025e-02
  1.194752e+00    1.326486e+00   1.961530e-02
  1.196962e+00    1.323907e+00   1.957071e-02
  1.199173e+00    1.336235e+00   1.963528e-02
  1.201383e+00    1.343497e+00   1.966146e-02
  1.203593e+00    1.336608e+00   1.958628e-02
  1.205804e+00    1.365957e+00   1.977408e-02
  1.208014e+00    1.371842e+00   1.978958e-02
  1.210225e+00    1.336977e+00   1.951129e-02
  1.212435e+00    1.351036e+00   1.958879e-02
  1.214646e+00    1.340513e+00   1.948635e-02
  1.216856e+00    1.334548e+00   1.941761e-02
  1.219067e+00    1.337963e+00   1.941808e-02
  1.221277e+00    1.330495e+00   1.933898e-02
  1.223488e+00    1.332578e+00   1.932851e-02
  1.225698e+00    1.338191e+00   1.934240e-02
  1.227909e+00    1.341422e+00   1.933566e-02
  1.230119e+00    1.359412e+00   1.943292e-02
  1.232329e+00    1.355948e+00   1.937737e-02
  1.234540e+00    1.328423e+00   1.914964e-02
  1.236750e+00    1.326244e+00   1.910393e-02
  1.238961e+00    1.331607e+00   1.911573e-02
  1.241171e+00    1.331127e+00   1.908826e-02
  1.243382e+00    1.335205e+00   1.909409e-02
  1.245592e+00    1.337122e+00   1.908383e-02
  1.247803e+00    1.340974e+00   1.908770e-02
  1.250013e+00    1.355544e+00   1.916755e-02
  1.252224e+00    1.350241e+00   1.910675e-02
  1.254434e+00    1.358017e+00   1.913789e-02
  1.256644e+00    1.359451e+00   1.912469e-02
  1.258855e+00    1.360730e+00   1.911034e-02
  1.261065e+00    1.343065e+00   1.896256e-02
  1.263276e+00    1.353227e+00   1.901120e-02
  1.265486e+00    1.352693e+00   1.898455e-02
  1.267697e+00    1.371668e+00   1.909404e-02
  1.269907e+00    1.347384e+00   1.890160e-02
  1.272118e+00    1.347326e+00   1.887863e-02
  1.274328e+00    1.356090e+00   1.891715e-02
  1.276539e+00    1.329407e+00   1.870752e-02
  1.278749e+00    1.300839e+00   1.848352e-02
  1.280959e+00    1.331410e+00   1.867706e-02
  1.283170e+00    1.357359e+00   1.883573e-02
  1.285380e+00    1.333781e+00   1.864908e-02
  1.287591e+00    1.341311e+00   1.867971e-02
  1.289801e+00    1.356286e+00   1.876240e-02
  1.292012e+00    1.372390e+00   1.885623e-02
  1.294222e+00    1.351666e+00   1.869708e-02
  1.296433e+00    1.349968e+00   1.866972e-02
  1.298643e+00    1.364921e+00   1.875627e-02
  1.300854e+00    1.354131e+00   1.866555e-02
  1.303064e+00    1.339159e+00   1.854294e-02
  1.305274e+00    1.312867e+00   1.833886e-02
  1.307485e+00    1.332400e+00   1.845337e-02
  1.309695e+00    1.366222e+00   1.866373e-02
  1.311906e+00    1.366675e+00   1.864502e-02
  1.314116e+00    1.353086e+00   1.853125e-02
  1.316327e+00    1.341491e+00   1.843007e-02
  1.318537e+00    1.320998e+00   1.826710e-02
  1.320748e+00    1.362451e+00   1.852984e-02
  1.322958e+00    1.339169e+00   1.835041e-02
  1.325169e+00    1.350764e+00   1.840864e-02
  1.327379e+00    1.352179e+00   1.839647e-02
  1.329589e+00    1.362579e+00   1.844590e-02
  1.331800e+00    1.387342e+00   1.859179e-02
  1.334010e+00    1.360571e+00   1.839081e-02
  1.336221e+00    1.358339e+00   1.835389e-02
  1.338431e+00    1.344525e+00   1.823951e-02
  1.340642e+00    1.349715e+00   1.833882e-02
  1.342852e+00    1.358407e+00   1.849877e-02
  1.345063e+00    1.360459e+00   1.856242e-02
  1.347273e+00    1.347183e+00   1.850684e-02
  1.349484e+00    1.344864e+00   1.851851e-02
  1.351694e+00    1.340270e+00   1.850949e-02
  1.353905e+00    1.364796e+00   1.869616e-02
  1.356115e+00    1.385758e+00   1.885444e-02
  1.358325e+00    1.388237e+00   1.888481e-02
  1.360536e+00    1.352952e+00   1.865491e-02
  1.362746e+00    1.353149e+00   1.866583e-02
  1.364957e+00    1.360949e+00   1.872725e-02
  1.367167e+00    1.313777e+00   1.840691e-02
  1.369378e+00    1.308012e+00   1.837240e-02
  1.371588e+00    1.302741e+00   1.834040e-02
  1.373799e+00    1.315934e+00   1.843666e-02
  1.376009e+00    1.316556e+00   1.844439e-02
  1.378220e+00    1.309970e+00   1.840071e-02
  1.380430e+00    1.296582e+00   1.830910e-02
  1.382640e+00    1.305728e+00   1.837448e-02
  1.384851e+00    1.265504e+00   1.809010e-02
  1.387061e+00    1.284765e+00   1.822752e-02
  1.389272e+00    1.300515e+00   1.833912e-02
  1.391482e+00    1.299733e+00   1.833295e-02
  1.393693e+00    1.252606e+00   1.799664e-02
  1.395903e+00    1.288592e+00   1.825182e-02
  1.398114e+00    1.281786e+00   1.820218e-02
  1.400324e+00    1.282411e+00   1.820449e-02
  1.402535e+00    1.248606e+00   1.796066e-02
  1.404745e+00    1.267196e+00   1.809150e-02
  1.406955e+00    1.251796e+00   1.797857e-02
  1.409166e+00    1.262255e+00   1.805022e-02
  1.411376e+00    1.283786e+00   1.820037e-02
  1.413587e+00    1.283986e+00   1.819799e-02
  1.415797e+00    1.251781e+00   1.796478e-02
  1.418008e+00    1.276902e+00   1.810217e-02
  1.420218e+00    1.272825e+00   1.792335e-02
  1.422429e+00    1.283041e+00   1.790939e-02
  1.424639e+00    1.258913e+00   1.767579e-02
  1.426850e+00    1.264419e+00   1.765981e-02
  1.429060e+00    1.277806e+00   1.770393e-02
  1.431270e+00    1.259936e+00   1.753554e-02
  1.433481e+00    1.283872e+00   1.766016e-02
  1.435691e+00    1.282157e+00   1.760975e-02
  1.437902e+00    1.268061e+00   1.747625e-02
  1.440112e+00    1.274105e+00   1.748244e-02
  1.442323e+00    1.276373e+00   1.746487e-02
  1.444533e+00    1.278533e+00   1.744698e-02
  1.446744e+00    1.279114e+00   1.741971e-02
  1.448954e+00    1.268500e+00   1.731710e-02
  1.451165e+00    1.266303e+00   1.727241e-02
  1.453375e+00    1.250687e+00   1.713772e-02
  1.455586e+00    1.260272e+00   1.717522e-02
  1.457796e+00    1.266893e+00   1.719280e-02
  1.460006e+00    1.265635e+00   1.715705e-02
  1.462217e+00    1.254260e+00   1.705372e-02
  1.464427e+00    1.266429e+00   1.711068e-02
  1.466638e+00    1.249939e+00   1.697377e-02
  1.468848e+00    1.259381e+00   1.701253e-02
  1.471059e+00    1.278046e+00   1.711296e-02
  1.473269e+00    1.277473e+00   1.708467e-02
  1.475480e+00    1.261585e+00   1.695440e-02
  1.477690e+00    1.252611e+00   1.687031e-02
  1.479901e+00    1.246788e+00   1.680738e-02
  1.482111e+00    1.264891e+00   1.690569e-02
  1.484321e+00    1.237972e+00   1.670199e-02
  1.486532e+00    1.244920e+00   1.672661e-02
  1.488742e+00    1.270359e+00   1.687397e-02
  1.490953e+00    1.257767e+00   1.676760e-02
  1.493163e+00    1.211987e+00   1.643779e-02
  1.495374e+00    1.225886e+00   1.651059e-02
  1.497584e+00    1.241795e+00   1.659589e-02
  1.499795e+00    1.247855e+00   1.661482e-02
  1.502005e+00    1.243210e+00   1.656231e-02
  1.504216e+00    1.253801e+00   1.661173e-02
  1.506426e+00    1.234838e+00   1.646501e-02
  1.508636e+00    1.242962e+00   1.649874e-02
  1.510847e+00    1.263477e+00   1.661246e-02
  1.513057e+00    1.259466e+00   1.656095e-02
  1.515268e+00    1.264285e+00   1.656680e-02
  1.517478e+00    1.252373e+00   1.646343e-02
  1.519689e+00    1.264555e+00   1.651824e-02
  1.521899e+00    1.250116e+00   1.640060e-02
  1.524110e+00    1.232822e+00   1.626659e-02
  1.526320e+00    1.253427e+00   1.638234e-02
  1.528531e+00    1.259471e+00   1.640200e-02
  1.530741e+00    1.235234e+00   1.622435e-02
  1.532951e+00    1.250822e+00   1.630683e-02
  1.535162e+00    1.218340e+00   1.617922e-02
  1.537372e+00    1.209928e+00   1.618909e-02
  1.539583e+00    1.216750e+00   1.626848e-02
  1.541793e+00    1.234466e+00   1.639338e-02
  1.544004e+00    1.229533e+00   1.636086e-02
  1.546214e+00    1.238725e+00   1.642040e-02
  1.548425e+00    1.239942e+00   1.642874e-02
  1.550635e+00    1.235942e+00   1.641185e-02
  1.552846e+00    1.237555e+00   1.643219e-02
  1.555056e+00    1.225573e+00   1.631129e-02
  1.557266e+00    1.220035e+00   1.616503e-02
  1.559477e+00    1.208927e+00   1.603301e-02
  1.561687e+00    1.235963e+00   1.618071e-02
  1.563898e+00    1.263558e+00   1.634307e-02
  1.566108e+00    1.259412e+00   1.630019e-02
  1.568319e+00    1.226489e+00   1.607021e-02
  1.570529e+00    1.228209e+00   1.605650e-02
  1.572740e+00    1.241990e+00   1.611874e-02
  1.574950e+00    1.251568e+00   1.615439e-02
  1.577161e+00    1.236685e+00   1.603266e-02
  1.579371e+00    1.218892e+00   1.589348e-02
  1.581582e+00    1.240602e+00   1.601466e-02
  1.583792e+00    1.244333e+00   1.602071e-02
  1.586002e+00    1.234671e+00   1.594082e-02
  1.588213e+00    1.256717e+00   1.606520e-02
  1.590423e+00    1.243347e+00   1.595945e-02
  1.592634e+00    1.238249e+00   1.590512e-02
  1.594844e+00    1.252973e+00   1.597791e-02
  1.597055e+00    1.246251e+00   1.591448e-02
  1.599265e+00    1.235281e+00   1.582360e-02
  1.601476e+00    1.250575e+00   1.590088e-02
  1.603686e+00    1.251487e+00   1.588682e-02
  1.605897e+00    1.243709e+00   1.581719e-02
  1.608107e+00    1.241284e+00   1.578216e-02
  1.610317e+00    1.247565e+00   1.580266e-02
  1.612528e+00    1.222908e+00   1.562664e-02
  1.614738e+00    1.227108e+00   1.563452e-02
  1.616949e+00    1.213549e+00   1.552904e-02
  1.619159e+00    1.200377e+00   1.542598e-02
  1.621370e+00    1.199739e+00   1.540357e-02
  1.623580e+00    1.179292e+00   1.525367e-02
  1.625791e+00    1.202895e+00   1.538735e-02
  1.628001e+00    1.174201e+00   1.518468e-02
  1.630212e+00    1.180888e+00   1.521018e-02
  1.632422e+00    1.169376e+00   1.511811e-02
  1.634632e+00    1.148305e+00   1.496422e-02
  1.636843e+00    1.130978e+00   1.483370e-02
  1.639053e+00    1.146006e+00   1.491481e-02
  1.641264e+00    1.175508e+00   1.508846e-02
  1.643474e+00    1.156232e+00   1.494690e-02
  1.645685e+00    1.150783e+00   1.489502e-02
  1.647895e+00    1.139792e+00   1.480723e-02
  1.650106e+00    1.139017e+00   1.478529e-02
  1.652316e+00    1.121540e+00   1.465513e-02
  1.654527e+00    1.115361e+00   1.459823e-02
  1.656737e+00    1.126789e+00   1.465634e-02
  1.658947e+00    1.135824e+00   1.469866e-02
  1.661158e+00    1.133497e+00   1.466728e-02
  1.663368e+00    1.148039e+00   1.474487e-02
  1.665579e+00    1.138192e+00   1.466523e-02
  1.667789e+00    1.115282e+00   1.450065e-02
  1.670000e+00    1.106586e+00   1.442857e-02
  1.672210e+00    1.095243e+00   1.433864e-02
  1.674421e+00    1.073040e+00   1.417746e-02
  1.676631e+00    1.086575e+00   1.425081e-02
  1.678842e+00    1.079209e+00   1.418683e-02
  1.681052e+00    1.061560e+00   1.405515e-02
  1.683263e+00    1.072134e+00   1.410998e-02
  1.685473e+00    1.071426e+00   1.409028e-02
  1.687683e+00    1.059599e+00   1.399703e-02
  1.689894e+00    1.073082e+00   1.407009e-02
  1.692104e+00    1.053196e+00   1.392437e-02
  1.694315e+00    1.044702e+00   1.385377e-02
  1.696525e+00    1.041330e+00   1.381645e-02
  1.698736e+00    1.038727e+00   1.378453e-02
  1.700946e+00    1.033597e+00   1.373551e-02
  1.703157e+00    1.026691e+00   1.367511e-02
  1.705367e+00    1.031081e+00   1.368997e-02
  1.707578e+00    1.024827e+00   1.363399e-02
  1.709788e+00    1.035318e+00   1.368955e-02
  1.711998e+00    1.009374e+00   1.350218e-02
  1.714209e+00    1.017500e+00   1.354211e-02
  1.716419e+00    1.018051e+00   1.353164e-02
  1.718630e+00    1.002967e+00   1.341694e-02
  1.720840e+00    1.023386e+00   1.353868e-02
  1.723051e+00    9.829956e-01   1.325525e-02
  1.725261e+00    9.930711e-01   1.330852e-02
  1.727472e+00    1.014513e+00   1.343728e-02
  1.729682e+00    1.012870e+00   1.341297e-02
  1.731893e+00    9.981562e-01   1.330136e-02
  1.734103e+00    9.820641e-01   1.318011e-02
  1.736313e+00    9.748026e-01   1.311748e-02
  1.738524e+00    9.830092e-01   1.315890e-02
  1.740734e+00    9.901693e-01   1.319309e-02
  1.742945e+00    9.859639e-01   1.315168e-02
  1.745155e+00    9.807360e-01   1.310338e-02
  1.747366e+00    9.551516e-01   1.291777e-02
  1.749576e+00    9.834384e-01   1.309399e-02
  1.751787e+00    9.529958e-01   1.287661e-02
  1.753997e+00    9.551848e-01   1.287816e-02
  1.756208e+00    9.467366e-01   1.280808e-02
  1.758418e+00    9.568697e-01   1.286343e-02
  1.760628e+00    9.451859e-01   1.277148e-02
  1.762839e+00    9.302372e-01   1.265709e-02
  1.765049e+00    9.401864e-01   1.271163e-02
  1.767260e+00    9.416012e-01   1.270851e-02
  1.769470e+00    9.138334e-01   1.250702e-02
  1.771681e+00    9.352211e-01   1.263950e-02
  1.773891e+00    9.545098e-01   1.275609e-02
  1.776102e+00    9.570161e-01   1.275992e-02
  1.778312e+00    9.065752e-01   1.240663e-02
  1.780523e+00    9.135049e-01   1.244139e-02
  1.782733e+00    9.256963e-01   1.251155e-02
  1.784944e+00    9.346515e-01   1.255905e-02
  1.787154e+00    9.020568e-01   1.232579e-02
  1.789364e+00    9.088713e-01   1.235991e-02
  1.791575e+00    9.425588e-01   1.257424e-02
  1.793785e+00    9.334236e-01   1.250071e-02
  1.795996e+00    9.003298e-01   1.226474e-02
  1.798206e+00    9.203899e-01   1.238804e-02
  1.800417e+00    9.565965e-01   1.261644e-02
  1.802627e+00    9.438488e-01   1.251996e-02
  1.804838e+00    9.324533e-01   1.243191e-02
  1.807048e+00    9.175243e-01   1.231909e-02
  1.809259e+00    9.260187e-01   1.236223e-02
  1.811469e+00    9.287583e-01   1.236535e-02
  1.813679e+00    9.072523e-01   1.220633e-02
  1.815890e+00    9.043183e-01   1.217177e-02
  1.818100e+00    9.150842e-01   1.222874e-02
  1.820311e+00    9.371572e-01   1.236023e-02
  1.822521e+00    9.607812e-01   1.249962e-02
  1.824732e+00    9.463686e-01   1.239027e-02
  1.826942e+00    9.024299e-01   1.208676e-02
  1.829153e+00    9.159097e-01   1.216481e-02
  1.831363e+00    9.087107e-01   1.210470e-02
  1.833574e+00    8.966884e-01   1.201258e-02
  1.835784e+00    8.816525e-01   1.190002e-02
  1.837994e+00    8.687070e-01   1.180065e-02
  1.840205e+00    8.931561e-01   1.195427e-02
  1.842415e+00    8.835853e-01   1.187822e-02
  1.844626e+00    8.664433e-01   1.175090e-02
  1.846836e+00    8.768443e-01   1.180971e-02
  1.849047e+00    8.853719e-01   1.185528e-02
  1.851257e+00    8.768238e-01   1.178827e-02
  1.853468e+00    8.810215e-01   1.180753e-02
  1.855678e+00    8.846033e-01   1.182254e-02
  1.857889e+00    8.638151e-01   1.167425e-02
  1.860099e+00    8.589512e-01   1.163271e-02
  1.862309e+00    8.481402e-01   1.155079e-02
  1.864520e+00    8.656520e-01   1.166081e-02
  1.866730e+00    8.584335e-01   1.160269e-02
  1.868941e+00    8.593663e-01   1.159799e-02
  1.871151e+00    8.718975e-01   1.167074e-02
  1.873362e+00    8.478104e-01   1.149706e-02
  1.875572e+00    8.513643e-01   1.151019e-02
  1.877783e+00    8.484609e-01   1.147912e-02
  1.879993e+00    8.376095e-01   1.139438e-02
  1.882204e+00    8.370109e-01   1.137945e-02
  1.884414e+00    8.377540e-01   1.137347e-02
  1.886624e+00    8.767380e-01   1.162379e-02
  1.888835e+00    8.862264e-01   1.167528e-02
  1.891045e+00    8.727826e-01   1.157530e-02
  1.893256e+00    8.416227e-01   1.135568e-02
  1.895466e+00    8.332714e-01   1.128805e-02
  1.897677e+00    8.232114e-01   1.120887e-02
  1.899887e+00    8.200317e-01   1.117629e-02
  1.902098e+00    8.248299e-01   1.119815e-02
  1.904308e+00    8.364457e-01   1.126611e-02
  1.906519e+00    8.354798e-01   1.124871e-02
  1.908729e+00    8.655297e-01   1.143840e-02
  1.910940e+00    8.341208e-01   1.121777e-02
  1.913150e+00    8.229032e-01   1.113151e-02
  1.915360e+00    8.027106e-01   1.098362e-02
  1.917571e+00    8.014317e-01   1.096413e-02
  1.919781e+00    7.886695e-01   1.086601e-02
  1.921992e+00    7.877699e-01   1.084940e-02
  1.924202e+00    7.912222e-01   1.086256e-02
  1.926413e+00    8.139159e-01   1.100693e-02
  1.928623e+00    8.257307e-01   1.107594e-02
  1.930834e+00    8.060746e-01   1.093294e-02
  1.933044e+00    8.037125e-01   1.090627e-02
  1.935255e+00    8.013992e-01   1.088031e-02
  1.937465e+00    7.811791e-01   1.073195e-02
  1.939675e+00    7.904857e-01   1.078493e-02
  1.941886e+00    8.048685e-01   1.087234e-02
  1.944096e+00    7.909613e-01   1.076790e-02
  1.946307e+00    7.989957e-01   1.081211e-02
  1.948517e+00    7.913713e-01   1.075003e-02
  1.950728e+00    7.831151e-01   1.068365e-02
  1.952938e+00    7.822654e-01   1.066786e-02
  1.955149e+00    7.751637e-01   1.060924e-02
  1.957359e+00    7.723592e-01   1.058013e-02
  1.959570e+00    7.948579e-01   1.072225e-02
  1.961780e+00    7.855052e-01   1.064912e-02
  1.963990e+00    7.697524e-01   1.053184e-02
  1.966201e+00    7.730232e-01   1.054421e-02
  1.968411e+00    7.864541e-01   1.062531e-02
  1.970622e+00    7.697121e-01   1.050163e-02
  1.972832e+00    7.841203e-01   1.058949e-02
  1.975043e+00    7.721061e-01   1.049812e-02
  1.977253e+00    7.810995e-01   1.054915e-02
  1.979464e+00    7.594158e-01   1.039182e-02
  1.981674e+00    7.610928e-01   1.039317e-02
  1.983885e+00    7.709011e-01   1.044997e-02
  1.986095e+00    7.795885e-01   1.049898e-02
  1.988305e+00    7.710056e-01   1.043120e-02
  1.990516e+00    7.725947e-01   1.043206e-02
  1.992726e+00    7.751278e-01   1.043948e-02
  1.994937e+00    7.894964e-01   1.052560e-02
  1.997147e+00    7.554190e-01   1.028635e-02
  1.999358e+00    7.604131e-01   1.031050e-02
  2.001568e+00    7.660505e-01   1.033790e-02
  2.003779e+00    7.634593e-01   1.030856e-02
  2.005989e+00    7.740738e-01   1.036793e-02
  2.008200e+00    7.658013e-01   1.030088e-02
  2.010410e+00    7.684664e-01   1.030706e-02
  2.012621e+00    7.603021e-01   1.024051e-02
  2.014831e+00    7.626244e-01   1.024471e-02
  2.017041e+00    7.818140e-01   1.036231e-02
  2.019252e+00    7.687390e-01   1.026533e-02
  2.021462e+00    7.745234e-01   1.029431e-02
  2.023673e+00    7.517859e-01   1.013276e-02
  2.025883e+00    7.636838e-01   1.020311e-02
  2.028094e+00    7.598248e-01   1.016767e-02
  2.030304e+00    7.647679e-01   1.019114e-02
  2.032515e+00    7.579814e-01   1.013654e-02
  2.034725e+00    7.587382e-01   1.013215e-02
  2.036936e+00    7.538441e-01   1.009012e-02
  2.039146e+00    7.679482e-01   1.017442e-02
  2.041356e+00    7.550843e-01   1.007922e-02
  2.043567e+00    7.618234e-01   1.011475e-02
  2.045777e+00    7.622205e-01   1.010810e-02
  2.047988e+00    7.626054e-01   1.010124e-02
  2.050198e+00    7.394882e-01   9.938614e-03
  2.052409e+00    7.438184e-01   9.960033e-03
  2.054619e+00    7.751436e-01   1.016011e-02
  2.056830e+00    7.702078e-01   1.012047e-02
  2.059040e+00    7.583010e-01   1.003437e-02
  2.061251e+00    7.666566e-01   1.008218e-02
  2.063461e+00    7.826983e-01   1.017936e-02
  2.065671e+00    7.607968e-01   1.002714e-02
  2.067882e+00    7.629819e-01   1.003243e-02
  2.070092e+00    7.688353e-01   1.006151e-02
  2.072303e+00    7.778417e-01   1.011095e-02
  2.074513e+00    7.443123e-01   9.881335e-03
  2.076724e+00    7.509245e-01   9.915592e-03
  2.078934e+00    7.535456e-01   9.923834e-03
  2.081145e+00    7.511625e-01   9.898997e-03
  2.083355e+00    7.502235e-01   9.883571e-03
  2.085566e+00    7.502358e-01   9.874695e-03
  2.087776e+00    7.374759e-01   9.780878e-03
  2.089986e+00    7.322877e-01   9.737652e-03
  2.092197e+00    7.377429e-01   9.764894e-03
  2.094407e+00    7.521721e-01   9.850599e-03
  2.096618e+00    7.447803e-01   9.793131e-03
  2.098828e+00    7.306604e-01   9.690572e-03
  2.101039e+00    7.144489e-01   9.573605e-03
  2.103249e+00    7.033051e-01   9.490127e-03
  2.105460e+00    7.191812e-01   9.587694e-03
  2.107670e+00    7.275327e-01   9.634485e-03
  2.109881e+00    7.101364e-01   9.509545e-03
  2.112091e+00    7.080495e-01   9.486679e-03
  2.114301e+00    6.904956e-01   9.359794e-03
  2.116512e+00    6.904708e-01   9.350996e-03
  2.118722e+00    7.369168e-01   9.651469e-03
  2.120933e+00    7.180756e-01   9.518484e-03
  2.123143e+00    6.928638e-01   9.341122e-03
  2.125354e+00    6.975738e-01   9.364414e-03
  2.127564e+00    7.054506e-01   9.408453e-03
  2.129775e+00    7.156247e-01   9.467345e-03
  2.131985e+00    7.059538e-01   9.394166e-03
  2.134196e+00    6.891259e-01   9.273071e-03
  2.136406e+00    6.912329e-01   9.278617e-03
  2.138617e+00    7.070050e-01   9.375447e-03
  2.140827e+00    7.019582e-01   9.357912e-03
  2.143037e+00    6.971014e-01   9.370626e-03
  2.145248e+00    7.048091e-01   9.444267e-03
  2.147458e+00    6.973378e-01   9.409158e-03
  2.149669e+00    6.946884e-01   9.403043e-03
  2.151879e+00    6.879416e-01   9.366394e-03
  2.154090e+00    6.879328e-01   9.373583e-03
  2.156300e+00    6.949694e-01   9.427984e-03
  2.158511e+00    6.825185e-01   9.348378e-03
  2.160721e+00    6.880385e-01   9.390889e-03
  2.162932e+00    6.769361e-01   9.318514e-03
  2.165142e+00    6.847385e-01   9.375006e-03
  2.167352e+00    7.234315e-01   9.639255e-03
  2.169563e+00    6.957947e-01   9.455306e-03
  2.171773e+00    6.818479e-01   9.362475e-03
  2.173984e+00    7.024698e-01   9.504407e-03
  2.176194e+00    6.901194e-01   9.421711e-03
  2.178405e+00    6.983141e-01   9.478172e-03
  2.180615e+00    6.885461e-01   9.412318e-03
  2.182826e+00    6.884349e-01   9.412249e-03
  2.185036e+00    6.865082e-01   9.399125e-03
  2.187247e+00    6.758025e-01   9.325490e-03
  2.189457e+00    6.777584e-01   9.338574e-03
  2.191667e+00    6.855100e-01   9.391637e-03
  2.193878e+00    6.906973e-01   9.426557e-03
  2.196088e+00    6.854680e-01   9.390097e-03
  2.198299e+00    7.033248e-01   9.510537e-03
  2.200509e+00    6.899129e-01   9.418359e-03
  2.202720e+00    6.810805e-01   9.356709e-03
  2.204930e+00    6.964176e-01   9.460237e-03
  2.207141e+00    6.736069e-01   9.302909e-03
  2.209351e+00    6.701314e-01   9.276982e-03
  2.211562e+00    6.892139e-01   9.406531e-03
  2.213772e+00    6.724338e-01   9.236000e-03
  2.215982e+00    6.769118e-01   9.222482e-03
  2.218193e+00    6.685331e-01   9.135732e-03
  2.220403e+00    6.690006e-01   9.114448e-03
  2.222614e+00    6.787794e-01   9.159799e-03
  2.224824e+00    6.736310e-01   9.105599e-03
  2.227035e+00    6.706737e-01   9.068188e-03
  2.229245e+00    6.722800e-01   9.062055e-03
  2.231456e+00    6.607525e-01   8.968544e-03
  2.233666e+00    6.600601e-01   8.948872e-03
  2.235877e+00    6.530750e-01   8.887307e-03
  2.238087e+00    6.560848e-01   8.894428e-03
  2.240298e+00    6.664711e-01   8.950816e-03
  2.242508e+00    6.549891e-01   8.858397e-03
  2.244718e+00    6.671397e-01   8.924403e-03
  2.246929e+00    6.696628e-01   8.926836e-03
  2.249139e+00    6.572536e-01   8.831440e-03
  2.251350e+00    6.621626e-01   8.852703e-03
  2.253560e+00    6.553346e-01   8.795463e-03
  2.255771e+00    6.689969e-01   8.875246e-03
  2.257981e+00    6.506279e-01   8.741499e-03
  2.260192e+00    6.444204e-01   8.688752e-03
  2.262402e+00    6.654246e-01   8.818344e-03
  2.264613e+00    6.556188e-01   8.742387e-03
  2.266823e+00    6.509254e-01   8.700727e-03
  2.269033e+00    6.432073e-01   8.638745e-03
  2.271244e+00    6.570853e-01   8.721120e-03
  2.273454e+00    6.588200e-01   8.722366e-03
  2.275665e+00    6.603140e-01   8.721987e-03
  2.277875e+00    6.464342e-01   8.619996e-03
  2.280086e+00    6.615054e-01   8.709855e-03
  2.282296e+00    6.510444e-01   8.631362e-03
  2.284507e+00    6.611156e-01   8.687720e-03
  2.286717e+00    6.603776e-01   8.673383e-03
  2.288928e+00    6.591544e-01   8.655469e-03
  2.291138e+00    6.719614e-01   8.729615e-03
  2.293348e+00    6.609992e-01   8.648547e-03
  2.295559e+00    6.585631e-01   8.623244e-03
  2.297769e+00    6.615388e-01   8.633420e-03
  2.299980e+00    6.586987e-01   8.605491e-03
  2.302190e+00    6.555995e-01   8.576088e-03
  2.304401e+00    6.500604e-01   8.530459e-03
  2.306611e+00    6.569431e-01   8.566278e-03
  2.308822e+00    6.497857e-01   8.511118e-03
  2.311032e+00    6.416383e-01   8.451168e-03
  2.313243e+00    6.426217e-01   8.451410e-03
  2.315453e+00    6.400867e-01   8.427207e-03
  2.317663e+00    6.411984e-01   8.425429e-03
  2.319874e+00    6.544294e-01   8.503141e-03
  2.322084e+00    6.364152e-01   8.376402e-03
  2.324295e+00    6.452052e-01   8.425805e-03
  2.326505e+00    6.666131e-01   8.555251e-03
  2.328716e+00    6.441604e-01   8.401399e-03
  2.330926e+00    6.434531e-01   8.387971e-03
  2.333137e+00    6.465024e-01   8.399429e-03
  2.335347e+00    6.307231e-01   8.287496e-03
  2.337558e+00    6.355897e-01   8.311188e-03
  2.339768e+00    6.451514e-01   8.364893e-03
  2.341979e+00    6.168749e-01   8.171293e-03
  2.344189e+00    6.271520e-01   8.230740e-03
  2.346399e+00    6.304034e-01   8.243596e-03
  2.348610e+00    6.417766e-01   8.309131e-03
  2.350820e+00    6.430495e-01   8.309132e-03
  2.353031e+00    6.445566e-01   8.310511e-03
  2.355241e+00    6.225510e-01   8.159448e-03
  2.357452e+00    6.375847e-01   8.248890e-03
  2.359662e+00    6.331051e-01   8.211652e-03
  2.361873e+00    6.352234e-01   8.217118e-03
  2.364083e+00    6.217505e-01   8.121559e-03
  2.366294e+00    6.353276e-01   8.201592e-03
  2.368504e+00    6.382463e-01   8.212268e-03
  2.370714e+00    6.245540e-01   8.115657e-03
  2.372925e+00    6.319714e-01   8.155603e-03
  2.375135e+00    6.175964e-01   8.054308e-03
  2.377346e+00    6.186610e-01   8.053330e-03
  2.379556e+00    6.115449e-01   7.999057e-03
  2.381767e+00    6.084152e-01   7.970777e-03
  2.383977e+00    6.071575e-01   7.954688e-03
  2.386188e+00    6.207288e-01   8.035170e-03
  2.388398e+00    6.151364e-01   7.990976e-03
  2.390609e+00    6.085363e-01   7.940304e-03
  2.392819e+00    6.136230e-01   7.965658e-03
  2.395029e+00    6.127717e-01   7.952510e-03
  2.397240e+00    6.097494e-01   7.925013e-03
  2.399450e+00    6.080662e-01   7.906309e-03
  2.401661e+00    6.064625e-01   7.888219e-03
  2.403871e+00    6.188632e-01   7.960658e-03
  2.406082e+00    6.083914e-01   7.885599e-03
  2.408292e+00    6.136147e-01   7.911558e-03
  2.410503e+00    6.019967e-01   7.828849e-03
  2.412713e+00    6.010125e-01   7.814690e-03
  2.414924e+00    6.118829e-01   7.877512e-03
  2.417134e+00    6.108423e-01   7.863167e-03
  2.419344e+00    6.017362e-01   7.796916e-03
  2.421555e+00    5.979846e-01   7.765094e-03
  2.423765e+00    6.190014e-01   7.892849e-03
  2.425976e+00    5.925128e-01   7.714378e-03
  2.428186e+00    5.956887e-01   7.727826e-03
  2.430397e+00    5.804410e-01   7.620892e-03
  2.432607e+00    5.929701e-01   7.695443e-03
  2.434818e+00    5.775076e-01   7.587039e-03
  2.437028e+00    5.912234e-01   7.669438e-03
  2.439239e+00    5.914500e-01   7.663293e-03
  2.441449e+00    5.951793e-01   7.680191e-03
  2.443659e+00    5.828900e-01   7.593205e-03
  2.445870e+00    5.672146e-01   7.502407e-03
  2.448080e+00    5.645565e-01   7.519064e-03
  2.450291e+00    5.758680e-01   7.610587e-03
  2.452501e+00    5.752926e-01   7.617958e-03
  2.454712e+00    5.618430e-01   7.536727e-03
  2.456922e+00    5.645388e-01   7.561359e-03
  2.459133e+00    5.669731e-01   7.583070e-03
  2.461343e+00    5.561867e-01   7.514918e-03
  2.463554e+00    5.687903e-01   7.603051e-03
  2.465764e+00    5.519462e-01   7.492760e-03
  2.467975e+00    5.515900e-01   7.492580e-03
  2.470185e+00    5.716264e-01   7.629750e-03
  2.472395e+00    5.524939e-01   7.502194e-03
  2.474606e+00    5.391603e-01   7.412658e-03
  2.476816e+00    5.418875e-01   7.432106e-03
  2.479027e+00    5.390731e-01   7.413620e-03
  2.481237e+00    5.385764e-01   7.410472e-03
  2.483448e+00    5.482892e-01   7.477305e-03
  2.485658e+00    5.425286e-01   7.437774e-03
  2.487869e+00    5.401920e-01   7.421786e-03
  2.490079e+00    5.414416e-01   7.429838e-03
  2.492290e+00    5.399259e-01   7.419001e-03
  2.494500e+00    5.517550e-01   7.499085e-03
  2.496710e+00    5.347252e-01   7.381767e-03
  2.498921e+00    5.367020e-01   7.394399e-03
  2.501131e+00    5.273091e-01   7.328468e-03
  2.503342e+00    5.385901e-01   7.405165e-03
  2.505552e+00    5.248025e-01   7.308648e-03
  2.507763e+00    5.136082e-01   7.228894e-03
  2.509973e+00    5.120784e-01   7.216739e-03
  2.512184e+00    5.087025e-01   7.191319e-03
  2.514394e+00    5.189567e-01   7.254150e-03
  2.516605e+00    5.319942e-01   7.297399e-03
  2.518815e+00    5.135850e-01   7.142052e-03
  2.521025e+00    5.244393e-01   7.196164e-03
  2.523236e+00    5.222338e-01   7.163112e-03
  2.525446e+00    5.280439e-01   7.187191e-03
  2.527657e+00    5.373246e-01   7.235308e-03
  2.529867e+00    5.178896e-01   7.089192e-03
  2.532078e+00    5.168366e-01   7.067029e-03
  2.534288e+00    5.139132e-01   7.033293e-03
  2.536499e+00    5.179515e-01   7.048995e-03
  2.538709e+00    5.202714e-01   7.053822e-03
  2.540920e+00    5.240719e-01   7.068884e-03
  2.543130e+00    5.216152e-01   7.041973e-03
  2.545340e+00    5.143204e-01   6.982579e-03
  2.547551e+00    5.123107e-01   6.959080e-03
  2.549761e+00    5.245415e-01   7.032055e-03
  2.551972e+00    5.047184e-01   6.888708e-03
  2.554182e+00    5.160253e-01   6.956300e-03
  2.556393e+00    5.125865e-01   6.924072e-03
  2.558603e+00    5.059351e-01   6.870063e-03
  2.560814e+00    5.119302e-01   6.901978e-03
  2.563024e+00    5.370278e-01   7.060440e-03
  2.565235e+00    5.247971e-01   6.970015e-03
  2.567445e+00    5.231025e-01   6.949160e-03
  2.569656e+00    5.185381e-01   6.909036e-03
  2.571866e+00    5.160637e-01   6.883179e-03
  2.574076e+00    5.209965e-01   6.906699e-03
  2.576287e+00    5.074882e-01   6.808314e-03
  2.578497e+00    5.063229e-01   6.792727e-03
  2.580708e+00    5.036692e-01   6.766913e-03
  2.582918e+00    5.097367e-01   6.799794e-03
  2.585129e+00    5.185843e-01   6.850815e-03
  2.587339e+00    5.014204e-01   6.728875e-03
  2.589550e+00    5.118246e-01   6.790798e-03
  2.591760e+00    5.087737e-01   6.762814e-03
  2.593971e+00    5.026128e-01   6.714278e-03
  2.596181e+00    5.100681e-01   6.757686e-03
  2.598391e+00    5.101767e-01   6.753210e-03
  2.600602e+00    5.032967e-01   6.701657e-03
  2.602812e+00    5.017667e-01   6.683967e-03
  2.605023e+00    5.036440e-01   6.689338e-03
  2.607233e+00    5.065730e-01   6.701623e-03
  2.609444e+00    4.898538e-01   6.583022e-03
  2.611654e+00    4.931986e-01   6.598205e-03
  2.613865e+00    5.109473e-01   6.708819e-03
  2.616075e+00    5.063266e-01   6.671290e-03
  2.618286e+00    5.072291e-01   6.670207e-03
  2.620496e+00    5.115420e-01   6.691774e-03
  2.622706e+00    5.090415e-01   6.669631e-03
  2.624917e+00    5.060661e-01   6.644267e-03
  2.627127e+00    5.045109e-01   6.628286e-03
  2.629338e+00    4.996884e-01   6.590589e-03
  2.631548e+00    5.045071e-01   6.616110e-03
  2.633759e+00    4.960850e-01   6.553558e-03
  2.635969e+00    4.967602e-01   6.551352e-03
  2.638180e+00    4.956864e-01   6.537336e-03
  2.640390e+00    4.993561e-01   6.554886e-03
  2.642601e+00    5.017289e-01   6.563778e-03
  2.644811e+00    5.014126e-01   6.554619e-03
  2.647021e+00    4.947520e-01   6.504425e-03
  2.649232e+00    4.865418e-01   6.443589e-03
  2.651442e+00    5.007991e-01   6.530790e-03
  2.653653e+00    4.919990e-01   6.466439e-03
  2.655863e+00    4.865201e-01   6.423713e-03
  2.658074e+00    4.999617e-01   6.505207e-03
  2.660284e+00    5.047981e-01   6.530217e-03
  2.662495e+00    5.046865e-01   6.522688e-03
  2.664705e+00    4.809910e-01   6.361268e-03
  2.666916e+00    4.786448e-01   6.339371e-03
  2.669126e+00    4.960879e-01   6.447391e-03
  2.671337e+00    4.939181e-01   6.426712e-03
  2.673547e+00    4.973502e-01   6.442607e-03
  2.675757e+00    4.937525e-01   6.412822e-03
  2.677968e+00    4.863892e-01   6.358353e-03
  2.680178e+00    4.947627e-01   6.406440e-03
  2.682389e+00    4.979357e-01   6.420528e-03
  2.684599e+00    4.949257e-01   6.394895e-03
  2.686810e+00    4.979309e-01   6.407637e-03
  2.689020e+00    4.847815e-01   6.316218e-03
  2.691231e+00    4.837919e-01   6.303518e-03
  2.693441e+00    4.806882e-01   6.277198e-03
  2.695652e+00    4.770510e-01   6.246950e-03
  2.697862e+00    4.938249e-01   6.349481e-03
  2.700072e+00    4.823600e-01   6.269299e-03
  2.702283e+00    4.843727e-01   6.276175e-03
  2.704493e+00    4.921558e-01   6.320096e-03
  2.706704e+00    4.818535e-01   6.247239e-03
  2.708914e+00    4.742020e-01   6.191567e-03
  2.711125e+00    4.653003e-01   6.127056e-03
  2.713335e+00    4.783467e-01   6.206328e-03
  2.715546e+00    4.951029e-01   6.307591e-03
  2.717756e+00    4.824085e-01   6.220338e-03
  2.719967e+00    4.934382e-01   6.284782e-03
  2.722177e+00    4.865737e-01   6.234792e-03
  2.724387e+00    4.900831e-01   6.251088e-03
  2.726598e+00    4.957656e-01   6.281110e-03
  2.728808e+00    4.860111e-01   6.212866e-03
  2.731019e+00    4.863753e-01   6.209043e-03
  2.733229e+00    4.810203e-01   6.169004e-03
  2.735440e+00    4.729567e-01   6.110859e-03
  2.737650e+00    4.868464e-01   6.193906e-03
  2.739861e+00    4.826596e-01   6.161168e-03
  2.742071e+00    4.685121e-01   6.064533e-03
  2.744282e+00    4.787587e-01   6.124252e-03
  2.746492e+00    4.892870e-01   6.185167e-03
  2.748702e+00    4.794928e-01   6.117063e-03
  2.750913e+00    4.836111e-01   6.137459e-03
  2.753123e+00    4.753254e-01   6.078580e-03
  2.755334e+00    4.827308e-01   6.119667e-03
  2.757544e+00    4.752811e-01   6.066553e-03
  2.759755e+00    4.915800e-01   6.163742e-03
  2.761965e+00    4.704399e-01   6.023840e-03
  2.764176e+00    4.754993e-01   6.050182e-03
  2.766386e+00    4.692014e-01   6.004244e-03
  2.768597e+00    4.858058e-01   6.103678e-03
  2.770807e+00    4.860744e-01   6.099429e-03
  2.773017e+00    4.805260e-01   6.058561e-03
  2.775228e+00    4.649386e-01   5.953774e-03
  2.777438e+00    4.675747e-01   5.964887e-03
  2.779649e+00    4.780259e-01   6.025293e-03
  2.781859e+00    4.743694e-01   5.996459e-03
  2.784070e+00    4.749232e-01   5.994114e-03
  2.786280e+00    4.671267e-01   5.938998e-03
  2.788491e+00    4.758867e-01   5.988600e-03
  2.790701e+00    4.810178e-01   6.015123e-03
  2.792912e+00    4.872958e-01   6.048216e-03
  2.795122e+00    4.785356e-01   5.987871e-03
  2.797333e+00    4.670272e-01   5.909906e-03
  2.799543e+00    4.727374e-01   5.940082e-03
  2.801753e+00    4.716240e-01   5.927253e-03
  2.803964e+00    4.656125e-01   5.883763e-03
  2.806174e+00    4.604938e-01   5.845258e-03
  2.808385e+00    4.683640e-01   5.888258e-03
  2.810595e+00    4.679271e-01   5.878698e-03
  2.812806e+00    4.732458e-01   5.905394e-03
  2.815016e+00    4.785066e-01   5.933388e-03
  2.817227e+00    4.768734e-01   5.949247e-03
  2.819437e+00    4.779093e-01   5.966833e-03
  2.821648e+00    4.707837e-01   5.924474e-03
  2.823858e+00    4.813793e-01   5.996142e-03
  2.826068e+00    4.601124e-01   5.867124e-03
  2.828279e+00    4.657412e-01   5.906897e-03
  2.830489e+00    4.755808e-01   5.972314e-03
  2.832700e+00    4.672818e-01   5.922547e-03
  2.834910e+00    4.622643e-01   5.892666e-03
  2.837121e+00    4.750703e-01   5.975477e-03
  2.839331e+00    4.536591e-01   5.840487e-03
  2.841542e+00    4.598698e-01   5.881301e-03
  2.843752e+00    4.739394e-01   5.971387e-03
  2.845963e+00    4.741077e-01   5.972863e-03
  2.848173e+00    4.584676e-01   5.873592e-03
  2.850383e+00    4.593402e-01   5.879474e-03
  2.852594e+00    4.613724e-01   5.892382e-03
  2.854804e+00    4.660547e-01   5.921702e-03
  2.857015e+00    4.623103e-01   5.897444e-03
  2.859225e+00    4.644836e-01   5.911035e-03
  2.861436e+00    4.640155e-01   5.907400e-03
  2.863646e+00    4.582660e-01   5.870738e-03
  2.865857e+00    4.548208e-01   5.848941e-03
  2.868067e+00    4.767872e-01   5.988754e-03
  2.870278e+00    4.585011e-01   5.872449e-03
  2.872488e+00    4.605178e-01   5.884185e-03
  2.874698e+00    4.585081e-01   5.870301e-03
  2.876909e+00    4.512185e-01   5.822122e-03
  2.879119e+00    4.670647e-01   5.921848e-03
  2.881330e+00    4.768297e-01   5.981942e-03
  2.883540e+00    4.596059e-01   5.871540e-03
  2.885751e+00    4.594529e-01   5.868901e-03
  2.887961e+00    4.636044e-01   5.893482e-03
  2.890172e+00    4.667243e-01   5.911652e-03
  2.892382e+00    4.700885e-01   5.931116e-03
  2.894593e+00    4.542374e-01   5.828450e-03
  2.896803e+00    4.638679e-01   5.887920e-03
  2.899014e+00    4.673919e-01   5.908326e-03
  2.901224e+00    4.617825e-01   5.870762e-03
  2.903434e+00    4.578721e-01   5.843920e-03
  2.905645e+00    4.483514e-01   5.780649e-03
  2.907855e+00    4.502304e-01   5.790665e-03
  2.910066e+00    4.478244e-01   5.773101e-03
  2.912276e+00    4.655268e-01   5.883989e-03
  2.914487e+00    4.667505e-01   5.889234e-03
  2.916697e+00    4.677272e-01   5.893135e-03
  2.918908e+00    4.652981e-01   5.875813e-03
  2.921118e+00    4.494537e-01   5.772232e-03
  2.923329e+00    4.504409e-01   5.776247e-03
  2.925539e+00    4.641587e-01   5.861265e-03
  2.927749e+00    4.636323e-01   5.855620e-03
  2.929960e+00    4.516860e-01   5.776910e-03
  2.932170e+00    4.619795e-01   5.840031e-03
  2.934381e+00    4.365251e-01   5.674504e-03
  2.936591e+00    4.381644e-01   5.682562e-03
  2.938802e+00    4.585086e-01   5.810311e-03
  2.941012e+00    4.561967e-01   5.793306e-03
  2.943223e+00    4.571467e-01   5.796627e-03
  2.945433e+00    4.550816e-01   5.779789e-03
  2.947644e+00    4.553258e-01   5.777211e-03
  2.949854e+00    4.538331e-01   5.763465e-03
  2.952064e+00    4.444768e-01   5.699578e-03
  2.954275e+00    4.541945e-01   5.757125e-03
  2.956485e+00    4.593818e-01   5.785708e-03
  2.958696e+00    4.659230e-01   5.822324e-03
  2.960906e+00    4.698819e-01   5.842759e-03
  2.963117e+00    4.626217e-01   5.792939e-03
  2.965327e+00    4.453416e-01   5.679849e-03
  2.967538e+00    4.499246e-01   5.706093e-03
  2.969748e+00    4.581380e-01   5.755111e-03
  2.971959e+00    4.564731e-01   5.741506e-03
  2.974169e+00    4.565746e-01   5.739558e-03
  2.976379e+00    4.531900e-01   5.715310e-03
  2.978590e+00    4.587857e-01   5.747363e-03
  2.980800e+00    4.464752e-01   5.666948e-03
  2.983011e+00    4.461314e-01   5.661989e-03
  2.985221e+00    4.413284e-01   5.628316e-03
  2.987432e+00    4.543551e-01   5.707653e-03
  2.989642e+00    4.561560e-01   5.716349e-03
  2.991853e+00    4.450755e-01   5.643230e-03
  2.994063e+00    4.491170e-01   5.665907e-03
  2.996274e+00    4.556474e-01   5.703752e-03
  2.998484e+00    4.605253e-01   5.731492e-03
  3.000694e+00    4.550683e-01   5.693968e-03
  3.002905e+00    4.483830e-01   5.649084e-03
  3.005115e+00    4.416952e-01   5.603842e-03
  3.007326e+00    4.490063e-01   5.646891e-03
  3.009536e+00    4.435811e-01   5.609451e-03
  3.011747e+00    4.510658e-01   5.653673e-03
  3.013957e+00    4.615301e-01   5.715674e-03
  3.016168e+00    4.542157e-01   5.666931e-03
  3.018378e+00    4.560069e-01   5.675038e-03
  3.020589e+00    4.532293e-01   5.654526e-03
  3.022799e+00    4.441919e-01   5.594731e-03
  3.025010e+00    4.438172e-01   5.589149e-03
  3.027220e+00    4.535230e-01   5.646835e-03
  3.029430e+00    4.534220e-01   5.642944e-03
  3.031641e+00    4.504212e-01   5.621119e-03
  3.033851e+00    4.486723e-01   5.606684e-03
  3.036062e+00    4.475911e-01   5.597164e-03
  3.038272e+00    4.434099e-01   5.567414e-03
  3.040483e+00    4.436224e-01   5.565539e-03
  3.042693e+00    4.450653e-01   5.571349e-03
  3.044904e+00    4.538405e-01   5.621981e-03
  3.047114e+00    4.426309e-01   5.547348e-03
  3.049325e+00    4.463715e-01   5.566369e-03
  3.051535e+00    4.487740e-01   5.576928e-03
  3.053745e+00    4.584494e-01   5.631954e-03
  3.055956e+00    4.465939e-01   5.554111e-03
  3.058166e+00    4.447222e-01   5.538200e-03
  3.060377e+00    4.457294e-01   5.539742e-03
  3.062587e+00    4.459057e-01   5.536214e-03
  3.064798e+00    4.521345e-01   5.570491e-03
  3.067008e+00    4.437632e-01   5.513988e-03
  3.069219e+00    4.436279e-01   5.508647e-03
  3.071429e+00    4.426373e-01   5.499033e-03
  3.073640e+00    4.434976e-01   5.501051e-03
  3.075850e+00    4.559664e-01   5.574218e-03
  3.078060e+00    4.645762e-01   5.623480e-03
  3.080271e+00    4.453321e-01   5.502300e-03
  3.082481e+00    4.504930e-01   5.530636e-03
  3.084692e+00    4.380726e-01   5.450528e-03
  3.086902e+00    4.407368e-01   5.463848e-03
  3.089113e+00    4.424720e-01   5.471055e-03
  3.091323e+00    4.475299e-01   5.498861e-03
  3.093534e+00    4.410237e-01   5.455402e-03
  3.095744e+00    4.402744e-01   5.447404e-03
  3.097955e+00    4.422455e-01   5.456070e-03
  3.100165e+00    4.286344e-01   5.368192e-03
  3.102375e+00    4.427745e-01   5.452596e-03
  3.104586e+00    4.497365e-01   5.491812e-03
  3.106796e+00    4.462864e-01   5.467171e-03
  3.109007e+00    4.527686e-01   5.503507e-03
  3.111217e+00    4.520845e-01   5.495615e-03
  3.113428e+00    4.479036e-01   5.466741e-03
  3.115638e+00    4.435466e-01   5.436838e-03
  3.117849e+00    4.535456e-01   5.494044e-03
  3.120059e+00    4.480326e-01   5.457058e-03
  3.122270e+00    4.398158e-01   5.403556e-03
  3.124480e+00    4.430277e-01   5.419570e-03
  3.126691e+00    4.461567e-01   5.435102e-03
  3.128901e+00    4.368950e-01   5.375308e-03
  3.131111e+00    4.467066e-01   5.431472e-03
  3.133322e+00    4.414687e-01   5.396104e-03
  3.135532e+00    4.438472e-01   5.407201e-03
  3.137743e+00    4.581338e-01   5.490016e-03
  3.139953e+00    4.631224e-01   5.516077e-03
  3.142164e+00    4.407292e-01   5.393040e-03
  3.144374e+00    4.356064e-01   5.389802e-03
  3.146585e+00    4.217143e-01   5.317369e-03
  3.148795e+00    4.304653e-01   5.382878e-03
  3.151006e+00    4.364961e-01   5.428961e-03
  3.153216e+00    4.308982e-01   5.401091e-03
  3.155426e+00    4.299807e-01   5.401541e-03
  3.157637e+00    4.414165e-01   5.478450e-03
  3.159847e+00    4.239316e-01   5.373632e-03
  3.162058e+00    4.345602e-01   5.444960e-03
  3.164268e+00    4.431210e-01   5.502440e-03
  3.166479e+00    4.294896e-01   5.420727e-03
  3.168689e+00    4.423330e-01   5.504577e-03
  3.170900e+00    4.341096e-01   5.456312e-03
  3.173110e+00    4.499274e-01   5.557729e-03
  3.175321e+00    4.391710e-01   5.493414e-03
  3.177531e+00    4.391396e-01   5.495936e-03
  3.179741e+00    4.444049e-01   5.530890e-03
  3.181952e+00    4.391448e-01   5.500173e-03
  3.184162e+00    4.244350e-01   5.409430e-03
  3.186373e+00    4.319175e-01   5.458492e-03
  3.188583e+00    4.210223e-01   5.390957e-03
  3.190794e+00    4.313588e-01   5.458471e-03
  3.193004e+00    4.288451e-01   5.443788e-03
  3.195215e+00    4.231856e-01   5.409212e-03
  3.197425e+00    4.431062e-01   5.536296e-03
  3.199636e+00    4.269915e-01   5.433940e-03
  3.201846e+00    4.130445e-01   5.343858e-03
  3.204056e+00    4.306426e-01   5.457383e-03
  3.206267e+00    4.373114e-01   5.500334e-03
  3.208477e+00    4.362820e-01   5.494798e-03
  3.210688e+00    4.388887e-01   5.512015e-03
  3.212898e+00    4.329821e-01   5.475407e-03
  3.215109e+00    4.274982e-01   5.441349e-03
  3.217319e+00    4.268942e-01   5.438137e-03
  3.219530e+00    4.215128e-01   5.404132e-03
  3.221740e+00    4.305980e-01   5.462643e-03
  3.223951e+00    4.241491e-01   5.422044e-03
  3.226161e+00    4.402681e-01   5.524271e-03
  3.228372e+00    4.366625e-01   5.502185e-03
  3.230582e+00    4.161934e-01   5.371789e-03
  3.232792e+00    4.110492e-01   5.338727e-03
  3.235003e+00    4.218700e-01   5.408735e-03
  3.237213e+00    4.358326e-01   5.497663e-03
  3.239424e+00    4.310607e-01   5.467460e-03
  3.241634e+00    4.358233e-01   5.497721e-03
  3.243845e+00    4.136225e-01   5.355937e-03
  3.246055e+00    4.070693e-01   5.313067e-03
  3.248266e+00    4.210231e-01   5.403555e-03
  3.250476e+00    4.259985e-01   5.435084e-03
  3.252687e+00    4.236636e-01   5.420110e-03
  3.254897e+00    4.209115e-01   5.402333e-03
  3.257107e+00    4.239581e-01   5.421550e-03
  3.259318e+00    4.168870e-01   5.375924e-03
  3.261528e+00    4.182405e-01   5.384492e-03
  3.263739e+00    4.341409e-01   5.485320e-03
  3.265949e+00    4.249963e-01   5.427143e-03
  3.268160e+00    4.109122e-01   5.336032e-03
  3.270370e+00    4.217294e-01   5.405315e-03
  3.272581e+00    4.269795e-01   5.438554e-03
  3.274791e+00    4.334092e-01   5.478834e-03
  3.277002e+00    4.246477e-01   5.422623e-03
  3.279212e+00    4.279263e-01   5.443128e-03
  3.281422e+00    4.233730e-01   5.413498e-03
  3.283633e+00    4.324013e-01   5.470242e-03
  3.285843e+00    4.227843e-01   5.408730e-03
  3.288054e+00    4.442868e-01   5.543594e-03
  3.290264e+00    4.313480e-01   5.461986e-03
  3.292475e+00    4.210451e-01   5.395521e-03
  3.294685e+00    4.065009e-01   5.300879e-03
  3.296896e+00    4.231431e-01   5.407556e-03
  3.299106e+00    4.120127e-01   5.335407e-03
  3.301317e+00    4.113792e-01   5.330295e-03
  3.303527e+00    4.112043e-01   5.328697e-03
  3.305737e+00    4.200245e-01   5.384505e-03
  3.307948e+00    4.168245e-01   5.363286e-03
  3.310158e+00    4.190496e-01   5.376741e-03
  3.312369e+00    4.272245e-01   5.428038e-03
  3.314579e+00    4.255126e-01   5.416261e-03
  3.316790e+00    4.167440e-01   5.359433e-03
  3.319000e+00    4.260290e-01   5.417622e-03
  3.321211e+00    4.212999e-01   5.386889e-03
  3.323421e+00    4.305612e-01   5.444525e-03
  3.325632e+00    4.238917e-01   5.401329e-03
  3.327842e+00    4.144905e-01   5.340184e-03
  3.330052e+00    4.138771e-01   5.335165e-03
  3.332263e+00    4.193730e-01   5.369473e-03
  3.334473e+00    4.174401e-01   5.356152e-03
  3.336684e+00    4.199688e-01   5.371111e-03
  3.338894e+00    4.156937e-01   5.342870e-03
  3.341105e+00    4.151386e-01   5.338076e-03
  3.343315e+00    4.168956e-01   5.348246e-03
  3.345526e+00    4.116812e-01   5.313801e-03
  3.347736e+00    4.110918e-01   5.308598e-03
  3.349947e+00    4.185112e-01   5.355349e-03
  3.352157e+00    4.139501e-01   5.324940e-03
  3.354368e+00    4.190792e-01   5.356516e-03
  3.356578e+00    4.206189e-01   5.365335e-03
  3.358788e+00    4.119463e-01   5.308415e-03
  3.360999e+00    4.231775e-01   5.379044e-03
  3.363209e+00    4.072850e-01   5.276069e-03
  3.365420e+00    4.103636e-01   5.294451e-03
  3.367630e+00    4.225816e-01   5.371693e-03
  3.369841e+00    4.122329e-01   5.304074e-03
  3.372051e+00    4.176589e-01   5.336893e-03
  3.374262e+00    4.114794e-01   5.294867e-03
  3.376472e+00    4.085346e-01   5.273425e-03
  3.378683e+00    4.181154e-01   5.332420e-03
  3.380893e+00    4.101318e-01   5.278931e-03
  3.383103e+00    4.025391e-01   5.227170e-03
  3.385314e+00    4.129716e-01   5.292256e-03
  3.387524e+00    4.173031e-01   5.317204e-03
  3.389735e+00    4.053991e-01   5.238210e-03
  3.391945e+00    4.040701e-01   5.225995e-03
  3.394156e+00    4.065097e-01   5.237529e-03
  3.396366e+00    4.037314e-01   5.216243e-03
  3.398577e+00    4.033049e-01   5.210488e-03
  3.400787e+00    3.914037e-01   5.144635e-03
  3.402998e+00    4.238585e-01   5.392385e-03
  3.405208e+00    4.013965e-01   5.268137e-03
  3.407418e+00    3.877382e-01   5.193229e-03
  3.409629e+00    3.967702e-01   5.267264e-03
  3.411839e+00    3.966456e-01   5.278167e-03
  3.414050e+00    4.011015e-01   5.318775e-03
  3.416260e+00    4.066675e-01   5.365352e-03
  3.418471e+00    3.968175e-01   5.309436e-03
  3.420681e+00    3.853536e-01   5.240602e-03
  3.422892e+00    3.895038e-01   5.276711e-03
  3.425102e+00    3.937473e-01   5.313243e-03
  3.427313e+00    3.859829e-01   5.267788e-03
  3.429523e+00    3.774602e-01   5.216245e-03
  3.431733e+00    3.759440e-01   5.212345e-03
  3.433944e+00    3.810720e-01   5.254228e-03
  3.436154e+00    3.791847e-01   5.247416e-03
  3.438365e+00    3.763266e-01   5.233493e-03
  3.440575e+00    3.759038e-01   5.236428e-03
  3.442786e+00    3.784618e-01   5.259835e-03
  3.444996e+00    3.760796e-01   5.248750e-03
  3.447207e+00    3.623861e-01   5.157501e-03
  3.449417e+00    3.493014e-01   5.103107e-03
  3.451628e+00    3.581569e-01   5.196394e-03
  3.453838e+00    3.752195e-01   5.340108e-03
  3.456049e+00    3.720255e-01   5.341418e-03
  3.458259e+00    3.618436e-01   5.289602e-03
  3.460469e+00    3.689158e-01   5.360882e-03
  3.462680e+00    3.719706e-01   5.402273e-03
  3.464890e+00    3.482718e-01   5.244682e-03
  3.467101e+00    3.781950e-01   5.483037e-03
  3.469311e+00    3.732775e-01   5.463935e-03
  3.471522e+00    3.753839e-01   5.495713e-03
  3.473732e+00    3.995320e-01   5.686091e-03
  3.475943e+00    4.074571e-01   5.758442e-03
  3.478153e+00    3.947594e-01   5.683588e-03
  3.480364e+00    4.131093e-01   5.829685e-03
  3.482574e+00    4.159259e-01   5.865105e-03
  3.484784e+00    4.161146e-01   5.881402e-03
  3.486995e+00    4.207634e-01   5.929346e-03
  3.489205e+00    4.256549e-01   5.978428e-03
  3.491416e+00    4.416831e-01   6.105118e-03
  3.493626e+00    4.552706e-01   6.213218e-03
  3.495837e+00    4.518218e-01   6.204627e-03
  3.498047e+00    4.535625e-01   6.231182e-03
  3.500258e+00    4.531388e-01   6.242860e-03
  3.502468e+00    4.492575e-01   6.230426e-03
  3.504679e+00    4.654629e-01   6.356348e-03
  3.506889e+00    4.643807e-01   6.363376e-03
  3.509099e+00    4.801438e-01   6.484959e-03
  3.511310e+00    4.951771e-01   6.600458e-03
  3.513520e+00    4.797741e-01   6.511399e-03
  3.515731e+00    4.799511e-01   6.526846e-03
  3.517941e+00    4.862420e-01   6.583834e-03
  3.520152e+00    4.941232e-01   6.651224e-03
  3.522362e+00    5.158821e-01   6.810827e-03
  3.524573e+00    5.000375e-01   6.719636e-03
  3.526783e+00    5.090074e-01   6.792920e-03
  3.528994e+00    5.128159e-01   6.830503e-03
  3.531204e+00    5.404369e-01   7.024701e-03
  3.533414e+00    5.375847e-01   7.018408e-03
  3.535625e+00    5.229505e-01   6.934498e-03
  3.537835e+00    5.392581e-01   7.053965e-03
  3.540046e+00    5.484565e-01   7.122946e-03
  3.542256e+00    5.238119e-01   6.968518e-03
  3.544467e+00    5.313265e-01   7.025885e-03
  3.546677e+00    5.381852e-01   7.078716e-03
  3.548888e+00    5.382599e-01   7.086698e-03
  3.551098e+00    5.316235e-01   7.050134e-03
  3.553309e+00    5.562820e-01   7.220107e-03
  3.555519e+00    5.461836e-01   7.165681e-03
  3.557729e+00    5.396484e-01   7.134431e-03
  3.559940e+00    5.424311e-01   7.164460e-03
  3.562150e+00    5.300834e-01   7.094035e-03
  3.564361e+00    5.385957e-01   7.164153e-03
  3.566571e+00    5.461056e-01   7.227862e-03
  3.568782e+00    5.474735e-01   7.251215e-03
  3.570992e+00    5.436486e-01   7.239648e-03
  3.573203e+00    5.386674e-01   7.220622e-03
  3.575413e+00    5.386152e-01   7.234070e-03
  3.577624e+00    5.374177e-01   7.240167e-03
  3.579834e+00    5.237567e-01   7.161262e-03
  3.582045e+00    5.403942e-01   7.288216e-03
  3.584255e+00    5.374897e-01   7.282666e-03
  3.586465e+00    5.298691e-01   7.244740e-03
  3.588676e+00    5.165683e-01   7.167130e-03
  3.590886e+00    5.510042e-01   7.416049e-03
  3.593097e+00    5.436943e-01   7.381346e-03
  3.595307e+00    5.354629e-01   7.339171e-03
  3.597518e+00    5.357084e-01   7.355050e-03
  3.599728e+00    5.475612e-01   7.450238e-03
  3.601939e+00    5.290163e-01   7.336981e-03
  3.604149e+00    5.430357e-01   7.448049e-03
  3.606360e+00    5.407688e-01   7.446723e-03
  3.608570e+00    5.205894e-01   7.320411e-03
  3.610780e+00    5.334286e-01   7.421191e-03
  3.612991e+00    5.228696e-01   7.357260e-03
  3.615201e+00    5.375569e-01   7.469659e-03
  3.617412e+00    5.521458e-01   7.577803e-03
  3.619622e+00    5.295008e-01   7.426677e-03
  3.621833e+00    5.388912e-01   7.498971e-03
  3.624043e+00    5.433552e-01   7.539582e-03
  3.626254e+00    5.187329e-01   7.376327e-03
  3.628464e+00    5.110522e-01   7.332239e-03
  3.630675e+00    5.218790e-01   7.423419e-03
  3.632885e+00    5.195544e-01   7.421198e-03
  3.635095e+00    5.274885e-01   7.491893e-03
  3.637306e+00    5.277650e-01   7.508187e-03
  3.639516e+00    5.332050e-01   7.561291e-03
  3.641727e+00    5.296236e-01   7.550376e-03
  3.643937e+00    5.304778e-01   7.570991e-03
  3.646148e+00    5.310827e-01   7.589861e-03
  3.648358e+00    5.514405e-01   7.749102e-03
  3.650569e+00    5.224513e-01   7.557231e-03
  3.652779e+00    5.224622e-01   7.571981e-03
  3.654990e+00    5.226519e-01   7.588064e-03
  3.657200e+00    5.405666e-01   7.731997e-03
  3.659410e+00    5.604834e-01   7.888573e-03
  3.661621e+00    5.414645e-01   7.768791e-03
  3.663831e+00    5.532986e-01   7.868644e-03
  3.666042e+00    5.366830e-01   7.764868e-03
  3.668252e+00    5.227068e-01   7.678187e-03
  3.670463e+00    5.213497e-01   7.683299e-03
  3.672673e+00    5.352937e-01   7.800858e-03
  3.674884e+00    5.276624e-01   7.760403e-03
  3.677094e+00    5.346862e-01   7.827456e-03
  3.679305e+00    5.467776e-01   7.931268e-03
  3.681515e+00    5.266318e-01   7.799364e-03
  3.683726e+00    5.115826e-01   7.702644e-03
  3.685936e+00    5.207924e-01   7.787227e-03
  3.688146e+00    5.340656e-01   7.901709e-03
  3.690357e+00    5.259891e-01   7.857678e-03
  3.692567e+00    5.381851e-01   7.964502e-03
  3.694778e+00    5.223348e-01   7.862359e-03
  3.696988e+00    5.279073e-01   7.920203e-03
  3.699199e+00    5.285019e-01   7.940937e-03
  3.701409e+00    5.381722e-01   8.029850e-03
  3.703620e+00    5.322836e-01   8.002192e-03
  3.705830e+00    5.208274e-01   7.932001e-03
  3.708041e+00    4.969660e-01   7.764305e-03
  3.710251e+00    5.133578e-01   7.907879e-03
  3.712461e+00    5.087713e-01   7.888936e-03
  3.714672e+00    5.087258e-01   7.905185e-03
  3.716882e+00    5.056353e-01   7.897533e-03
  3.719093e+00    5.047825e-01   7.907793e-03
  3.721303e+00    5.143052e-01   7.998856e-03
  3.723514e+00    5.194612e-01   8.056164e-03
  3.725724e+00    5.084950e-01   7.987647e-03
  3.727935e+00    5.295949e-01   8.169363e-03
  3.730145e+00    5.136923e-01   8.063013e-03
  3.732356e+00    5.190321e-01   8.122412e-03
  3.734566e+00    5.182037e-01   8.133513e-03
  3.736776e+00    5.222739e-01   8.183262e-03
  3.738987e+00    5.322330e-01   8.279011e-03
  3.741197e+00    5.285857e-01   8.268828e-03
  3.743408e+00    5.047286e-01   8.098030e-03
  3.745618e+00    5.273213e-01   8.295764e-03
  3.747829e+00    5.240293e-01   8.288198e-03
  3.750039e+00    5.384642e-01   8.420414e-03
  3.752250e+00    5.139696e-01   8.245233e-03
  3.754460e+00    4.984550e-01   8.138102e-03
  3.756671e+00    5.073972e-01   8.229566e-03
  3.758881e+00    5.067767e-01   8.243107e-03
  3.761091e+00    5.069795e-01   8.263927e-03
  3.763302e+00    4.975559e-01   8.205612e-03
  3.765512e+00    4.882253e-01   8.147197e-03
  3.767723e+00    5.107325e-01   8.352237e-03
  3.769933e+00    5.177337e-01   8.428906e-03
  3.772144e+00    5.002990e-01   8.305221e-03
  3.774354e+00    4.941856e-01   8.273933e-03
  3.776565e+00    5.051514e-01   8.385064e-03
  3.778775e+00    5.154337e-01   8.490141e-03
  3.780986e+00    5.014276e-01   8.394268e-03
  3.783196e+00    5.196525e-01   8.566039e-03
  3.785407e+00    5.028372e-01   8.446717e-03
  3.787617e+00    4.984870e-01   8.430741e-03
  3.789827e+00    5.029175e-01   8.488667e-03
  3.792038e+00    5.068626e-01   8.542852e-03
  3.794248e+00    5.083421e-01   8.576617e-03
  3.796459e+00    5.290666e-01   8.771579e-03
  3.798669e+00    5.285913e-01   8.789723e-03
  3.800880e+00    5.084901e-01   8.642537e-03
  3.803090e+00    4.897947e-01   8.503774e-03
  3.805301e+00    4.947764e-01   8.568843e-03
  3.807511e+00    5.107281e-01   8.728120e-03
  3.809722e+00    4.981956e-01   8.642590e-03
  3.811932e+00    5.047463e-01   8.721542e-03
  3.814142e+00    5.064272e-01   8.759136e-03
  3.816353e+00    4.861630e-01   8.604611e-03
  3.818563e+00    5.026924e-01   8.772846e-03
  3.820774e+00    5.147586e-01   8.901088e-03
  3.822984e+00    4.886394e-01   8.695478e-03
  3.825195e+00    4.719273e-01   8.568597e-03
  3.827405e+00    5.125247e-01   8.953691e-03
  3.829616e+00    5.293690e-01   9.124496e-03
  3.831826e+00    5.343496e-01   9.192418e-03
  3.834037e+00    5.144891e-01   9.044915e-03
  3.836247e+00    4.977293e-01   8.921084e-03
  3.838457e+00    4.741328e-01   8.731466e-03
  3.840668e+00    4.853272e-01   8.858863e-03
  3.842878e+00    5.027002e-01   9.041699e-03
  3.845089e+00    4.874518e-01   8.928881e-03
  3.847299e+00    4.957937e-01   9.030779e-03
  3.849510e+00    5.174300e-01   9.252110e-03
  3.851720e+00    4.827012e-01   8.957463e-03
  3.853931e+00    4.850377e-01   8.997864e-03
  3.856141e+00    4.790506e-01   8.960837e-03
  3.858352e+00    4.892464e-01   9.074883e-03
  3.860562e+00    5.038476e-01   9.228802e-03
  3.862772e+00    5.002092e-01   9.215098e-03
  3.864983e+00    4.894303e-01   9.134879e-03
  3.867193e+00    4.981679e-01   9.235929e-03
  3.869404e+00    4.880360e-01   9.161207e-03
  3.871614e+00    5.051221e-01   9.340427e-03
  3.873825e+00    5.119367e-01   9.423875e-03
  3.876035e+00    4.983359e-01   9.318627e-03
  3.878246e+00    5.082943e-01   9.437358e-03
  3.880456e+00    5.072772e-01   9.457450e-03
  3.882667e+00    4.731284e-01   9.162234e-03
  3.884877e+00    5.037976e-01   9.484700e-03
  3.887087e+00    4.798451e-01   9.286094e-03
  3.889298e+00    4.801150e-01   9.318608e-03
  3.891508e+00    4.977323e-01   9.518879e-03
  3.893719e+00    4.705427e-01   9.285568e-03
  3.895929e+00    5.059164e-01   9.660105e-03
  3.898140e+00    5.183358e-01   9.810653e-03
  3.900350e+00    5.068556e-01   9.733985e-03
  3.902561e+00    4.933471e-01   9.635903e-03
  3.904771e+00    4.992242e-01   9.726266e-03
  3.906982e+00    4.964031e-01   9.732109e-03
  3.909192e+00    5.005273e-01   9.806271e-03
  3.911403e+00    5.054399e-01   9.888967e-03
  3.913613e+00    4.876799e-01   9.747886e-03
  3.915823e+00    4.962650e-01   9.868340e-03
  3.918034e+00    5.061752e-01   1.000230e-02
  3.920244e+00    4.998967e-01   9.976234e-03
  3.922455e+00    5.004858e-01   1.001861e-02
  3.924665e+00    5.000590e-01   1.005132e-02
  3.926876e+00    4.687179e-01   9.767464e-03
  3.929086e+00    5.051832e-01   1.017844e-02
  3.931297e+00    4.856082e-01   1.001399e-02
  3.933507e+00    5.029278e-01   1.022037e-02
  3.935718e+00    5.100608e-01   1.032201e-02
  3.937928e+00    4.760593e-01   1.000120e-02
  3.940138e+00    4.800740e-01   1.007232e-02
  3.942349e+00    4.916754e-01   1.022337e-02
  3.944559e+00    5.042884e-01   1.038409e-02
  3.946770e+00    5.096202e-01   1.046983e-02
  3.948980e+00    4.741199e-01   1.012890e-02
  3.951191e+00    4.743515e-01   1.016174e-02
  3.953401e+00    5.029919e-01   1.049597e-02
  3.955612e+00    4.801804e-01   1.028666e-02
  3.957822e+00    4.828826e-01   1.034709e-02
  3.960033e+00    5.088067e-01   1.065460e-02
  3.962243e+00    4.761966e-01   1.034014e-02
  3.964453e+00    4.653356e-01   1.025384e-02
  3.966664e+00    4.745846e-01   1.038830e-02
  3.968874e+00    4.760749e-01   1.043268e-02
  3.971085e+00    4.767366e-01   1.046165e-02
  3.973295e+00    4.742064e-01   1.045515e-02
  3.975506e+00    4.793835e-01   1.053339e-02
  3.977716e+00    5.027214e-01   1.080922e-02
  3.979927e+00    4.924406e-01   1.072045e-02
  3.982137e+00    4.744575e-01   1.054491e-02
  3.984348e+00    4.651127e-01   1.046255e-02
  3.986558e+00    4.864298e-01   1.072206e-02
  3.988768e+00    4.939752e-01   1.082807e-02
  3.990979e+00    4.509726e-01   1.036801e-02
  3.993189e+00    4.712678e-01   1.062148e-02
  3.995400e+00    4.558540e-01   1.046913e-02
  3.997610e+00    4.816532e-01   1.079094e-02
  3.999821e+00    4.941712e-01   1.096827e-02
  4.002031e+00    4.840567e-01   1.089378e-02
  4.004242e+00    4.658793e-01   1.072500e-02
  4.006452e+00    4.530671e-01   1.061455e-02
  4.008663e+00    4.758937e-01   1.091826e-02
  4.010873e+00    4.849115e-01   1.106129e-02
  4.013084e+00    4.624318e-01   1.084179e-02
  4.015294e+00    4.851487e-01   1.114588e-02
  4.017504e+00    4.769260e-01   1.109267e-02
  4.019715e+00    4.946755e-01   1.134004e-02
  4.021925e+00    4.714174e-01   1.111277e-02
  4.024136e+00    4.757486e-01   1.120695e-02
  4.026346e+00    4.680726e-01   1.115954e-02
  4.028557e+00    4.731726e-01   1.126401e-02
  4.030767e+00    4.580716e-01   1.112728e-02
  4.032978e+00    4.853491e-01   1.150017e-02
  4.035188e+00    4.392814e-01   1.098485e-02
  4.037399e+00    4.890063e-01   1.163759e-02
  4.039609e+00    4.907944e-01   1.170705e-02
  4.041819e+00    4.704801e-01   1.151027e-02
  4.044030e+00    4.694153e-01   1.154653e-02
  4.046240e+00    4.743402e-01   1.165622e-02
  4.048451e+00    4.765751e-01   1.173424e-02
  4.050661e+00    5.381907e-01   1.252401e-02
  4.052872e+00    5.095924e-01   1.224113e-02
  4.055082e+00    4.918907e-01   1.208047e-02
  4.057293e+00    4.535071e-01   1.165180e-02
  4.059503e+00    4.772271e-01   1.200683e-02
  4.061714e+00    4.810240e-01   1.211101e-02
  4.063924e+00    5.068219e-01   1.248963e-02
  4.066134e+00    5.411707e-01   1.296677e-02
  4.068345e+00    4.871168e-01   1.236157e-02
  4.070555e+00    4.716817e-01   1.222257e-02
  4.072766e+00    5.273734e-01   1.298780e-02
  4.074976e+00    4.939878e-01   1.263273e-02
  4.077187e+00    4.926986e-01   1.267889e-02
  4.079397e+00    4.628625e-01   1.235176e-02
  4.081608e+00    4.670250e-01   1.247166e-02
  4.083818e+00    4.792368e-01   1.269930e-02
  4.086029e+00    5.133806e-01   1.321320e-02
  4.088239e+00    5.116357e-01   1.326198e-02
  4.090449e+00    4.520117e-01   1.253272e-02
  4.092660e+00    4.667069e-01   1.280500e-02
  4.094870e+00    4.937617e-01   1.324400e-02
  4.097081e+00    4.875417e-01   1.323259e-02
  4.099291e+00    4.541943e-01   1.282476e-02
  4.101502e+00    5.016794e-01   1.352889e-02
  4.103712e+00    4.952562e-01   1.349186e-02
  4.105923e+00    5.251206e-01   1.394673e-02
  4.108133e+00    4.400397e-01   1.281614e-02
  4.110344e+00    4.815982e-01   1.345898e-02
  4.112554e+00    4.850429e-01   1.356024e-02
  4.114764e+00    5.007191e-01   1.383324e-02
  4.116975e+00    4.647263e-01   1.337932e-02
  4.119185e+00    4.829271e-01   1.369391e-02
  4.121396e+00    4.560811e-01   1.336313e-02
  4.123606e+00    4.811495e-01   1.378155e-02
  4.125817e+00    4.991764e-01   1.409618e-02
  4.128027e+00    5.124207e-01   1.434216e-02
  4.130238e+00    4.863710e-01   1.403289e-02
  4.132448e+00    4.459955e-01   1.349603e-02
  4.134659e+00    4.819616e-01   1.408983e-02
  4.136869e+00    5.383821e-01   1.495842e-02
  4.139080e+00    4.897506e-01   1.433106e-02
  4.141290e+00    4.664038e-01   1.404729e-02
  4.143500e+00    4.954734e-01   1.454507e-02
  4.145711e+00    4.767845e-01   1.433495e-02
  4.147921e+00    4.815108e-01   1.447172e-02
  4.150132e+00    4.960467e-01   1.475866e-02
  4.152342e+00    5.280173e-01   1.530073e-02
  4.154553e+00    5.118459e-01   1.513615e-02
  4.156763e+00    5.195867e-01   1.532571e-02
  4.158974e+00    4.571234e-01   1.444737e-02
  4.161184e+00    4.979244e-01   1.515287e-02
  4.163395e+00    4.996668e-01   1.525698e-02
  4.165605e+00    5.064522e-01   1.544025e-02
  4.167815e+00    4.580156e-01   1.475983e-02
  4.170026e+00    4.917274e-01   1.537384e-02
  4.172236e+00    5.099056e-01   1.574030e-02
  4.174447e+00    5.058569e-01   1.576291e-02
  4.176657e+00    4.715078e-01   1.530145e-02
  4.178868e+00    5.263692e-01   1.625877e-02
  4.181078e+00    4.572687e-01   1.523931e-02
  4.183289e+00    4.385535e-01   1.500956e-02
  4.185499e+00    4.804396e-01   1.580276e-02
  4.187710e+00    4.470017e-01   1.533229e-02
  4.189920e+00    5.232321e-01   1.668780e-02
  4.192130e+00    4.512626e-01   1.559293e-02
  4.194341e+00    5.305539e-01   1.701068e-02
  4.196551e+00    5.031122e-01   1.666974e-02
  4.198762e+00    5.561135e-01   1.763745e-02
  4.200972e+00    4.884332e-01   1.663624e-02
  4.203183e+00    4.027729e-01   1.520668e-02
  4.205393e+00    4.285948e-01   1.579091e-02
  4.207604e+00    4.153374e-01   1.565098e-02
  4.209814e+00    4.446940e-01   1.630540e-02
  4.212025e+00    4.888868e-01   1.721778e-02
  4.214235e+00    5.100803e-01   1.771157e-02
  4.216445e+00    4.809791e-01   1.732373e-02
  4.218656e+00    4.790368e-01   1.741776e-02
  4.220866e+00    4.639955e-01   1.726955e-02
  4.223077e+00    4.711141e-01   1.753511e-02
  4.225287e+00    3.962196e-01   1.620751e-02
  4.227498e+00    4.733627e-01   1.785377e-02
  4.229708e+00    4.897425e-01   1.830799e-02
  4.231919e+00    4.625987e-01   1.794062e-02
  4.234129e+00    4.972537e-01   1.875666e-02
  4.236340e+00    4.329728e-01   1.765197e-02
  4.238550e+00    4.977169e-01   1.909263e-02
  4.240761e+00    5.217248e-01   1.972085e-02
  4.242971e+00    4.428812e-01   1.833597e-02
  4.245181e+00    4.489138e-01   1.863373e-02
  4.247392e+00    5.573737e-01   2.095738e-02
  4.249602e+00    4.416008e-01   1.883949e-02
  4.251813e+00    4.671989e-01   1.956894e-02
  4.254023e+00    4.138938e-01   1.860409e-02
  4.256234e+00    4.519173e-01   1.964774e-02
  4.258444e+00    4.948176e-01   2.077420e-02
  4.260655e+00    5.371239e-01   2.188209e-02
  4.262865e+00    4.862494e-01   2.105624e-02
  4.265076e+00    5.067311e-01   2.173950e-02
  4.267286e+00    4.863522e-01   2.155031e-02
  4.269496e+00    5.072854e-01   2.227860e-02
  4.271707e+00    4.653238e-01   2.159994e-02
  4.273917e+00    4.206701e-01   2.080368e-02
  4.276128e+00    3.828643e-01   2.011021e-02
  4.278338e+00    4.289066e-01   2.156899e-02
  4.280549e+00    4.581949e-01   2.261322e-02
  4.282759e+00    4.645288e-01   2.309619e-02
  4.284970e+00    4.627515e-01   2.339275e-02
  4.287180e+00    5.042579e-01   2.471252e-02
  4.289391e+00    5.157146e-01   2.517926e-02
  4.291601e+00    4.946995e-01   2.485752e-02
  4.293811e+00    5.586449e-01   2.662210e-02
  4.296022e+00    4.925197e-01   2.519790e-02
  4.298232e+00    4.448377e-01   2.414794e-02
  4.300443e+00    4.264846e-01   2.383876e-02
  4.302653e+00    4.707845e-01   2.526360e-02
  4.304864e+00    4.788823e-01   2.570042e-02
  4.307074e+00    5.093774e-01   2.674452e-02
  4.309285e+00    4.880534e-01   2.641625e-02
  4.311495e+00    5.097857e-01   2.725109e-02
  4.313706e+00    4.135325e-01   2.477445e-02
  4.315916e+00    4.466856e-01   2.600133e-02
  4.318126e+00    5.101998e-01   2.806395e-02
  4.320337e+00    4.691145e-01   2.718258e-02
  4.322547e+00    4.970250e-01   2.827592e-02
  4.324758e+00    5.081158e-01   2.888661e-02
  4.326968e+00    4.854686e-01   2.855415e-02
  4.329179e+00    4.781250e-01   2.864964e-02
  4.331389e+00    5.077612e-01   2.986350e-02
  4.333600e+00    4.844965e-01   2.952089e-02
  4.335810e+00    4.487424e-01   2.874859e-02
  4.338021e+00    4.147545e-01   2.799170e-02
  4.340231e+00    4.742158e-01   3.030675e-02
  4.342442e+00    4.880745e-01   3.115870e-02
  4.344652e+00    3.879380e-01   2.815730e-02
  4.346862e+00    2.757371e-01   2.407068e-02
  4.349073e+00    4.038433e-01   2.955463e-02
  4.351283e+00    3.391609e-01   2.748863e-02
  4.353494e+00    3.371813e-01   2.783151e-02
  4.355704e+00    4.248177e-01   3.174304e-02
  4.357915e+00    5.219952e-01   3.577240e-02
  4.360125e+00    5.324493e-01   3.674540e-02
  4.362336e+00    4.465432e-01   3.426523e-02
  4.364546e+00    3.535547e-01   3.104367e-02
  4.366757e+00    5.325534e-01   3.885743e-02
  4.368967e+00    5.952300e-01   4.190128e-02
  4.371177e+00    5.569980e-01   4.139460e-02
  4.373388e+00    4.817773e-01   3.935929e-02
  4.375598e+00    4.496868e-01   3.889220e-02
  4.377809e+00    4.849675e-01   4.141043e-02
  4.380019e+00    5.414154e-01   4.485671e-02
  4.382230e+00    4.025527e-01   3.975732e-02
  4.384440e+00    4.868207e-01   4.497915e-02
  4.386651e+00    4.952874e-01   4.676872e-02
  4.388861e+00    5.154932e-01   4.931156e-02
  4.391072e+00    6.256967e-01   5.623932e-02
  4.393282e+00    6.185748e-01   5.807876e-02
  4.395492e+00    4.593691e-01   5.212956e-02
  4.397703e+00    4.193164e-01   5.208295e-02
  4.399913e+00    3.548883e-01   5.033990e-02
  4.402124e+00    2.365443e-01   4.342745e-02
  4.404334e+00    2.986796e-01   5.187165e-02
  4.406545e+00    4.725690e-01   7.010365e-02
  4.408755e+00    2.976091e-01   6.033464e-02
  4.410966e+00    2.092167e-01   5.599524e-02
  4.413176e+00    1.306597e-01   5.009089e-02
  4.415387e+00   -9.398333e-01            nan
  4.417597e+00   -2.044852e+00            nan
  4.419807e+00    2.807437e-01   1.902519e-01
