# == pyFAI calibration ==
# Distance Sample to Detector: 0.216 m
# PONI: 1.166e-01, 1.308e-01 m
# Rotations: 0.000000 0.000000 0.000000 rad
# 
# == Fit2d calibration ==
# Distance Sample-beamCenter: 216.000 mm
# Center: x=1744.293, y=1555.000 pix
# Tilt: 0.000 deg  TiltPlanRot: 0.000 deg
# 
# Detector Eiger 9M	 PixelSize= 7.500e-05, 7.500e-05 m
#    Detector has a mask: True 
#    Detector has a dark current: False 
#    detector has a flat field: False 
# 
# Wavelength: 9.8e-11 m
# Mask applied: from detector
# Dark current applied: False
# Flat field applied: False
# Polarization factor: None
# Normalization factor: 1.0
# 
# Headers of the input frame:
# {
# "_array_data.header_convention": "SLS_1.0",
# "_array_data.header_contents": "# Detector: Dectris Eiger 9M, S/N E-18-0102\r\n# Pixel_size 75e-6 m x 75e-6 m\r\n# Silicon sensor, thickness 0.000450 m\r\n# Exposure_time 0.024997 s\r\n# Exposure_period 0.025000 s\r\n# Count_cutoff 62318 counts\r\n# Wavelength 0.980106 A\r\n# Detector_distance 0.215992 m\r\n# Beam_xy (1555, 1744) pixels\r\n# Start_angle 0.000000 deg.\r\n# Angle_increment 0.000000 deg.",
# "Content-Type": "application/octet-stream;",
# "conversions": "x-CBF_BYTE_OFFSET",
# "Content-Transfer-Encoding": "BINARY",
# "X-Binary-Size": "10166594",
# "X-Binary-ID": "1",
# "X-Binary-Element-Type": "signed 32-bit integer",
# "X-Binary-Element-Byte-Order": "LITTLE_ENDIAN",
# "Content-MD5": "XKCFNNGjY327P8qLcaJ9bA==",
# "X-Binary-Number-of-Elements": "10166590",
# "X-Binary-Size-Fastest-Dimension": "3110",
# "X-Binary-Size-Second-Dimension": "3269",
# "X-Binary-Size-Padding": "4095"
# }
# --> H:/Proxima2a_2019-04-05/RAW_DATA/C5_gel17_position5/C5_mesh_1_data.cbf/C5_mesh_1_data.cbf000062.dat
#        q_A^-1              I           sigma 
  1.105228e-03    1.633744e+00   6.916383e-01
  3.315685e-03    1.438608e+00   3.945633e-01
  5.526141e-03    1.298476e+00   2.898605e-01
  7.736597e-03    1.440304e+00   2.578976e-01
  9.947054e-03    1.410580e+00   2.249963e-01
  1.215751e-02    1.323296e+00   1.970594e-01
  1.436797e-02    1.409284e+00   1.870575e-01
  1.657842e-02    1.544233e+00   1.822640e-01
  1.878888e-02    1.470199e+00   1.670520e-01
  2.099934e-02    1.292353e+00   1.481810e-01
  2.320979e-02    1.384854e+00   1.458931e-01
  2.542025e-02    1.315994e+00   1.359053e-01
  2.763070e-02    1.508691e+00   1.395695e-01
  2.984116e-02    1.601203e+00   1.383565e-01
  3.205162e-02    1.470951e+00   1.279633e-01
  3.426207e-02    1.376891e+00   1.197360e-01
  3.647253e-02    1.372188e+00   1.158501e-01
  3.868299e-02    1.449381e+00   1.156210e-01
  4.089344e-02    1.557509e+00   1.165725e-01
  4.310390e-02    1.551045e+00   1.133016e-01
  4.531436e-02    1.426202e+00   1.059635e-01
  4.752481e-02    1.330248e+00   9.992758e-02
  4.973527e-02    1.403147e+00   1.003237e-01
  5.194572e-02    1.441327e+00   9.949110e-02
  5.415618e-02    1.503444e+00   9.951359e-02
  5.636664e-02    1.407447e+00   9.438027e-02
  5.857709e-02    1.352177e+00   9.074681e-02
  6.078755e-02    1.418378e+00   9.123329e-02
  6.299801e-02    1.374257e+00   8.821256e-02
  6.520846e-02    1.386885e+00   8.710255e-02
  6.741892e-02    1.448672e+00   8.754571e-02
  6.962938e-02    1.479709e+00   8.706719e-02
  7.183983e-02    1.449530e+00   8.483709e-02
  7.405029e-02    1.402247e+00   8.218517e-02
  7.626074e-02    1.572300e+00   8.575471e-02
  7.847120e-02    1.516411e+00   8.301995e-02
  8.068166e-02    1.326809e+00   7.658480e-02
  8.289211e-02    1.406139e+00   7.778228e-02
  8.510257e-02    1.347144e+00   7.513746e-02
  8.731303e-02    1.393888e+00   7.545336e-02
  8.952348e-02    1.568654e+00   7.905170e-02
  9.173394e-02    1.472566e+00   7.566086e-02
  9.394439e-02    1.433335e+00   7.376039e-02
  9.615485e-02    1.507739e+00   7.477438e-02
  9.836531e-02    1.469233e+00   7.297729e-02
  1.005758e-01    1.534014e+00   7.374527e-02
  1.027862e-01    1.519042e+00   7.258932e-02
  1.049967e-01    1.445379e+00   7.005689e-02
  1.072071e-01    1.418544e+00   6.868346e-02
  1.094176e-01    1.396482e+00   6.745436e-02
  1.116280e-01    1.416700e+00   6.726336e-02
  1.138385e-01    1.399299e+00   6.619552e-02
  1.160490e-01    1.486011e+00   6.756209e-02
  1.182594e-01    1.519606e+00   6.767853e-02
  1.204699e-01    1.496475e+00   6.654194e-02
  1.226803e-01    1.511239e+00   6.626145e-02
  1.248908e-01    1.448605e+00   6.429639e-02
  1.271012e-01    1.533179e+00   6.556765e-02
  1.293117e-01    1.510617e+00   6.452396e-02
  1.315222e-01    1.527303e+00   6.433034e-02
  1.337326e-01    1.542746e+00   6.411693e-02
  1.359431e-01    1.559698e+00   6.450599e-02
  1.381535e-01    1.586301e+00   6.592701e-02
  1.403640e-01    1.558120e+00   6.562091e-02
  1.425744e-01    1.513806e+00   6.478433e-02
  1.447849e-01    1.579167e+00   6.618340e-02
  1.469953e-01    1.595891e+00   6.649123e-02
  1.492058e-01    1.583986e+00   6.616580e-02
  1.514163e-01    1.550702e+00   6.535823e-02
  1.536267e-01    1.577787e+00   6.579783e-02
  1.558372e-01    1.569958e+00   6.548948e-02
  1.580476e-01    1.521946e+00   6.432386e-02
  1.602581e-01    1.504978e+00   6.380182e-02
  1.624685e-01    1.562629e+00   6.483436e-02
  1.646790e-01    1.564819e+00   6.469349e-02
  1.668895e-01    1.578017e+00   6.477810e-02
  1.690999e-01    1.692751e+00   6.689023e-02
  1.713104e-01    1.658593e+00   6.600646e-02
  1.735208e-01    1.692511e+00   6.647059e-02
  1.757313e-01    1.710724e+00   6.661782e-02
  1.779417e-01    1.806671e+00   6.823723e-02
  1.801522e-01    1.770670e+00   6.733879e-02
  1.823626e-01    1.873703e+00   6.903965e-02
  1.845731e-01    1.883100e+00   6.898838e-02
  1.867836e-01    1.895500e+00   6.898152e-02
  1.889940e-01    2.013024e+00   7.085560e-02
  1.912045e-01    1.912327e+00   6.883002e-02
  1.934149e-01    1.925860e+00   6.884198e-02
  1.956254e-01    2.005790e+00   7.002430e-02
  1.978358e-01    1.898025e+00   6.788384e-02
  2.000463e-01    1.948433e+00   6.855142e-02
  2.022568e-01    1.955318e+00   6.844703e-02
  2.044672e-01    1.995271e+00   6.890592e-02
  2.066777e-01    2.068086e+00   6.991912e-02
  2.088881e-01    1.935229e+00   6.741474e-02
  2.110986e-01    1.934175e+00   6.716522e-02
  2.133090e-01    2.001650e+00   6.810462e-02
  2.155195e-01    1.950059e+00   6.699825e-02
  2.177300e-01    1.930395e+00   6.613591e-02
  2.199404e-01    1.913647e+00   6.411330e-02
  2.221509e-01    1.827263e+00   6.162079e-02
  2.243613e-01    1.853851e+00   6.128062e-02
  2.265718e-01    1.919340e+00   6.166635e-02
  2.287822e-01    2.040687e+00   6.295649e-02
  2.309927e-01    2.053692e+00   6.258145e-02
  2.332031e-01    2.111879e+00   6.291864e-02
  2.354136e-01    2.170317e+00   6.326626e-02
  2.376241e-01    2.210987e+00   6.336067e-02
  2.398345e-01    2.138448e+00   6.185145e-02
  2.420450e-01    2.145220e+00   6.150657e-02
  2.442554e-01    2.111070e+00   6.059470e-02
  2.464659e-01    2.089608e+00   5.988114e-02
  2.486763e-01    2.041637e+00   5.880073e-02
  2.508868e-01    2.025012e+00   5.819143e-02
  2.530973e-01    2.017622e+00   5.772501e-02
  2.553077e-01    2.076333e+00   5.820367e-02
  2.575182e-01    2.115308e+00   5.839983e-02
  2.597286e-01    2.020249e+00   5.674078e-02
  2.619391e-01    1.994703e+00   5.605630e-02
  2.641495e-01    2.000243e+00   5.582341e-02
  2.663600e-01    1.998375e+00   5.549049e-02
  2.685704e-01    2.040067e+00   5.576242e-02
  2.707809e-01    1.994825e+00   5.484799e-02
  2.729914e-01    2.038867e+00   5.516114e-02
  2.752018e-01    1.963897e+00   5.385575e-02
  2.774123e-01    1.911165e+00   5.285639e-02
  2.796227e-01    1.926959e+00   5.281181e-02
  2.818332e-01    1.943088e+00   5.276783e-02
  2.840436e-01    1.963158e+00   5.278254e-02
  2.862541e-01    1.894824e+00   5.160649e-02
  2.884646e-01    1.987075e+00   5.259702e-02
  2.906750e-01    1.938501e+00   5.170384e-02
  2.928855e-01    1.968158e+00   5.185646e-02
  2.950959e-01    1.913980e+00   5.090284e-02
  2.973064e-01    1.889578e+00   5.035000e-02
  2.995168e-01    1.890467e+00   5.013374e-02
  3.017273e-01    1.883630e+00   4.982236e-02
  3.039377e-01    1.911167e+00   4.996548e-02
  3.061482e-01    1.899107e+00   4.959213e-02
  3.083587e-01    1.902268e+00   4.941855e-02
  3.105691e-01    1.877496e+00   4.888602e-02
  3.127796e-01    1.821360e+00   4.794720e-02
  3.149900e-01    1.853435e+00   4.816601e-02
  3.172005e-01    1.862405e+00   4.808501e-02
  3.194109e-01    1.816042e+00   4.728671e-02
  3.216214e-01    1.842900e+00   4.744071e-02
  3.238319e-01    1.829898e+00   4.708577e-02
  3.260423e-01    1.866530e+00   4.736533e-02
  3.282528e-01    1.841379e+00   4.685784e-02
  3.304632e-01    1.852397e+00   4.681574e-02
  3.326737e-01    1.804136e+00   4.602161e-02
  3.348841e-01    1.805107e+00   4.585548e-02
  3.370946e-01    1.783075e+00   4.540330e-02
  3.393050e-01    1.825055e+00   4.576066e-02
  3.415155e-01    1.796822e+00   4.523463e-02
  3.437260e-01    1.798412e+00   4.508689e-02
  3.459364e-01    1.823998e+00   4.523851e-02
  3.481469e-01    1.835777e+00   4.521870e-02
  3.503573e-01    1.816340e+00   4.481482e-02
  3.525678e-01    1.803616e+00   4.449843e-02
  3.547782e-01    1.837446e+00   4.475148e-02
  3.569887e-01    1.753529e+00   4.356273e-02
  3.591992e-01    1.775585e+00   4.368072e-02
  3.614096e-01    1.806492e+00   4.390649e-02
  3.636201e-01    1.730667e+00   4.282415e-02
  3.658305e-01    1.753955e+00   4.296424e-02
  3.680410e-01    1.747102e+00   4.273275e-02
  3.702514e-01    1.763761e+00   4.279159e-02
  3.724619e-01    1.786187e+00   4.291613e-02
  3.746724e-01    1.758876e+00   4.244471e-02
  3.768828e-01    1.758890e+00   4.230203e-02
  3.790933e-01    1.778930e+00   4.240372e-02
  3.813037e-01    1.743038e+00   4.183643e-02
  3.835142e-01    1.784744e+00   4.219494e-02
  3.857246e-01    1.807673e+00   4.232769e-02
  3.879351e-01    1.751307e+00   4.152770e-02
  3.901455e-01    1.740129e+00   4.126316e-02
  3.923560e-01    1.768361e+00   4.146434e-02
  3.945665e-01    1.825874e+00   4.199961e-02
  3.967769e-01    1.805409e+00   4.163281e-02
  3.989874e-01    1.742040e+00   4.076792e-02
  4.011978e-01    1.730116e+00   4.050322e-02
  4.034083e-01    1.726070e+00   4.033163e-02
  4.056187e-01    1.741216e+00   4.038341e-02
  4.078292e-01    1.759301e+00   4.046975e-02
  4.100397e-01    1.753024e+00   4.027413e-02
  4.122501e-01    1.811199e+00   4.081448e-02
  4.144606e-01    1.787247e+00   4.042348e-02
  4.166710e-01    1.759743e+00   3.999197e-02
  4.188815e-01    1.780507e+00   4.010838e-02
  4.210919e-01    1.775810e+00   3.993808e-02
  4.233024e-01    1.733332e+00   3.934143e-02
  4.255128e-01    1.767258e+00   3.960976e-02
  4.277233e-01    1.796128e+00   3.981725e-02
  4.299338e-01    1.759958e+00   3.930089e-02
  4.321442e-01    1.761487e+00   3.920544e-02
  4.343547e-01    1.751404e+00   3.898253e-02
  4.365651e-01    1.779773e+00   3.918533e-02
  4.387756e-01    1.778598e+00   3.906270e-02
  4.409860e-01    1.749405e+00   3.863348e-02
  4.431965e-01    1.679128e+00   3.774488e-02
  4.454070e-01    1.649780e+00   3.730948e-02
  4.476174e-01    1.676081e+00   3.750243e-02
  4.498279e-01    1.692619e+00   3.758446e-02
  4.520383e-01    1.736826e+00   3.796762e-02
  4.542488e-01    1.674165e+00   3.717594e-02
  4.564592e-01    1.729293e+00   3.768165e-02
  4.586697e-01    1.712599e+00   3.739984e-02
  4.608801e-01    1.669948e+00   3.683227e-02
  4.630906e-01    1.625223e+00   3.623948e-02
  4.653011e-01    1.639360e+00   3.630102e-02
  4.675115e-01    1.700218e+00   3.687133e-02
  4.697220e-01    1.702427e+00   3.679868e-02
  4.719324e-01    1.698042e+00   3.665621e-02
  4.741429e-01    1.672060e+00   3.628095e-02
  4.763533e-01    1.709445e+00   3.659024e-02
  4.785638e-01    1.690913e+00   3.629738e-02
  4.807743e-01    1.706578e+00   3.637237e-02
  4.829847e-01    1.684739e+00   3.604762e-02
  4.851952e-01    1.653713e+00   3.562377e-02
  4.874056e-01    1.676077e+00   3.577340e-02
  4.896161e-01    1.665752e+00   3.557463e-02
  4.918265e-01    1.638978e+00   3.519991e-02
  4.940370e-01    1.707413e+00   3.583860e-02
  4.962475e-01    1.636919e+00   3.500431e-02
  4.984579e-01    1.589342e+00   3.440683e-02
  5.006684e-01    1.669985e+00   3.518293e-02
  5.028788e-01    1.670195e+00   3.509992e-02
  5.050893e-01    1.631451e+00   3.460603e-02
  5.072997e-01    1.655507e+00   3.477603e-02
  5.095102e-01    1.712899e+00   3.528897e-02
  5.117206e-01    1.705707e+00   3.513109e-02
  5.139311e-01    1.636233e+00   3.432677e-02
  5.161416e-01    1.606795e+00   3.393618e-02
  5.183520e-01    1.605429e+00   3.384114e-02
  5.205625e-01    1.576377e+00   3.345499e-02
  5.227729e-01    1.615672e+00   3.379038e-02
  5.249834e-01    1.631087e+00   3.387240e-02
  5.271938e-01    1.633389e+00   3.381720e-02
  5.294043e-01    1.666221e+00   3.407655e-02
  5.316148e-01    1.725395e+00   3.459695e-02
  5.338252e-01    1.755858e+00   3.482128e-02
  5.360357e-01    1.675305e+00   3.393572e-02
  5.382461e-01    1.736338e+00   3.447023e-02
  5.404566e-01    1.760934e+00   3.463454e-02
  5.426670e-01    1.725201e+00   3.420409e-02
  5.448775e-01    1.708524e+00   3.396233e-02
  5.470879e-01    1.696010e+00   3.376225e-02
  5.492984e-01    1.703674e+00   3.376321e-02
  5.515089e-01    1.751748e+00   3.416030e-02
  5.537193e-01    1.772868e+00   3.428994e-02
  5.559298e-01    1.725020e+00   3.374985e-02
  5.581402e-01    1.738854e+00   3.381085e-02
  5.603507e-01    1.787901e+00   3.420977e-02
  5.625611e-01    1.741778e+00   3.369237e-02
  5.647716e-01    1.715244e+00   3.336213e-02
  5.669821e-01    1.780108e+00   3.391383e-02
  5.691925e-01    1.774490e+00   3.378760e-02
  5.714030e-01    1.742867e+00   3.341380e-02
  5.736134e-01    1.692984e+00   3.286210e-02
  5.758239e-01    1.681918e+00   3.268462e-02
  5.780343e-01    1.684478e+00   3.264028e-02
  5.802448e-01    1.646716e+00   3.220480e-02
  5.824552e-01    1.619204e+00   3.186764e-02
  5.846657e-01    1.605898e+00   3.167028e-02
  5.868762e-01    1.622529e+00   3.176755e-02
  5.890866e-01    1.629476e+00   3.176945e-02
  5.912971e-01    1.611628e+00   3.152956e-02
  5.935075e-01    1.625877e+00   3.160321e-02
  5.957180e-01    1.607064e+00   3.135535e-02
  5.979284e-01    1.596937e+00   3.119260e-02
  6.001389e-01    1.604359e+00   3.120133e-02
  6.023494e-01    1.652906e+00   3.160557e-02
  6.045598e-01    1.625781e+00   3.128137e-02
  6.067703e-01    1.643033e+00   3.138366e-02
  6.089807e-01    1.640651e+00   3.129784e-02
  6.111912e-01    1.658429e+00   3.140412e-02
  6.134016e-01    1.685580e+00   3.159701e-02
  6.156121e-01    1.694984e+00   3.162204e-02
  6.178226e-01    1.709736e+00   3.169646e-02
  6.200330e-01    1.723805e+00   3.176384e-02
  6.222435e-01    1.671539e+00   3.121663e-02
  6.244539e-01    1.659070e+00   3.103908e-02
  6.266644e-01    1.689822e+00   3.126432e-02
  6.288748e-01    1.690954e+00   3.121392e-02
  6.310853e-01    1.681012e+00   3.106159e-02
  6.332957e-01    1.672884e+00   3.092659e-02
  6.355062e-01    1.715838e+00   3.126026e-02
  6.377167e-01    1.709994e+00   3.114711e-02
  6.399271e-01    1.713983e+00   3.112367e-02
  6.421376e-01    1.684737e+00   3.079810e-02
  6.443480e-01    1.692288e+00   3.080831e-02
  6.465585e-01    1.657953e+00   3.043642e-02
  6.487689e-01    1.646113e+00   3.027027e-02
  6.509794e-01    1.633086e+00   3.009339e-02
  6.531899e-01    1.620218e+00   2.991823e-02
  6.554003e-01    1.571663e+00   2.941113e-02
  6.576108e-01    1.553648e+00   2.918760e-02
  6.598212e-01    1.577750e+00   2.935851e-02
  6.620317e-01    1.570098e+00   2.923293e-02
  6.642421e-01    1.543889e+00   2.893429e-02
  6.664526e-01    1.568073e+00   2.910629e-02
  6.686630e-01    1.599013e+00   2.933771e-02
  6.708735e-01    1.592037e+00   2.921994e-02
  6.730840e-01    1.618961e+00   2.941226e-02
  6.752944e-01    1.594088e+00   2.913240e-02
  6.775049e-01    1.573156e+00   2.888793e-02
  6.797153e-01    1.573630e+00   2.883997e-02
  6.819258e-01    1.555807e+00   2.862446e-02
  6.841362e-01    1.591214e+00   2.889628e-02
  6.863467e-01    1.601330e+00   2.893608e-02
  6.885572e-01    1.586288e+00   2.874823e-02
  6.907676e-01    1.619746e+00   2.899780e-02
  6.929781e-01    1.531471e+00   2.814644e-02
  6.951885e-01    1.548555e+00   2.825284e-02
  6.973990e-01    1.596985e+00   2.864050e-02
  6.996094e-01    1.576930e+00   2.841005e-02
  7.018199e-01    1.578812e+00   2.837710e-02
  7.040303e-01    1.590345e+00   2.843053e-02
  7.062408e-01    1.587421e+00   2.835462e-02
  7.084513e-01    1.574870e+00   2.819319e-02
  7.106617e-01    1.585661e+00   2.824044e-02
  7.128722e-01    1.585447e+00   2.818969e-02
  7.150826e-01    1.567227e+00   2.797893e-02
  7.172931e-01    1.566022e+00   2.791996e-02
  7.195035e-01    1.527846e+00   2.753014e-02
  7.217140e-01    1.525159e+00   2.755458e-02
  7.239245e-01    1.529981e+00   2.782160e-02
  7.261349e-01    1.558673e+00   2.818932e-02
  7.283454e-01    1.563600e+00   2.830600e-02
  7.305558e-01    1.550874e+00   2.824414e-02
  7.327663e-01    1.575736e+00   2.851216e-02
  7.349767e-01    1.520494e+00   2.802401e-02
  7.371872e-01    1.543736e+00   2.822628e-02
  7.393976e-01    1.585652e+00   2.859263e-02
  7.416081e-01    1.572299e+00   2.845583e-02
  7.438186e-01    1.542245e+00   2.803973e-02
  7.460290e-01    1.497910e+00   2.734677e-02
  7.482395e-01    1.535730e+00   2.752080e-02
  7.504499e-01    1.541394e+00   2.743669e-02
  7.526604e-01    1.524347e+00   2.716987e-02
  7.548708e-01    1.550343e+00   2.731184e-02
  7.570813e-01    1.575629e+00   2.748268e-02
  7.592918e-01    1.559511e+00   2.730675e-02
  7.615022e-01    1.566202e+00   2.733154e-02
  7.637127e-01    1.588827e+00   2.749534e-02
  7.659231e-01    1.548337e+00   2.711099e-02
  7.681336e-01    1.557231e+00   2.715732e-02
  7.703440e-01    1.545878e+00   2.702720e-02
  7.725545e-01    1.566433e+00   2.717550e-02
  7.747650e-01    1.595289e+00   2.738621e-02
  7.769754e-01    1.597863e+00   2.735523e-02
  7.791859e-01    1.575052e+00   2.710578e-02
  7.813963e-01    1.609833e+00   2.735030e-02
  7.836068e-01    1.627301e+00   2.744562e-02
  7.858172e-01    1.587508e+00   2.705730e-02
  7.880277e-01    1.572628e+00   2.687895e-02
  7.902381e-01    1.584699e+00   2.693288e-02
  7.924486e-01    1.575698e+00   2.680656e-02
  7.946591e-01    1.568353e+00   2.669617e-02
  7.968695e-01    1.585507e+00   2.679376e-02
  7.990800e-01    1.562668e+00   2.655253e-02
  8.012904e-01    1.626616e+00   2.704352e-02
  8.035009e-01    1.621839e+00   2.695575e-02
  8.057113e-01    1.595587e+00   2.669045e-02
  8.079218e-01    1.622625e+00   2.686919e-02
  8.101323e-01    1.614607e+00   2.675722e-02
  8.123427e-01    1.602260e+00   2.660927e-02
  8.145532e-01    1.598214e+00   2.653017e-02
  8.167636e-01    1.634058e+00   2.678092e-02
  8.189741e-01    1.626573e+00   2.667499e-02
  8.211845e-01    1.626029e+00   2.662581e-02
  8.233950e-01    1.618905e+00   2.652423e-02
  8.256054e-01    1.623325e+00   2.651638e-02
  8.278159e-01    1.628793e+00   2.651717e-02
  8.300264e-01    1.653013e+00   2.667030e-02
  8.322368e-01    1.633040e+00   2.646566e-02
  8.344473e-01    1.604557e+00   2.619090e-02
  8.366577e-01    1.635141e+00   2.639680e-02
  8.388682e-01    1.654704e+00   2.651181e-02
  8.410786e-01    1.620938e+00   2.619808e-02
  8.432891e-01    1.656133e+00   2.643890e-02
  8.454996e-01    1.617373e+00   2.608634e-02
  8.477100e-01    1.590876e+00   2.583071e-02
  8.499205e-01    1.614039e+00   2.597721e-02
  8.521309e-01    1.632147e+00   2.608179e-02
  8.543414e-01    1.634392e+00   2.605902e-02
  8.565518e-01    1.571657e+00   2.551423e-02
  8.587623e-01    1.579411e+00   2.553722e-02
  8.609727e-01    1.614667e+00   2.578066e-02
  8.631832e-01    1.594833e+00   2.558233e-02
  8.653937e-01    1.593254e+00   2.553036e-02
  8.676041e-01    1.571771e+00   2.531940e-02
  8.698146e-01    1.583241e+00   2.537276e-02
  8.720250e-01    1.561232e+00   2.515741e-02
  8.742355e-01    1.558656e+00   2.509836e-02
  8.764459e-01    1.586827e+00   2.528554e-02
  8.786564e-01    1.601474e+00   2.536410e-02
  8.808669e-01    1.559218e+00   2.498930e-02
  8.830773e-01    1.537116e+00   2.477419e-02
  8.852878e-01    1.533963e+00   2.471168e-02
  8.874982e-01    1.508370e+00   2.446908e-02
  8.897087e-01    1.549579e+00   2.476401e-02
  8.919191e-01    1.574569e+00   2.492546e-02
  8.941296e-01    1.553887e+00   2.472447e-02
  8.963401e-01    1.589991e+00   2.497374e-02
  8.985505e-01    1.579475e+00   2.485430e-02
  9.007610e-01    1.583105e+00   2.484628e-02
  9.029714e-01    1.582540e+00   2.480623e-02
  9.051819e-01    1.589052e+00   2.482010e-02
  9.073923e-01    1.618303e+00   2.501072e-02
  9.096028e-01    1.570723e+00   2.460574e-02
  9.118132e-01    1.569419e+00   2.455960e-02
  9.140237e-01    1.608027e+00   2.482318e-02
  9.162342e-01    1.581773e+00   2.458533e-02
  9.184446e-01    1.590596e+00   2.461814e-02
  9.206551e-01    1.593306e+00   2.460360e-02
  9.228655e-01    1.580509e+00   2.446957e-02
  9.250760e-01    1.580575e+00   2.443495e-02
  9.272864e-01    1.591925e+00   2.448840e-02
  9.294969e-01    1.583398e+00   2.438711e-02
  9.317074e-01    1.623777e+00   2.466121e-02
  9.339178e-01    1.612472e+00   2.454167e-02
  9.361283e-01    1.630187e+00   2.463971e-02
  9.383387e-01    1.627740e+00   2.458774e-02
  9.405492e-01    1.624669e+00   2.453022e-02
  9.427596e-01    1.655699e+00   2.472772e-02
  9.449701e-01    1.639870e+00   2.457580e-02
  9.471805e-01    1.625856e+00   2.443589e-02
  9.493910e-01    1.676043e+00   2.477612e-02
  9.516015e-01    1.700173e+00   2.491900e-02
  9.538119e-01    1.704920e+00   2.491958e-02
  9.560224e-01    1.727250e+00   2.504692e-02
  9.582328e-01    1.764692e+00   2.528298e-02
  9.604433e-01    1.751355e+00   2.515159e-02
  9.626537e-01    1.761735e+00   2.519210e-02
  9.648642e-01    1.815095e+00   2.553573e-02
  9.670747e-01    1.859591e+00   2.581120e-02
  9.692851e-01    1.823877e+00   2.552819e-02
  9.714956e-01    1.790275e+00   2.525626e-02
  9.737060e-01    1.801842e+00   2.530443e-02
  9.759165e-01    1.839519e+00   2.553155e-02
  9.781269e-01    1.855654e+00   2.560975e-02
  9.803374e-01    1.901227e+00   2.588646e-02
  9.825478e-01    1.875697e+00   2.567817e-02
  9.847583e-01    1.884549e+00   2.570373e-02
  9.869688e-01    1.923359e+00   2.593228e-02
  9.891792e-01    1.917394e+00   2.585765e-02
  9.913897e-01    1.862671e+00   2.545158e-02
  9.936001e-01    1.837310e+00   2.524465e-02
  9.958106e-01    1.796706e+00   2.493020e-02
  9.980210e-01    1.739891e+00   2.450102e-02
  1.000231e+00    1.736804e+00   2.461336e-02
  1.002442e+00    1.729526e+00   2.469227e-02
  1.004652e+00    1.683571e+00   2.442996e-02
  1.006863e+00    1.685445e+00   2.449427e-02
  1.009073e+00    1.670604e+00   2.442352e-02
  1.011284e+00    1.645128e+00   2.426899e-02
  1.013494e+00    1.585753e+00   2.385065e-02
  1.015705e+00    1.541052e+00   2.353428e-02
  1.017915e+00    1.543483e+00   2.356908e-02
  1.020126e+00    1.561131e+00   2.371945e-02
  1.022336e+00    1.546921e+00   2.362289e-02
  1.024547e+00    1.522506e+00   2.344684e-02
  1.026757e+00    1.501997e+00   2.329664e-02
  1.028967e+00    1.519133e+00   2.343676e-02
  1.031178e+00    1.513647e+00   2.340054e-02
  1.033388e+00    1.463807e+00   2.301700e-02
  1.035599e+00    1.467825e+00   2.305191e-02
  1.037809e+00    1.482022e+00   2.316633e-02
  1.040020e+00    1.512028e+00   2.340095e-02
  1.042230e+00    1.486515e+00   2.320461e-02
  1.044441e+00    1.477593e+00   2.313465e-02
  1.046651e+00    1.476005e+00   2.312238e-02
  1.048862e+00    1.460899e+00   2.300297e-02
  1.051072e+00    1.468517e+00   2.306055e-02
  1.053282e+00    1.454468e+00   2.294903e-02
  1.055493e+00    1.446760e+00   2.288390e-02
  1.057703e+00    1.436143e+00   2.279831e-02
  1.059914e+00    1.441327e+00   2.283521e-02
  1.062124e+00    1.455831e+00   2.294582e-02
  1.064335e+00    1.458972e+00   2.296715e-02
  1.066545e+00    1.448134e+00   2.287576e-02
  1.068756e+00    1.468459e+00   2.303200e-02
  1.070966e+00    1.489631e+00   2.319087e-02
  1.073177e+00    1.489182e+00   2.318132e-02
  1.075387e+00    1.446115e+00   2.283847e-02
  1.077597e+00    1.438676e+00   2.277245e-02
  1.079808e+00    1.454881e+00   2.276804e-02
  1.082018e+00    1.414393e+00   2.226310e-02
  1.084229e+00    1.418102e+00   2.218381e-02
  1.086439e+00    1.432889e+00   2.221240e-02
  1.088650e+00    1.425577e+00   2.208076e-02
  1.090860e+00    1.413609e+00   2.192120e-02
  1.093071e+00    1.406665e+00   2.180605e-02
  1.095281e+00    1.401612e+00   2.171049e-02
  1.097492e+00    1.368655e+00   2.140028e-02
  1.099702e+00    1.406990e+00   2.164712e-02
  1.101912e+00    1.414343e+00   2.165520e-02
  1.104123e+00    1.387072e+00   2.139802e-02
  1.106333e+00    1.385310e+00   2.134074e-02
  1.108544e+00    1.397122e+00   2.138778e-02
  1.110754e+00    1.413015e+00   2.146626e-02
  1.112965e+00    1.434294e+00   2.158659e-02
  1.115175e+00    1.399094e+00   2.127919e-02
  1.117386e+00    1.383546e+00   2.112180e-02
  1.119596e+00    1.366571e+00   2.095456e-02
  1.121807e+00    1.366190e+00   2.091341e-02
  1.124017e+00    1.381448e+00   2.099359e-02
  1.126228e+00    1.365908e+00   2.083989e-02
  1.128438e+00    1.397632e+00   2.104380e-02
  1.130648e+00    1.374243e+00   2.083299e-02
  1.132859e+00    1.351762e+00   2.062804e-02
  1.135069e+00    1.350561e+00   2.058470e-02
  1.137280e+00    1.342947e+00   2.049416e-02
  1.139490e+00    1.355044e+00   2.055356e-02
  1.141701e+00    1.374762e+00   2.066958e-02
  1.143911e+00    1.379418e+00   2.067272e-02
  1.146122e+00    1.383829e+00   2.067371e-02
  1.148332e+00    1.382001e+00   2.062814e-02
  1.150543e+00    1.343684e+00   2.030973e-02
  1.152753e+00    1.322987e+00   2.012246e-02
  1.154963e+00    1.330404e+00   2.014821e-02
  1.157174e+00    1.351760e+00   2.027936e-02
  1.159384e+00    1.368162e+00   2.037224e-02
  1.161595e+00    1.362689e+00   2.030167e-02
  1.163805e+00    1.353511e+00   2.020410e-02
  1.166016e+00    1.354564e+00   2.018266e-02
  1.168226e+00    1.373685e+00   2.029558e-02
  1.170437e+00    1.367832e+00   2.022365e-02
  1.172647e+00    1.362756e+00   2.015723e-02
  1.174858e+00    1.376005e+00   2.022676e-02
  1.177068e+00    1.396746e+00   2.035003e-02
  1.179278e+00    1.378928e+00   2.019107e-02
  1.181489e+00    1.342488e+00   1.989566e-02
  1.183699e+00    1.342864e+00   1.987102e-02
  1.185910e+00    1.359537e+00   1.996620e-02
  1.188120e+00    1.371833e+00   2.002946e-02
  1.190331e+00    1.359520e+00   1.991258e-02
  1.192541e+00    1.357064e+00   1.986715e-02
  1.194752e+00    1.374071e+00   1.996401e-02
  1.196962e+00    1.373177e+00   1.993156e-02
  1.199173e+00    1.352977e+00   1.975790e-02
  1.201383e+00    1.353170e+00   1.973210e-02
  1.203593e+00    1.360783e+00   1.976263e-02
  1.205804e+00    1.349189e+00   1.965234e-02
  1.208014e+00    1.324324e+00   1.944381e-02
  1.210225e+00    1.346556e+00   1.958104e-02
  1.212435e+00    1.356077e+00   1.962530e-02
  1.214646e+00    1.366212e+00   1.967224e-02
  1.216856e+00    1.385858e+00   1.978737e-02
  1.219067e+00    1.348877e+00   1.949713e-02
  1.221277e+00    1.351081e+00   1.948799e-02
  1.223488e+00    1.366544e+00   1.957330e-02
  1.225698e+00    1.361727e+00   1.951175e-02
  1.227909e+00    1.355894e+00   1.943969e-02
  1.230119e+00    1.351012e+00   1.937280e-02
  1.232329e+00    1.322543e+00   1.913719e-02
  1.234540e+00    1.346009e+00   1.927596e-02
  1.236750e+00    1.332870e+00   1.915160e-02
  1.238961e+00    1.317452e+00   1.901385e-02
  1.241171e+00    1.326057e+00   1.905188e-02
  1.243382e+00    1.335798e+00   1.909834e-02
  1.245592e+00    1.350641e+00   1.918004e-02
  1.247803e+00    1.357384e+00   1.920415e-02
  1.250013e+00    1.374808e+00   1.930324e-02
  1.252224e+00    1.370507e+00   1.924963e-02
  1.254434e+00    1.326827e+00   1.891685e-02
  1.256644e+00    1.328362e+00   1.890474e-02
  1.258855e+00    1.340517e+00   1.896787e-02
  1.261065e+00    1.332356e+00   1.888681e-02
  1.263276e+00    1.355394e+00   1.902642e-02
  1.265486e+00    1.336918e+00   1.887354e-02
  1.267697e+00    1.332462e+00   1.881918e-02
  1.269907e+00    1.318069e+00   1.869484e-02
  1.272118e+00    1.337376e+00   1.880878e-02
  1.274328e+00    1.381465e+00   1.909331e-02
  1.276539e+00    1.391933e+00   1.914239e-02
  1.278749e+00    1.340182e+00   1.876096e-02
  1.280959e+00    1.354899e+00   1.884111e-02
  1.283170e+00    1.344753e+00   1.874804e-02
  1.285380e+00    1.337756e+00   1.867686e-02
  1.287591e+00    1.332764e+00   1.862009e-02
  1.289801e+00    1.314703e+00   1.847255e-02
  1.292012e+00    1.316088e+00   1.846540e-02
  1.294222e+00    1.331483e+00   1.855694e-02
  1.296433e+00    1.334357e+00   1.856147e-02
  1.298643e+00    1.319181e+00   1.843932e-02
  1.300854e+00    1.331098e+00   1.850613e-02
  1.303064e+00    1.349401e+00   1.861370e-02
  1.305274e+00    1.340078e+00   1.852794e-02
  1.307485e+00    1.347662e+00   1.855875e-02
  1.309695e+00    1.364748e+00   1.865367e-02
  1.311906e+00    1.342788e+00   1.848136e-02
  1.314116e+00    1.338036e+00   1.842790e-02
  1.316327e+00    1.336964e+00   1.839894e-02
  1.318537e+00    1.359942e+00   1.853440e-02
  1.320748e+00    1.391254e+00   1.872468e-02
  1.322958e+00    1.378737e+00   1.861954e-02
  1.325169e+00    1.371538e+00   1.854967e-02
  1.327379e+00    1.366410e+00   1.849302e-02
  1.329589e+00    1.380769e+00   1.856861e-02
  1.331800e+00    1.372732e+00   1.849364e-02
  1.334010e+00    1.380725e+00   1.852651e-02
  1.336221e+00    1.379280e+00   1.849483e-02
  1.338431e+00    1.375861e+00   1.845083e-02
  1.340642e+00    1.365245e+00   1.844403e-02
  1.342852e+00    1.359559e+00   1.850662e-02
  1.345063e+00    1.326855e+00   1.833173e-02
  1.347273e+00    1.326821e+00   1.836643e-02
  1.349484e+00    1.328777e+00   1.840744e-02
  1.351694e+00    1.310238e+00   1.830093e-02
  1.353905e+00    1.320175e+00   1.838799e-02
  1.356115e+00    1.320906e+00   1.840797e-02
  1.358325e+00    1.315436e+00   1.838296e-02
  1.360536e+00    1.314517e+00   1.838802e-02
  1.362746e+00    1.325476e+00   1.847397e-02
  1.364957e+00    1.331600e+00   1.852424e-02
  1.367167e+00    1.337333e+00   1.857117e-02
  1.369378e+00    1.311043e+00   1.839368e-02
  1.371588e+00    1.324703e+00   1.849434e-02
  1.373799e+00    1.325270e+00   1.850196e-02
  1.376009e+00    1.310210e+00   1.839988e-02
  1.378220e+00    1.328276e+00   1.852884e-02
  1.380430e+00    1.276781e+00   1.816877e-02
  1.382640e+00    1.314964e+00   1.843932e-02
  1.384851e+00    1.331199e+00   1.855371e-02
  1.387061e+00    1.305263e+00   1.837237e-02
  1.389272e+00    1.302504e+00   1.835314e-02
  1.391482e+00    1.300925e+00   1.834135e-02
  1.393693e+00    1.311083e+00   1.841191e-02
  1.395903e+00    1.296260e+00   1.830606e-02
  1.398114e+00    1.298485e+00   1.832035e-02
  1.400324e+00    1.302851e+00   1.834901e-02
  1.402535e+00    1.269661e+00   1.811145e-02
  1.404745e+00    1.292429e+00   1.827075e-02
  1.406955e+00    1.271827e+00   1.812184e-02
  1.409166e+00    1.263069e+00   1.805606e-02
  1.411376e+00    1.247952e+00   1.794458e-02
  1.413587e+00    1.244320e+00   1.791467e-02
  1.415797e+00    1.281631e+00   1.817770e-02
  1.418008e+00    1.296968e+00   1.824387e-02
  1.420218e+00    1.273120e+00   1.792542e-02
  1.422429e+00    1.292928e+00   1.797825e-02
  1.424639e+00    1.271785e+00   1.776592e-02
  1.426850e+00    1.274905e+00   1.773290e-02
  1.429060e+00    1.271660e+00   1.766130e-02
  1.431270e+00    1.282702e+00   1.769326e-02
  1.433481e+00    1.267378e+00   1.754637e-02
  1.435691e+00    1.274910e+00   1.755990e-02
  1.437902e+00    1.285914e+00   1.759884e-02
  1.440112e+00    1.308821e+00   1.771903e-02
  1.442323e+00    1.265258e+00   1.738867e-02
  1.444533e+00    1.254293e+00   1.728079e-02
  1.446744e+00    1.292277e+00   1.750910e-02
  1.448954e+00    1.261023e+00   1.726601e-02
  1.451165e+00    1.260353e+00   1.723175e-02
  1.453375e+00    1.281691e+00   1.734885e-02
  1.455586e+00    1.289317e+00   1.737201e-02
  1.457796e+00    1.276942e+00   1.726084e-02
  1.460006e+00    1.324192e+00   1.754946e-02
  1.462217e+00    1.298372e+00   1.735102e-02
  1.464427e+00    1.306909e+00   1.738198e-02
  1.466638e+00    1.305795e+00   1.734889e-02
  1.468848e+00    1.313027e+00   1.737110e-02
  1.471059e+00    1.330945e+00   1.746352e-02
  1.473269e+00    1.350156e+00   1.756397e-02
  1.475480e+00    1.297830e+00   1.719624e-02
  1.477690e+00    1.280380e+00   1.705627e-02
  1.479901e+00    1.276232e+00   1.700471e-02
  1.482111e+00    1.272588e+00   1.695704e-02
  1.484321e+00    1.277726e+00   1.696803e-02
  1.486532e+00    1.263191e+00   1.684893e-02
  1.488742e+00    1.258305e+00   1.679373e-02
  1.490953e+00    1.230878e+00   1.658740e-02
  1.493163e+00    1.245283e+00   1.666204e-02
  1.495374e+00    1.269666e+00   1.680283e-02
  1.497584e+00    1.265179e+00   1.675144e-02
  1.499795e+00    1.219252e+00   1.642331e-02
  1.502005e+00    1.208911e+00   1.633225e-02
  1.504216e+00    1.226463e+00   1.642961e-02
  1.506426e+00    1.244257e+00   1.652768e-02
  1.508636e+00    1.234394e+00   1.644179e-02
  1.510847e+00    1.238566e+00   1.644788e-02
  1.513057e+00    1.238709e+00   1.642391e-02
  1.515268e+00    1.244277e+00   1.643519e-02
  1.517478e+00    1.216214e+00   1.622403e-02
  1.519689e+00    1.223220e+00   1.624601e-02
  1.521899e+00    1.265865e+00   1.650357e-02
  1.524110e+00    1.263653e+00   1.646874e-02
  1.526320e+00    1.255400e+00   1.639525e-02
  1.528531e+00    1.247148e+00   1.632155e-02
  1.530741e+00    1.240768e+00   1.626067e-02
  1.532951e+00    1.255964e+00   1.634029e-02
  1.535162e+00    1.260801e+00   1.645873e-02
  1.537372e+00    1.246708e+00   1.643333e-02
  1.539583e+00    1.211363e+00   1.623243e-02
  1.541793e+00    1.232823e+00   1.638247e-02
  1.544004e+00    1.252393e+00   1.651226e-02
  1.546214e+00    1.254151e+00   1.652233e-02
  1.548425e+00    1.245197e+00   1.646351e-02
  1.550635e+00    1.236199e+00   1.641356e-02
  1.552846e+00    1.233169e+00   1.640305e-02
  1.555056e+00    1.262036e+00   1.655214e-02
  1.557266e+00    1.257712e+00   1.641275e-02
  1.559477e+00    1.211779e+00   1.605191e-02
  1.561687e+00    1.234748e+00   1.617276e-02
  1.563898e+00    1.242372e+00   1.620549e-02
  1.566108e+00    1.244471e+00   1.620320e-02
  1.568319e+00    1.270389e+00   1.635527e-02
  1.570529e+00    1.268679e+00   1.631890e-02
  1.572740e+00    1.263278e+00   1.625629e-02
  1.574950e+00    1.281897e+00   1.634895e-02
  1.577161e+00    1.257617e+00   1.616777e-02
  1.579371e+00    1.263264e+00   1.618019e-02
  1.581582e+00    1.238509e+00   1.600116e-02
  1.583792e+00    1.245063e+00   1.602540e-02
  1.586002e+00    1.246212e+00   1.601517e-02
  1.588213e+00    1.282026e+00   1.622614e-02
  1.590423e+00    1.285931e+00   1.623046e-02
  1.592634e+00    1.276221e+00   1.614715e-02
  1.594844e+00    1.261423e+00   1.603170e-02
  1.597055e+00    1.293162e+00   1.621122e-02
  1.599265e+00    1.297848e+00   1.621941e-02
  1.601476e+00    1.262282e+00   1.597514e-02
  1.603686e+00    1.264519e+00   1.596932e-02
  1.605897e+00    1.250301e+00   1.585905e-02
  1.608107e+00    1.247296e+00   1.582033e-02
  1.610317e+00    1.261006e+00   1.588756e-02
  1.612528e+00    1.252048e+00   1.581172e-02
  1.614738e+00    1.267139e+00   1.588749e-02
  1.616949e+00    1.232193e+00   1.564788e-02
  1.619159e+00    1.217403e+00   1.553498e-02
  1.621370e+00    1.224873e+00   1.556409e-02
  1.623580e+00    1.202492e+00   1.540298e-02
  1.625791e+00    1.190323e+00   1.530673e-02
  1.628001e+00    1.193473e+00   1.530878e-02
  1.630212e+00    1.170046e+00   1.514021e-02
  1.632422e+00    1.166218e+00   1.509766e-02
  1.634632e+00    1.189788e+00   1.523210e-02
  1.636843e+00    1.177148e+00   1.513344e-02
  1.639053e+00    1.163815e+00   1.503029e-02
  1.641264e+00    1.164885e+00   1.502011e-02
  1.643474e+00    1.184538e+00   1.512874e-02
  1.645685e+00    1.197165e+00   1.519222e-02
  1.647895e+00    1.161425e+00   1.494711e-02
  1.650106e+00    1.137443e+00   1.477507e-02
  1.652316e+00    1.127354e+00   1.469306e-02
  1.654527e+00    1.136753e+00   1.473755e-02
  1.656737e+00    1.138794e+00   1.473420e-02
  1.658947e+00    1.128496e+00   1.465118e-02
  1.661158e+00    1.109428e+00   1.451074e-02
  1.663368e+00    1.096568e+00   1.441055e-02
  1.665579e+00    1.087516e+00   1.433504e-02
  1.667789e+00    1.081786e+00   1.428123e-02
  1.670000e+00    1.084303e+00   1.428255e-02
  1.672210e+00    1.070371e+00   1.417489e-02
  1.674421e+00    1.088523e+00   1.427937e-02
  1.676631e+00    1.056178e+00   1.405008e-02
  1.678842e+00    1.060953e+00   1.406631e-02
  1.681052e+00    1.062015e+00   1.405817e-02
  1.683263e+00    1.076767e+00   1.414044e-02
  1.685473e+00    1.052893e+00   1.396789e-02
  1.687683e+00    1.045249e+00   1.390193e-02
  1.689894e+00    1.064785e+00   1.401558e-02
  1.692104e+00    1.031421e+00   1.377968e-02
  1.694315e+00    1.022544e+00   1.370607e-02
  1.696525e+00    1.025384e+00   1.371025e-02
  1.698736e+00    1.059150e+00   1.391937e-02
  1.700946e+00    1.064784e+00   1.394119e-02
  1.703157e+00    1.042827e+00   1.378217e-02
  1.705367e+00    1.014384e+00   1.357867e-02
  1.707578e+00    1.020090e+00   1.360245e-02
  1.709788e+00    1.019193e+00   1.358251e-02
  1.711998e+00    1.025507e+00   1.360964e-02
  1.714209e+00    9.906249e-01   1.336210e-02
  1.716419e+00    1.006897e+00   1.345729e-02
  1.718630e+00    1.014054e+00   1.349090e-02
  1.720840e+00    1.010257e+00   1.345156e-02
  1.723051e+00    1.003286e+00   1.339135e-02
  1.725261e+00    1.001805e+00   1.336692e-02
  1.727472e+00    9.837113e-01   1.323174e-02
  1.729682e+00    9.652915e-01   1.309414e-02
  1.731893e+00    9.765535e-01   1.315663e-02
  1.734103e+00    9.737942e-01   1.312450e-02
  1.736313e+00    9.799877e-01   1.315232e-02
  1.738524e+00    9.765080e-01   1.311531e-02
  1.740734e+00    9.611574e-01   1.299840e-02
  1.742945e+00    9.460292e-01   1.288256e-02
  1.745155e+00    9.488502e-01   1.288862e-02
  1.747366e+00    9.442797e-01   1.284404e-02
  1.749576e+00    9.582291e-01   1.292507e-02
  1.751787e+00    9.288489e-01   1.271243e-02
  1.753997e+00    9.333106e-01   1.272986e-02
  1.756208e+00    9.517084e-01   1.284166e-02
  1.758418e+00    9.495777e-01   1.281432e-02
  1.760628e+00    9.417310e-01   1.274813e-02
  1.762839e+00    9.274531e-01   1.263813e-02
  1.765049e+00    9.181157e-01   1.256155e-02
  1.767260e+00    9.243763e-01   1.259172e-02
  1.769470e+00    9.342801e-01   1.264616e-02
  1.771681e+00    9.283140e-01   1.259274e-02
  1.773891e+00    9.395975e-01   1.265608e-02
  1.776102e+00    9.211717e-01   1.251867e-02
  1.778312e+00    9.034653e-01   1.238531e-02
  1.780523e+00    9.118884e-01   1.243041e-02
  1.782733e+00    8.907751e-01   1.227327e-02
  1.784944e+00    8.909599e-01   1.226201e-02
  1.787154e+00    8.741150e-01   1.213336e-02
  1.789364e+00    9.007007e-01   1.230423e-02
  1.791575e+00    9.141319e-01   1.238319e-02
  1.793785e+00    8.997714e-01   1.227328e-02
  1.795996e+00    8.999772e-01   1.226233e-02
  1.798206e+00    8.851490e-01   1.214858e-02
  1.800417e+00    8.869717e-01   1.214863e-02
  1.802627e+00    8.805245e-01   1.209267e-02
  1.804838e+00    8.782073e-01   1.206488e-02
  1.807048e+00    8.756262e-01   1.203452e-02
  1.809259e+00    8.750327e-01   1.201709e-02
  1.811469e+00    8.715007e-01   1.197813e-02
  1.813679e+00    8.715592e-01   1.196380e-02
  1.815890e+00    8.752458e-01   1.197452e-02
  1.818100e+00    8.535352e-01   1.181034e-02
  1.820311e+00    8.616715e-01   1.185199e-02
  1.822521e+00    8.556006e-01   1.179561e-02
  1.824732e+00    8.642092e-01   1.184021e-02
  1.826942e+00    8.390583e-01   1.165465e-02
  1.829153e+00    8.500252e-01   1.171911e-02
  1.831363e+00    8.575549e-01   1.175904e-02
  1.833574e+00    8.639792e-01   1.179145e-02
  1.835784e+00    8.513122e-01   1.169346e-02
  1.837994e+00    8.615078e-01   1.175165e-02
  1.840205e+00    8.811432e-01   1.187360e-02
  1.842415e+00    8.788217e-01   1.184615e-02
  1.844626e+00    8.729076e-01   1.179465e-02
  1.846836e+00    8.782912e-01   1.181946e-02
  1.849047e+00    8.694130e-01   1.174796e-02
  1.851257e+00    8.557900e-01   1.164601e-02
  1.853468e+00    8.503712e-01   1.160035e-02
  1.855678e+00    8.660356e-01   1.169777e-02
  1.857889e+00    8.743765e-01   1.174542e-02
  1.860099e+00    8.609217e-01   1.164602e-02
  1.862309e+00    8.601537e-01   1.163233e-02
  1.864520e+00    8.503662e-01   1.155740e-02
  1.866730e+00    8.514471e-01   1.155537e-02
  1.868941e+00    8.828505e-01   1.175539e-02
  1.871151e+00    8.681968e-01   1.164595e-02
  1.873362e+00    8.635440e-01   1.160325e-02
  1.875572e+00    8.439387e-01   1.145989e-02
  1.877783e+00    8.398333e-01   1.142060e-02
  1.879993e+00    8.543594e-01   1.150774e-02
  1.882204e+00    8.363787e-01   1.137516e-02
  1.884414e+00    8.546540e-01   1.148762e-02
  1.886624e+00    8.458757e-01   1.141738e-02
  1.888835e+00    8.560773e-01   1.147496e-02
  1.891045e+00    8.690953e-01   1.155080e-02
  1.893256e+00    8.735519e-01   1.156908e-02
  1.895466e+00    8.438413e-01   1.135942e-02
  1.897677e+00    8.544020e-01   1.141922e-02
  1.899887e+00    8.548238e-01   1.141093e-02
  1.902098e+00    8.439969e-01   1.132751e-02
  1.904308e+00    8.516045e-01   1.136774e-02
  1.906519e+00    8.486046e-01   1.133674e-02
  1.908729e+00    8.442248e-01   1.129675e-02
  1.910940e+00    8.416978e-01   1.126859e-02
  1.913150e+00    8.477727e-01   1.129847e-02
  1.915360e+00    8.655871e-01   1.140567e-02
  1.917571e+00    8.526735e-01   1.130922e-02
  1.919781e+00    8.505213e-01   1.128406e-02
  1.921992e+00    8.343004e-01   1.116521e-02
  1.924202e+00    8.468665e-01   1.123804e-02
  1.926413e+00    8.446655e-01   1.121294e-02
  1.928623e+00    8.410031e-01   1.117790e-02
  1.930834e+00    8.193786e-01   1.102278e-02
  1.933044e+00    8.134443e-01   1.097212e-02
  1.935255e+00    8.049986e-01   1.090470e-02
  1.937465e+00    8.070969e-01   1.090852e-02
  1.939675e+00    8.061991e-01   1.089160e-02
  1.941886e+00    8.073488e-01   1.088909e-02
  1.944096e+00    7.834802e-01   1.071684e-02
  1.946307e+00    8.122939e-01   1.090172e-02
  1.948517e+00    8.093073e-01   1.087118e-02
  1.950728e+00    7.877461e-01   1.071520e-02
  1.952938e+00    7.946787e-01   1.075217e-02
  1.955149e+00    7.911087e-01   1.071779e-02
  1.957359e+00    7.970576e-01   1.074798e-02
  1.959570e+00    7.846577e-01   1.065323e-02
  1.961780e+00    7.827320e-01   1.063029e-02
  1.963990e+00    7.896791e-01   1.066727e-02
  1.966201e+00    7.916846e-01   1.067074e-02
  1.968411e+00    8.011913e-01   1.072438e-02
  1.970622e+00    8.017888e-01   1.071821e-02
  1.972832e+00    8.164601e-01   1.080565e-02
  1.975043e+00    8.158953e-01   1.079172e-02
  1.977253e+00    7.961408e-01   1.065024e-02
  1.979464e+00    7.858568e-01   1.057118e-02
  1.981674e+00    7.789820e-01   1.051460e-02
  1.983885e+00    7.941716e-01   1.060652e-02
  1.986095e+00    7.729186e-01   1.045398e-02
  1.988305e+00    7.855847e-01   1.052935e-02
  1.990516e+00    7.902506e-01   1.055058e-02
  1.992726e+00    7.801687e-01   1.047339e-02
  1.994937e+00    7.612867e-01   1.033585e-02
  1.997147e+00    7.689642e-01   1.037813e-02
  1.999358e+00    7.892798e-01   1.050439e-02
  2.001568e+00    7.908000e-01   1.050358e-02
  2.003779e+00    7.737493e-01   1.037779e-02
  2.005989e+00    7.685114e-01   1.033062e-02
  2.008200e+00    7.648445e-01   1.029445e-02
  2.010410e+00    7.673116e-01   1.029930e-02
  2.012621e+00    7.828275e-01   1.039110e-02
  2.014831e+00    7.894315e-01   1.042321e-02
  2.017041e+00    7.754645e-01   1.032016e-02
  2.019252e+00    7.606443e-01   1.021114e-02
  2.021462e+00    7.402318e-01   1.006383e-02
  2.023673e+00    7.453467e-01   1.008928e-02
  2.025883e+00    7.467312e-01   1.008923e-02
  2.028094e+00    7.537247e-01   1.012676e-02
  2.030304e+00    7.627965e-01   1.017799e-02
  2.032515e+00    7.683107e-01   1.020537e-02
  2.034725e+00    7.528443e-01   1.009273e-02
  2.036936e+00    7.476141e-01   1.004834e-02
  2.039146e+00    7.566656e-01   1.009940e-02
  2.041356e+00    7.694683e-01   1.017477e-02
  2.043567e+00    7.578692e-01   1.008846e-02
  2.045777e+00    7.704659e-01   1.016262e-02
  2.047988e+00    7.743369e-01   1.017863e-02
  2.050198e+00    7.689174e-01   1.013444e-02
  2.052409e+00    7.663144e-01   1.010954e-02
  2.054619e+00    7.690002e-01   1.011979e-02
  2.056830e+00    7.621456e-01   1.006735e-02
  2.059040e+00    7.751178e-01   1.014503e-02
  2.061251e+00    7.669855e-01   1.008435e-02
  2.063461e+00    7.642427e-01   1.005862e-02
  2.065671e+00    7.698795e-01   1.008681e-02
  2.067882e+00    7.721937e-01   1.009282e-02
  2.070092e+00    7.519819e-01   9.950639e-03
  2.072303e+00    7.460052e-01   9.901876e-03
  2.074513e+00    7.329717e-01   9.805749e-03
  2.076724e+00    7.449142e-01   9.875841e-03
  2.078934e+00    7.306328e-01   9.771788e-03
  2.081145e+00    7.394794e-01   9.821713e-03
  2.083355e+00    7.401105e-01   9.816736e-03
  2.085566e+00    7.303813e-01   9.743161e-03
  2.087776e+00    7.250934e-01   9.698408e-03
  2.089986e+00    7.337289e-01   9.747224e-03
  2.092197e+00    7.225251e-01   9.663681e-03
  2.094407e+00    7.312283e-01   9.712473e-03
  2.096618e+00    7.475284e-01   9.811179e-03
  2.098828e+00    7.255985e-01   9.656952e-03
  2.101039e+00    7.249545e-01   9.643714e-03
  2.103249e+00    7.325617e-01   9.685509e-03
  2.105460e+00    7.295681e-01   9.656698e-03
  2.107670e+00    7.227606e-01   9.602820e-03
  2.109881e+00    7.255608e-01   9.612275e-03
  2.112091e+00    7.153697e-01   9.535586e-03
  2.114301e+00    7.304360e-01   9.626668e-03
  2.116512e+00    7.067491e-01   9.460614e-03
  2.118722e+00    7.130305e-01   9.493770e-03
  2.120933e+00    7.081007e-01   9.452114e-03
  2.123143e+00    7.068685e-01   9.435060e-03
  2.125354e+00    7.078331e-01   9.433027e-03
  2.127564e+00    6.954063e-01   9.341255e-03
  2.129775e+00    6.947580e-01   9.328292e-03
  2.131985e+00    7.014900e-01   9.364400e-03
  2.134196e+00    6.929944e-01   9.299072e-03
  2.136406e+00    6.885523e-01   9.260603e-03
  2.138617e+00    7.047781e-01   9.360672e-03
  2.140827e+00    6.787491e-01   9.201911e-03
  2.143037e+00    6.700148e-01   9.186779e-03
  2.145248e+00    6.783487e-01   9.265283e-03
  2.147458e+00    7.007639e-01   9.432232e-03
  2.149669e+00    6.985653e-01   9.429241e-03
  2.151879e+00    6.961924e-01   9.422410e-03
  2.154090e+00    6.815877e-01   9.330251e-03
  2.156300e+00    6.754251e-01   9.294465e-03
  2.158511e+00    6.823317e-01   9.347085e-03
  2.160721e+00    7.000898e-01   9.472778e-03
  2.162932e+00    6.910207e-01   9.414946e-03
  2.165142e+00    6.807994e-01   9.348026e-03
  2.167352e+00    6.956776e-01   9.452549e-03
  2.169563e+00    6.918194e-01   9.428232e-03
  2.171773e+00    6.984736e-01   9.475932e-03
  2.173984e+00    6.798129e-01   9.349907e-03
  2.176194e+00    6.779277e-01   9.338096e-03
  2.178405e+00    6.860355e-01   9.394467e-03
  2.180615e+00    6.952960e-01   9.458355e-03
  2.182826e+00    6.825380e-01   9.371847e-03
  2.185036e+00    6.846038e-01   9.386067e-03
  2.187247e+00    6.718820e-01   9.298409e-03
  2.189457e+00    6.767648e-01   9.331724e-03
  2.191667e+00    6.825261e-01   9.371176e-03
  2.193878e+00    6.888745e-01   9.414108e-03
  2.196088e+00    6.820564e-01   9.366713e-03
  2.198299e+00    6.796521e-01   9.349107e-03
  2.200509e+00    6.873591e-01   9.400891e-03
  2.202720e+00    6.839442e-01   9.376381e-03
  2.204930e+00    6.658345e-01   9.250187e-03
  2.207141e+00    6.634241e-01   9.232308e-03
  2.209351e+00    6.683516e-01   9.264666e-03
  2.211562e+00    6.684670e-01   9.263864e-03
  2.213772e+00    6.641914e-01   9.179229e-03
  2.215982e+00    6.646379e-01   9.138476e-03
  2.218193e+00    6.590241e-01   9.070528e-03
  2.220403e+00    6.706924e-01   9.125972e-03
  2.222614e+00    6.742126e-01   9.128926e-03
  2.224824e+00    6.625615e-01   9.030486e-03
  2.227035e+00    6.749191e-01   9.096837e-03
  2.229245e+00    6.632224e-01   9.000807e-03
  2.231456e+00    6.716450e-01   9.042159e-03
  2.233666e+00    6.649104e-01   8.981688e-03
  2.235877e+00    6.670927e-01   8.982185e-03
  2.238087e+00    6.462099e-01   8.827248e-03
  2.240298e+00    6.571449e-01   8.887948e-03
  2.242508e+00    6.813942e-01   9.035192e-03
  2.244718e+00    6.857400e-01   9.047960e-03
  2.246929e+00    6.729655e-01   8.948828e-03
  2.249139e+00    6.611710e-01   8.857723e-03
  2.251350e+00    6.568876e-01   8.817369e-03
  2.253560e+00    6.646180e-01   8.857541e-03
  2.255771e+00    6.728197e-01   8.900573e-03
  2.257981e+00    6.543440e-01   8.766425e-03
  2.260192e+00    6.528134e-01   8.745152e-03
  2.262402e+00    6.561953e-01   8.756988e-03
  2.264613e+00    6.594086e-01   8.767605e-03
  2.266823e+00    6.642994e-01   8.789642e-03
  2.269033e+00    6.687743e-01   8.808787e-03
  2.271244e+00    6.515853e-01   8.684539e-03
  2.273454e+00    6.494724e-01   8.660282e-03
  2.275665e+00    6.387626e-01   8.578452e-03
  2.277875e+00    6.587453e-01   8.701694e-03
  2.280086e+00    6.659711e-01   8.739202e-03
  2.282296e+00    6.558186e-01   8.662966e-03
  2.284507e+00    6.509008e-01   8.620339e-03
  2.286717e+00    6.501468e-01   8.605938e-03
  2.288928e+00    6.418589e-01   8.541160e-03
  2.291138e+00    6.432508e-01   8.541084e-03
  2.293348e+00    6.702087e-01   8.708567e-03
  2.295559e+00    6.577528e-01   8.617958e-03
  2.297769e+00    6.420547e-01   8.505325e-03
  2.299980e+00    6.481657e-01   8.536414e-03
  2.302190e+00    6.373330e-01   8.455763e-03
  2.304401e+00    6.354920e-01   8.434338e-03
  2.306611e+00    6.457660e-01   8.493082e-03
  2.308822e+00    6.502869e-01   8.514392e-03
  2.311032e+00    6.561479e-01   8.546193e-03
  2.313243e+00    6.304103e-01   8.370739e-03
  2.315453e+00    6.266419e-01   8.338226e-03
  2.317663e+00    6.329100e-01   8.370807e-03
  2.319874e+00    6.376091e-01   8.393147e-03
  2.322084e+00    6.271627e-01   8.315277e-03
  2.324295e+00    6.400932e-01   8.392378e-03
  2.326505e+00    6.221598e-01   8.265077e-03
  2.328716e+00    6.384773e-01   8.364228e-03
  2.330926e+00    6.531301e-01   8.450820e-03
  2.333137e+00    6.341066e-01   8.318515e-03
  2.335347e+00    6.302987e-01   8.284701e-03
  2.337558e+00    6.333188e-01   8.296343e-03
  2.339768e+00    6.210416e-01   8.207090e-03
  2.341979e+00    6.226047e-01   8.209150e-03
  2.344189e+00    6.330157e-01   8.269127e-03
  2.346399e+00    6.344613e-01   8.270099e-03
  2.348610e+00    6.275976e-01   8.216825e-03
  2.350820e+00    6.307829e-01   8.229502e-03
  2.353031e+00    6.467534e-01   8.324650e-03
  2.355241e+00    6.404706e-01   8.276044e-03
  2.357452e+00    6.268352e-01   8.179079e-03
  2.359662e+00    6.248716e-01   8.158077e-03
  2.361873e+00    6.267272e-01   8.161969e-03
  2.364083e+00    6.180874e-01   8.097602e-03
  2.366294e+00    6.197028e-01   8.100115e-03
  2.368504e+00    6.207839e-01   8.099151e-03
  2.370714e+00    6.102906e-01   8.022446e-03
  2.372925e+00    6.039392e-01   7.972681e-03
  2.375135e+00    6.125636e-01   8.021404e-03
  2.377346e+00    6.231415e-01   8.082435e-03
  2.379556e+00    6.362383e-01   8.158950e-03
  2.381767e+00    6.120346e-01   7.994457e-03
  2.383977e+00    6.187008e-01   8.029951e-03
  2.386188e+00    5.991542e-01   7.894318e-03
  2.388398e+00    6.060300e-01   7.931577e-03
  2.390609e+00    6.037964e-01   7.909330e-03
  2.392819e+00    6.053329e-01   7.911676e-03
  2.395029e+00    6.029484e-01   7.888497e-03
  2.397240e+00    5.966690e-01   7.839552e-03
  2.399450e+00    6.085582e-01   7.909500e-03
  2.401661e+00    6.064045e-01   7.887849e-03
  2.403871e+00    6.198237e-01   7.966834e-03
  2.406082e+00    6.097512e-01   7.894410e-03
  2.408292e+00    5.840772e-01   7.718798e-03
  2.410503e+00    5.806458e-01   7.688761e-03
  2.412713e+00    5.917186e-01   7.754030e-03
  2.414924e+00    5.933813e-01   7.757516e-03
  2.417134e+00    5.987908e-01   7.785190e-03
  2.419344e+00    6.023604e-01   7.800960e-03
  2.421555e+00    6.016332e-01   7.788756e-03
  2.423765e+00    5.925744e-01   7.722525e-03
  2.425976e+00    5.837283e-01   7.656983e-03
  2.428186e+00    5.829558e-01   7.644772e-03
  2.430397e+00    5.958954e-01   7.721686e-03
  2.432607e+00    5.890374e-01   7.669888e-03
  2.434818e+00    5.776622e-01   7.588052e-03
  2.437028e+00    5.665382e-01   7.507638e-03
  2.439239e+00    5.783504e-01   7.577946e-03
  2.441449e+00    5.765757e-01   7.559208e-03
  2.443659e+00    5.984545e-01   7.693895e-03
  2.445870e+00    5.818911e-01   7.598862e-03
  2.448080e+00    5.601230e-01   7.489484e-03
  2.450291e+00    5.716990e-01   7.582984e-03
  2.452501e+00    5.852805e-01   7.683799e-03
  2.454712e+00    5.681960e-01   7.579218e-03
  2.456922e+00    5.505171e-01   7.466879e-03
  2.459133e+00    5.469233e-01   7.447788e-03
  2.461343e+00    5.506342e-01   7.477298e-03
  2.463554e+00    5.511054e-01   7.483943e-03
  2.465764e+00    5.496361e-01   7.477035e-03
  2.467975e+00    5.541952e-01   7.510269e-03
  2.470185e+00    5.445536e-01   7.446891e-03
  2.472395e+00    5.371891e-01   7.397539e-03
  2.474606e+00    5.414768e-01   7.428561e-03
  2.476816e+00    5.349172e-01   7.384154e-03
  2.479027e+00    5.354022e-01   7.388328e-03
  2.481237e+00    5.411563e-01   7.428213e-03
  2.483448e+00    5.371001e-01   7.400613e-03
  2.485658e+00    5.281895e-01   7.338834e-03
  2.487869e+00    5.381439e-01   7.407681e-03
  2.490079e+00    5.493243e-01   7.483736e-03
  2.492290e+00    5.391532e-01   7.413709e-03
  2.494500e+00    5.167105e-01   7.257026e-03
  2.496710e+00    5.270113e-01   7.328322e-03
  2.498921e+00    5.290056e-01   7.341193e-03
  2.501131e+00    5.148252e-01   7.241197e-03
  2.503342e+00    5.201626e-01   7.277381e-03
  2.505552e+00    5.230912e-01   7.296720e-03
  2.507763e+00    5.015239e-01   7.143348e-03
  2.509973e+00    5.013419e-01   7.140681e-03
  2.512184e+00    5.003144e-01   7.131783e-03
  2.514394e+00    5.154808e-01   7.229817e-03
  2.516605e+00    5.168843e-01   7.193021e-03
  2.518815e+00    5.071553e-01   7.097214e-03
  2.521025e+00    5.002002e-01   7.027906e-03
  2.523236e+00    5.068851e-01   7.057040e-03
  2.525446e+00    5.342523e-01   7.229314e-03
  2.527657e+00    5.327705e-01   7.204592e-03
  2.529867e+00    5.284949e-01   7.161384e-03
  2.532078e+00    5.224799e-01   7.105533e-03
  2.534288e+00    5.131887e-01   7.028332e-03
  2.536499e+00    5.058101e-01   6.965901e-03
  2.538709e+00    5.101296e-01   6.984719e-03
  2.540920e+00    5.120528e-01   6.987360e-03
  2.543130e+00    5.200785e-01   7.031592e-03
  2.545340e+00    5.070872e-01   6.933309e-03
  2.547551e+00    5.112380e-01   6.951778e-03
  2.549761e+00    5.070660e-01   6.913931e-03
  2.551972e+00    5.115358e-01   6.935064e-03
  2.554182e+00    5.163879e-01   6.958760e-03
  2.556393e+00    5.149831e-01   6.940234e-03
  2.558603e+00    5.182237e-01   6.952979e-03
  2.560814e+00    5.070615e-01   6.869112e-03
  2.563024e+00    5.000137e-01   6.812776e-03
  2.565235e+00    5.064843e-01   6.847335e-03
  2.567445e+00    5.078812e-01   6.847301e-03
  2.569656e+00    5.070959e-01   6.832382e-03
  2.571866e+00    5.004799e-01   6.778454e-03
  2.574076e+00    5.075662e-01   6.817094e-03
  2.576287e+00    5.106789e-01   6.829675e-03
  2.578497e+00    5.170584e-01   6.864365e-03
  2.580708e+00    4.955625e-01   6.712235e-03
  2.582918e+00    4.971521e-01   6.715349e-03
  2.585129e+00    5.050814e-01   6.761017e-03
  2.587339e+00    4.896013e-01   6.649121e-03
  2.589550e+00    4.917033e-01   6.655965e-03
  2.591760e+00    5.032118e-01   6.725732e-03
  2.593971e+00    4.926046e-01   6.647120e-03
  2.596181e+00    4.854029e-01   6.592254e-03
  2.598391e+00    4.905965e-01   6.622363e-03
  2.600602e+00    4.945073e-01   6.642855e-03
  2.602812e+00    5.079318e-01   6.724917e-03
  2.605023e+00    4.962990e-01   6.640376e-03
  2.607233e+00    5.044862e-01   6.687806e-03
  2.609444e+00    4.955173e-01   6.620957e-03
  2.611654e+00    5.118250e-01   6.721654e-03
  2.613865e+00    5.019169e-01   6.649276e-03
  2.616075e+00    5.116373e-01   6.706174e-03
  2.618286e+00    5.208514e-01   6.759181e-03
  2.620496e+00    5.119050e-01   6.694167e-03
  2.622706e+00    4.985732e-01   6.600701e-03
  2.624917e+00    4.889454e-01   6.530894e-03
  2.627127e+00    4.955855e-01   6.569405e-03
  2.629338e+00    4.942351e-01   6.554519e-03
  2.631548e+00    4.965163e-01   6.563504e-03
  2.633759e+00    4.975140e-01   6.562988e-03
  2.635969e+00    4.933671e-01   6.528941e-03
  2.638180e+00    4.919438e-01   6.512605e-03
  2.640390e+00    4.930422e-01   6.513318e-03
  2.642601e+00    5.043241e-01   6.580721e-03
  2.644811e+00    4.967037e-01   6.523783e-03
  2.647021e+00    4.943183e-01   6.501562e-03
  2.649232e+00    4.886444e-01   6.457500e-03
  2.651442e+00    4.976561e-01   6.510270e-03
  2.653653e+00    4.999428e-01   6.518418e-03
  2.655863e+00    5.030400e-01   6.531863e-03
  2.658074e+00    5.043830e-01   6.533919e-03
  2.660284e+00    4.860829e-01   6.408032e-03
  2.662495e+00    4.818555e-01   6.373432e-03
  2.664705e+00    4.886311e-01   6.411584e-03
  2.666916e+00    4.843552e-01   6.377074e-03
  2.669126e+00    4.910396e-01   6.414510e-03
  2.671337e+00    4.892521e-01   6.396288e-03
  2.673547e+00    4.746003e-01   6.293538e-03
  2.675757e+00    4.890674e-01   6.382312e-03
  2.677968e+00    4.930885e-01   6.401998e-03
  2.680178e+00    4.901991e-01   6.376818e-03
  2.682389e+00    5.038900e-01   6.458805e-03
  2.684599e+00    4.922868e-01   6.377827e-03
  2.686810e+00    4.803249e-01   6.293334e-03
  2.689020e+00    4.839387e-01   6.310720e-03
  2.691231e+00    4.963691e-01   6.384927e-03
  2.693441e+00    4.790405e-01   6.266430e-03
  2.695652e+00    4.820972e-01   6.279914e-03
  2.697862e+00    4.796117e-01   6.257435e-03
  2.700072e+00    4.676429e-01   6.172915e-03
  2.702283e+00    4.808439e-01   6.253274e-03
  2.704493e+00    4.899992e-01   6.306221e-03
  2.706704e+00    4.922020e-01   6.313975e-03
  2.708914e+00    4.791177e-01   6.223561e-03
  2.711125e+00    4.891501e-01   6.282134e-03
  2.713335e+00    4.765705e-01   6.194804e-03
  2.715546e+00    4.796894e-01   6.208627e-03
  2.717756e+00    4.763726e-01   6.181292e-03
  2.719967e+00    4.799798e-01   6.198490e-03
  2.722177e+00    4.935906e-01   6.279572e-03
  2.724387e+00    4.789466e-01   6.179682e-03
  2.726598e+00    4.723454e-01   6.130951e-03
  2.728808e+00    4.686939e-01   6.101166e-03
  2.731019e+00    4.735953e-01   6.126929e-03
  2.733229e+00    4.925350e-01   6.242380e-03
  2.735440e+00    4.921762e-01   6.233799e-03
  2.737650e+00    4.790439e-01   6.144076e-03
  2.739861e+00    4.891931e-01   6.202713e-03
  2.742071e+00    4.862765e-01   6.178438e-03
  2.744282e+00    4.778864e-01   6.118684e-03
  2.746492e+00    4.766690e-01   6.104893e-03
  2.748702e+00    4.772944e-01   6.103004e-03
  2.750913e+00    4.921740e-01   6.191563e-03
  2.753123e+00    4.847955e-01   6.138847e-03
  2.755334e+00    4.837513e-01   6.126123e-03
  2.757544e+00    4.809098e-01   6.102378e-03
  2.759755e+00    4.814851e-01   6.100123e-03
  2.761965e+00    4.735148e-01   6.043494e-03
  2.764176e+00    4.759290e-01   6.052908e-03
  2.766386e+00    4.701420e-01   6.010269e-03
  2.768597e+00    4.768877e-01   6.047387e-03
  2.770807e+00    4.770246e-01   6.042396e-03
  2.773017e+00    4.761047e-01   6.030606e-03
  2.775228e+00    4.820597e-01   6.062408e-03
  2.777438e+00    4.728038e-01   5.998159e-03
  2.779649e+00    4.689873e-01   5.968048e-03
  2.781859e+00    4.808543e-01   6.037310e-03
  2.784070e+00    4.832282e-01   6.046284e-03
  2.786280e+00    4.810594e-01   6.026927e-03
  2.788491e+00    4.776379e-01   5.999610e-03
  2.790701e+00    4.791214e-01   6.003249e-03
  2.792912e+00    4.770208e-01   5.984117e-03
  2.795122e+00    4.852680e-01   6.029832e-03
  2.797333e+00    4.702882e-01   5.930508e-03
  2.799543e+00    4.790599e-01   5.979673e-03
  2.801753e+00    4.732569e-01   5.937511e-03
  2.803964e+00    4.707654e-01   5.916213e-03
  2.806174e+00    4.659663e-01   5.879912e-03
  2.808385e+00    4.664403e-01   5.876146e-03
  2.810595e+00    4.787812e-01   5.946479e-03
  2.812806e+00    4.662186e-01   5.861412e-03
  2.815016e+00    4.690864e-01   5.874670e-03
  2.817227e+00    4.805728e-01   5.972279e-03
  2.819437e+00    4.687840e-01   5.909598e-03
  2.821648e+00    4.674711e-01   5.903586e-03
  2.823858e+00    4.736771e-01   5.947987e-03
  2.826068e+00    4.695129e-01   5.926745e-03
  2.828279e+00    4.699069e-01   5.933263e-03
  2.830489e+00    4.631029e-01   5.893449e-03
  2.832700e+00    4.606028e-01   5.880060e-03
  2.834910e+00    4.606286e-01   5.882240e-03
  2.837121e+00    4.632146e-01   5.900445e-03
  2.839331e+00    4.734372e-01   5.966410e-03
  2.841542e+00    4.790988e-01   6.003028e-03
  2.843752e+00    4.590392e-01   5.876783e-03
  2.845963e+00    4.617509e-01   5.894506e-03
  2.848173e+00    4.579745e-01   5.870422e-03
  2.850383e+00    4.601014e-01   5.884349e-03
  2.852594e+00    4.558177e-01   5.856807e-03
  2.854804e+00    4.532263e-01   5.839640e-03
  2.857015e+00    4.589285e-01   5.875830e-03
  2.859225e+00    4.537051e-01   5.842042e-03
  2.861436e+00    4.578399e-01   5.867968e-03
  2.863646e+00    4.500733e-01   5.818014e-03
  2.865857e+00    4.482367e-01   5.806461e-03
  2.868067e+00    4.582250e-01   5.871018e-03
  2.870278e+00    4.556064e-01   5.853880e-03
  2.872488e+00    4.528502e-01   5.834981e-03
  2.874698e+00    4.591428e-01   5.874366e-03
  2.876909e+00    4.554017e-01   5.849054e-03
  2.879119e+00    4.658433e-01   5.914097e-03
  2.881330e+00    4.629966e-01   5.894547e-03
  2.883540e+00    4.461488e-01   5.784937e-03
  2.885751e+00    4.442446e-01   5.770961e-03
  2.887961e+00    4.420801e-01   5.755035e-03
  2.890172e+00    4.598757e-01   5.868122e-03
  2.892382e+00    4.513143e-01   5.811471e-03
  2.894593e+00    4.502548e-01   5.802835e-03
  2.896803e+00    4.555635e-01   5.834992e-03
  2.899014e+00    4.518319e-01   5.809138e-03
  2.901224e+00    4.551661e-01   5.828551e-03
  2.903434e+00    4.513279e-01   5.802007e-03
  2.905645e+00    4.581621e-01   5.843539e-03
  2.907855e+00    4.554531e-01   5.824154e-03
  2.910066e+00    4.565153e-01   5.828872e-03
  2.912276e+00    4.523014e-01   5.799807e-03
  2.914487e+00    4.514233e-01   5.791716e-03
  2.916697e+00    4.550022e-01   5.812435e-03
  2.918908e+00    4.606017e-01   5.846063e-03
  2.921118e+00    4.524947e-01   5.791731e-03
  2.923329e+00    4.493161e-01   5.769041e-03
  2.925539e+00    4.539354e-01   5.796364e-03
  2.927749e+00    4.449568e-01   5.736456e-03
  2.929960e+00    4.385718e-01   5.692446e-03
  2.932170e+00    4.511343e-01   5.771066e-03
  2.934381e+00    4.457346e-01   5.734029e-03
  2.936591e+00    4.430412e-01   5.714131e-03
  2.938802e+00    4.570315e-01   5.800928e-03
  2.941012e+00    4.626038e-01   5.833847e-03
  2.943223e+00    4.416743e-01   5.697696e-03
  2.945433e+00    4.462528e-01   5.723450e-03
  2.947644e+00    4.465672e-01   5.721368e-03
  2.949854e+00    4.488122e-01   5.731497e-03
  2.952064e+00    4.525007e-01   5.750780e-03
  2.954275e+00    4.543702e-01   5.758254e-03
  2.956485e+00    4.563555e-01   5.766621e-03
  2.958696e+00    4.519605e-01   5.734423e-03
  2.960906e+00    4.527249e-01   5.735107e-03
  2.963117e+00    4.489071e-01   5.706411e-03
  2.965327e+00    4.554112e-01   5.743706e-03
  2.967538e+00    4.484380e-01   5.696656e-03
  2.969748e+00    4.409547e-01   5.646156e-03
  2.971959e+00    4.425714e-01   5.653400e-03
  2.974169e+00    4.432674e-01   5.655291e-03
  2.976379e+00    4.539376e-01   5.720036e-03
  2.978590e+00    4.454382e-01   5.663131e-03
  2.980800e+00    4.528181e-01   5.707050e-03
  2.983011e+00    4.488497e-01   5.679212e-03
  2.985221e+00    4.523232e-01   5.697994e-03
  2.987432e+00    4.554300e-01   5.714419e-03
  2.989642e+00    4.426101e-01   5.630821e-03
  2.991853e+00    4.478147e-01   5.660572e-03
  2.994063e+00    4.457736e-01   5.644787e-03
  2.996274e+00    4.290317e-01   5.534664e-03
  2.998484e+00    4.449473e-01   5.633709e-03
  3.000694e+00    4.483589e-01   5.651850e-03
  3.002905e+00    4.394581e-01   5.592559e-03
  3.005115e+00    4.559326e-01   5.693439e-03
  3.007326e+00    4.436488e-01   5.613116e-03
  3.009536e+00    4.450667e-01   5.618832e-03
  3.011747e+00    4.405169e-01   5.587171e-03
  3.013957e+00    4.455393e-01   5.615786e-03
  3.016168e+00    4.431493e-01   5.597470e-03
  3.018378e+00    4.513767e-01   5.646153e-03
  3.020589e+00    4.601334e-01   5.697418e-03
  3.022799e+00    4.650340e-01   5.724481e-03
  3.025010e+00    4.523009e-01   5.642328e-03
  3.027220e+00    4.563110e-01   5.664161e-03
  3.029430e+00    4.612291e-01   5.691313e-03
  3.031641e+00    4.584965e-01   5.671297e-03
  3.033851e+00    4.318543e-01   5.500600e-03
  3.036062e+00    4.444504e-01   5.577486e-03
  3.038272e+00    4.414569e-01   5.555131e-03
  3.040483e+00    4.484624e-01   5.595837e-03
  3.042693e+00    4.361844e-01   5.515476e-03
  3.044904e+00    4.529445e-01   5.616419e-03
  3.047114e+00    4.417544e-01   5.541860e-03
  3.049325e+00    4.270406e-01   5.444503e-03
  3.051535e+00    4.388492e-01   5.514926e-03
  3.053745e+00    4.356476e-01   5.490110e-03
  3.055956e+00    4.375258e-01   5.497424e-03
  3.058166e+00    4.443193e-01   5.535682e-03
  3.060377e+00    4.520330e-01   5.578775e-03
  3.062587e+00    4.412763e-01   5.507412e-03
  3.064798e+00    4.398546e-01   5.494325e-03
  3.067008e+00    4.449534e-01   5.521366e-03
  3.069219e+00    4.465555e-01   5.526807e-03
  3.071429e+00    4.468195e-01   5.524934e-03
  3.073640e+00    4.516188e-01   5.551198e-03
  3.075850e+00    4.468890e-01   5.518483e-03
  3.078060e+00    4.370236e-01   5.454155e-03
  3.080271e+00    4.369579e-01   5.450322e-03
  3.082481e+00    4.395621e-01   5.463110e-03
  3.084692e+00    4.406695e-01   5.466667e-03
  3.086902e+00    4.386564e-01   5.450930e-03
  3.089113e+00    4.502118e-01   5.518703e-03
  3.091323e+00    4.498031e-01   5.512808e-03
  3.093534e+00    4.486673e-01   5.502459e-03
  3.095744e+00    4.507008e-01   5.511544e-03
  3.097955e+00    4.443752e-01   5.469185e-03
  3.100165e+00    4.402081e-01   5.440187e-03
  3.102375e+00    4.515843e-01   5.506573e-03
  3.104586e+00    4.337369e-01   5.393251e-03
  3.106796e+00    4.396135e-01   5.426142e-03
  3.109007e+00    4.458744e-01   5.461440e-03
  3.111217e+00    4.387379e-01   5.413897e-03
  3.113428e+00    4.383181e-01   5.407911e-03
  3.115638e+00    4.333544e-01   5.374019e-03
  3.117849e+00    4.482411e-01   5.461811e-03
  3.120059e+00    4.423525e-01   5.422362e-03
  3.122270e+00    4.420730e-01   5.417397e-03
  3.124480e+00    4.359086e-01   5.375859e-03
  3.126691e+00    4.368064e-01   5.377845e-03
  3.128901e+00    4.459923e-01   5.430968e-03
  3.131111e+00    4.457108e-01   5.425427e-03
  3.133322e+00    4.395880e-01   5.384598e-03
  3.135532e+00    4.315853e-01   5.331993e-03
  3.137743e+00    4.396790e-01   5.378317e-03
  3.139953e+00    4.443720e-01   5.403233e-03
  3.142164e+00    4.321949e-01   5.340582e-03
  3.144374e+00    4.461172e-01   5.454407e-03
  3.146585e+00    4.392271e-01   5.426682e-03
  3.148795e+00    4.294379e-01   5.376453e-03
  3.151006e+00    4.465517e-01   5.491129e-03
  3.153216e+00    4.440313e-01   5.482768e-03
  3.155426e+00    4.488218e-01   5.518630e-03
  3.157637e+00    4.357834e-01   5.443386e-03
  3.159847e+00    4.411889e-01   5.481910e-03
  3.162058e+00    4.341644e-01   5.442488e-03
  3.164268e+00    4.334024e-01   5.441756e-03
  3.166479e+00    4.399435e-01   5.486304e-03
  3.168689e+00    4.432630e-01   5.510360e-03
  3.170900e+00    4.347479e-01   5.460328e-03
  3.173110e+00    4.265517e-01   5.411444e-03
  3.175321e+00    4.368772e-01   5.479028e-03
  3.177531e+00    4.379705e-01   5.488635e-03
  3.179741e+00    4.257230e-01   5.413391e-03
  3.181952e+00    4.139658e-01   5.340164e-03
  3.184162e+00    4.224783e-01   5.396931e-03
  3.186373e+00    4.338613e-01   5.470756e-03
  3.188583e+00    4.326444e-01   5.464866e-03
  3.190794e+00    4.308014e-01   5.454943e-03
  3.193004e+00    4.303794e-01   5.453517e-03
  3.195215e+00    4.198904e-01   5.388121e-03
  3.197425e+00    4.315901e-01   5.463883e-03
  3.199636e+00    4.118535e-01   5.336730e-03
  3.201846e+00    4.201050e-01   5.389330e-03
  3.204056e+00    4.307007e-01   5.457756e-03
  3.206267e+00    4.381674e-01   5.505725e-03
  3.208477e+00    4.193808e-01   5.387322e-03
  3.210688e+00    4.195010e-01   5.388898e-03
  3.212898e+00    4.173827e-01   5.375857e-03
  3.215109e+00    4.202298e-01   5.394899e-03
  3.217319e+00    4.127617e-01   5.347355e-03
  3.219530e+00    4.263543e-01   5.435104e-03
  3.221740e+00    4.157577e-01   5.367652e-03
  3.223951e+00    4.206338e-01   5.399540e-03
  3.226161e+00    4.104711e-01   5.334085e-03
  3.228372e+00    4.235887e-01   5.419161e-03
  3.230582e+00    4.318922e-01   5.472163e-03
  3.232792e+00    4.238361e-01   5.421119e-03
  3.235003e+00    4.215945e-01   5.406995e-03
  3.237213e+00    4.264380e-01   5.438080e-03
  3.239424e+00    4.141051e-01   5.358860e-03
  3.241634e+00    4.311928e-01   5.468424e-03
  3.243845e+00    4.250589e-01   5.429473e-03
  3.246055e+00    4.169034e-01   5.376868e-03
  3.248266e+00    4.066795e-01   5.310712e-03
  3.250476e+00    4.300546e-01   5.460896e-03
  3.252687e+00    4.289620e-01   5.453897e-03
  3.254897e+00    4.202011e-01   5.397772e-03
  3.257107e+00    4.266001e-01   5.438425e-03
  3.259318e+00    4.027945e-01   5.284274e-03
  3.261528e+00    4.129315e-01   5.350200e-03
  3.263739e+00    4.260879e-01   5.434202e-03
  3.265949e+00    4.341568e-01   5.485320e-03
  3.268160e+00    4.328319e-01   5.476502e-03
  3.270370e+00    4.185867e-01   5.385149e-03
  3.272581e+00    4.101880e-01   5.330557e-03
  3.274791e+00    4.133827e-01   5.350748e-03
  3.277002e+00    4.249354e-01   5.424448e-03
  3.279212e+00    4.243486e-01   5.420329e-03
  3.281422e+00    4.128945e-01   5.346089e-03
  3.283633e+00    4.066707e-01   5.304998e-03
  3.285843e+00    4.034814e-01   5.283806e-03
  3.288054e+00    4.162343e-01   5.365740e-03
  3.290264e+00    4.261023e-01   5.428651e-03
  3.292475e+00    4.234436e-01   5.410874e-03
  3.294685e+00    4.180963e-01   5.375949e-03
  3.296896e+00    4.269699e-01   5.431947e-03
  3.299106e+00    4.115502e-01   5.332425e-03
  3.301317e+00    4.125405e-01   5.337813e-03
  3.303527e+00    4.108734e-01   5.326557e-03
  3.305737e+00    4.192399e-01   5.379469e-03
  3.307948e+00    4.211883e-01   5.391277e-03
  3.310158e+00    4.268286e-01   5.426413e-03
  3.312369e+00    4.274755e-01   5.429652e-03
  3.314579e+00    4.023923e-01   5.267056e-03
  3.316790e+00    4.180323e-01   5.367704e-03
  3.319000e+00    4.244927e-01   5.407867e-03
  3.321211e+00    4.235581e-01   5.401279e-03
  3.323421e+00    4.229015e-01   5.395900e-03
  3.325632e+00    4.134864e-01   5.334620e-03
  3.327842e+00    4.183727e-01   5.365128e-03
  3.330052e+00    4.329665e-01   5.456805e-03
  3.332263e+00    4.141010e-01   5.335622e-03
  3.334473e+00    4.122403e-01   5.322694e-03
  3.336684e+00    4.265363e-01   5.412939e-03
  3.338894e+00    4.135374e-01   5.328992e-03
  3.341105e+00    4.164519e-01   5.346514e-03
  3.343315e+00    4.241331e-01   5.394474e-03
  3.345526e+00    4.192854e-01   5.362626e-03
  3.347736e+00    4.308648e-01   5.434783e-03
  3.349947e+00    4.212970e-01   5.373150e-03
  3.352157e+00    4.234740e-01   5.385834e-03
  3.354368e+00    4.252453e-01   5.395799e-03
  3.356578e+00    4.107457e-01   5.301990e-03
  3.358788e+00    4.197522e-01   5.358477e-03
  3.360999e+00    4.229562e-01   5.377620e-03
  3.363209e+00    4.025426e-01   5.245279e-03
  3.365420e+00    4.081353e-01   5.280062e-03
  3.367630e+00    4.236980e-01   5.378773e-03
  3.369841e+00    4.135395e-01   5.312471e-03
  3.372051e+00    4.210046e-01   5.358236e-03
  3.374262e+00    4.123443e-01   5.300412e-03
  3.376472e+00    4.068316e-01   5.262442e-03
  3.378683e+00    4.166628e-01   5.323127e-03
  3.380893e+00    4.053925e-01   5.248352e-03
  3.383103e+00    4.094226e-01   5.271672e-03
  3.385314e+00    4.232040e-01   5.357431e-03
  3.387524e+00    4.030134e-01   5.225366e-03
  3.389735e+00    4.114634e-01   5.277247e-03
  3.391945e+00    4.050974e-01   5.232626e-03
  3.394156e+00    4.056984e-01   5.232301e-03
  3.396366e+00    4.134525e-01   5.278678e-03
  3.398577e+00    4.016353e-01   5.199665e-03
  3.400787e+00    4.135047e-01   5.287901e-03
  3.402998e+00    4.011698e-01   5.246096e-03
  3.405208e+00    3.883738e-01   5.181949e-03
  3.407418e+00    3.941028e-01   5.235693e-03
  3.409629e+00    3.856494e-01   5.192917e-03
  3.411839e+00    3.929181e-01   5.253309e-03
  3.414050e+00    3.841606e-01   5.205259e-03
  3.416260e+00    3.881274e-01   5.241608e-03
  3.418471e+00    3.974655e-01   5.313763e-03
  3.420681e+00    3.955555e-01   5.309514e-03
  3.422892e+00    3.783844e-01   5.200860e-03
  3.425102e+00    3.891775e-01   5.282324e-03
  3.427313e+00    3.802576e-01   5.228542e-03
  3.429523e+00    3.902224e-01   5.303715e-03
  3.431733e+00    3.753136e-01   5.207969e-03
  3.433944e+00    3.825576e-01   5.264456e-03
  3.436154e+00    3.706012e-01   5.187693e-03
  3.438365e+00    3.779957e-01   5.245062e-03
  3.440575e+00    3.856860e-01   5.304139e-03
  3.442786e+00    3.720691e-01   5.215228e-03
  3.444996e+00    3.709627e-01   5.212903e-03
  3.447207e+00    3.557346e-01   5.109954e-03
  3.449417e+00    3.710511e-01   5.259582e-03
  3.451628e+00    3.663827e-01   5.255742e-03
  3.453838e+00    3.583952e-01   5.219018e-03
  3.456049e+00    3.760761e-01   5.370396e-03
  3.458259e+00    3.648277e-01   5.311373e-03
  3.460469e+00    3.629301e-01   5.317244e-03
  3.462680e+00    3.611345e-01   5.322972e-03
  3.464890e+00    3.654415e-01   5.372399e-03
  3.467101e+00    3.822263e-01   5.512204e-03
  3.469311e+00    3.739574e-01   5.468896e-03
  3.471522e+00    3.804887e-01   5.532962e-03
  3.473732e+00    4.050377e-01   5.725133e-03
  3.475943e+00    4.093706e-01   5.771950e-03
  3.478153e+00    4.125566e-01   5.810280e-03
  3.480364e+00    4.077675e-01   5.791889e-03
  3.482574e+00    4.162462e-01   5.867356e-03
  3.484784e+00    4.116604e-01   5.849855e-03
  3.486995e+00    4.141473e-01   5.882541e-03
  3.489205e+00    4.185251e-01   5.928163e-03
  3.491416e+00    4.250042e-01   5.988713e-03
  3.493626e+00    4.475499e-01   6.160324e-03
  3.495837e+00    4.450264e-01   6.157772e-03
  3.498047e+00    4.564781e-01   6.251182e-03
  3.500258e+00    4.429021e-01   6.171946e-03
  3.502468e+00    4.530932e-01   6.256959e-03
  3.504679e+00    4.631681e-01   6.340649e-03
  3.506889e+00    4.754747e-01   6.438956e-03
  3.509099e+00    4.595981e-01   6.344714e-03
  3.511310e+00    4.618053e-01   6.374168e-03
  3.513520e+00    4.754469e-01   6.481941e-03
  3.515731e+00    4.786661e-01   6.518122e-03
  3.517941e+00    4.924721e-01   6.625841e-03
  3.520152e+00    4.971215e-01   6.671410e-03
  3.522362e+00    5.057688e-01   6.743724e-03
  3.524573e+00    5.039008e-01   6.745525e-03
  3.526783e+00    5.156059e-01   6.836823e-03
  3.528994e+00    5.239196e-01   6.904054e-03
  3.531204e+00    5.307917e-01   6.961748e-03
  3.533414e+00    5.160738e-01   6.876548e-03
  3.535625e+00    5.387766e-01   7.038630e-03
  3.537835e+00    5.361007e-01   7.033307e-03
  3.540046e+00    5.245248e-01   6.965803e-03
  3.542256e+00    5.334409e-01   7.032253e-03
  3.544467e+00    5.546167e-01   7.178241e-03
  3.546677e+00    5.498574e-01   7.155052e-03
  3.548888e+00    5.468944e-01   7.143321e-03
  3.551098e+00    5.318012e-01   7.051326e-03
  3.553309e+00    5.266933e-01   7.025464e-03
  3.555519e+00    5.318928e-01   7.071311e-03
  3.557729e+00    5.354289e-01   7.106498e-03
  3.559940e+00    5.391170e-01   7.142489e-03
  3.562150e+00    5.545524e-01   7.255957e-03
  3.564361e+00    5.262555e-01   7.081608e-03
  3.566571e+00    5.403892e-01   7.189947e-03
  3.568782e+00    5.337346e-01   7.159636e-03
  3.570992e+00    5.238878e-01   7.106869e-03
  3.573203e+00    5.393714e-01   7.225320e-03
  3.575413e+00    5.477223e-01   7.294960e-03
  3.577624e+00    5.316308e-01   7.201107e-03
  3.579834e+00    5.169770e-01   7.114754e-03
  3.582045e+00    5.202633e-01   7.151190e-03
  3.584255e+00    5.180144e-01   7.149511e-03
  3.586465e+00    5.409169e-01   7.319832e-03
  3.588676e+00    5.401866e-01   7.329159e-03
  3.590886e+00    5.320967e-01   7.287753e-03
  3.593097e+00    5.262842e-01   7.262159e-03
  3.595307e+00    5.411161e-01   7.377819e-03
  3.597518e+00    5.250056e-01   7.281188e-03
  3.599728e+00    5.503007e-01   7.468861e-03
  3.601939e+00    5.363464e-01   7.387617e-03
  3.604149e+00    5.435987e-01   7.451917e-03
  3.606360e+00    5.477883e-01   7.494897e-03
  3.608570e+00    5.410052e-01   7.462587e-03
  3.610780e+00    5.307100e-01   7.402234e-03
  3.612991e+00    5.369146e-01   7.455419e-03
  3.615201e+00    5.409979e-01   7.493557e-03
  3.617412e+00    5.286652e-01   7.414908e-03
  3.619622e+00    5.358968e-01   7.471408e-03
  3.621833e+00    5.234419e-01   7.390693e-03
  3.624043e+00    5.252205e-01   7.412683e-03
  3.626254e+00    5.353209e-01   7.493339e-03
  3.628464e+00    5.231829e-01   7.418726e-03
  3.630675e+00    5.276392e-01   7.464341e-03
  3.632885e+00    5.344697e-01   7.526895e-03
  3.635095e+00    5.367350e-01   7.557312e-03
  3.637306e+00    5.503991e-01   7.667472e-03
  3.639516e+00    5.420028e-01   7.623425e-03
  3.641727e+00    5.336587e-01   7.579094e-03
  3.643937e+00    5.183806e-01   7.484183e-03
  3.646148e+00    5.229868e-01   7.531768e-03
  3.648358e+00    5.454665e-01   7.707029e-03
  3.650569e+00    5.183898e-01   7.527791e-03
  3.652779e+00    5.209647e-01   7.561116e-03
  3.654990e+00    5.162563e-01   7.541507e-03
  3.657200e+00    5.313987e-01   7.666192e-03
  3.659410e+00    5.295603e-01   7.667841e-03
  3.661621e+00    5.309960e-01   7.693310e-03
  3.663831e+00    5.279816e-01   7.686543e-03
  3.666042e+00    5.323156e-01   7.733188e-03
  3.668252e+00    5.254989e-01   7.698651e-03
  3.670463e+00    5.287132e-01   7.737398e-03
  3.672673e+00    5.116268e-01   7.626433e-03
  3.674884e+00    5.370464e-01   7.829094e-03
  3.677094e+00    5.304355e-01   7.796318e-03
  3.679305e+00    5.234479e-01   7.760209e-03
  3.681515e+00    5.165056e-01   7.724009e-03
  3.683726e+00    5.146614e-01   7.725780e-03
  3.685936e+00    5.280966e-01   7.841648e-03
  3.688146e+00    5.177553e-01   7.780151e-03
  3.690357e+00    5.146685e-01   7.772633e-03
  3.692567e+00    5.279722e-01   7.888591e-03
  3.694778e+00    5.194702e-01   7.840765e-03
  3.696988e+00    5.245316e-01   7.894830e-03
  3.699199e+00    5.291725e-01   7.945992e-03
  3.701409e+00    5.164877e-01   7.866400e-03
  3.703620e+00    5.122887e-01   7.850462e-03
  3.705830e+00    5.210249e-01   7.933481e-03
  3.708041e+00    5.219916e-01   7.957398e-03
  3.710251e+00    5.183880e-01   7.946496e-03
  3.712461e+00    5.133221e-01   7.924189e-03
  3.714672e+00    4.960544e-01   7.806087e-03
  3.716882e+00    4.975930e-01   7.834490e-03
  3.719093e+00    5.017863e-01   7.884255e-03
  3.721303e+00    4.944162e-01   7.842722e-03
  3.723514e+00    4.859334e-01   7.791840e-03
  3.725724e+00    4.652525e-01   7.640457e-03
  3.727935e+00    5.072398e-01   7.995057e-03
  3.730145e+00    5.110570e-01   8.042324e-03
  3.732356e+00    5.077293e-01   8.033473e-03
  3.734566e+00    5.372436e-01   8.281584e-03
  3.736776e+00    5.233940e-01   8.192057e-03
  3.738987e+00    5.183211e-01   8.170069e-03
  3.741197e+00    5.083910e-01   8.109350e-03
  3.743408e+00    5.081658e-01   8.125504e-03
  3.745618e+00    5.077245e-01   8.140202e-03
  3.747829e+00    5.148428e-01   8.215205e-03
  3.750039e+00    5.251915e-01   8.316001e-03
  3.752250e+00    5.191031e-01   8.286274e-03
  3.754460e+00    5.061647e-01   8.200795e-03
  3.756671e+00    5.299675e-01   8.410634e-03
  3.758881e+00    5.113067e-01   8.279894e-03
  3.761091e+00    5.192721e-01   8.363462e-03
  3.763302e+00    5.102828e-01   8.309906e-03
  3.765512e+00    5.226959e-01   8.429879e-03
  3.767723e+00    5.171214e-01   8.404385e-03
  3.769933e+00    4.905652e-01   8.204772e-03
  3.772144e+00    4.824872e-01   8.156014e-03
  3.774354e+00    4.861577e-01   8.206449e-03
  3.776565e+00    5.296309e-01   8.585819e-03
  3.778775e+00    5.212883e-01   8.538253e-03
  3.780986e+00    5.040524e-01   8.416230e-03
  3.783196e+00    5.101074e-01   8.486924e-03
  3.785407e+00    4.929679e-01   8.363483e-03
  3.787617e+00    5.220442e-01   8.627593e-03
  3.789827e+00    5.137237e-01   8.579409e-03
  3.792038e+00    5.081500e-01   8.553721e-03
  3.794248e+00    4.890732e-01   8.412471e-03
  3.796459e+00    4.969279e-01   8.501057e-03
  3.798669e+00    4.801422e-01   8.377155e-03
  3.800880e+00    5.111088e-01   8.664752e-03
  3.803090e+00    4.978983e-01   8.573817e-03
  3.805301e+00    4.895264e-01   8.523282e-03
  3.807511e+00    4.988029e-01   8.625619e-03
  3.809722e+00    4.919889e-01   8.588579e-03
  3.811932e+00    4.946403e-01   8.633818e-03
  3.814142e+00    5.100893e-01   8.790702e-03
  3.816353e+00    4.779067e-01   8.531256e-03
  3.818563e+00    5.048530e-01   8.791699e-03
  3.820774e+00    5.024340e-01   8.793851e-03
  3.822984e+00    4.549449e-01   8.390363e-03
  3.825195e+00    5.072501e-01   8.883389e-03
  3.827405e+00    4.981417e-01   8.827254e-03
  3.829616e+00    4.847605e-01   8.731618e-03
  3.831826e+00    5.024322e-01   8.913623e-03
  3.834037e+00    4.833150e-01   8.766596e-03
  3.836247e+00    4.722393e-01   8.689625e-03
  3.838457e+00    4.802041e-01   8.787167e-03
  3.840668e+00    5.017077e-01   9.007125e-03
  3.842878e+00    4.887649e-01   8.915498e-03
  3.845089e+00    4.922973e-01   8.973179e-03
  3.847299e+00    5.041801e-01   9.106849e-03
  3.849510e+00    4.800543e-01   8.911692e-03
  3.851720e+00    4.843515e-01   8.972689e-03
  3.853931e+00    5.204703e-01   9.320754e-03
  3.856141e+00    4.982412e-01   9.138541e-03
  3.858352e+00    4.958228e-01   9.135698e-03
  3.860562e+00    4.917188e-01   9.117054e-03
  3.862772e+00    4.848746e-01   9.072766e-03
  3.864983e+00    4.997877e-01   9.231037e-03
  3.867193e+00    5.005725e-01   9.258140e-03
  3.869404e+00    4.789607e-01   9.075660e-03
  3.871614e+00    4.942809e-01   9.239660e-03
  3.873825e+00    5.035976e-01   9.346817e-03
  3.876035e+00    4.928050e-01   9.266757e-03
  3.878246e+00    4.814356e-01   9.184654e-03
  3.880456e+00    5.086893e-01   9.470547e-03
  3.882667e+00    4.870993e-01   9.296579e-03
  3.884877e+00    4.732041e-01   9.192199e-03
  3.887087e+00    4.694182e-01   9.184565e-03
  3.889298e+00    4.935748e-01   9.448346e-03
  3.891508e+00    5.067769e-01   9.604999e-03
  3.893719e+00    4.822607e-01   9.400456e-03
  3.895929e+00    4.963991e-01   9.568880e-03
  3.898140e+00    4.955385e-01   9.592434e-03
  3.900350e+00    5.015673e-01   9.683062e-03
  3.902561e+00    4.964003e-01   9.665711e-03
  3.904771e+00    4.656504e-01   9.393500e-03
  3.906982e+00    4.908842e-01   9.677840e-03
  3.909192e+00    4.826261e-01   9.629391e-03
  3.911403e+00    4.857253e-01   9.694153e-03
  3.913613e+00    4.780739e-01   9.651375e-03
  3.915823e+00    4.777850e-01   9.682908e-03
  3.918034e+00    4.763765e-01   9.703430e-03
  3.920244e+00    4.830530e-01   9.806677e-03
  3.922455e+00    4.902673e-01   9.915849e-03
  3.924665e+00    4.698260e-01   9.742705e-03
  3.926876e+00    4.894499e-01   9.981202e-03
  3.929086e+00    4.910060e-01   1.003455e-02
  3.931297e+00    4.945157e-01   1.010540e-02
  3.933507e+00    5.063158e-01   1.025475e-02
  3.935718e+00    4.869618e-01   1.008565e-02
  3.937928e+00    4.449890e-01   9.669298e-03
  3.940138e+00    4.852576e-01   1.012653e-02
  3.942349e+00    5.015154e-01   1.032513e-02
  3.944559e+00    4.923736e-01   1.026075e-02
  3.946770e+00    4.787403e-01   1.014764e-02
  3.948980e+00    4.864116e-01   1.025929e-02
  3.951191e+00    4.619612e-01   1.002822e-02
  3.953401e+00    4.887295e-01   1.034603e-02
  3.955612e+00    5.072460e-01   1.057259e-02
  3.957822e+00    5.041050e-01   1.057207e-02
  3.960033e+00    4.659006e-01   1.019552e-02
  3.962243e+00    4.951458e-01   1.054378e-02
  3.964453e+00    4.795773e-01   1.040961e-02
  3.966664e+00    4.576105e-01   1.020080e-02
  3.968874e+00    4.859720e-01   1.054051e-02
  3.971085e+00    5.003914e-01   1.071811e-02
  3.973295e+00    4.960528e-01   1.069318e-02
  3.975506e+00    4.887580e-01   1.063603e-02
  3.977716e+00    4.937535e-01   1.071237e-02
  3.979927e+00    4.674722e-01   1.044509e-02
  3.982137e+00    4.820949e-01   1.062942e-02
  3.984348e+00    4.960491e-01   1.080493e-02
  3.986558e+00    4.887174e-01   1.074721e-02
  3.988768e+00    4.979863e-01   1.087197e-02
  3.990979e+00    4.940052e-01   1.085138e-02
  3.993189e+00    4.811458e-01   1.073219e-02
  3.995400e+00    4.853075e-01   1.080203e-02
  3.997610e+00    4.917263e-01   1.090325e-02
  3.999821e+00    5.271727e-01   1.132854e-02
  4.002031e+00    4.949521e-01   1.101574e-02
  4.004242e+00    4.811309e-01   1.089914e-02
  4.006452e+00    4.739288e-01   1.085616e-02
  4.008663e+00    4.689563e-01   1.083838e-02
  4.010873e+00    4.866779e-01   1.108144e-02
  4.013084e+00    4.584246e-01   1.079469e-02
  4.015294e+00    4.882695e-01   1.118171e-02
  4.017504e+00    4.786676e-01   1.111289e-02
  4.019715e+00    4.720509e-01   1.107764e-02
  4.021925e+00    5.194754e-01   1.166542e-02
  4.024136e+00    4.924073e-01   1.140147e-02
  4.026346e+00    4.676103e-01   1.115411e-02
  4.028557e+00    4.579005e-01   1.108077e-02
  4.030767e+00    4.607255e-01   1.115947e-02
  4.032978e+00    4.536971e-01   1.111881e-02
  4.035188e+00    4.812417e-01   1.149741e-02
  4.037399e+00    4.836513e-01   1.157376e-02
  4.039609e+00    5.047194e-01   1.187193e-02
  4.041819e+00    5.057719e-01   1.193425e-02
  4.044030e+00    4.835243e-01   1.171870e-02
  4.046240e+00    4.635117e-01   1.152241e-02
  4.048451e+00    4.858088e-01   1.184738e-02
  4.050661e+00    5.025785e-01   1.210265e-02
  4.052872e+00    4.818406e-01   1.190309e-02
  4.055082e+00    4.552215e-01   1.162147e-02
  4.057293e+00    4.903531e-01   1.211579e-02
  4.059503e+00    4.681759e-01   1.189252e-02
  4.061714e+00    4.634296e-01   1.188750e-02
  4.063924e+00    4.505061e-01   1.177528e-02
  4.066134e+00    4.800141e-01   1.221216e-02
  4.068345e+00    4.739921e-01   1.219365e-02
  4.070555e+00    5.267016e-01   1.291600e-02
  4.072766e+00    4.684737e-01   1.224106e-02
  4.074976e+00    4.512330e-01   1.207359e-02
  4.077187e+00    4.853108e-01   1.258338e-02
  4.079397e+00    4.659910e-01   1.239342e-02
  4.081608e+00    4.584083e-01   1.235615e-02
  4.083818e+00    4.694480e-01   1.256894e-02
  4.086029e+00    4.829793e-01   1.281610e-02
  4.088239e+00    4.604253e-01   1.258068e-02
  4.090449e+00    4.584357e-01   1.262156e-02
  4.092660e+00    4.825520e-01   1.302040e-02
  4.094870e+00    4.565167e-01   1.273488e-02
  4.097081e+00    4.484159e-01   1.269038e-02
  4.099291e+00    4.711332e-01   1.306178e-02
  4.101502e+00    4.785827e-01   1.321367e-02
  4.103712e+00    4.945566e-01   1.348239e-02
  4.105923e+00    5.225706e-01   1.391281e-02
  4.108133e+00    5.010402e-01   1.367559e-02
  4.110344e+00    5.351505e-01   1.418755e-02
  4.112554e+00    4.984957e-01   1.374708e-02
  4.114764e+00    5.176471e-01   1.406502e-02
  4.116975e+00    4.984882e-01   1.385677e-02
  4.119185e+00    4.618010e-01   1.339120e-02
  4.121396e+00    4.585640e-01   1.339936e-02
  4.123606e+00    4.603062e-01   1.347979e-02
  4.125817e+00    4.693610e-01   1.366872e-02
  4.128027e+00    4.504807e-01   1.344739e-02
  4.130238e+00    5.129395e-01   1.441100e-02
  4.132448e+00    4.812545e-01   1.401927e-02
  4.134659e+00    4.943064e-01   1.426936e-02
  4.136869e+00    4.559092e-01   1.376503e-02
  4.139080e+00    4.453785e-01   1.366630e-02
  4.141290e+00    4.995547e-01   1.453803e-02
  4.143500e+00    4.422307e-01   1.374150e-02
  4.145711e+00    4.487196e-01   1.390650e-02
  4.147921e+00    4.858118e-01   1.453615e-02
  4.150132e+00    5.020511e-01   1.484790e-02
  4.152342e+00    4.625630e-01   1.432085e-02
  4.154553e+00    5.099128e-01   1.510774e-02
  4.156763e+00    4.972418e-01   1.499244e-02
  4.158974e+00    4.950589e-01   1.503470e-02
  4.161184e+00    4.779549e-01   1.484611e-02
  4.163395e+00    4.741723e-01   1.486258e-02
  4.165605e+00    4.995953e-01   1.533532e-02
  4.167815e+00    5.315363e-01   1.590036e-02
  4.170026e+00    5.087700e-01   1.563814e-02
  4.172236e+00    4.834205e-01   1.532608e-02
  4.174447e+00    4.824058e-01   1.539308e-02
  4.176657e+00    4.421648e-01   1.481765e-02
  4.178868e+00    5.058364e-01   1.593858e-02
  4.181078e+00    4.707725e-01   1.546269e-02
  4.183289e+00    4.465458e-01   1.514584e-02
  4.185499e+00    4.943471e-01   1.602972e-02
  4.187710e+00    4.870946e-01   1.600512e-02
  4.189920e+00    4.863618e-01   1.608939e-02
  4.192130e+00    4.809826e-01   1.609772e-02
  4.194341e+00    5.015423e-01   1.653915e-02
  4.196551e+00    4.795502e-01   1.627488e-02
  4.198762e+00    4.617981e-01   1.607222e-02
  4.200972e+00    5.016897e-01   1.686048e-02
  4.203183e+00    3.978985e-01   1.511441e-02
  4.205393e+00    4.519024e-01   1.621442e-02
  4.207604e+00    5.200809e-01   1.751351e-02
  4.209814e+00    5.662906e-01   1.840038e-02
  4.212025e+00    5.025826e-01   1.745754e-02
  4.214235e+00    4.408411e-01   1.646574e-02
  4.216445e+00    4.970158e-01   1.760982e-02
  4.218656e+00    4.226869e-01   1.636147e-02
  4.220866e+00    5.015758e-01   1.795489e-02
  4.223077e+00    4.914040e-01   1.790877e-02
  4.225287e+00    5.047363e-01   1.829259e-02
  4.227498e+00    5.157120e-01   1.863574e-02
  4.229708e+00    5.258487e-01   1.897098e-02
  4.231919e+00    4.634882e-01   1.795793e-02
  4.234129e+00    4.902891e-01   1.862446e-02
  4.236340e+00    5.018366e-01   1.900407e-02
  4.238550e+00    4.564862e-01   1.828500e-02
  4.240761e+00    4.745660e-01   1.880824e-02
  4.242971e+00    4.582007e-01   1.865045e-02
  4.245181e+00    4.886954e-01   1.944194e-02
  4.247392e+00    4.635729e-01   1.911261e-02
  4.249602e+00    4.837702e-01   1.971845e-02
  4.251813e+00    4.591953e-01   1.940045e-02
  4.254023e+00    4.146710e-01   1.862166e-02
  4.256234e+00    4.568095e-01   1.975387e-02
  4.258444e+00    4.192583e-01   1.912271e-02
  4.260655e+00    4.700201e-01   2.046922e-02
  4.262865e+00    4.940687e-01   2.122496e-02
  4.265076e+00    4.338326e-01   2.011487e-02
  4.267286e+00    4.448582e-01   2.061088e-02
  4.269496e+00    4.523526e-01   2.103722e-02
  4.271707e+00    5.555214e-01   2.360143e-02
  4.273917e+00    4.487698e-01   2.148697e-02
  4.276128e+00    3.978116e-01   2.049883e-02
  4.278338e+00    4.407821e-01   2.186564e-02
  4.280549e+00    4.623941e-01   2.271677e-02
  4.282759e+00    4.603009e-01   2.299059e-02
  4.284970e+00    4.111237e-01   2.204966e-02
  4.287180e+00    4.497700e-01   2.333895e-02
  4.289391e+00    4.626101e-01   2.384751e-02
  4.291601e+00    4.735424e-01   2.432065e-02
  4.293811e+00    4.662550e-01   2.432150e-02
  4.296022e+00    4.715035e-01   2.465424e-02
  4.298232e+00    4.587997e-01   2.452326e-02
  4.300443e+00    4.581255e-01   2.470767e-02
  4.302653e+00    5.039814e-01   2.613934e-02
  4.304864e+00    4.818040e-01   2.577880e-02
  4.307074e+00    4.559247e-01   2.530246e-02
  4.309285e+00    4.000697e-01   2.391723e-02
  4.311495e+00    4.344338e-01   2.515655e-02
  4.313706e+00    3.928729e-01   2.414713e-02
  4.315916e+00    5.001722e-01   2.751472e-02
  4.318126e+00    4.513248e-01   2.639516e-02
  4.320337e+00    5.288260e-01   2.885946e-02
  4.322547e+00    5.491260e-01   2.972171e-02
  4.324758e+00    4.608320e-01   2.750984e-02
  4.326968e+00    4.509718e-01   2.752156e-02
  4.329179e+00    4.241066e-01   2.698193e-02
  4.331389e+00    4.373925e-01   2.771726e-02
  4.333600e+00    4.406652e-01   2.815389e-02
  4.335810e+00    4.417515e-01   2.852374e-02
  4.338021e+00    3.754849e-01   2.663367e-02
  4.340231e+00    4.557831e-01   2.971186e-02
  4.342442e+00    4.167718e-01   2.879386e-02
  4.344652e+00    4.364647e-01   2.986544e-02
  4.346862e+00    4.572192e-01   3.099499e-02
  4.349073e+00    4.977995e-01   3.281294e-02
  4.351283e+00    4.994176e-01   3.335695e-02
  4.353494e+00    4.413701e-01   3.184174e-02
  4.355704e+00    4.938379e-01   3.422512e-02
  4.357915e+00    4.610198e-01   3.361865e-02
  4.360125e+00    4.482285e-01   3.371440e-02
  4.362336e+00    3.742587e-01   3.136926e-02
  4.364546e+00    4.634106e-01   3.553993e-02
  4.366757e+00    4.638186e-01   3.626511e-02
  4.368967e+00    4.421116e-01   3.611158e-02
  4.371177e+00    3.863581e-01   3.447516e-02
  4.373388e+00    4.765104e-01   3.914222e-02
  4.375598e+00    3.801177e-01   3.575943e-02
  4.377809e+00    5.033114e-01   4.218696e-02
  4.380019e+00    2.955238e-01   3.314187e-02
  4.382230e+00    3.242881e-01   3.568211e-02
  4.384440e+00    2.926549e-01   3.487556e-02
  4.386651e+00    4.409281e-01   4.412651e-02
  4.388861e+00    4.206185e-01   4.454397e-02
  4.391072e+00    3.983565e-01   4.487175e-02
  4.393282e+00    3.684527e-01   4.482553e-02
  4.395492e+00    4.280850e-01   5.032195e-02
  4.397703e+00    3.686258e-01   4.883323e-02
  4.399913e+00    3.889398e-01   5.269828e-02
  4.402124e+00    2.562148e-01   4.520048e-02
  4.404334e+00    2.570408e-01   4.812302e-02
  4.406545e+00    1.839443e-01   4.373281e-02
  4.408755e+00    2.248480e-01   5.244437e-02
  4.410966e+00    2.670290e-01   6.325161e-02
  4.413176e+00    2.459471e-01   6.871457e-02
  4.415387e+00   -4.988438e-01            nan
  4.417597e+00   -2.044852e+00            nan
  4.419807e+00   -3.766224e-01            nan
