# == pyFAI calibration ==
# Distance Sample to Detector: 0.216 m
# PONI: 1.166e-01, 1.308e-01 m
# Rotations: 0.000000 0.000000 0.000000 rad
# 
# == Fit2d calibration ==
# Distance Sample-beamCenter: 216.000 mm
# Center: x=1744.293, y=1555.000 pix
# Tilt: 0.000 deg  TiltPlanRot: 0.000 deg
# 
# Detector Eiger 9M	 PixelSize= 7.500e-05, 7.500e-05 m
#    Detector has a mask: True 
#    Detector has a dark current: False 
#    detector has a flat field: False 
# 
# Wavelength: 9.8e-11 m
# Mask applied: from detector
# Dark current applied: False
# Flat field applied: False
# Polarization factor: None
# Normalization factor: 1.0
# 
# Headers of the input frame:
# {
# "_array_data.header_convention": "SLS_1.0",
# "_array_data.header_contents": "# Detector: Dectris Eiger 9M, S/N E-18-0102\r\n# Pixel_size 75e-6 m x 75e-6 m\r\n# Silicon sensor, thickness 0.000450 m\r\n# Exposure_time 0.024997 s\r\n# Exposure_period 0.025000 s\r\n# Count_cutoff 62318 counts\r\n# Wavelength 0.980106 A\r\n# Detector_distance 0.215992 m\r\n# Beam_xy (1555, 1744) pixels\r\n# Start_angle 0.000000 deg.\r\n# Angle_increment 0.000000 deg.",
# "Content-Type": "application/octet-stream;",
# "conversions": "x-CBF_BYTE_OFFSET",
# "Content-Transfer-Encoding": "BINARY",
# "X-Binary-Size": "10166594",
# "X-Binary-ID": "1",
# "X-Binary-Element-Type": "signed 32-bit integer",
# "X-Binary-Element-Byte-Order": "LITTLE_ENDIAN",
# "Content-MD5": "S5suy9khYHqNvMYTtKoOJA==",
# "X-Binary-Number-of-Elements": "10166590",
# "X-Binary-Size-Fastest-Dimension": "3110",
# "X-Binary-Size-Second-Dimension": "3269",
# "X-Binary-Size-Padding": "4095"
# }
# --> H:/Proxima2a_2019-04-05/RAW_DATA/C5_gel17_position5/C5_mesh_1_data.cbf/C5_mesh_1_data.cbf000144.dat
#        q_A^-1              I           sigma 
  1.105228e-03    1.156190e+00   5.818373e-01
  3.315685e-03    1.416445e+00   3.915121e-01
  5.526141e-03    1.444774e+00   3.057540e-01
  7.736597e-03    1.721376e+00   2.819408e-01
  9.947054e-03    1.385144e+00   2.229585e-01
  1.215751e-02    1.355460e+00   1.994399e-01
  1.436797e-02    1.528133e+00   1.947854e-01
  1.657842e-02    1.382777e+00   1.724727e-01
  1.878888e-02    1.549285e+00   1.714862e-01
  2.099934e-02    1.431738e+00   1.559674e-01
  2.320979e-02    1.401439e+00   1.467641e-01
  2.542025e-02    1.357681e+00   1.380411e-01
  2.763070e-02    1.486759e+00   1.385513e-01
  2.984116e-02    1.419649e+00   1.302768e-01
  3.205162e-02    1.292554e+00   1.199529e-01
  3.426207e-02    1.223437e+00   1.128667e-01
  3.647253e-02    1.390996e+00   1.166414e-01
  3.868299e-02    1.442606e+00   1.153505e-01
  4.089344e-02    1.460466e+00   1.128825e-01
  4.310390e-02    1.499180e+00   1.113912e-01
  4.531436e-02    1.485372e+00   1.081393e-01
  4.752481e-02    1.488131e+00   1.056914e-01
  4.973527e-02    1.512793e+00   1.041697e-01
  5.194572e-02    1.404108e+00   9.819812e-02
  5.415618e-02    1.362437e+00   9.473205e-02
  5.636664e-02    1.505173e+00   9.760194e-02
  5.857709e-02    1.399817e+00   9.233156e-02
  6.078755e-02    1.459662e+00   9.255151e-02
  6.299801e-02    1.464227e+00   9.105437e-02
  6.520846e-02    1.395119e+00   8.736073e-02
  6.741892e-02    1.447409e+00   8.750754e-02
  6.962938e-02    1.413460e+00   8.509580e-02
  7.183983e-02    1.536424e+00   8.734289e-02
  7.405029e-02    1.423306e+00   8.280002e-02
  7.626074e-02    1.515960e+00   8.420426e-02
  7.847120e-02    1.524467e+00   8.324017e-02
  8.068166e-02    1.519868e+00   8.196739e-02
  8.289211e-02    1.567669e+00   8.212852e-02
  8.510257e-02    1.475497e+00   7.863547e-02
  8.731303e-02    1.514744e+00   7.865645e-02
  8.952348e-02    1.457001e+00   7.618641e-02
  9.173394e-02    1.377727e+00   7.318389e-02
  9.394439e-02    1.484754e+00   7.507174e-02
  9.615485e-02    1.516028e+00   7.497964e-02
  9.836531e-02    1.396909e+00   7.115845e-02
  1.005758e-01    1.462363e+00   7.200241e-02
  1.027862e-01    1.470734e+00   7.142578e-02
  1.049967e-01    1.487736e+00   7.107598e-02
  1.072071e-01    1.530250e+00   7.133655e-02
  1.094176e-01    1.557231e+00   7.123098e-02
  1.116280e-01    1.606055e+00   7.161762e-02
  1.138385e-01    1.531198e+00   6.924509e-02
  1.160490e-01    1.530436e+00   6.856455e-02
  1.182594e-01    1.536744e+00   6.805908e-02
  1.204699e-01    1.576366e+00   6.829505e-02
  1.226803e-01    1.578905e+00   6.772865e-02
  1.248908e-01    1.561373e+00   6.675208e-02
  1.271012e-01    1.590703e+00   6.678637e-02
  1.293117e-01    1.515098e+00   6.461959e-02
  1.315222e-01    1.538268e+00   6.456085e-02
  1.337326e-01    1.568591e+00   6.465178e-02
  1.359431e-01    1.622988e+00   6.580177e-02
  1.381535e-01    1.582229e+00   6.584234e-02
  1.403640e-01    1.502289e+00   6.443451e-02
  1.425744e-01    1.539828e+00   6.533876e-02
  1.447849e-01    1.577118e+00   6.614044e-02
  1.469953e-01    1.557306e+00   6.568253e-02
  1.492058e-01    1.531403e+00   6.505830e-02
  1.514163e-01    1.566494e+00   6.569017e-02
  1.536267e-01    1.671469e+00   6.772304e-02
  1.558372e-01    1.652534e+00   6.718971e-02
  1.580476e-01    1.547854e+00   6.486905e-02
  1.602581e-01    1.574362e+00   6.525596e-02
  1.624685e-01    1.636851e+00   6.635624e-02
  1.646790e-01    1.735083e+00   6.812219e-02
  1.668895e-01    1.733021e+00   6.788509e-02
  1.690999e-01    1.700365e+00   6.704051e-02
  1.713104e-01    1.785482e+00   6.848478e-02
  1.735208e-01    1.837455e+00   6.925834e-02
  1.757313e-01    1.832237e+00   6.894320e-02
  1.779417e-01    1.803265e+00   6.817289e-02
  1.801522e-01    1.735272e+00   6.666230e-02
  1.823626e-01    1.824127e+00   6.812016e-02
  1.845731e-01    1.935925e+00   6.994932e-02
  1.867836e-01    1.913947e+00   6.931639e-02
  1.889940e-01    1.943527e+00   6.962173e-02
  1.912045e-01    2.018348e+00   7.071227e-02
  1.934149e-01    2.069935e+00   7.137059e-02
  1.956254e-01    2.047319e+00   7.074551e-02
  1.978358e-01    2.004870e+00   6.976836e-02
  2.000463e-01    1.947053e+00   6.852713e-02
  2.022568e-01    1.961883e+00   6.856184e-02
  2.044672e-01    2.007685e+00   6.911995e-02
  2.066777e-01    1.974228e+00   6.831411e-02
  2.088881e-01    1.963202e+00   6.790020e-02
  2.110986e-01    2.091961e+00   6.985112e-02
  2.133090e-01    1.954858e+00   6.730391e-02
  2.155195e-01    1.953151e+00   6.705134e-02
  2.177300e-01    1.946763e+00   6.641570e-02
  2.199404e-01    1.985650e+00   6.530832e-02
  2.221509e-01    1.977484e+00   6.410372e-02
  2.243613e-01    2.000151e+00   6.365275e-02
  2.265718e-01    1.997749e+00   6.291337e-02
  2.287822e-01    2.005261e+00   6.240764e-02
  2.309927e-01    2.106865e+00   6.338643e-02
  2.332031e-01    2.101478e+00   6.276353e-02
  2.354136e-01    2.171269e+00   6.328013e-02
  2.376241e-01    2.196238e+00   6.314897e-02
  2.398345e-01    2.093633e+00   6.119992e-02
  2.420450e-01    2.100462e+00   6.086155e-02
  2.442554e-01    2.074637e+00   6.006955e-02
  2.464659e-01    2.083129e+00   5.978822e-02
  2.486763e-01    2.189130e+00   6.088765e-02
  2.508868e-01    2.188593e+00   6.049614e-02
  2.530973e-01    2.156585e+00   5.967984e-02
  2.553077e-01    2.015716e+00   5.734778e-02
  2.575182e-01    2.094032e+00   5.810537e-02
  2.597286e-01    2.051892e+00   5.718342e-02
  2.619391e-01    2.105180e+00   5.758769e-02
  2.641495e-01    2.116066e+00   5.741689e-02
  2.663600e-01    1.976906e+00   5.519161e-02
  2.685704e-01    1.988494e+00   5.505307e-02
  2.707809e-01    2.094364e+00   5.619971e-02
  2.729914e-01    2.021795e+00   5.492974e-02
  2.752018e-01    2.017701e+00   5.458846e-02
  2.774123e-01    2.059187e+00   5.486513e-02
  2.796227e-01    2.017654e+00   5.404036e-02
  2.818332e-01    1.963379e+00   5.304264e-02
  2.840436e-01    1.928609e+00   5.231604e-02
  2.862541e-01    1.930718e+00   5.209299e-02
  2.884646e-01    1.949927e+00   5.210305e-02
  2.906750e-01    2.027111e+00   5.287234e-02
  2.928855e-01    1.938389e+00   5.146280e-02
  2.950959e-01    1.931247e+00   5.113193e-02
  2.973064e-01    1.879561e+00   5.021637e-02
  2.995168e-01    1.914337e+00   5.044925e-02
  3.017273e-01    1.906063e+00   5.011816e-02
  3.039377e-01    1.939633e+00   5.033622e-02
  3.061482e-01    1.911578e+00   4.975468e-02
  3.083587e-01    1.938962e+00   4.989289e-02
  3.105691e-01    1.965293e+00   5.001598e-02
  3.127796e-01    1.882176e+00   4.874113e-02
  3.149900e-01    1.896259e+00   4.871928e-02
  3.172005e-01    1.949676e+00   4.919872e-02
  3.194109e-01    1.910362e+00   4.849914e-02
  3.216214e-01    1.902259e+00   4.819868e-02
  3.238319e-01    1.860411e+00   4.747673e-02
  3.260423e-01    1.884056e+00   4.758716e-02
  3.282528e-01    1.877212e+00   4.731157e-02
  3.304632e-01    1.831514e+00   4.655111e-02
  3.326737e-01    1.825505e+00   4.629334e-02
  3.348841e-01    1.881040e+00   4.681001e-02
  3.370946e-01    1.847796e+00   4.621997e-02
  3.393050e-01    1.771479e+00   4.508399e-02
  3.415155e-01    1.859437e+00   4.601600e-02
  3.437260e-01    1.889283e+00   4.621194e-02
  3.459364e-01    1.807507e+00   4.503357e-02
  3.481469e-01    1.757597e+00   4.424536e-02
  3.503573e-01    1.846625e+00   4.518687e-02
  3.525678e-01    1.864191e+00   4.523952e-02
  3.547782e-01    1.816456e+00   4.449514e-02
  3.569887e-01    1.840541e+00   4.463047e-02
  3.591992e-01    1.820655e+00   4.423163e-02
  3.614096e-01    1.810580e+00   4.395614e-02
  3.636201e-01    1.795956e+00   4.362445e-02
  3.658305e-01    1.797051e+00   4.348886e-02
  3.680410e-01    1.866160e+00   4.416478e-02
  3.702514e-01    1.827201e+00   4.355439e-02
  3.724619e-01    1.803107e+00   4.311894e-02
  3.746724e-01    1.837820e+00   4.338676e-02
  3.768828e-01    1.765200e+00   4.237786e-02
  3.790933e-01    1.745258e+00   4.200048e-02
  3.813037e-01    1.778663e+00   4.226180e-02
  3.835142e-01    1.787783e+00   4.223086e-02
  3.857246e-01    1.752590e+00   4.167781e-02
  3.879351e-01    1.815176e+00   4.227814e-02
  3.901455e-01    1.831805e+00   4.233617e-02
  3.923560e-01    1.819730e+00   4.206229e-02
  3.945665e-01    1.836789e+00   4.212497e-02
  3.967769e-01    1.781866e+00   4.136046e-02
  3.989874e-01    1.806053e+00   4.151018e-02
  4.011978e-01    1.835679e+00   4.172057e-02
  4.034083e-01    1.821788e+00   4.143482e-02
  4.056187e-01    1.778171e+00   4.080971e-02
  4.078292e-01    1.806422e+00   4.100813e-02
  4.100397e-01    1.781812e+00   4.060349e-02
  4.122501e-01    1.817834e+00   4.088916e-02
  4.144606e-01    1.849760e+00   4.112435e-02
  4.166710e-01    1.853425e+00   4.104267e-02
  4.188815e-01    1.796580e+00   4.028901e-02
  4.210919e-01    1.814621e+00   4.037213e-02
  4.233024e-01    1.803849e+00   4.013373e-02
  4.255128e-01    1.793305e+00   3.990058e-02
  4.277233e-01    1.818391e+00   4.006325e-02
  4.299338e-01    1.793865e+00   3.967766e-02
  4.321442e-01    1.787987e+00   3.949925e-02
  4.343547e-01    1.805735e+00   3.958255e-02
  4.365651e-01    1.785625e+00   3.924970e-02
  4.387756e-01    1.829210e+00   3.961458e-02
  4.409860e-01    1.811662e+00   3.931490e-02
  4.431965e-01    1.837507e+00   3.948484e-02
  4.454070e-01    1.814508e+00   3.912782e-02
  4.476174e-01    1.746988e+00   3.828751e-02
  4.498279e-01    1.772416e+00   3.846019e-02
  4.520383e-01    1.816548e+00   3.882924e-02
  4.542488e-01    1.682034e+00   3.726321e-02
  4.564592e-01    1.672767e+00   3.706070e-02
  4.586697e-01    1.716571e+00   3.744316e-02
  4.608801e-01    1.744713e+00   3.764774e-02
  4.630906e-01    1.678427e+00   3.682789e-02
  4.653011e-01    1.656061e+00   3.648548e-02
  4.675115e-01    1.728693e+00   3.717878e-02
  4.697220e-01    1.753769e+00   3.734947e-02
  4.719324e-01    1.668387e+00   3.633470e-02
  4.741429e-01    1.673437e+00   3.629587e-02
  4.763533e-01    1.741119e+00   3.692769e-02
  4.785638e-01    1.715628e+00   3.656167e-02
  4.807743e-01    1.729036e+00   3.661092e-02
  4.829847e-01    1.743910e+00   3.667517e-02
  4.851952e-01    1.735907e+00   3.649833e-02
  4.874056e-01    1.719262e+00   3.623135e-02
  4.896161e-01    1.700971e+00   3.594872e-02
  4.918265e-01    1.735984e+00   3.622663e-02
  4.940370e-01    1.690542e+00   3.566111e-02
  4.962475e-01    1.646604e+00   3.510769e-02
  4.984579e-01    1.698039e+00   3.556394e-02
  5.006684e-01    1.693898e+00   3.543395e-02
  5.028788e-01    1.705139e+00   3.546517e-02
  5.050893e-01    1.688217e+00   3.520294e-02
  5.072997e-01    1.677808e+00   3.500947e-02
  5.095102e-01    1.714760e+00   3.530814e-02
  5.117206e-01    1.709561e+00   3.517076e-02
  5.139311e-01    1.667034e+00   3.464834e-02
  5.161416e-01    1.691289e+00   3.481702e-02
  5.183520e-01    1.687420e+00   3.469454e-02
  5.205625e-01    1.671046e+00   3.444491e-02
  5.227729e-01    1.667899e+00   3.433220e-02
  5.249834e-01    1.700397e+00   3.458457e-02
  5.271938e-01    1.752601e+00   3.502954e-02
  5.294043e-01    1.710118e+00   3.452251e-02
  5.316148e-01    1.773775e+00   3.507864e-02
  5.338252e-01    1.773307e+00   3.499387e-02
  5.360357e-01    1.775469e+00   3.493548e-02
  5.382461e-01    1.734197e+00   3.444899e-02
  5.404566e-01    1.773677e+00   3.475962e-02
  5.426670e-01    1.724533e+00   3.419748e-02
  5.448775e-01    1.736748e+00   3.424167e-02
  5.470879e-01    1.768398e+00   3.447525e-02
  5.492984e-01    1.717155e+00   3.389653e-02
  5.515089e-01    1.782045e+00   3.445444e-02
  5.537193e-01    1.794780e+00   3.450119e-02
  5.559298e-01    1.761455e+00   3.410439e-02
  5.581402e-01    1.795948e+00   3.436144e-02
  5.603507e-01    1.794603e+00   3.427383e-02
  5.625611e-01    1.795325e+00   3.420632e-02
  5.647716e-01    1.822917e+00   3.439336e-02
  5.669821e-01    1.795159e+00   3.405690e-02
  5.691925e-01    1.792226e+00   3.395605e-02
  5.714030e-01    1.757152e+00   3.355044e-02
  5.736134e-01    1.740546e+00   3.332052e-02
  5.758239e-01    1.714298e+00   3.299772e-02
  5.780343e-01    1.730288e+00   3.308116e-02
  5.802448e-01    1.661422e+00   3.234828e-02
  5.824552e-01    1.665176e+00   3.231686e-02
  5.846657e-01    1.658859e+00   3.218827e-02
  5.868762e-01    1.637225e+00   3.191110e-02
  5.890866e-01    1.629606e+00   3.177072e-02
  5.912971e-01    1.630294e+00   3.171162e-02
  5.935075e-01    1.630009e+00   3.164332e-02
  5.957180e-01    1.632626e+00   3.160374e-02
  5.979284e-01    1.643279e+00   3.164196e-02
  6.001389e-01    1.628272e+00   3.143301e-02
  6.023494e-01    1.620538e+00   3.129459e-02
  6.045598e-01    1.641511e+00   3.143233e-02
  6.067703e-01    1.621193e+00   3.117437e-02
  6.089807e-01    1.641617e+00   3.130705e-02
  6.111912e-01    1.663432e+00   3.145146e-02
  6.134016e-01    1.708737e+00   3.181329e-02
  6.156121e-01    1.707029e+00   3.173421e-02
  6.178226e-01    1.675139e+00   3.137414e-02
  6.200330e-01    1.720268e+00   3.173123e-02
  6.222435e-01    1.732104e+00   3.177713e-02
  6.244539e-01    1.704734e+00   3.146336e-02
  6.266644e-01    1.663165e+00   3.101675e-02
  6.288748e-01    1.652409e+00   3.085612e-02
  6.310853e-01    1.692745e+00   3.116980e-02
  6.332957e-01    1.701589e+00   3.119080e-02
  6.355062e-01    1.737648e+00   3.145831e-02
  6.377167e-01    1.741486e+00   3.143262e-02
  6.399271e-01    1.705620e+00   3.104763e-02
  6.421376e-01    1.710594e+00   3.103354e-02
  6.443480e-01    1.712780e+00   3.099428e-02
  6.465585e-01    1.687056e+00   3.070238e-02
  6.487689e-01    1.646588e+00   3.027464e-02
  6.509794e-01    1.657132e+00   3.031413e-02
  6.531899e-01    1.669912e+00   3.037358e-02
  6.554003e-01    1.619266e+00   2.985321e-02
  6.576108e-01    1.596442e+00   2.958688e-02
  6.598212e-01    1.611511e+00   2.967093e-02
  6.620317e-01    1.624419e+00   2.973434e-02
  6.642421e-01    1.609146e+00   2.953945e-02
  6.664526e-01    1.616795e+00   2.955503e-02
  6.686630e-01    1.647539e+00   2.977954e-02
  6.708735e-01    1.596213e+00   2.925825e-02
  6.730840e-01    1.607809e+00   2.931077e-02
  6.752944e-01    1.634199e+00   2.949663e-02
  6.775049e-01    1.621529e+00   2.932870e-02
  6.797153e-01    1.620394e+00   2.926536e-02
  6.819258e-01    1.614168e+00   2.915639e-02
  6.841362e-01    1.585106e+00   2.884078e-02
  6.863467e-01    1.589526e+00   2.882922e-02
  6.885572e-01    1.611378e+00   2.897472e-02
  6.907676e-01    1.593812e+00   2.876470e-02
  6.929781e-01    1.615405e+00   2.890743e-02
  6.951885e-01    1.613490e+00   2.883913e-02
  6.973990e-01    1.594303e+00   2.861647e-02
  6.996094e-01    1.598901e+00   2.860726e-02
  7.018199e-01    1.606578e+00   2.862554e-02
  7.040303e-01    1.612768e+00   2.863026e-02
  7.062408e-01    1.593349e+00   2.840751e-02
  7.084513e-01    1.581464e+00   2.825214e-02
  7.106617e-01    1.596712e+00   2.833869e-02
  7.128722e-01    1.603785e+00   2.835223e-02
  7.150826e-01    1.634648e+00   2.857442e-02
  7.172931e-01    1.584924e+00   2.808795e-02
  7.195035e-01    1.561970e+00   2.783589e-02
  7.217140e-01    1.542618e+00   2.771184e-02
  7.239245e-01    1.590952e+00   2.837054e-02
  7.261349e-01    1.588562e+00   2.845833e-02
  7.283454e-01    1.541664e+00   2.810675e-02
  7.305558e-01    1.564425e+00   2.836726e-02
  7.327663e-01    1.606408e+00   2.878831e-02
  7.349767e-01    1.614578e+00   2.887801e-02
  7.371872e-01    1.589615e+00   2.864267e-02
  7.393976e-01    1.559813e+00   2.835871e-02
  7.416081e-01    1.562003e+00   2.836250e-02
  7.438186e-01    1.555536e+00   2.816028e-02
  7.460290e-01    1.549287e+00   2.781180e-02
  7.482395e-01    1.536632e+00   2.752890e-02
  7.504499e-01    1.564800e+00   2.764421e-02
  7.526604e-01    1.577483e+00   2.763936e-02
  7.548708e-01    1.578936e+00   2.756255e-02
  7.570813e-01    1.580064e+00   2.752133e-02
  7.592918e-01    1.586001e+00   2.753770e-02
  7.615022e-01    1.563538e+00   2.730829e-02
  7.637127e-01    1.574266e+00   2.736905e-02
  7.659231e-01    1.591557e+00   2.748678e-02
  7.681336e-01    1.567631e+00   2.724786e-02
  7.703440e-01    1.595710e+00   2.745935e-02
  7.725545e-01    1.624940e+00   2.767836e-02
  7.747650e-01    1.612377e+00   2.753249e-02
  7.769754e-01    1.592248e+00   2.730712e-02
  7.791859e-01    1.572392e+00   2.708289e-02
  7.813963e-01    1.567604e+00   2.698920e-02
  7.836068e-01    1.570908e+00   2.696588e-02
  7.858172e-01    1.563023e+00   2.684781e-02
  7.880277e-01    1.599288e+00   2.710583e-02
  7.902381e-01    1.621816e+00   2.724648e-02
  7.924486e-01    1.606925e+00   2.707087e-02
  7.946591e-01    1.632789e+00   2.723906e-02
  7.968695e-01    1.623719e+00   2.711471e-02
  7.990800e-01    1.662583e+00   2.738824e-02
  8.012904e-01    1.655770e+00   2.728481e-02
  8.035009e-01    1.627834e+00   2.700551e-02
  8.057113e-01    1.649944e+00   2.714127e-02
  8.079218e-01    1.656106e+00   2.714499e-02
  8.101323e-01    1.687213e+00   2.735222e-02
  8.123427e-01    1.629784e+00   2.683686e-02
  8.145532e-01    1.642417e+00   2.689456e-02
  8.167636e-01    1.638379e+00   2.681632e-02
  8.189741e-01    1.627342e+00   2.668128e-02
  8.211845e-01    1.642776e+00   2.676257e-02
  8.233950e-01    1.644802e+00   2.673553e-02
  8.256054e-01    1.649127e+00   2.672628e-02
  8.278159e-01    1.658644e+00   2.675907e-02
  8.300264e-01    1.639769e+00   2.656326e-02
  8.322368e-01    1.641191e+00   2.653161e-02
  8.344473e-01    1.651757e+00   2.657334e-02
  8.366577e-01    1.630330e+00   2.635795e-02
  8.388682e-01    1.667087e+00   2.661081e-02
  8.410786e-01    1.650522e+00   2.643607e-02
  8.432891e-01    1.668649e+00   2.653863e-02
  8.454996e-01    1.641139e+00   2.627730e-02
  8.477100e-01    1.640659e+00   2.623175e-02
  8.499205e-01    1.658766e+00   2.633469e-02
  8.521309e-01    1.652751e+00   2.624592e-02
  8.543414e-01    1.646154e+00   2.615261e-02
  8.565518e-01    1.611388e+00   2.583471e-02
  8.587623e-01    1.617127e+00   2.584035e-02
  8.609727e-01    1.652124e+00   2.607797e-02
  8.631832e-01    1.659856e+00   2.609862e-02
  8.653937e-01    1.631761e+00   2.583705e-02
  8.676041e-01    1.597794e+00   2.552814e-02
  8.698146e-01    1.606557e+00   2.555892e-02
  8.720250e-01    1.577932e+00   2.529161e-02
  8.742355e-01    1.567078e+00   2.516607e-02
  8.764459e-01    1.613109e+00   2.549409e-02
  8.786564e-01    1.587841e+00   2.525590e-02
  8.808669e-01    1.602047e+00   2.533017e-02
  8.830773e-01    1.590847e+00   2.520347e-02
  8.852878e-01    1.605321e+00   2.527991e-02
  8.874982e-01    1.607242e+00   2.525833e-02
  8.897087e-01    1.588887e+00   2.507614e-02
  8.919191e-01    1.610147e+00   2.520549e-02
  8.941296e-01    1.573943e+00   2.488352e-02
  8.963401e-01    1.602564e+00   2.507228e-02
  8.985505e-01    1.638205e+00   2.531216e-02
  9.007610e-01    1.575013e+00   2.478273e-02
  9.029714e-01    1.615941e+00   2.506661e-02
  9.051819e-01    1.637731e+00   2.519741e-02
  9.073923e-01    1.650532e+00   2.525854e-02
  9.096028e-01    1.623860e+00   2.501846e-02
  9.118132e-01    1.586342e+00   2.469170e-02
  9.140237e-01    1.597732e+00   2.474357e-02
  9.162342e-01    1.614899e+00   2.484143e-02
  9.184446e-01    1.600900e+00   2.469776e-02
  9.206551e-01    1.620505e+00   2.481270e-02
  9.228655e-01    1.606390e+00   2.466910e-02
  9.250760e-01    1.585277e+00   2.447127e-02
  9.272864e-01    1.624524e+00   2.473783e-02
  9.294969e-01    1.637509e+00   2.480033e-02
  9.317074e-01    1.627372e+00   2.468850e-02
  9.339178e-01    1.636342e+00   2.472264e-02
  9.361283e-01    1.649939e+00   2.478854e-02
  9.383387e-01    1.619798e+00   2.452768e-02
  9.405492e-01    1.640220e+00   2.464732e-02
  9.427596e-01    1.673151e+00   2.485772e-02
  9.449701e-01    1.658357e+00   2.471393e-02
  9.471805e-01    1.675326e+00   2.480488e-02
  9.493910e-01    1.653776e+00   2.461101e-02
  9.516015e-01    1.656812e+00   2.459917e-02
  9.538119e-01    1.699977e+00   2.488342e-02
  9.560224e-01    1.723158e+00   2.501724e-02
  9.582328e-01    1.760860e+00   2.525551e-02
  9.604433e-01    1.723026e+00   2.494736e-02
  9.626537e-01    1.775177e+00   2.528801e-02
  9.648642e-01    1.778611e+00   2.527781e-02
  9.670747e-01    1.766189e+00   2.515464e-02
  9.692851e-01    1.799616e+00   2.535779e-02
  9.714956e-01    1.872220e+00   2.582780e-02
  9.737060e-01    1.835724e+00   2.554125e-02
  9.759165e-01    1.804140e+00   2.528485e-02
  9.781269e-01    1.823087e+00   2.538403e-02
  9.803374e-01    1.819291e+00   2.532252e-02
  9.825478e-01    1.812571e+00   2.524236e-02
  9.847583e-01    1.844203e+00   2.542708e-02
  9.869688e-01    1.832935e+00   2.531538e-02
  9.891792e-01    1.853744e+00   2.542481e-02
  9.913897e-01    1.888793e+00   2.562941e-02
  9.936001e-01    1.894403e+00   2.563387e-02
  9.958106e-01    1.774331e+00   2.477451e-02
  9.980210e-01    1.709221e+00   2.428412e-02
  1.000231e+00    1.672678e+00   2.415472e-02
  1.002442e+00    1.656334e+00   2.416413e-02
  1.004652e+00    1.643858e+00   2.414011e-02
  1.006863e+00    1.631707e+00   2.410063e-02
  1.009073e+00    1.617347e+00   2.403106e-02
  1.011284e+00    1.600755e+00   2.393945e-02
  1.013494e+00    1.597046e+00   2.393542e-02
  1.015705e+00    1.544425e+00   2.356003e-02
  1.017915e+00    1.543678e+00   2.357057e-02
  1.020126e+00    1.541425e+00   2.356927e-02
  1.022336e+00    1.538042e+00   2.355500e-02
  1.024547e+00    1.563649e+00   2.376153e-02
  1.026757e+00    1.558953e+00   2.373423e-02
  1.028967e+00    1.546526e+00   2.364714e-02
  1.031178e+00    1.506298e+00   2.334366e-02
  1.033388e+00    1.530817e+00   2.353792e-02
  1.035599e+00    1.535207e+00   2.357509e-02
  1.037809e+00    1.537559e+00   2.359642e-02
  1.040020e+00    1.521410e+00   2.347345e-02
  1.042230e+00    1.507668e+00   2.336911e-02
  1.044441e+00    1.538569e+00   2.360717e-02
  1.046651e+00    1.487596e+00   2.321301e-02
  1.048862e+00    1.479670e+00   2.315027e-02
  1.051072e+00    1.494881e+00   2.326662e-02
  1.053282e+00    1.473092e+00   2.309551e-02
  1.055493e+00    1.470810e+00   2.307332e-02
  1.057703e+00    1.473909e+00   2.309613e-02
  1.059914e+00    1.467859e+00   2.304443e-02
  1.062124e+00    1.490061e+00   2.321400e-02
  1.064335e+00    1.514822e+00   2.340261e-02
  1.066545e+00    1.483571e+00   2.315398e-02
  1.068756e+00    1.467104e+00   2.302138e-02
  1.070966e+00    1.476459e+00   2.308813e-02
  1.073177e+00    1.439970e+00   2.279506e-02
  1.075387e+00    1.521288e+00   2.342451e-02
  1.077597e+00    1.539085e+00   2.355375e-02
  1.079808e+00    1.510372e+00   2.319819e-02
  1.082018e+00    1.481838e+00   2.278770e-02
  1.084229e+00    1.513051e+00   2.291443e-02
  1.086439e+00    1.534709e+00   2.298807e-02
  1.088650e+00    1.543579e+00   2.297644e-02
  1.090860e+00    1.569104e+00   2.309541e-02
  1.093071e+00    1.541577e+00   2.282782e-02
  1.095281e+00    1.497943e+00   2.244417e-02
  1.097492e+00    1.524638e+00   2.258684e-02
  1.099702e+00    1.621642e+00   2.323977e-02
  1.101912e+00    1.625754e+00   2.321735e-02
  1.104123e+00    1.533798e+00   2.250135e-02
  1.106333e+00    1.469774e+00   2.198170e-02
  1.108544e+00    1.451620e+00   2.180093e-02
  1.110754e+00    1.447709e+00   2.172821e-02
  1.112965e+00    1.418281e+00   2.146576e-02
  1.115175e+00    1.397583e+00   2.126768e-02
  1.117386e+00    1.418706e+00   2.138849e-02
  1.119596e+00    1.367543e+00   2.096202e-02
  1.121807e+00    1.395495e+00   2.113653e-02
  1.124017e+00    1.405301e+00   2.117404e-02
  1.126228e+00    1.425320e+00   2.128830e-02
  1.128438e+00    1.420702e+00   2.121679e-02
  1.130648e+00    1.406157e+00   2.107347e-02
  1.132859e+00    1.398869e+00   2.098442e-02
  1.135069e+00    1.380950e+00   2.081499e-02
  1.137280e+00    1.399119e+00   2.091835e-02
  1.139490e+00    1.415679e+00   2.100841e-02
  1.141701e+00    1.380827e+00   2.071512e-02
  1.143911e+00    1.404380e+00   2.085893e-02
  1.146122e+00    1.379572e+00   2.064190e-02
  1.148332e+00    1.369917e+00   2.053776e-02
  1.150543e+00    1.378286e+00   2.056956e-02
  1.152753e+00    1.365156e+00   2.044063e-02
  1.154963e+00    1.350102e+00   2.029684e-02
  1.157174e+00    1.364481e+00   2.037456e-02
  1.159384e+00    1.415637e+00   2.072267e-02
  1.161595e+00    1.389912e+00   2.050347e-02
  1.163805e+00    1.335781e+00   2.007134e-02
  1.166016e+00    1.326424e+00   1.997193e-02
  1.168226e+00    1.376028e+00   2.031287e-02
  1.170437e+00    1.397800e+00   2.044399e-02
  1.172647e+00    1.393172e+00   2.038094e-02
  1.174858e+00    1.401653e+00   2.041440e-02
  1.177068e+00    1.375886e+00   2.019751e-02
  1.179278e+00    1.364383e+00   2.008428e-02
  1.181489e+00    1.372440e+00   2.011636e-02
  1.183699e+00    1.390392e+00   2.021960e-02
  1.185910e+00    1.348771e+00   1.988701e-02
  1.188120e+00    1.350355e+00   1.987205e-02
  1.190331e+00    1.366350e+00   1.996250e-02
  1.192541e+00    1.388365e+00   2.009498e-02
  1.194752e+00    1.363431e+00   1.988657e-02
  1.196962e+00    1.349852e+00   1.976156e-02
  1.199173e+00    1.359268e+00   1.980377e-02
  1.201383e+00    1.365484e+00   1.982168e-02
  1.203593e+00    1.393401e+00   1.999809e-02
  1.205804e+00    1.341449e+00   1.959590e-02
  1.208014e+00    1.328221e+00   1.947241e-02
  1.210225e+00    1.325997e+00   1.943098e-02
  1.212435e+00    1.340126e+00   1.950954e-02
  1.214646e+00    1.372695e+00   1.971885e-02
  1.216856e+00    1.351174e+00   1.953820e-02
  1.219067e+00    1.363861e+00   1.960510e-02
  1.221277e+00    1.370362e+00   1.962657e-02
  1.223488e+00    1.329855e+00   1.930878e-02
  1.225698e+00    1.326190e+00   1.925546e-02
  1.227909e+00    1.346917e+00   1.937523e-02
  1.230119e+00    1.369009e+00   1.950139e-02
  1.232329e+00    1.372355e+00   1.949426e-02
  1.234540e+00    1.341806e+00   1.924584e-02
  1.236750e+00    1.374846e+00   1.945082e-02
  1.238961e+00    1.354388e+00   1.927856e-02
  1.241171e+00    1.350754e+00   1.922847e-02
  1.243382e+00    1.358912e+00   1.926287e-02
  1.245592e+00    1.331476e+00   1.904350e-02
  1.247803e+00    1.323238e+00   1.896105e-02
  1.250013e+00    1.375724e+00   1.930968e-02
  1.252224e+00    1.359488e+00   1.917208e-02
  1.254434e+00    1.354031e+00   1.910977e-02
  1.256644e+00    1.367597e+00   1.918190e-02
  1.258855e+00    1.360448e+00   1.910836e-02
  1.261065e+00    1.349093e+00   1.900507e-02
  1.263276e+00    1.356976e+00   1.903754e-02
  1.265486e+00    1.324882e+00   1.878839e-02
  1.267697e+00    1.334913e+00   1.883648e-02
  1.269907e+00    1.344984e+00   1.888474e-02
  1.272118e+00    1.360768e+00   1.897258e-02
  1.274328e+00    1.313521e+00   1.861787e-02
  1.276539e+00    1.324814e+00   1.867515e-02
  1.278749e+00    1.348977e+00   1.882240e-02
  1.280959e+00    1.380845e+00   1.902066e-02
  1.283170e+00    1.356539e+00   1.883003e-02
  1.285380e+00    1.349898e+00   1.876141e-02
  1.287591e+00    1.386103e+00   1.898903e-02
  1.289801e+00    1.370332e+00   1.885932e-02
  1.292012e+00    1.361824e+00   1.878351e-02
  1.294222e+00    1.344779e+00   1.864939e-02
  1.296433e+00    1.356929e+00   1.871778e-02
  1.298643e+00    1.367347e+00   1.877294e-02
  1.300854e+00    1.379141e+00   1.883714e-02
  1.303064e+00    1.375965e+00   1.879602e-02
  1.305274e+00    1.381523e+00   1.881228e-02
  1.307485e+00    1.324755e+00   1.840036e-02
  1.309695e+00    1.342438e+00   1.850057e-02
  1.311906e+00    1.366588e+00   1.864439e-02
  1.314116e+00    1.379764e+00   1.871305e-02
  1.316327e+00    1.364311e+00   1.858617e-02
  1.318537e+00    1.358726e+00   1.852612e-02
  1.320748e+00    1.372932e+00   1.860099e-02
  1.322958e+00    1.335631e+00   1.832616e-02
  1.325169e+00    1.380780e+00   1.861205e-02
  1.327379e+00    1.381465e+00   1.859463e-02
  1.329589e+00    1.381929e+00   1.857642e-02
  1.331800e+00    1.400724e+00   1.868125e-02
  1.334010e+00    1.388346e+00   1.857758e-02
  1.336221e+00    1.375776e+00   1.847132e-02
  1.338431e+00    1.383238e+00   1.850022e-02
  1.340642e+00    1.407359e+00   1.872633e-02
  1.342852e+00    1.445415e+00   1.908201e-02
  1.345063e+00    1.448100e+00   1.915098e-02
  1.347273e+00    1.393493e+00   1.882225e-02
  1.349484e+00    1.365318e+00   1.865881e-02
  1.351694e+00    1.355682e+00   1.861560e-02
  1.353905e+00    1.366209e+00   1.870585e-02
  1.356115e+00    1.369446e+00   1.874314e-02
  1.358325e+00    1.376796e+00   1.880683e-02
  1.360536e+00    1.367382e+00   1.875412e-02
  1.362746e+00    1.325356e+00   1.847315e-02
  1.364957e+00    1.340397e+00   1.858531e-02
  1.367167e+00    1.326892e+00   1.849854e-02
  1.369378e+00    1.344643e+00   1.862787e-02
  1.371588e+00    1.422202e+00   1.916283e-02
  1.373799e+00    1.479621e+00   1.954973e-02
  1.376009e+00    1.422469e+00   1.917198e-02
  1.378220e+00    1.348720e+00   1.867089e-02
  1.380430e+00    1.329111e+00   1.853736e-02
  1.382640e+00    1.349920e+00   1.868282e-02
  1.384851e+00    1.324592e+00   1.850762e-02
  1.387061e+00    1.327670e+00   1.852938e-02
  1.389272e+00    1.316181e+00   1.844927e-02
  1.391482e+00    1.311124e+00   1.841310e-02
  1.393693e+00    1.279882e+00   1.819154e-02
  1.395903e+00    1.276803e+00   1.816814e-02
  1.398114e+00    1.306300e+00   1.837539e-02
  1.400324e+00    1.310685e+00   1.840409e-02
  1.402535e+00    1.299771e+00   1.832494e-02
  1.404745e+00    1.310101e+00   1.839524e-02
  1.406955e+00    1.291476e+00   1.826130e-02
  1.409166e+00    1.279170e+00   1.817076e-02
  1.411376e+00    1.286436e+00   1.821916e-02
  1.413587e+00    1.278856e+00   1.816159e-02
  1.415797e+00    1.290408e+00   1.823985e-02
  1.418008e+00    1.299979e+00   1.826502e-02
  1.420218e+00    1.291615e+00   1.805517e-02
  1.422429e+00    1.294675e+00   1.799039e-02
  1.424639e+00    1.289619e+00   1.789006e-02
  1.426850e+00    1.314342e+00   1.800507e-02
  1.429060e+00    1.312555e+00   1.794303e-02
  1.431270e+00    1.297410e+00   1.779443e-02
  1.433481e+00    1.288327e+00   1.769077e-02
  1.435691e+00    1.292118e+00   1.767803e-02
  1.437902e+00    1.268823e+00   1.748151e-02
  1.440112e+00    1.281196e+00   1.753102e-02
  1.442323e+00    1.286219e+00   1.753211e-02
  1.444533e+00    1.243712e+00   1.720776e-02
  1.446744e+00    1.283809e+00   1.745163e-02
  1.448954e+00    1.302550e+00   1.754799e-02
  1.451165e+00    1.299859e+00   1.749975e-02
  1.453375e+00    1.271251e+00   1.727805e-02
  1.455586e+00    1.284785e+00   1.734144e-02
  1.457796e+00    1.278120e+00   1.726882e-02
  1.460006e+00    1.280581e+00   1.725805e-02
  1.462217e+00    1.272616e+00   1.717805e-02
  1.464427e+00    1.284283e+00   1.723086e-02
  1.466638e+00    1.289865e+00   1.724274e-02
  1.468848e+00    1.295882e+00   1.725731e-02
  1.471059e+00    1.295424e+00   1.722893e-02
  1.473269e+00    1.276745e+00   1.707980e-02
  1.475480e+00    1.249732e+00   1.687457e-02
  1.477690e+00    1.246705e+00   1.683047e-02
  1.479901e+00    1.252507e+00   1.684591e-02
  1.482111e+00    1.270955e+00   1.694614e-02
  1.484321e+00    1.267713e+00   1.690141e-02
  1.486532e+00    1.293379e+00   1.704906e-02
  1.488742e+00    1.283944e+00   1.696397e-02
  1.490953e+00    1.263717e+00   1.680720e-02
  1.493163e+00    1.243463e+00   1.664988e-02
  1.495374e+00    1.256609e+00   1.671619e-02
  1.497584e+00    1.298253e+00   1.696898e-02
  1.499795e+00    1.274308e+00   1.679000e-02
  1.502005e+00    1.262832e+00   1.669251e-02
  1.504216e+00    1.282952e+00   1.680372e-02
  1.506426e+00    1.286400e+00   1.680525e-02
  1.508636e+00    1.280639e+00   1.674693e-02
  1.510847e+00    1.284497e+00   1.675008e-02
  1.513057e+00    1.297937e+00   1.681199e-02
  1.515268e+00    1.299025e+00   1.679285e-02
  1.517478e+00    1.284452e+00   1.667297e-02
  1.519689e+00    1.260182e+00   1.648964e-02
  1.521899e+00    1.271659e+00   1.654131e-02
  1.524110e+00    1.271980e+00   1.652289e-02
  1.526320e+00    1.270494e+00   1.649353e-02
  1.528531e+00    1.269728e+00   1.646863e-02
  1.530741e+00    1.265825e+00   1.642404e-02
  1.532951e+00    1.254610e+00   1.633149e-02
  1.535162e+00    1.256938e+00   1.643349e-02
  1.537372e+00    1.239166e+00   1.638354e-02
  1.539583e+00    1.248729e+00   1.648088e-02
  1.541793e+00    1.242515e+00   1.644675e-02
  1.544004e+00    1.264874e+00   1.659433e-02
  1.546214e+00    1.264397e+00   1.658969e-02
  1.548425e+00    1.264670e+00   1.659174e-02
  1.550635e+00    1.243635e+00   1.646286e-02
  1.552846e+00    1.241923e+00   1.646116e-02
  1.555056e+00    1.233360e+00   1.636302e-02
  1.557266e+00    1.288594e+00   1.661299e-02
  1.559477e+00    1.261227e+00   1.637616e-02
  1.561687e+00    1.260797e+00   1.634246e-02
  1.563898e+00    1.293862e+00   1.653788e-02
  1.566108e+00    1.284244e+00   1.646010e-02
  1.568319e+00    1.263783e+00   1.631271e-02
  1.570529e+00    1.221834e+00   1.601478e-02
  1.572740e+00    1.254186e+00   1.619768e-02
  1.574950e+00    1.260498e+00   1.621191e-02
  1.577161e+00    1.280715e+00   1.631557e-02
  1.579371e+00    1.257405e+00   1.614262e-02
  1.581582e+00    1.277247e+00   1.624946e-02
  1.583792e+00    1.264690e+00   1.615123e-02
  1.586002e+00    1.247793e+00   1.602533e-02
  1.588213e+00    1.257405e+00   1.606959e-02
  1.590423e+00    1.255408e+00   1.603667e-02
  1.592634e+00    1.237895e+00   1.590284e-02
  1.594844e+00    1.223167e+00   1.578675e-02
  1.597055e+00    1.238141e+00   1.586259e-02
  1.599265e+00    1.257609e+00   1.596599e-02
  1.601476e+00    1.257953e+00   1.594770e-02
  1.603686e+00    1.295692e+00   1.616495e-02
  1.605897e+00    1.311256e+00   1.624103e-02
  1.608107e+00    1.292653e+00   1.610541e-02
  1.610317e+00    1.288189e+00   1.605789e-02
  1.612528e+00    1.289249e+00   1.604489e-02
  1.614738e+00    1.303741e+00   1.611533e-02
  1.616949e+00    1.273964e+00   1.591089e-02
  1.619159e+00    1.223725e+00   1.557529e-02
  1.621370e+00    1.215112e+00   1.550194e-02
  1.623580e+00    1.207498e+00   1.543500e-02
  1.625791e+00    1.211977e+00   1.544533e-02
  1.628001e+00    1.215076e+00   1.544671e-02
  1.630212e+00    1.202316e+00   1.534757e-02
  1.632422e+00    1.193130e+00   1.527087e-02
  1.634632e+00    1.196132e+00   1.527266e-02
  1.636843e+00    1.195216e+00   1.524914e-02
  1.639053e+00    1.198257e+00   1.525105e-02
  1.641264e+00    1.184987e+00   1.514918e-02
  1.643474e+00    1.157742e+00   1.495665e-02
  1.645685e+00    1.143795e+00   1.484973e-02
  1.647895e+00    1.139197e+00   1.480338e-02
  1.650106e+00    1.131920e+00   1.473915e-02
  1.652316e+00    1.152411e+00   1.485545e-02
  1.654527e+00    1.172062e+00   1.496469e-02
  1.656737e+00    1.162263e+00   1.488526e-02
  1.658947e+00    1.140151e+00   1.472665e-02
  1.661158e+00    1.112492e+00   1.453076e-02
  1.663368e+00    1.104979e+00   1.446571e-02
  1.665579e+00    1.106753e+00   1.446126e-02
  1.667789e+00    1.108536e+00   1.445672e-02
  1.670000e+00    1.122670e+00   1.453303e-02
  1.672210e+00    1.135242e+00   1.459812e-02
  1.674421e+00    1.103403e+00   1.437666e-02
  1.676631e+00    1.107394e+00   1.438669e-02
  1.678842e+00    1.109633e+00   1.438539e-02
  1.681052e+00    1.126135e+00   1.447634e-02
  1.683263e+00    1.117114e+00   1.440293e-02
  1.685473e+00    1.109277e+00   1.433700e-02
  1.687683e+00    1.092623e+00   1.421347e-02
  1.689894e+00    1.109562e+00   1.430725e-02
  1.692104e+00    1.152732e+00   1.456748e-02
  1.694315e+00    1.165307e+00   1.463162e-02
  1.696525e+00    1.125500e+00   1.436399e-02
  1.698736e+00    1.076803e+00   1.403492e-02
  1.700946e+00    1.071519e+00   1.398520e-02
  1.703157e+00    1.077849e+00   1.401168e-02
  1.705367e+00    1.058911e+00   1.387350e-02
  1.707578e+00    1.057018e+00   1.384646e-02
  1.709788e+00    1.046897e+00   1.376589e-02
  1.711998e+00    1.034001e+00   1.366590e-02
  1.714209e+00    1.030917e+00   1.363111e-02
  1.716419e+00    1.035144e+00   1.364475e-02
  1.718630e+00    1.042662e+00   1.367987e-02
  1.720840e+00    1.017382e+00   1.349892e-02
  1.723051e+00    1.022083e+00   1.351621e-02
  1.725261e+00    1.017985e+00   1.347444e-02
  1.727472e+00    1.015277e+00   1.344234e-02
  1.729682e+00    1.019056e+00   1.345385e-02
  1.731893e+00    1.048595e+00   1.363328e-02
  1.734103e+00    1.030422e+00   1.350073e-02
  1.736313e+00    9.931510e-01   1.324037e-02
  1.738524e+00    9.801102e-01   1.313948e-02
  1.740734e+00    9.813225e-01   1.313403e-02
  1.742945e+00    9.688631e-01   1.303711e-02
  1.745155e+00    9.835862e-01   1.312241e-02
  1.747366e+00    9.839731e-01   1.311122e-02
  1.749576e+00    9.646466e-01   1.296830e-02
  1.751787e+00    9.743687e-01   1.302018e-02
  1.753997e+00    9.783666e-01   1.303351e-02
  1.756208e+00    9.545581e-01   1.286088e-02
  1.758418e+00    9.597004e-01   1.288244e-02
  1.760628e+00    9.786986e-01   1.299590e-02
  1.762839e+00    9.984379e-01   1.311286e-02
  1.765049e+00    1.008335e+00   1.316428e-02
  1.767260e+00    1.009561e+00   1.315912e-02
  1.769470e+00    1.049863e+00   1.340560e-02
  1.771681e+00    1.059021e+00   1.345010e-02
  1.773891e+00    1.037101e+00   1.329654e-02
  1.776102e+00    9.872248e-01   1.295974e-02
  1.778312e+00    9.863912e-01   1.294124e-02
  1.780523e+00    9.936271e-01   1.297554e-02
  1.782733e+00    9.892385e-01   1.293384e-02
  1.784944e+00    9.876633e-01   1.291030e-02
  1.787154e+00    9.771439e-01   1.282853e-02
  1.789364e+00    9.461346e-01   1.261076e-02
  1.791575e+00    9.357696e-01   1.252889e-02
  1.793785e+00    9.251665e-01   1.244528e-02
  1.795996e+00    9.099903e-01   1.233036e-02
  1.798206e+00    9.059743e-01   1.229066e-02
  1.800417e+00    9.096372e-01   1.230287e-02
  1.802627e+00    9.088153e-01   1.228540e-02
  1.804838e+00    9.134402e-01   1.230451e-02
  1.807048e+00    9.092351e-01   1.226330e-02
  1.809259e+00    9.195671e-01   1.231909e-02
  1.811469e+00    9.301155e-01   1.237437e-02
  1.813679e+00    9.470056e-01   1.247088e-02
  1.815890e+00    9.151589e-01   1.224452e-02
  1.818100e+00    9.063584e-01   1.217030e-02
  1.820311e+00    8.929635e-01   1.206529e-02
  1.822521e+00    8.859692e-01   1.200311e-02
  1.824732e+00    8.814334e-01   1.195762e-02
  1.826942e+00    8.974340e-01   1.205325e-02
  1.829153e+00    8.975221e-01   1.204208e-02
  1.831363e+00    8.928035e-01   1.199828e-02
  1.833574e+00    9.052028e-01   1.206948e-02
  1.835784e+00    8.856168e-01   1.192672e-02
  1.837994e+00    8.988388e-01   1.200356e-02
  1.840205e+00    8.934940e-01   1.195654e-02
  1.842415e+00    8.738781e-01   1.181280e-02
  1.844626e+00    8.765119e-01   1.181896e-02
  1.846836e+00    8.868333e-01   1.187681e-02
  1.849047e+00    8.788763e-01   1.181171e-02
  1.851257e+00    8.824193e-01   1.182582e-02
  1.853468e+00    8.855127e-01   1.183761e-02
  1.855678e+00    8.828283e-01   1.181065e-02
  1.857889e+00    8.903732e-01   1.185236e-02
  1.860099e+00    8.683740e-01   1.169634e-02
  1.862309e+00    8.619031e-01   1.164414e-02
  1.864520e+00    8.588024e-01   1.161459e-02
  1.866730e+00    8.603721e-01   1.161578e-02
  1.868941e+00    8.562777e-01   1.157714e-02
  1.871151e+00    8.505396e-01   1.152691e-02
  1.873362e+00    8.328604e-01   1.139525e-02
  1.875572e+00    8.512987e-01   1.150974e-02
  1.877783e+00    8.284227e-01   1.134276e-02
  1.879993e+00    8.519589e-01   1.149155e-02
  1.882204e+00    8.321286e-01   1.134622e-02
  1.884414e+00    8.456720e-01   1.142709e-02
  1.886624e+00    8.348969e-01   1.134305e-02
  1.888835e+00    8.315489e-01   1.130939e-02
  1.891045e+00    8.264480e-01   1.126382e-02
  1.893256e+00    8.426412e-01   1.136254e-02
  1.895466e+00    8.348230e-01   1.129856e-02
  1.897677e+00    8.171681e-01   1.116763e-02
  1.899887e+00    8.241784e-01   1.120453e-02
  1.902098e+00    8.102055e-01   1.109843e-02
  1.904308e+00    8.319368e-01   1.123571e-02
  1.906519e+00    8.193229e-01   1.113942e-02
  1.908729e+00    8.553630e-01   1.137101e-02
  1.910940e+00    8.408164e-01   1.126271e-02
  1.913150e+00    8.293195e-01   1.117482e-02
  1.915360e+00    8.323454e-01   1.118452e-02
  1.917571e+00    8.239907e-01   1.111737e-02
  1.919781e+00    8.353525e-01   1.118297e-02
  1.921992e+00    8.259488e-01   1.110920e-02
  1.924202e+00    8.249681e-01   1.109178e-02
  1.926413e+00    8.355733e-01   1.115243e-02
  1.928623e+00    7.923360e-01   1.084968e-02
  1.930834e+00    7.706322e-01   1.068985e-02
  1.933044e+00    7.910413e-01   1.081997e-02
  1.935255e+00    8.082756e-01   1.092686e-02
  1.937465e+00    8.171341e-01   1.097614e-02
  1.939675e+00    8.254790e-01   1.102108e-02
  1.941886e+00    8.190703e-01   1.096783e-02
  1.944096e+00    8.050153e-01   1.086315e-02
  1.946307e+00    7.915182e-01   1.076141e-02
  1.948517e+00    7.913938e-01   1.075017e-02
  1.950728e+00    8.115125e-01   1.087563e-02
  1.952938e+00    8.030491e-01   1.080867e-02
  1.955149e+00    7.789093e-01   1.063484e-02
  1.957359e+00    8.027032e-01   1.078595e-02
  1.959570e+00    8.104096e-01   1.082664e-02
  1.961780e+00    8.015850e-01   1.075757e-02
  1.963990e+00    7.955379e-01   1.070677e-02
  1.966201e+00    7.857051e-01   1.063038e-02
  1.968411e+00    7.870949e-01   1.062962e-02
  1.970622e+00    7.997106e-01   1.070431e-02
  1.972832e+00    7.825569e-01   1.057895e-02
  1.975043e+00    7.932691e-01   1.064100e-02
  1.977253e+00    7.889167e-01   1.060182e-02
  1.979464e+00    7.862736e-01   1.057397e-02
  1.981674e+00    7.930936e-01   1.060942e-02
  1.983885e+00    7.912296e-01   1.058685e-02
  1.986095e+00    7.895583e-01   1.056591e-02
  1.988305e+00    7.952943e-01   1.059423e-02
  1.990516e+00    7.722377e-01   1.042965e-02
  1.992726e+00    7.654210e-01   1.037392e-02
  1.994937e+00    7.624832e-01   1.034397e-02
  1.997147e+00    7.667575e-01   1.036324e-02
  1.999358e+00    7.653956e-01   1.034423e-02
  2.001568e+00    7.732380e-01   1.038629e-02
  2.003779e+00    7.671890e-01   1.033371e-02
  2.005989e+00    7.664902e-01   1.031700e-02
  2.008200e+00    7.813002e-01   1.040461e-02
  2.010410e+00    7.737130e-01   1.034218e-02
  2.012621e+00    7.745200e-01   1.033582e-02
  2.014831e+00    7.809448e-01   1.036702e-02
  2.017041e+00    7.708293e-01   1.028928e-02
  2.019252e+00    7.733127e-01   1.029579e-02
  2.021462e+00    7.801924e-01   1.033191e-02
  2.023673e+00    7.628720e-01   1.020721e-02
  2.025883e+00    7.726564e-01   1.026286e-02
  2.028094e+00    7.860507e-01   1.034165e-02
  2.030304e+00    7.755306e-01   1.026260e-02
  2.032515e+00    7.543783e-01   1.011243e-02
  2.034725e+00    7.517965e-01   1.008568e-02
  2.036936e+00    7.667027e-01   1.017582e-02
  2.039146e+00    7.501465e-01   1.005580e-02
  2.041356e+00    7.731578e-01   1.019912e-02
  2.043567e+00    7.850346e-01   1.026769e-02
  2.045777e+00    7.640114e-01   1.011998e-02
  2.047988e+00    7.623861e-01   1.009976e-02
  2.050198e+00    7.842540e-01   1.023500e-02
  2.052409e+00    7.691162e-01   1.012801e-02
  2.054619e+00    7.503942e-01   9.996613e-03
  2.056830e+00    7.659054e-01   1.009216e-02
  2.059040e+00    7.597428e-01   1.004391e-02
  2.061251e+00    7.495845e-01   9.969301e-03
  2.063461e+00    7.547007e-01   9.995627e-03
  2.065671e+00    7.709444e-01   1.009377e-02
  2.067882e+00    7.551388e-01   9.980756e-03
  2.070092e+00    7.488584e-01   9.929936e-03
  2.072303e+00    7.431771e-01   9.883085e-03
  2.074513e+00    7.530649e-01   9.939247e-03
  2.076724e+00    7.427998e-01   9.861818e-03
  2.078934e+00    7.477893e-01   9.885848e-03
  2.081145e+00    7.390966e-01   9.819178e-03
  2.083355e+00    7.433481e-01   9.838173e-03
  2.085566e+00    7.527048e-01   9.890933e-03
  2.087776e+00    7.374608e-01   9.780784e-03
  2.089986e+00    7.410638e-01   9.795813e-03
  2.092197e+00    7.383639e-01   9.769018e-03
  2.094407e+00    7.497183e-01   9.834518e-03
  2.096618e+00    7.486625e-01   9.818610e-03
  2.098828e+00    7.618403e-01   9.895173e-03
  2.101039e+00    7.570050e-01   9.854596e-03
  2.103249e+00    7.529191e-01   9.819167e-03
  2.105460e+00    7.499088e-01   9.790381e-03
  2.107670e+00    7.465848e-01   9.759818e-03
  2.109881e+00    7.486160e-01   9.763779e-03
  2.112091e+00    7.539867e-01   9.789581e-03
  2.114301e+00    7.770519e-01   9.929097e-03
  2.116512e+00    7.437288e-01   9.704974e-03
  2.118722e+00    7.225438e-01   9.556903e-03
  2.120933e+00    7.194919e-01   9.527841e-03
  2.123143e+00    7.276771e-01   9.572917e-03
  2.125354e+00    7.389868e-01   9.638367e-03
  2.127564e+00    7.383728e-01   9.625509e-03
  2.129775e+00    7.260321e-01   9.535942e-03
  2.131985e+00    7.203669e-01   9.489564e-03
  2.134196e+00    7.096881e-01   9.410409e-03
  2.136406e+00    6.958168e-01   9.309338e-03
  2.138617e+00    7.004003e-01   9.331550e-03
  2.140827e+00    7.017704e-01   9.356654e-03
  2.143037e+00    6.830950e-01   9.276018e-03
  2.145248e+00    6.928849e-01   9.364033e-03
  2.147458e+00    6.999573e-01   9.426817e-03
  2.149669e+00    6.840783e-01   9.330953e-03
  2.151879e+00    6.927401e-01   9.399000e-03
  2.154090e+00    6.898516e-01   9.386653e-03
  2.156300e+00    6.968889e-01   9.440987e-03
  2.158511e+00    6.821543e-01   9.345882e-03
  2.160721e+00    6.909351e-01   9.410641e-03
  2.162932e+00    6.900105e-01   9.408046e-03
  2.165142e+00    6.997591e-01   9.477298e-03
  2.167352e+00    7.111396e-01   9.557007e-03
  2.169563e+00    6.941300e-01   9.443984e-03
  2.171773e+00    7.053658e-01   9.522564e-03
  2.173984e+00    7.059265e-01   9.527771e-03
  2.176194e+00    7.005365e-01   9.492544e-03
  2.178405e+00    6.812773e-01   9.361845e-03
  2.180615e+00    6.780328e-01   9.340190e-03
  2.182826e+00    6.848783e-01   9.387890e-03
  2.185036e+00    7.008240e-01   9.496610e-03
  2.187247e+00    6.914442e-01   9.432795e-03
  2.189457e+00    6.950802e-01   9.457150e-03
  2.191667e+00    6.802306e-01   9.355428e-03
  2.193878e+00    6.914467e-01   9.431635e-03
  2.196088e+00    7.132716e-01   9.578662e-03
  2.198299e+00    6.969807e-01   9.467546e-03
  2.200509e+00    6.871918e-01   9.399755e-03
  2.202720e+00    7.053927e-01   9.522252e-03
  2.204930e+00    6.906120e-01   9.420728e-03
  2.207141e+00    6.767245e-01   9.324400e-03
  2.209351e+00    6.935641e-01   9.437797e-03
  2.211562e+00    6.780760e-01   9.330213e-03
  2.213772e+00    6.769522e-01   9.266985e-03
  2.215982e+00    6.786146e-01   9.234059e-03
  2.218193e+00    6.880396e-01   9.268050e-03
  2.220403e+00    6.958275e-01   9.295399e-03
  2.222614e+00    6.907864e-01   9.240471e-03
  2.224824e+00    6.693256e-01   9.076453e-03
  2.227035e+00    6.862634e-01   9.172966e-03
  2.229245e+00    6.980653e-01   9.234211e-03
  2.231456e+00    6.820608e-01   9.112010e-03
  2.233666e+00    6.743757e-01   9.045391e-03
  2.235877e+00    6.793957e-01   9.064623e-03
  2.238087e+00    6.798503e-01   9.054104e-03
  2.240298e+00    6.579953e-01   8.893713e-03
  2.242508e+00    6.728972e-01   8.978684e-03
  2.244718e+00    6.705839e-01   8.947422e-03
  2.246929e+00    6.574664e-01   8.845158e-03
  2.249139e+00    6.664371e-01   8.892926e-03
  2.251350e+00    6.740455e-01   8.931781e-03
  2.253560e+00    6.639204e-01   8.852899e-03
  2.255771e+00    6.595963e-01   8.812678e-03
  2.257981e+00    6.615190e-01   8.814340e-03
  2.260192e+00    6.762459e-01   8.900723e-03
  2.262402e+00    6.696228e-01   8.846129e-03
  2.264613e+00    6.745460e-01   8.867675e-03
  2.266823e+00    6.383585e-01   8.616324e-03
  2.269033e+00    6.580366e-01   8.737768e-03
  2.271244e+00    6.602843e-01   8.742316e-03
  2.273454e+00    6.644360e-01   8.759476e-03
  2.275665e+00    6.557405e-01   8.691720e-03
  2.277875e+00    6.541348e-01   8.671188e-03
  2.280086e+00    6.681019e-01   8.753167e-03
  2.282296e+00    6.606606e-01   8.694884e-03
  2.284507e+00    6.688524e-01   8.738404e-03
  2.286717e+00    6.683669e-01   8.725689e-03
  2.288928e+00    6.641991e-01   8.688533e-03
  2.291138e+00    6.664211e-01   8.693557e-03
  2.293348e+00    6.422303e-01   8.524867e-03
  2.295559e+00    6.558185e-01   8.605259e-03
  2.297769e+00    6.695108e-01   8.685281e-03
  2.299980e+00    6.593849e-01   8.609984e-03
  2.302190e+00    6.444868e-01   8.503078e-03
  2.304401e+00    6.572483e-01   8.577510e-03
  2.306611e+00    6.463240e-01   8.496750e-03
  2.308822e+00    6.664533e-01   8.619574e-03
  2.311032e+00    6.511990e-01   8.513914e-03
  2.313243e+00    6.369690e-01   8.414162e-03
  2.315453e+00    6.354543e-01   8.396647e-03
  2.317663e+00    6.476016e-01   8.467403e-03
  2.319874e+00    6.524491e-01   8.490257e-03
  2.322084e+00    6.591539e-01   8.524729e-03
  2.324295e+00    6.452636e-01   8.426194e-03
  2.326505e+00    6.546515e-01   8.478146e-03
  2.328716e+00    6.508892e-01   8.445156e-03
  2.330926e+00    6.513615e-01   8.439365e-03
  2.333137e+00    6.633303e-01   8.508028e-03
  2.335347e+00    6.452023e-01   8.382091e-03
  2.337558e+00    6.391227e-01   8.334260e-03
  2.339768e+00    6.549622e-01   8.428243e-03
  2.341979e+00    6.539425e-01   8.413205e-03
  2.344189e+00    6.606084e-01   8.447452e-03
  2.346399e+00    6.229133e-01   8.194488e-03
  2.348610e+00    6.258211e-01   8.205187e-03
  2.350820e+00    6.368261e-01   8.268829e-03
  2.353031e+00    6.220782e-01   8.164327e-03
  2.355241e+00    6.237577e-01   8.167327e-03
  2.357452e+00    6.236297e-01   8.158141e-03
  2.359662e+00    6.098033e-01   8.059119e-03
  2.361873e+00    6.298898e-01   8.182527e-03
  2.364083e+00    6.323050e-01   8.190210e-03
  2.366294e+00    6.274511e-01   8.150600e-03
  2.368504e+00    6.302236e-01   8.160483e-03
  2.370714e+00    6.326761e-01   8.168261e-03
  2.372925e+00    6.187885e-01   8.070088e-03
  2.375135e+00    6.350227e-01   8.167135e-03
  2.377346e+00    6.302879e-01   8.128665e-03
  2.379556e+00    6.384290e-01   8.172968e-03
  2.381767e+00    6.204671e-01   8.049359e-03
  2.383977e+00    6.213773e-01   8.047283e-03
  2.386188e+00    6.239166e-01   8.055796e-03
  2.388398e+00    6.136469e-01   7.981271e-03
  2.390609e+00    6.321146e-01   8.092677e-03
  2.392819e+00    6.156982e-01   7.979118e-03
  2.395029e+00    6.252682e-01   8.033185e-03
  2.397240e+00    6.214109e-01   8.000441e-03
  2.399450e+00    6.154249e-01   7.954006e-03
  2.401661e+00    6.093771e-01   7.907166e-03
  2.403871e+00    6.152443e-01   7.937343e-03
  2.406082e+00    6.131243e-01   7.916221e-03
  2.408292e+00    5.972841e-01   7.805556e-03
  2.410503e+00    6.054761e-01   7.851445e-03
  2.412713e+00    6.085054e-01   7.863251e-03
  2.414924e+00    6.050658e-01   7.833520e-03
  2.417134e+00    6.071118e-01   7.839111e-03
  2.419344e+00    6.019556e-01   7.798335e-03
  2.421555e+00    6.110426e-01   7.849419e-03
  2.423765e+00    5.928739e-01   7.724491e-03
  2.425976e+00    5.980936e-01   7.750614e-03
  2.428186e+00    5.883039e-01   7.679767e-03
  2.430397e+00    5.979519e-01   7.734994e-03
  2.432607e+00    5.939063e-01   7.701524e-03
  2.434818e+00    5.952522e-01   7.702698e-03
  2.437028e+00    5.970013e-01   7.706848e-03
  2.439239e+00    5.829383e-01   7.607951e-03
  2.441449e+00    5.764890e-01   7.558642e-03
  2.443659e+00    5.767035e-01   7.552786e-03
  2.445870e+00    5.823227e-01   7.601674e-03
  2.448080e+00    5.656476e-01   7.526321e-03
  2.450291e+00    5.693300e-01   7.567271e-03
  2.452501e+00    5.688503e-01   7.575181e-03
  2.454712e+00    5.633717e-01   7.546963e-03
  2.456922e+00    5.765492e-01   7.641367e-03
  2.459133e+00    5.604737e-01   7.539492e-03
  2.461343e+00    5.689511e-01   7.600654e-03
  2.463554e+00    5.670525e-01   7.591434e-03
  2.465764e+00    5.617128e-01   7.558738e-03
  2.467975e+00    5.729473e-01   7.636289e-03
  2.470185e+00    5.556026e-01   7.522041e-03
  2.472395e+00    5.473936e-01   7.467487e-03
  2.474606e+00    5.514246e-01   7.496478e-03
  2.476816e+00    5.672411e-01   7.603973e-03
  2.479027e+00    5.613904e-01   7.565535e-03
  2.481237e+00    5.564847e-01   7.532669e-03
  2.483448e+00    5.444496e-01   7.451094e-03
  2.485658e+00    5.454108e-01   7.457495e-03
  2.487869e+00    5.587710e-01   7.548328e-03
  2.490079e+00    5.638121e-01   7.581781e-03
  2.492290e+00    5.394465e-01   7.415717e-03
  2.494500e+00    5.428486e-01   7.438314e-03
  2.496710e+00    5.377314e-01   7.402484e-03
  2.498921e+00    5.327297e-01   7.366986e-03
  2.501131e+00    5.355034e-01   7.385177e-03
  2.503342e+00    5.349307e-01   7.379981e-03
  2.505552e+00    5.277770e-01   7.329323e-03
  2.507763e+00    5.236999e-01   7.299564e-03
  2.509973e+00    5.228137e-01   7.291994e-03
  2.512184e+00    5.231971e-01   7.293039e-03
  2.514394e+00    5.420232e-01   7.413625e-03
  2.516605e+00    5.227260e-01   7.233564e-03
  2.518815e+00    5.176822e-01   7.170476e-03
  2.521025e+00    5.230389e-01   7.186555e-03
  2.523236e+00    5.270026e-01   7.195737e-03
  2.525446e+00    5.264476e-01   7.176317e-03
  2.527657e+00    5.339757e-01   7.212732e-03
  2.529867e+00    5.361488e-01   7.213061e-03
  2.532078e+00    5.412899e-01   7.232286e-03
  2.534288e+00    5.381418e-01   7.197178e-03
  2.536499e+00    5.242872e-01   7.091986e-03
  2.538709e+00    5.273550e-01   7.101679e-03
  2.540920e+00    5.192775e-01   7.036481e-03
  2.543130e+00    5.196133e-01   7.028438e-03
  2.545340e+00    5.254372e-01   7.057643e-03
  2.547551e+00    5.166702e-01   6.988620e-03
  2.549761e+00    5.220335e-01   7.015226e-03
  2.551972e+00    5.286769e-01   7.050303e-03
  2.554182e+00    5.358755e-01   7.088840e-03
  2.556393e+00    5.287973e-01   7.032701e-03
  2.558603e+00    5.389909e-01   7.090936e-03
  2.560814e+00    5.345958e-01   7.053143e-03
  2.563024e+00    5.264109e-01   6.990303e-03
  2.565235e+00    5.199684e-01   6.937874e-03
  2.567445e+00    5.121061e-01   6.875740e-03
  2.569656e+00    5.176179e-01   6.902887e-03
  2.571866e+00    5.231922e-01   6.930557e-03
  2.574076e+00    5.153043e-01   6.868868e-03
  2.576287e+00    5.079691e-01   6.811541e-03
  2.578497e+00    5.027909e-01   6.768988e-03
  2.580708e+00    5.022055e-01   6.757061e-03
  2.582918e+00    5.091828e-01   6.796130e-03
  2.585129e+00    5.068564e-01   6.772883e-03
  2.587339e+00    5.061216e-01   6.760355e-03
  2.589550e+00    5.139229e-01   6.804696e-03
  2.591760e+00    5.131388e-01   6.791763e-03
  2.593971e+00    5.179614e-01   6.816020e-03
  2.596181e+00    5.136055e-01   6.781083e-03
  2.598391e+00    5.050125e-01   6.718948e-03
  2.600602e+00    5.177225e-01   6.797011e-03
  2.602812e+00    5.107013e-01   6.743229e-03
  2.605023e+00    4.956188e-01   6.635827e-03
  2.607233e+00    5.124099e-01   6.740113e-03
  2.609444e+00    5.143305e-01   6.745475e-03
  2.611654e+00    5.080566e-01   6.696872e-03
  2.613865e+00    4.981134e-01   6.624038e-03
  2.616075e+00    4.927762e-01   6.581400e-03
  2.618286e+00    5.157584e-01   6.726061e-03
  2.620496e+00    5.059105e-01   6.654844e-03
  2.622706e+00    4.963823e-01   6.586183e-03
  2.624917e+00    4.977596e-01   6.589496e-03
  2.627127e+00    4.988437e-01   6.590959e-03
  2.629338e+00    5.058652e-01   6.631198e-03
  2.631548e+00    4.916847e-01   6.531496e-03
  2.633759e+00    5.023490e-01   6.594791e-03
  2.635969e+00    5.126449e-01   6.655273e-03
  2.638180e+00    5.161079e-01   6.670632e-03
  2.640390e+00    5.037438e-01   6.583628e-03
  2.642601e+00    4.965053e-01   6.529533e-03
  2.644811e+00    5.050571e-01   6.578390e-03
  2.647021e+00    5.107857e-01   6.608959e-03
  2.649232e+00    5.120937e-01   6.610639e-03
  2.651442e+00    5.044703e-01   6.554694e-03
  2.653653e+00    5.045029e-01   6.548075e-03
  2.655863e+00    5.025886e-01   6.528943e-03
  2.658074e+00    5.031887e-01   6.526172e-03
  2.660284e+00    5.054241e-01   6.534255e-03
  2.662495e+00    5.063565e-01   6.533470e-03
  2.664705e+00    5.020957e-01   6.499323e-03
  2.666916e+00    4.919578e-01   6.426936e-03
  2.669126e+00    5.054627e-01   6.508022e-03
  2.671337e+00    5.044564e-01   6.494921e-03
  2.673547e+00    4.896120e-01   6.392296e-03
  2.675757e+00    4.834790e-01   6.345750e-03
  2.677968e+00    4.885130e-01   6.372220e-03
  2.680178e+00    4.827653e-01   6.328287e-03
  2.682389e+00    4.977006e-01   6.419016e-03
  2.684599e+00    4.868390e-01   6.342433e-03
  2.686810e+00    4.902918e-01   6.358291e-03
  2.689020e+00    5.002075e-01   6.415916e-03
  2.691231e+00    5.095470e-01   6.469133e-03
  2.693441e+00    4.918930e-01   6.349936e-03
  2.695652e+00    4.911876e-01   6.338839e-03
  2.697862e+00    4.956138e-01   6.360968e-03
  2.700072e+00    4.839042e-01   6.279332e-03
  2.702283e+00    4.962530e-01   6.352675e-03
  2.704493e+00    4.945347e-01   6.335354e-03
  2.706704e+00    4.913715e-01   6.308630e-03
  2.708914e+00    4.840563e-01   6.255565e-03
  2.711125e+00    4.926435e-01   6.304516e-03
  2.713335e+00    4.838302e-01   6.241817e-03
  2.715546e+00    4.881268e-01   6.262991e-03
  2.717756e+00    4.715024e-01   6.149622e-03
  2.719967e+00    4.904376e-01   6.265646e-03
  2.722177e+00    4.741971e-01   6.154983e-03
  2.724387e+00    4.793887e-01   6.182518e-03
  2.726598e+00    4.728570e-01   6.134266e-03
  2.728808e+00    4.871131e-01   6.219897e-03
  2.731019e+00    4.849656e-01   6.200048e-03
  2.733229e+00    4.808508e-01   6.167902e-03
  2.735440e+00    4.810625e-01   6.163006e-03
  2.737650e+00    4.789633e-01   6.143563e-03
  2.739861e+00    4.808019e-01   6.149281e-03
  2.742071e+00    4.924176e-01   6.217325e-03
  2.744282e+00    4.875086e-01   6.179981e-03
  2.746492e+00    4.791708e-01   6.120892e-03
  2.748702e+00    4.781817e-01   6.108684e-03
  2.750913e+00    4.855388e-01   6.149678e-03
  2.753123e+00    4.806404e-01   6.112475e-03
  2.755334e+00    4.869829e-01   6.146555e-03
  2.757544e+00    4.802103e-01   6.097926e-03
  2.759755e+00    4.868065e-01   6.133751e-03
  2.761965e+00    4.810753e-01   6.091536e-03
  2.764176e+00    4.821367e-01   6.092269e-03
  2.766386e+00    4.821473e-01   6.086521e-03
  2.768597e+00    4.736001e-01   6.026507e-03
  2.770807e+00    4.822448e-01   6.075357e-03
  2.773017e+00    4.897511e-01   6.116430e-03
  2.775228e+00    4.755200e-01   6.021150e-03
  2.777438e+00    4.764664e-01   6.021329e-03
  2.779649e+00    4.900058e-01   6.100325e-03
  2.781859e+00    4.782216e-01   6.020756e-03
  2.784070e+00    4.754907e-01   5.997695e-03
  2.786280e+00    4.798467e-01   6.019324e-03
  2.788491e+00    4.649443e-01   5.919348e-03
  2.790701e+00    4.755677e-01   5.980949e-03
  2.792912e+00    4.715653e-01   5.949794e-03
  2.795122e+00    4.839039e-01   6.021348e-03
  2.797333e+00    4.680583e-01   5.916435e-03
  2.799543e+00    4.791089e-01   5.979981e-03
  2.801753e+00    4.716691e-01   5.927536e-03
  2.803964e+00    4.799336e-01   5.973553e-03
  2.806174e+00    4.840617e-01   5.992973e-03
  2.808385e+00    4.835893e-01   5.983203e-03
  2.810595e+00    4.713856e-01   5.900391e-03
  2.812806e+00    4.750552e-01   5.916673e-03
  2.815016e+00    4.745379e-01   5.908730e-03
  2.817227e+00    4.740187e-01   5.931403e-03
  2.819437e+00    4.752084e-01   5.949960e-03
  2.821648e+00    4.730702e-01   5.938834e-03
  2.823858e+00    4.785237e-01   5.978340e-03
  2.826068e+00    4.717335e-01   5.940745e-03
  2.828279e+00    4.718364e-01   5.945427e-03
  2.830489e+00    4.650487e-01   5.905824e-03
  2.832700e+00    4.630986e-01   5.895958e-03
  2.834910e+00    4.652367e-01   5.911597e-03
  2.837121e+00    4.796505e-01   6.004204e-03
  2.839331e+00    4.758953e-01   5.981894e-03
  2.841542e+00    4.762961e-01   5.985430e-03
  2.843752e+00    4.674022e-01   5.930083e-03
  2.845963e+00    4.510033e-01   5.825498e-03
  2.848173e+00    4.643699e-01   5.911275e-03
  2.850383e+00    4.642144e-01   5.910584e-03
  2.852594e+00    4.598727e-01   5.882802e-03
  2.854804e+00    4.629895e-01   5.902202e-03
  2.857015e+00    4.657680e-01   5.919445e-03
  2.859225e+00    4.652362e-01   5.915826e-03
  2.861436e+00    4.692753e-01   5.940787e-03
  2.863646e+00    4.745725e-01   5.974266e-03
  2.865857e+00    4.624052e-01   5.897521e-03
  2.868067e+00    4.599435e-01   5.882022e-03
  2.870278e+00    4.605472e-01   5.885535e-03
  2.872488e+00    4.558497e-01   5.854283e-03
  2.874698e+00    4.493895e-01   5.811631e-03
  2.876909e+00    4.619279e-01   5.890808e-03
  2.879119e+00    4.670747e-01   5.921911e-03
  2.881330e+00    4.664046e-01   5.916191e-03
  2.883540e+00    4.644929e-01   5.902673e-03
  2.885751e+00    4.573368e-01   5.855368e-03
  2.887961e+00    4.660167e-01   5.908791e-03
  2.890172e+00    4.706768e-01   5.936634e-03
  2.892382e+00    4.707777e-01   5.935463e-03
  2.894593e+00    4.538082e-01   5.825697e-03
  2.896803e+00    4.636989e-01   5.886855e-03
  2.899014e+00    4.618538e-01   5.873208e-03
  2.901224e+00    4.615898e-01   5.869544e-03
  2.903434e+00    4.656189e-01   5.893140e-03
  2.905645e+00    4.573219e-01   5.838191e-03
  2.907855e+00    4.671841e-01   5.898674e-03
  2.910066e+00    4.699769e-01   5.914185e-03
  2.912276e+00    4.649678e-01   5.880457e-03
  2.914487e+00    4.583348e-01   5.835900e-03
  2.916697e+00    4.592505e-01   5.839497e-03
  2.918908e+00    4.656557e-01   5.878055e-03
  2.921118e+00    4.701171e-01   5.903425e-03
  2.923329e+00    4.628513e-01   5.855303e-03
  2.925539e+00    4.607885e-01   5.839941e-03
  2.927749e+00    4.696765e-01   5.893653e-03
  2.929960e+00    4.569309e-01   5.810359e-03
  2.932170e+00    4.623953e-01   5.842661e-03
  2.934381e+00    4.616365e-01   5.835413e-03
  2.936591e+00    4.611473e-01   5.829718e-03
  2.938802e+00    4.621092e-01   5.833083e-03
  2.941012e+00    4.539633e-01   5.779097e-03
  2.943223e+00    4.546385e-01   5.780700e-03
  2.945433e+00    4.530360e-01   5.766788e-03
  2.947644e+00    4.706005e-01   5.873304e-03
  2.949854e+00    4.636623e-01   5.825546e-03
  2.952064e+00    4.596892e-01   5.796303e-03
  2.954275e+00    4.495562e-01   5.727657e-03
  2.956485e+00    4.583682e-01   5.779318e-03
  2.958696e+00    4.650678e-01   5.816985e-03
  2.960906e+00    4.610804e-01   5.787781e-03
  2.963117e+00    4.558989e-01   5.750686e-03
  2.965327e+00    4.453399e-01   5.679842e-03
  2.967538e+00    4.485998e-01   5.697676e-03
  2.969748e+00    4.642907e-01   5.793635e-03
  2.971959e+00    4.687104e-01   5.817952e-03
  2.974169e+00    4.568173e-01   5.741087e-03
  2.976379e+00    4.526632e-01   5.712001e-03
  2.978590e+00    4.607693e-01   5.759750e-03
  2.980800e+00    4.674837e-01   5.798739e-03
  2.983011e+00    4.543621e-01   5.713979e-03
  2.985221e+00    4.505999e-01   5.687143e-03
  2.987432e+00    4.534838e-01   5.702179e-03
  2.989642e+00    4.518122e-01   5.689065e-03
  2.991853e+00    4.517284e-01   5.685244e-03
  2.994063e+00    4.619199e-01   5.746095e-03
  2.996274e+00    4.638439e-01   5.754822e-03
  2.998484e+00    4.706294e-01   5.794032e-03
  3.000694e+00    4.674432e-01   5.770876e-03
  3.002905e+00    4.518639e-01   5.670965e-03
  3.005115e+00    4.621107e-01   5.731869e-03
  3.007326e+00    4.719588e-01   5.789427e-03
  3.009536e+00    4.653755e-01   5.745611e-03
  3.011747e+00    4.653974e-01   5.742785e-03
  3.013957e+00    4.537178e-01   5.667098e-03
  3.016168e+00    4.652463e-01   5.735318e-03
  3.018378e+00    4.589919e-01   5.693599e-03
  3.020589e+00    4.715702e-01   5.767783e-03
  3.022799e+00    4.594834e-01   5.690219e-03
  3.025010e+00    4.573380e-01   5.673660e-03
  3.027220e+00    4.589528e-01   5.680531e-03
  3.029430e+00    4.527397e-01   5.638701e-03
  3.031641e+00    4.631936e-01   5.700247e-03
  3.033851e+00    4.626756e-01   5.693513e-03
  3.036062e+00    4.605500e-01   5.677601e-03
  3.038272e+00    4.552248e-01   5.641105e-03
  3.040483e+00    4.550024e-01   5.636479e-03
  3.042693e+00    4.648057e-01   5.693555e-03
  3.044904e+00    4.678827e-01   5.708293e-03
  3.047114e+00    4.678025e-01   5.702902e-03
  3.049325e+00    4.614723e-01   5.659748e-03
  3.051535e+00    4.472903e-01   5.567713e-03
  3.053745e+00    4.562122e-01   5.618190e-03
  3.055956e+00    4.530099e-01   5.593851e-03
  3.058166e+00    4.468327e-01   5.551340e-03
  3.060377e+00    4.382232e-01   5.492887e-03
  3.062587e+00    4.480653e-01   5.549609e-03
  3.064798e+00    4.437686e-01   5.518716e-03
  3.067008e+00    4.599206e-01   5.613462e-03
  3.069219e+00    4.505313e-01   5.551356e-03
  3.071429e+00    4.491383e-01   5.539271e-03
  3.073640e+00    4.529124e-01   5.559127e-03
  3.075850e+00    4.471415e-01   5.520035e-03
  3.078060e+00    4.547302e-01   5.563552e-03
  3.080271e+00    4.593633e-01   5.588301e-03
  3.082481e+00    4.510332e-01   5.533964e-03
  3.084692e+00    4.472274e-01   5.507174e-03
  3.086902e+00    4.506216e-01   5.524786e-03
  3.089113e+00    4.563747e-01   5.556337e-03
  3.091323e+00    4.539063e-01   5.537905e-03
  3.093534e+00    4.474336e-01   5.494889e-03
  3.095744e+00    4.507461e-01   5.511822e-03
  3.097955e+00    4.299785e-01   5.379871e-03
  3.100165e+00    4.340884e-01   5.402220e-03
  3.102375e+00    4.399637e-01   5.435280e-03
  3.104586e+00    4.445255e-01   5.459888e-03
  3.106796e+00    4.368371e-01   5.408998e-03
  3.109007e+00    4.510308e-01   5.492912e-03
  3.111217e+00    4.370755e-01   5.403649e-03
  3.113428e+00    4.319710e-01   5.368616e-03
  3.115638e+00    4.407993e-01   5.419982e-03
  3.117849e+00    4.500563e-01   5.472847e-03
  3.120059e+00    4.510156e-01   5.475208e-03
  3.122270e+00    4.464844e-01   5.444366e-03
  3.124480e+00    4.386676e-01   5.392834e-03
  3.126691e+00    4.397842e-01   5.396139e-03
  3.128901e+00    4.395359e-01   5.391531e-03
  3.131111e+00    4.412454e-01   5.398168e-03
  3.133322e+00    4.459496e-01   5.423421e-03
  3.135532e+00    4.423375e-01   5.398009e-03
  3.137743e+00    4.465030e-01   5.419873e-03
  3.139953e+00    4.580848e-01   5.485986e-03
  3.142164e+00    4.513558e-01   5.457674e-03
  3.144374e+00    4.402634e-01   5.418528e-03
  3.146585e+00    4.440741e-01   5.456516e-03
  3.148795e+00    4.354727e-01   5.414109e-03
  3.151006e+00    4.336761e-01   5.411391e-03
  3.153216e+00    4.393653e-01   5.453873e-03
  3.155426e+00    4.510466e-01   5.532306e-03
  3.157637e+00    4.398928e-01   5.468972e-03
  3.159847e+00    4.490072e-01   5.530268e-03
  3.162058e+00    4.560065e-01   5.577709e-03
  3.164268e+00    4.501219e-01   5.545733e-03
  3.166479e+00    4.453156e-01   5.519702e-03
  3.168689e+00    4.477903e-01   5.538430e-03
  3.170900e+00    4.288852e-01   5.423385e-03
  3.173110e+00    4.355063e-01   5.467949e-03
  3.175321e+00    4.389316e-01   5.491897e-03
  3.177531e+00    4.468389e-01   5.543918e-03
  3.179741e+00    4.347673e-01   5.470585e-03
  3.181952e+00    4.336113e-01   5.465415e-03
  3.184162e+00    4.404542e-01   5.510546e-03
  3.186373e+00    4.324511e-01   5.461878e-03
  3.188583e+00    4.301167e-01   5.448864e-03
  3.190794e+00    4.401323e-01   5.513716e-03
  3.193004e+00    4.194749e-01   5.383973e-03
  3.195215e+00    4.353389e-01   5.486338e-03
  3.197425e+00    4.402336e-01   5.518320e-03
  3.199636e+00    4.349491e-01   5.484340e-03
  3.201846e+00    4.302285e-01   5.453883e-03
  3.204056e+00    4.341913e-01   5.479824e-03
  3.206267e+00    4.463935e-01   5.557163e-03
  3.208477e+00    4.379606e-01   5.505348e-03
  3.210688e+00    4.282308e-01   5.444706e-03
  3.212898e+00    4.277707e-01   5.442327e-03
  3.215109e+00    4.365794e-01   5.498841e-03
  3.217319e+00    4.393895e-01   5.517151e-03
  3.219530e+00    4.333153e-01   5.479291e-03
  3.221740e+00    4.303443e-01   5.461019e-03
  3.223951e+00    4.407071e-01   5.526857e-03
  3.226161e+00    4.371067e-01   5.504423e-03
  3.228372e+00    4.248655e-01   5.427353e-03
  3.230582e+00    4.209203e-01   5.402193e-03
  3.232792e+00    4.300039e-01   5.460416e-03
  3.235003e+00    4.290887e-01   5.454851e-03
  3.237213e+00    4.241639e-01   5.423566e-03
  3.239424e+00    4.214483e-01   5.406160e-03
  3.241634e+00    4.235131e-01   5.419515e-03
  3.243845e+00    4.249628e-01   5.428845e-03
  3.246055e+00    4.313717e-01   5.469366e-03
  3.248266e+00    4.260747e-01   5.435873e-03
  3.250476e+00    4.444107e-01   5.551311e-03
  3.252687e+00    4.277317e-01   5.446048e-03
  3.254897e+00    4.303021e-01   5.462287e-03
  3.257107e+00    4.258898e-01   5.433889e-03
  3.259318e+00    4.238696e-01   5.420743e-03
  3.261528e+00    4.224679e-01   5.411641e-03
  3.263739e+00    4.277835e-01   5.445012e-03
  3.265949e+00    4.226880e-01   5.412377e-03
  3.268160e+00    4.248179e-01   5.425575e-03
  3.270370e+00    4.215332e-01   5.404053e-03
  3.272581e+00    4.289042e-01   5.450802e-03
  3.274791e+00    4.282536e-01   5.446164e-03
  3.277002e+00    4.269062e-01   5.436998e-03
  3.279212e+00    4.379864e-01   5.506743e-03
  3.281422e+00    4.198534e-01   5.390969e-03
  3.283633e+00    4.228479e-01   5.409465e-03
  3.285843e+00    4.344386e-01   5.482765e-03
  3.288054e+00    4.390089e-01   5.510584e-03
  3.290264e+00    4.168307e-01   5.369281e-03
  3.292475e+00    4.273824e-01   5.435969e-03
  3.294685e+00    4.266038e-01   5.430383e-03
  3.296896e+00    4.227466e-01   5.405006e-03
  3.299106e+00    4.264025e-01   5.427778e-03
  3.301317e+00    4.337097e-01   5.473052e-03
  3.303527e+00    4.364174e-01   5.489639e-03
  3.305737e+00    4.353699e-01   5.481970e-03
  3.307948e+00    4.153896e-01   5.354065e-03
  3.310158e+00    4.177374e-01   5.368316e-03
  3.312369e+00    4.185301e-01   5.372529e-03
  3.314579e+00    4.187890e-01   5.373278e-03
  3.316790e+00    4.348613e-01   5.474687e-03
  3.319000e+00    4.322169e-01   5.456850e-03
  3.321211e+00    4.259899e-01   5.416763e-03
  3.323421e+00    4.291162e-01   5.435414e-03
  3.325632e+00    4.213711e-01   5.385229e-03
  3.327842e+00    4.265178e-01   5.417095e-03
  3.330052e+00    4.351798e-01   5.470755e-03
  3.332263e+00    4.309998e-01   5.443390e-03
  3.334473e+00    4.286675e-01   5.427713e-03
  3.336684e+00    4.272048e-01   5.417180e-03
  3.338894e+00    4.232964e-01   5.391497e-03
  3.341105e+00    4.120217e-01   5.318026e-03
  3.343315e+00    3.992881e-01   5.234068e-03
  3.345526e+00    4.181244e-01   5.355217e-03
  3.347736e+00    4.227296e-01   5.383214e-03
  3.349947e+00    4.233190e-01   5.386024e-03
  3.352157e+00    4.166664e-01   5.342390e-03
  3.354368e+00    4.119774e-01   5.310934e-03
  3.356578e+00    4.160705e-01   5.336255e-03
  3.358788e+00    4.113152e-01   5.304341e-03
  3.360999e+00    4.272263e-01   5.404706e-03
  3.363209e+00    4.178990e-01   5.344379e-03
  3.365420e+00    4.214359e-01   5.365402e-03
  3.367630e+00    4.130820e-01   5.310981e-03
  3.369841e+00    4.133038e-01   5.310960e-03
  3.372051e+00    4.147057e-01   5.317992e-03
  3.374262e+00    4.170030e-01   5.330253e-03
  3.376472e+00    4.263066e-01   5.386937e-03
  3.378683e+00    4.189702e-01   5.337844e-03
  3.380893e+00    4.169936e-01   5.322923e-03
  3.383103e+00    4.034863e-01   5.233319e-03
  3.385314e+00    4.069197e-01   5.253333e-03
  3.387524e+00    4.264958e-01   5.375438e-03
  3.389735e+00    4.145713e-01   5.297147e-03
  3.391945e+00    4.202168e-01   5.329367e-03
  3.394156e+00    4.239819e-01   5.348918e-03
  3.396366e+00    4.142006e-01   5.283443e-03
  3.398577e+00    4.153779e-01   5.287896e-03
  3.400787e+00    4.136144e-01   5.288599e-03
  3.402998e+00    4.099330e-01   5.303072e-03
  3.405208e+00    3.949585e-01   5.225710e-03
  3.407418e+00    3.855722e-01   5.178714e-03
  3.409629e+00    3.809302e-01   5.161043e-03
  3.411839e+00    3.873903e-01   5.216238e-03
  3.414050e+00    3.982275e-01   5.299665e-03
  3.416260e+00    3.989788e-01   5.314405e-03
  3.418471e+00    3.931848e-01   5.285061e-03
  3.420681e+00    3.960773e-01   5.313018e-03
  3.422892e+00    3.840845e-01   5.239893e-03
  3.425102e+00    3.776479e-01   5.203491e-03
  3.427313e+00    3.914765e-01   5.305106e-03
  3.429523e+00    3.913694e-01   5.311499e-03
  3.431733e+00    3.815233e-01   5.250886e-03
  3.433944e+00    3.807615e-01   5.252067e-03
  3.436154e+00    3.702809e-01   5.185467e-03
  3.438365e+00    3.708420e-01   5.195193e-03
  3.440575e+00    3.697639e-01   5.193506e-03
  3.442786e+00    3.759433e-01   5.242284e-03
  3.444996e+00    3.800584e-01   5.276448e-03
  3.447207e+00    3.671148e-01   5.191036e-03
  3.449417e+00    3.645739e-01   5.213479e-03
  3.451628e+00    3.581622e-01   5.196453e-03
  3.453838e+00    3.680404e-01   5.288764e-03
  3.456049e+00    3.564151e-01   5.228158e-03
  3.458259e+00    3.565260e-01   5.250581e-03
  3.460469e+00    3.686677e-01   5.359094e-03
  3.462680e+00    3.628941e-01   5.335921e-03
  3.464890e+00    3.746693e-01   5.439819e-03
  3.467101e+00    3.764487e-01   5.470391e-03
  3.469311e+00    3.863911e-01   5.559053e-03
  3.471522e+00    3.938755e-01   5.629448e-03
  3.473732e+00    3.942571e-01   5.648442e-03
  3.475943e+00    4.137423e-01   5.802678e-03
  3.478153e+00    3.976949e-01   5.704707e-03
  3.480364e+00    3.906879e-01   5.669261e-03
  3.482574e+00    4.051516e-01   5.788645e-03
  3.484784e+00    4.197545e-01   5.907053e-03
  3.486995e+00    4.411471e-01   6.071268e-03
  3.489205e+00    4.456802e-01   6.117455e-03
  3.491416e+00    4.327757e-01   6.043247e-03
  3.493626e+00    4.538371e-01   6.203432e-03
  3.495837e+00    4.591719e-01   6.254878e-03
  3.498047e+00    4.602691e-01   6.277074e-03
  3.500258e+00    4.693319e-01   6.353439e-03
  3.502468e+00    4.552622e-01   6.271923e-03
  3.504679e+00    4.659265e-01   6.359505e-03
  3.506889e+00    4.721798e-01   6.416598e-03
  3.509099e+00    4.762545e-01   6.458634e-03
  3.511310e+00    4.867351e-01   6.543982e-03
  3.513520e+00    4.787176e-01   6.504193e-03
  3.515731e+00    4.689446e-01   6.451596e-03
  3.517941e+00    4.923442e-01   6.624985e-03
  3.520152e+00    5.040256e-01   6.717549e-03
  3.522362e+00    5.121847e-01   6.786404e-03
  3.524573e+00    5.007004e-01   6.724044e-03
  3.526783e+00    5.161506e-01   6.840426e-03
  3.528994e+00    5.263614e-01   6.920137e-03
  3.531204e+00    5.270026e-01   6.936856e-03
  3.533414e+00    5.308337e-01   6.974174e-03
  3.535625e+00    5.414991e-01   7.056417e-03
  3.537835e+00    5.430094e-01   7.078441e-03
  3.540046e+00    5.619132e-01   7.209793e-03
  3.542256e+00    5.550433e-01   7.173255e-03
  3.544467e+00    5.594002e-01   7.209139e-03
  3.546677e+00    5.499699e-01   7.155779e-03
  3.548888e+00    5.454606e-01   7.133931e-03
  3.551098e+00    5.466889e-01   7.149340e-03
  3.553309e+00    5.586720e-01   7.235624e-03
  3.555519e+00    5.321316e-01   7.072894e-03
  3.557729e+00    5.382538e-01   7.125198e-03
  3.559940e+00    5.494979e-01   7.210953e-03
  3.562150e+00    5.358308e-01   7.132438e-03
  3.564361e+00    5.128030e-01   6.990477e-03
  3.566571e+00    5.353063e-01   7.156054e-03
  3.568782e+00    5.400472e-01   7.201863e-03
  3.570992e+00    5.376104e-01   7.199354e-03
  3.573203e+00    5.348526e-01   7.194972e-03
  3.575413e+00    5.437048e-01   7.268164e-03
  3.577624e+00    5.481803e-01   7.312304e-03
  3.579834e+00    5.404703e-01   7.274647e-03
  3.582045e+00    5.321761e-01   7.232572e-03
  3.584255e+00    5.379927e-01   7.286084e-03
  3.586465e+00    5.360177e-01   7.286625e-03
  3.588676e+00    5.281181e-01   7.246838e-03
  3.590886e+00    5.513130e-01   7.418141e-03
  3.593097e+00    5.391235e-01   7.350225e-03
  3.595307e+00    5.528145e-01   7.457121e-03
  3.597518e+00    5.390314e-01   7.377856e-03
  3.599728e+00    5.531192e-01   7.487937e-03
  3.601939e+00    5.475071e-01   7.464120e-03
  3.604149e+00    5.342416e-01   7.387501e-03
  3.606360e+00    5.402038e-01   7.442805e-03
  3.608570e+00    5.421279e-01   7.470306e-03
  3.610780e+00    5.519739e-01   7.549085e-03
  3.612991e+00    5.428688e-01   7.496651e-03
  3.615201e+00    5.268925e-01   7.395234e-03
  3.617412e+00    5.472372e-01   7.544013e-03
  3.619622e+00    5.416489e-01   7.511375e-03
  3.621833e+00    5.516612e-01   7.587322e-03
  3.624043e+00    5.535281e-01   7.609814e-03
  3.626254e+00    5.387542e-01   7.517341e-03
  3.628464e+00    5.488235e-01   7.598331e-03
  3.630675e+00    5.508345e-01   7.626636e-03
  3.632885e+00    5.557820e-01   7.675526e-03
  3.635095e+00    5.579346e-01   7.705106e-03
  3.637306e+00    5.364487e-01   7.569683e-03
  3.639516e+00    5.445761e-01   7.641508e-03
  3.641727e+00    5.330979e-01   7.575122e-03
  3.643937e+00    5.421967e-01   7.654132e-03
  3.646148e+00    5.304183e-01   7.585154e-03
  3.648358e+00    5.361887e-01   7.641156e-03
  3.650569e+00    5.521958e-01   7.769374e-03
  3.652779e+00    5.382602e-01   7.685621e-03
  3.654990e+00    5.188171e-01   7.560161e-03
  3.657200e+00    5.291353e-01   7.649864e-03
  3.659410e+00    5.222663e-01   7.614865e-03
  3.661621e+00    5.374675e-01   7.740044e-03
  3.663831e+00    5.275577e-01   7.683468e-03
  3.666042e+00    5.376220e-01   7.771600e-03
  3.668252e+00    5.326923e-01   7.751176e-03
  3.670463e+00    5.517243e-01   7.903965e-03
  3.672673e+00    5.288354e-01   7.753659e-03
  3.674884e+00    5.149893e-01   7.666661e-03
  3.677094e+00    5.213387e-01   7.729142e-03
  3.679305e+00    5.206820e-01   7.739676e-03
  3.681515e+00    5.326333e-01   7.843662e-03
  3.683726e+00    5.312123e-01   7.849035e-03
  3.685936e+00    5.190439e-01   7.774157e-03
  3.688146e+00    5.092292e-01   7.715810e-03
  3.690357e+00    5.254221e-01   7.853399e-03
  3.692567e+00    5.361919e-01   7.949762e-03
  3.694778e+00    5.252928e-01   7.884628e-03
  3.696988e+00    5.218401e-01   7.874517e-03
  3.699199e+00    5.231428e-01   7.900580e-03
  3.701409e+00    5.257419e-01   7.936569e-03
  3.703620e+00    5.294529e-01   7.980870e-03
  3.705830e+00    5.286202e-01   7.991130e-03
  3.708041e+00    5.415622e-01   8.105163e-03
  3.710251e+00    5.125998e-01   7.902052e-03
  3.712461e+00    5.159052e-01   7.944069e-03
  3.714672e+00    5.482585e-01   8.206544e-03
  3.716882e+00    5.287386e-01   8.075984e-03
  3.719093e+00    5.077956e-01   7.931367e-03
  3.721303e+00    5.173160e-01   8.022247e-03
  3.723514e+00    5.010299e-01   7.911933e-03
  3.725724e+00    5.134636e-01   8.026575e-03
  3.727935e+00    5.254225e-01   8.137090e-03
  3.730145e+00    5.310417e-01   8.198080e-03
  3.732356e+00    5.289806e-01   8.199862e-03
  3.734566e+00    5.383857e-01   8.290382e-03
  3.736776e+00    5.257460e-01   8.210485e-03
  3.738987e+00    5.087962e-01   8.094627e-03
  3.741197e+00    5.140393e-01   8.154280e-03
  3.743408e+00    5.259411e-01   8.266388e-03
  3.745618e+00    5.139804e-01   8.190200e-03
  3.747829e+00    5.315048e-01   8.347083e-03
  3.750039e+00    5.236596e-01   8.303895e-03
  3.752250e+00    5.189860e-01   8.285311e-03
  3.754460e+00    5.308785e-01   8.398612e-03
  3.756671e+00    5.161196e-01   8.300046e-03
  3.758881e+00    4.998816e-01   8.186839e-03
  3.761091e+00    5.122309e-01   8.306577e-03
  3.763302e+00    5.148383e-01   8.346923e-03
  3.765512e+00    5.058716e-01   8.293117e-03
  3.767723e+00    5.202848e-01   8.429996e-03
  3.769933e+00    5.096194e-01   8.362597e-03
  3.772144e+00    5.124262e-01   8.405260e-03
  3.774354e+00    5.128469e-01   8.428664e-03
  3.776565e+00    5.078152e-01   8.407213e-03
  3.778775e+00    5.185055e-01   8.515380e-03
  3.780986e+00    5.135548e-01   8.495180e-03
  3.783196e+00    4.942518e-01   8.354051e-03
  3.785407e+00    4.774699e-01   8.230906e-03
  3.787617e+00    4.874486e-01   8.336873e-03
  3.789827e+00    4.961651e-01   8.431457e-03
  3.792038e+00    5.110549e-01   8.578142e-03
  3.794248e+00    4.996423e-01   8.502902e-03
  3.796459e+00    5.149959e-01   8.654199e-03
  3.798669e+00    5.297498e-01   8.799284e-03
  3.800880e+00    5.085716e-01   8.643259e-03
  3.803090e+00    4.916007e-01   8.519384e-03
  3.805301e+00    4.999903e-01   8.613923e-03
  3.807511e+00    4.623217e-01   8.304228e-03
  3.809722e+00    4.989781e-01   8.649357e-03
  3.811932e+00    5.026721e-01   8.703578e-03
  3.814142e+00    5.293361e-01   8.955030e-03
  3.816353e+00    5.273363e-01   8.961590e-03
  3.818563e+00    5.004526e-01   8.753331e-03
  3.820774e+00    4.983424e-01   8.757954e-03
  3.822984e+00    5.240245e-01   9.004804e-03
  3.825195e+00    4.984388e-01   8.806003e-03
  3.827405e+00    5.054003e-01   8.891255e-03
  3.829616e+00    5.102275e-01   8.958084e-03
  3.831826e+00    4.968867e-01   8.864301e-03
  3.834037e+00    4.903244e-01   8.829941e-03
  3.836247e+00    4.868888e-01   8.823361e-03
  3.838457e+00    4.824603e-01   8.807827e-03
  3.840668e+00    5.150344e-01   9.125957e-03
  3.842878e+00    5.001097e-01   9.018387e-03
  3.845089e+00    4.974324e-01   9.019841e-03
  3.847299e+00    4.938680e-01   9.013183e-03
  3.849510e+00    4.799773e-01   8.911051e-03
  3.851720e+00    4.978562e-01   9.096895e-03
  3.853931e+00    4.984762e-01   9.121696e-03
  3.856141e+00    5.252180e-01   9.382683e-03
  3.858352e+00    5.099055e-01   9.264527e-03
  3.860562e+00    5.026009e-01   9.217354e-03
  3.862772e+00    5.045090e-01   9.254669e-03
  3.864983e+00    4.969674e-01   9.204919e-03
  3.867193e+00    4.854420e-01   9.117226e-03
  3.869404e+00    5.088210e-01   9.354192e-03
  3.871614e+00    5.114545e-01   9.398826e-03
  3.873825e+00    5.255312e-01   9.548211e-03
  3.876035e+00    4.902050e-01   9.242248e-03
  3.878246e+00    5.067028e-01   9.422638e-03
  3.880456e+00    5.018976e-01   9.407109e-03
  3.882667e+00    4.948805e-01   9.370509e-03
  3.884877e+00    5.168217e-01   9.606487e-03
  3.887087e+00    4.926689e-01   9.409312e-03
  3.889298e+00    5.062137e-01   9.568628e-03
  3.891508e+00    5.077090e-01   9.613781e-03
  3.893719e+00    4.827513e-01   9.405253e-03
  3.895929e+00    4.888713e-01   9.496017e-03
  3.898140e+00    5.042652e-01   9.676526e-03
  3.900350e+00    4.772337e-01   9.445296e-03
  3.902561e+00    4.801005e-01   9.505644e-03
  3.904771e+00    4.693600e-01   9.430829e-03
  3.906982e+00    4.853333e-01   9.622989e-03
  3.909192e+00    5.210317e-01   1.000512e-02
  3.911403e+00    4.963571e-01   9.799725e-03
  3.913613e+00    4.960365e-01   9.831014e-03
  3.915823e+00    5.122029e-01   1.002553e-02
  3.918034e+00    5.043385e-01   9.984191e-03
  3.920244e+00    5.117779e-01   1.009408e-02
  3.922455e+00    4.778413e-01   9.789393e-03
  3.924665e+00    4.878081e-01   9.927347e-03
  3.926876e+00    4.862522e-01   9.948544e-03
  3.929086e+00    5.052795e-01   1.017937e-02
  3.931297e+00    4.962589e-01   1.012322e-02
  3.933507e+00    4.800667e-01   9.985441e-03
  3.935718e+00    5.011550e-01   1.023149e-02
  3.937928e+00    4.980620e-01   1.022960e-02
  3.940138e+00    4.829549e-01   1.010263e-02
  3.942349e+00    4.684035e-01   9.978406e-03
  3.944559e+00    4.837994e-01   1.017106e-02
  3.946770e+00    4.558867e-01   9.902446e-03
  3.948980e+00    4.774226e-01   1.016411e-02
  3.951191e+00    4.977338e-01   1.040923e-02
  3.953401e+00    4.889434e-01   1.034837e-02
  3.955612e+00    4.692512e-01   1.016887e-02
  3.957822e+00    5.011187e-01   1.054069e-02
  3.960033e+00    5.288939e-01   1.086287e-02
  3.962243e+00    4.891641e-01   1.047998e-02
  3.964453e+00    4.818132e-01   1.043380e-02
  3.966664e+00    4.883531e-01   1.053791e-02
  3.968874e+00    4.738628e-01   1.040839e-02
  3.971085e+00    4.900728e-01   1.060700e-02
  3.973295e+00    5.082946e-01   1.082435e-02
  3.975506e+00    4.977105e-01   1.073292e-02
  3.977716e+00    5.256505e-01   1.105299e-02
  3.979927e+00    4.629238e-01   1.039425e-02
  3.982137e+00    4.661115e-01   1.045165e-02
  3.984348e+00    4.737766e-01   1.055966e-02
  3.986558e+00    4.818221e-01   1.067110e-02
  3.988768e+00    4.624723e-01   1.047710e-02
  3.990979e+00    4.828995e-01   1.072871e-02
  3.993189e+00    4.956474e-01   1.089270e-02
  3.995400e+00    4.887764e-01   1.084059e-02
  3.997610e+00    4.863980e-01   1.084404e-02
  3.999821e+00    4.599009e-01   1.058110e-02
  4.002031e+00    4.862389e-01   1.091828e-02
  4.004242e+00    4.945427e-01   1.104994e-02
  4.006452e+00    4.812755e-01   1.094001e-02
  4.008663e+00    4.995568e-01   1.118645e-02
  4.010873e+00    5.072692e-01   1.131338e-02
  4.013084e+00    4.810198e-01   1.105759e-02
  4.015294e+00    4.692935e-01   1.096231e-02
  4.017504e+00    4.802086e-01   1.113066e-02
  4.019715e+00    4.704774e-01   1.105926e-02
  4.021925e+00    4.721715e-01   1.112162e-02
  4.024136e+00    4.814976e-01   1.127448e-02
  4.026346e+00    4.954627e-01   1.148138e-02
  4.028557e+00    4.932222e-01   1.150028e-02
  4.030767e+00    4.841823e-01   1.143997e-02
  4.032978e+00    4.869714e-01   1.151934e-02
  4.035188e+00    4.975536e-01   1.169066e-02
  4.037399e+00    4.907720e-01   1.165871e-02
  4.039609e+00    5.089624e-01   1.192171e-02
  4.041819e+00    4.815789e-01   1.164529e-02
  4.044030e+00    4.981120e-01   1.189415e-02
  4.046240e+00    4.524084e-01   1.138375e-02
  4.048451e+00    4.712641e-01   1.166856e-02
  4.050661e+00    5.274172e-01   1.239805e-02
  4.052872e+00    5.144376e-01   1.229915e-02
  4.055082e+00    4.848451e-01   1.199371e-02
  4.057293e+00    4.769678e-01   1.194928e-02
  4.059503e+00    5.017843e-01   1.231190e-02
  4.061714e+00    4.708772e-01   1.198262e-02
  4.063924e+00    4.714039e-01   1.204537e-02
  4.066134e+00    4.951190e-01   1.240270e-02
  4.068345e+00    4.947305e-01   1.245783e-02
  4.070555e+00    4.935753e-01   1.250300e-02
  4.072766e+00    5.050746e-01   1.271040e-02
  4.074976e+00    4.438221e-01   1.197400e-02
  4.077187e+00    5.059823e-01   1.284857e-02
  4.079397e+00    4.919387e-01   1.273381e-02
  4.081608e+00    4.768349e-01   1.260204e-02
  4.083818e+00    4.994301e-01   1.296407e-02
  4.086029e+00    5.162429e-01   1.325010e-02
  4.088239e+00    4.380910e-01   1.227188e-02
  4.090449e+00    4.617658e-01   1.266721e-02
  4.092660e+00    4.733822e-01   1.289614e-02
  4.094870e+00    4.783275e-01   1.303541e-02
  4.097081e+00    4.848897e-01   1.319640e-02
  4.099291e+00    5.248698e-01   1.378668e-02
  4.101502e+00    4.556574e-01   1.289338e-02
  4.103712e+00    4.916807e-01   1.344318e-02
  4.105923e+00    4.800478e-01   1.333469e-02
  4.108133e+00    4.839721e-01   1.344061e-02
  4.110344e+00    5.366227e-01   1.420713e-02
  4.112554e+00    4.840097e-01   1.354588e-02
  4.114764e+00    5.189158e-01   1.408224e-02
  4.116975e+00    5.175519e-01   1.411919e-02
  4.119185e+00    4.757262e-01   1.359169e-02
  4.121396e+00    4.496776e-01   1.326880e-02
  4.123606e+00    5.226279e-01   1.436321e-02
  4.125817e+00    5.142389e-01   1.430742e-02
  4.128027e+00    4.941252e-01   1.408381e-02
  4.130238e+00    5.101688e-01   1.437189e-02
  4.132448e+00    5.092025e-01   1.442069e-02
  4.134659e+00    4.684127e-01   1.389057e-02
  4.136869e+00    5.003683e-01   1.442070e-02
  4.139080e+00    4.448152e-01   1.365760e-02
  4.141290e+00    4.848415e-01   1.432233e-02
  4.143500e+00    4.680471e-01   1.413677e-02
  4.145711e+00    5.163097e-01   1.491708e-02
  4.147921e+00    5.260279e-01   1.512611e-02
  4.150132e+00    5.475299e-01   1.550563e-02
  4.152342e+00    4.988201e-01   1.487175e-02
  4.154553e+00    4.829530e-01   1.470278e-02
  4.156763e+00    5.067483e-01   1.513503e-02
  4.158974e+00    5.220517e-01   1.543934e-02
  4.161184e+00    4.356001e-01   1.417290e-02
  4.163395e+00    5.016837e-01   1.528769e-02
  4.165605e+00    4.947365e-01   1.526060e-02
  4.167815e+00    4.618581e-01   1.482157e-02
  4.170026e+00    4.512282e-01   1.472732e-02
  4.172236e+00    4.785913e-01   1.524920e-02
  4.174447e+00    4.670200e-01   1.514562e-02
  4.176657e+00    4.910088e-01   1.561479e-02
  4.178868e+00    4.425798e-01   1.490864e-02
  4.181078e+00    5.068824e-01   1.604472e-02
  4.183289e+00    5.045014e-01   1.609870e-02
  4.185499e+00    4.758196e-01   1.572672e-02
  4.187710e+00    4.879374e-01   1.601887e-02
  4.189920e+00    4.508229e-01   1.549030e-02
  4.192130e+00    4.437003e-01   1.546153e-02
  4.194341e+00    4.647295e-01   1.592040e-02
  4.196551e+00    4.970717e-01   1.656968e-02
  4.198762e+00    4.472811e-01   1.581760e-02
  4.200972e+00    4.961488e-01   1.676713e-02
  4.203183e+00    3.959813e-01   1.507794e-02
  4.205393e+00    4.032816e-01   1.531733e-02
  4.207604e+00    5.238099e-01   1.757623e-02
  4.209814e+00    5.099089e-01   1.746036e-02
  4.212025e+00    4.713304e-01   1.690589e-02
  4.214235e+00    4.834224e-01   1.724257e-02
  4.216445e+00    4.814480e-01   1.733191e-02
  4.218656e+00    4.529959e-01   1.693773e-02
  4.220866e+00    5.617473e-01   1.900167e-02
  4.223077e+00    4.823137e-01   1.774231e-02
  4.225287e+00    5.071711e-01   1.833671e-02
  4.227498e+00    5.046279e-01   1.843431e-02
  4.229708e+00    5.116354e-01   1.871267e-02
  4.231919e+00    5.035588e-01   1.871808e-02
  4.234129e+00    4.808542e-01   1.844444e-02
  4.236340e+00    5.396165e-01   1.970633e-02
  4.238550e+00    4.230004e-01   1.760183e-02
  4.240761e+00    4.690968e-01   1.869959e-02
  4.242971e+00    4.974067e-01   1.943172e-02
  4.245181e+00    4.930500e-01   1.952842e-02
  4.247392e+00    4.711057e-01   1.926728e-02
  4.249602e+00    4.602346e-01   1.923285e-02
  4.251813e+00    4.149197e-01   1.844154e-02
  4.254023e+00    4.330239e-01   1.902926e-02
  4.256234e+00    4.791655e-01   2.023128e-02
  4.258444e+00    4.432390e-01   1.966175e-02
  4.260655e+00    4.753117e-01   2.058475e-02
  4.262865e+00    4.783308e-01   2.088401e-02
  4.265076e+00    5.004871e-01   2.160495e-02
  4.267286e+00    5.917268e-01   2.377073e-02
  4.269496e+00    5.253307e-01   2.267095e-02
  4.271707e+00    4.417414e-01   2.104598e-02
  4.273917e+00    4.893939e-01   2.243790e-02
  4.276128e+00    5.275244e-01   2.360567e-02
  4.278338e+00    4.296184e-01   2.158723e-02
  4.280549e+00    5.050306e-01   2.374050e-02
  4.282759e+00    4.928631e-01   2.379050e-02
  4.284970e+00    4.246963e-01   2.241045e-02
  4.287180e+00    5.428091e-01   2.563902e-02
  4.289391e+00    4.990171e-01   2.476848e-02
  4.291601e+00    4.753928e-01   2.436791e-02
  4.293811e+00    5.095904e-01   2.542655e-02
  4.296022e+00    4.827060e-01   2.494536e-02
  4.298232e+00    4.574428e-01   2.448727e-02
  4.300443e+00    5.105650e-01   2.608304e-02
  4.302653e+00    4.578623e-01   2.491549e-02
  4.304864e+00    4.393041e-01   2.461569e-02
  4.307074e+00    5.052299e-01   2.663475e-02
  4.309285e+00    4.761988e-01   2.609413e-02
  4.311495e+00    4.246767e-01   2.487265e-02
  4.313706e+00    5.546221e-01   2.869000e-02
  4.315916e+00    5.203500e-01   2.806481e-02
  4.318126e+00    4.265828e-01   2.566125e-02
  4.320337e+00    4.008012e-01   2.512522e-02
  4.322547e+00    5.284516e-01   2.915622e-02
  4.324758e+00    4.474148e-01   2.710698e-02
  4.326968e+00    4.139773e-01   2.636790e-02
  4.329179e+00    4.128990e-01   2.662392e-02
  4.331389e+00    5.206790e-01   3.024054e-02
  4.333600e+00    5.293950e-01   3.085881e-02
  4.335810e+00    4.224398e-01   2.789274e-02
  4.338021e+00    5.003660e-01   3.074547e-02
  4.340231e+00    4.462582e-01   2.940055e-02
  4.342442e+00    3.982934e-01   2.814709e-02
  4.344652e+00    5.258042e-01   3.278029e-02
  4.346862e+00    4.648862e-01   3.125396e-02
  4.349073e+00    4.805539e-01   3.224030e-02
  4.351283e+00    4.115746e-01   3.028052e-02
  4.353494e+00    5.256699e-01   3.475111e-02
  4.355704e+00    3.917975e-01   3.048393e-02
  4.357915e+00    5.054060e-01   3.520107e-02
  4.360125e+00    3.259239e-01   2.874751e-02
  4.362336e+00    4.684350e-01   3.509513e-02
  4.364546e+00    3.936913e-01   3.275913e-02
  4.366757e+00    3.962979e-01   3.352058e-02
  4.368967e+00    5.140321e-01   3.893741e-02
  4.371177e+00    5.086212e-01   3.955578e-02
  4.373388e+00    5.139521e-01   4.065152e-02
  4.375598e+00    4.797140e-01   4.017070e-02
  4.377809e+00    7.056159e-01   4.995125e-02
  4.380019e+00    3.702960e-01   3.709678e-02
  4.382230e+00    3.544669e-01   3.730748e-02
  4.384440e+00    4.523433e-01   4.335717e-02
  4.386651e+00    5.889838e-01   5.099881e-02
  4.388861e+00    6.964747e-01   5.732094e-02
  4.391072e+00    4.534722e-01   4.787834e-02
  4.393282e+00    4.317789e-01   4.852249e-02
  4.395492e+00    4.098907e-01   4.924312e-02
  4.397703e+00    4.592137e-01   5.450132e-02
  4.399913e+00    5.508899e-01   6.271830e-02
  4.402124e+00    3.626148e-01   5.377010e-02
  4.404334e+00    4.964570e-01   6.687826e-02
  4.406545e+00    3.391142e-01   5.938555e-02
  4.408755e+00    6.074754e-01   8.620219e-02
  4.410966e+00    5.866038e-01   9.375235e-02
  4.413176e+00    3.560964e-01   8.268318e-02
  4.415387e+00   -6.723483e-01            nan
  4.417597e+00   -1.916099e+00            nan
  4.419807e+00   -3.766224e-01            nan
