# == pyFAI calibration ==
# Distance Sample to Detector: 0.216 m
# PONI: 1.166e-01, 1.308e-01 m
# Rotations: 0.000000 0.000000 0.000000 rad
# 
# == Fit2d calibration ==
# Distance Sample-beamCenter: 216.000 mm
# Center: x=1744.293, y=1555.000 pix
# Tilt: 0.000 deg  TiltPlanRot: 0.000 deg
# 
# Detector Eiger 9M	 PixelSize= 7.500e-05, 7.500e-05 m
#    Detector has a mask: True 
#    Detector has a dark current: False 
#    detector has a flat field: False 
# 
# Wavelength: 9.8e-11 m
# Mask applied: from detector
# Dark current applied: False
# Flat field applied: False
# Polarization factor: None
# Normalization factor: 1.0
# 
# Headers of the input frame:
# {
# "_array_data.header_convention": "SLS_1.0",
# "_array_data.header_contents": "# Detector: Dectris Eiger 9M, S/N E-18-0102\r\n# Pixel_size 75e-6 m x 75e-6 m\r\n# Silicon sensor, thickness 0.000450 m\r\n# Exposure_time 0.024997 s\r\n# Exposure_period 0.025000 s\r\n# Count_cutoff 62318 counts\r\n# Wavelength 0.980106 A\r\n# Detector_distance 0.215992 m\r\n# Beam_xy (1555, 1744) pixels\r\n# Start_angle 0.000000 deg.\r\n# Angle_increment 0.000000 deg.",
# "Content-Type": "application/octet-stream;",
# "conversions": "x-CBF_BYTE_OFFSET",
# "Content-Transfer-Encoding": "BINARY",
# "X-Binary-Size": "10166596",
# "X-Binary-ID": "1",
# "X-Binary-Element-Type": "signed 32-bit integer",
# "X-Binary-Element-Byte-Order": "LITTLE_ENDIAN",
# "Content-MD5": "NC2Ag7Fxa+csOtbb1Qriig==",
# "X-Binary-Number-of-Elements": "10166590",
# "X-Binary-Size-Fastest-Dimension": "3110",
# "X-Binary-Size-Second-Dimension": "3269",
# "X-Binary-Size-Padding": "4095"
# }
# --> H:/Proxima2a_2019-04-05/RAW_DATA/C5_gel17_position5/C5_mesh_1_data.cbf/C5_mesh_1_data.cbf000158.dat
#        q_A^-1              I           sigma 
  1.105228e-03    1.199368e+00   5.926021e-01
  3.315685e-03    1.464570e+00   3.981076e-01
  5.526141e-03    1.529214e+00   3.145620e-01
  7.736597e-03    1.204451e+00   2.358385e-01
  9.947054e-03    1.219294e+00   2.091851e-01
  1.215751e-02    1.331756e+00   1.976883e-01
  1.436797e-02    1.438569e+00   1.889910e-01
  1.657842e-02    1.485797e+00   1.787822e-01
  1.878888e-02    1.426979e+00   1.645782e-01
  2.099934e-02    1.553630e+00   1.624710e-01
  2.320979e-02    1.363505e+00   1.447642e-01
  2.542025e-02    1.393442e+00   1.398472e-01
  2.763070e-02    1.614208e+00   1.443677e-01
  2.984116e-02    1.539198e+00   1.356512e-01
  3.205162e-02    1.547212e+00   1.312385e-01
  3.426207e-02    1.421529e+00   1.216614e-01
  3.647253e-02    1.440532e+00   1.187001e-01
  3.868299e-02    1.449171e+00   1.156127e-01
  4.089344e-02    1.579136e+00   1.173790e-01
  4.310390e-02    1.545070e+00   1.130832e-01
  4.531436e-02    1.319005e+00   1.019035e-01
  4.752481e-02    1.388700e+00   1.020994e-01
  4.973527e-02    1.494393e+00   1.035343e-01
  5.194572e-02    1.425575e+00   9.894595e-02
  5.415618e-02    1.443684e+00   9.751576e-02
  5.636664e-02    1.501968e+00   9.749798e-02
  5.857709e-02    1.393714e+00   9.213007e-02
  6.078755e-02    1.361159e+00   8.937413e-02
  6.299801e-02    1.403739e+00   8.915377e-02
  6.520846e-02    1.435299e+00   8.860983e-02
  6.741892e-02    1.397856e+00   8.599658e-02
  6.962938e-02    1.387912e+00   8.432323e-02
  7.183983e-02    1.392454e+00   8.315006e-02
  7.405029e-02    1.455760e+00   8.373867e-02
  7.626074e-02    1.428913e+00   8.175103e-02
  7.847120e-02    1.454713e+00   8.131350e-02
  8.068166e-02    1.517805e+00   8.191175e-02
  8.289211e-02    1.552525e+00   8.173086e-02
  8.510257e-02    1.525566e+00   7.995854e-02
  8.731303e-02    1.526326e+00   7.895660e-02
  8.952348e-02    1.474560e+00   7.664412e-02
  9.173394e-02    1.530630e+00   7.713809e-02
  9.394439e-02    1.455094e+00   7.431816e-02
  9.615485e-02    1.563740e+00   7.615034e-02
  9.836531e-02    1.481504e+00   7.328142e-02
  1.005758e-01    1.525303e+00   7.353558e-02
  1.027862e-01    1.483853e+00   7.174362e-02
  1.049967e-01    1.482421e+00   7.094891e-02
  1.072071e-01    1.529035e+00   7.130820e-02
  1.094176e-01    1.501109e+00   6.993563e-02
  1.116280e-01    1.499474e+00   6.920049e-02
  1.138385e-01    1.568372e+00   7.008060e-02
  1.160490e-01    1.548226e+00   6.896190e-02
  1.182594e-01    1.572973e+00   6.885666e-02
  1.204699e-01    1.655298e+00   6.998399e-02
  1.226803e-01    1.617818e+00   6.855819e-02
  1.248908e-01    1.624565e+00   6.808949e-02
  1.271012e-01    1.723335e+00   6.951493e-02
  1.293117e-01    1.703292e+00   6.851543e-02
  1.315222e-01    1.661969e+00   6.710652e-02
  1.337326e-01    1.627746e+00   6.585958e-02
  1.359431e-01    1.597396e+00   6.528091e-02
  1.381535e-01    1.617075e+00   6.656342e-02
  1.403640e-01    1.578798e+00   6.605488e-02
  1.425744e-01    1.642762e+00   6.748731e-02
  1.447849e-01    1.576610e+00   6.612978e-02
  1.469953e-01    1.524229e+00   6.498124e-02
  1.492058e-01    1.572026e+00   6.591552e-02
  1.514163e-01    1.537370e+00   6.507666e-02
  1.536267e-01    1.531693e+00   6.482958e-02
  1.558372e-01    1.508907e+00   6.420351e-02
  1.580476e-01    1.596332e+00   6.587701e-02
  1.602581e-01    1.690116e+00   6.761237e-02
  1.624685e-01    1.635750e+00   6.633396e-02
  1.646790e-01    1.609928e+00   6.561930e-02
  1.668895e-01    1.685954e+00   6.695687e-02
  1.690999e-01    1.676850e+00   6.657533e-02
  1.713104e-01    1.732361e+00   6.745834e-02
  1.735208e-01    1.754057e+00   6.766837e-02
  1.757313e-01    1.789764e+00   6.813943e-02
  1.779417e-01    1.866341e+00   6.935492e-02
  1.801522e-01    1.956115e+00   7.077724e-02
  1.823626e-01    1.888400e+00   6.930991e-02
  1.845731e-01    1.884996e+00   6.902307e-02
  1.867836e-01    2.034123e+00   7.145943e-02
  1.889940e-01    2.061606e+00   7.170551e-02
  1.912045e-01    2.005393e+00   7.048499e-02
  1.934149e-01    1.900312e+00   6.838384e-02
  1.956254e-01    1.875640e+00   6.771436e-02
  1.978358e-01    1.894611e+00   6.782276e-02
  2.000463e-01    1.854161e+00   6.687247e-02
  2.022568e-01    1.936239e+00   6.811226e-02
  2.044672e-01    2.005565e+00   6.908346e-02
  2.066777e-01    1.981583e+00   6.844122e-02
  2.088881e-01    2.032818e+00   6.909359e-02
  2.110986e-01    2.037847e+00   6.894177e-02
  2.133090e-01    2.051799e+00   6.895249e-02
  2.155195e-01    2.005187e+00   6.793867e-02
  2.177300e-01    1.938587e+00   6.627610e-02
  2.199404e-01    1.926984e+00   6.433631e-02
  2.221509e-01    1.936808e+00   6.344098e-02
  2.243613e-01    2.023319e+00   6.402032e-02
  2.265718e-01    2.037541e+00   6.353684e-02
  2.287822e-01    2.077021e+00   6.351448e-02
  2.309927e-01    2.070006e+00   6.282952e-02
  2.332031e-01    2.094117e+00   6.265350e-02
  2.354136e-01    2.149463e+00   6.296158e-02
  2.376241e-01    2.125278e+00   6.212042e-02
  2.398345e-01    2.182353e+00   6.248315e-02
  2.420450e-01    2.141588e+00   6.145449e-02
  2.442554e-01    2.098200e+00   6.040970e-02
  2.464659e-01    2.125839e+00   6.039803e-02
  2.486763e-01    2.180379e+00   6.076584e-02
  2.508868e-01    2.174185e+00   6.029667e-02
  2.530973e-01    2.155167e+00   5.966021e-02
  2.553077e-01    2.105654e+00   5.861319e-02
  2.575182e-01    2.090351e+00   5.805429e-02
  2.597286e-01    2.066803e+00   5.739081e-02
  2.619391e-01    2.159082e+00   5.832029e-02
  2.641495e-01    2.181308e+00   5.829528e-02
  2.663600e-01    2.110647e+00   5.702797e-02
  2.685704e-01    2.041034e+00   5.577564e-02
  2.707809e-01    2.017045e+00   5.515258e-02
  2.729914e-01    2.045879e+00   5.525593e-02
  2.752018e-01    2.053267e+00   5.506748e-02
  2.774123e-01    2.002437e+00   5.410384e-02
  2.796227e-01    2.006995e+00   5.389741e-02
  2.818332e-01    2.027329e+00   5.389955e-02
  2.840436e-01    1.989408e+00   5.313426e-02
  2.862541e-01    1.969006e+00   5.260698e-02
  2.884646e-01    2.003290e+00   5.281117e-02
  2.906750e-01    2.000912e+00   5.252956e-02
  2.928855e-01    2.048536e+00   5.290475e-02
  2.950959e-01    1.926674e+00   5.107137e-02
  2.973064e-01    1.927866e+00   5.085754e-02
  2.995168e-01    1.918571e+00   5.050501e-02
  3.017273e-01    1.971358e+00   5.096937e-02
  3.039377e-01    1.959400e+00   5.059205e-02
  3.061482e-01    1.990886e+00   5.077633e-02
  3.083587e-01    1.858200e+00   4.884279e-02
  3.105691e-01    1.848592e+00   4.850825e-02
  3.127796e-01    1.877025e+00   4.867438e-02
  3.149900e-01    1.886546e+00   4.859435e-02
  3.172005e-01    1.900739e+00   4.857736e-02
  3.194109e-01    1.900870e+00   4.837848e-02
  3.216214e-01    1.880534e+00   4.792268e-02
  3.238319e-01    1.865367e+00   4.753990e-02
  3.260423e-01    1.932486e+00   4.819492e-02
  3.282528e-01    1.927918e+00   4.794626e-02
  3.304632e-01    1.910559e+00   4.754506e-02
  3.326737e-01    1.837847e+00   4.644956e-02
  3.348841e-01    1.896218e+00   4.699847e-02
  3.370946e-01    1.882219e+00   4.664851e-02
  3.393050e-01    1.906227e+00   4.676723e-02
  3.415155e-01    1.874867e+00   4.620657e-02
  3.437260e-01    1.864915e+00   4.591296e-02
  3.459364e-01    1.830899e+00   4.532402e-02
  3.481469e-01    1.817932e+00   4.499839e-02
  3.503573e-01    1.790697e+00   4.449734e-02
  3.525678e-01    1.788410e+00   4.431046e-02
  3.547782e-01    1.900678e+00   4.551496e-02
  3.569887e-01    1.866368e+00   4.494251e-02
  3.591992e-01    1.851988e+00   4.461061e-02
  3.614096e-01    1.821531e+00   4.408888e-02
  3.636201e-01    1.856839e+00   4.435768e-02
  3.658305e-01    1.848693e+00   4.410932e-02
  3.680410e-01    1.833420e+00   4.377566e-02
  3.702514e-01    1.854215e+00   4.387514e-02
  3.724619e-01    1.812303e+00   4.322875e-02
  3.746724e-01    1.794301e+00   4.286999e-02
  3.768828e-01    1.864849e+00   4.355758e-02
  3.790933e-01    1.855534e+00   4.330708e-02
  3.813037e-01    1.849032e+00   4.308969e-02
  3.835142e-01    1.797355e+00   4.234377e-02
  3.857246e-01    1.802775e+00   4.227031e-02
  3.879351e-01    1.802855e+00   4.213442e-02
  3.901455e-01    1.825464e+00   4.226283e-02
  3.923560e-01    1.799936e+00   4.183289e-02
  3.945665e-01    1.792203e+00   4.161056e-02
  3.967769e-01    1.806746e+00   4.164820e-02
  3.989874e-01    1.848166e+00   4.199137e-02
  4.011978e-01    1.847769e+00   4.185773e-02
  4.034083e-01    1.857920e+00   4.184371e-02
  4.056187e-01    1.829513e+00   4.139466e-02
  4.078292e-01    1.810479e+00   4.105416e-02
  4.100397e-01    1.806407e+00   4.088276e-02
  4.122501e-01    1.761529e+00   4.025093e-02
  4.144606e-01    1.838153e+00   4.099512e-02
  4.166710e-01    1.812376e+00   4.058563e-02
  4.188815e-01    1.828354e+00   4.064371e-02
  4.210919e-01    1.827319e+00   4.051314e-02
  4.233024e-01    1.786804e+00   3.994367e-02
  4.255128e-01    1.794283e+00   3.991146e-02
  4.277233e-01    1.860362e+00   4.052297e-02
  4.299338e-01    1.811626e+00   3.987362e-02
  4.321442e-01    1.764751e+00   3.924173e-02
  4.343547e-01    1.784197e+00   3.934580e-02
  4.365651e-01    1.713710e+00   3.845120e-02
  4.387756e-01    1.718889e+00   3.840141e-02
  4.409860e-01    1.745587e+00   3.859130e-02
  4.431965e-01    1.743047e+00   3.845656e-02
  4.454070e-01    1.803286e+00   3.900662e-02
  4.476174e-01    1.786998e+00   3.872345e-02
  4.498279e-01    1.784153e+00   3.858734e-02
  4.520383e-01    1.770039e+00   3.832894e-02
  4.542488e-01    1.751566e+00   3.802557e-02
  4.564592e-01    1.766009e+00   3.807960e-02
  4.586697e-01    1.733114e+00   3.762317e-02
  4.608801e-01    1.723874e+00   3.742222e-02
  4.630906e-01    1.735200e+00   3.744556e-02
  4.653011e-01    1.719218e+00   3.717467e-02
  4.675115e-01    1.755853e+00   3.746973e-02
  4.697220e-01    1.761338e+00   3.742997e-02
  4.719324e-01    1.735479e+00   3.705808e-02
  4.741429e-01    1.740460e+00   3.701559e-02
  4.763533e-01    1.720211e+00   3.670530e-02
  4.785638e-01    1.700276e+00   3.639774e-02
  4.807743e-01    1.715783e+00   3.647033e-02
  4.829847e-01    1.744557e+00   3.668198e-02
  4.851952e-01    1.706680e+00   3.618977e-02
  4.874056e-01    1.682813e+00   3.584522e-02
  4.896161e-01    1.710189e+00   3.604598e-02
  4.918265e-01    1.795969e+00   3.684720e-02
  4.940370e-01    1.702221e+00   3.578408e-02
  4.962475e-01    1.651718e+00   3.516219e-02
  4.984579e-01    1.671438e+00   3.528426e-02
  5.006684e-01    1.707466e+00   3.557558e-02
  5.028788e-01    1.702009e+00   3.543263e-02
  5.050893e-01    1.692656e+00   3.524918e-02
  5.072997e-01    1.717054e+00   3.541658e-02
  5.095102e-01    1.673854e+00   3.488448e-02
  5.117206e-01    1.662330e+00   3.468148e-02
  5.139311e-01    1.717796e+00   3.517193e-02
  5.161416e-01    1.718544e+00   3.509644e-02
  5.183520e-01    1.706497e+00   3.489010e-02
  5.205625e-01    1.684326e+00   3.458151e-02
  5.227729e-01    1.632387e+00   3.396476e-02
  5.249834e-01    1.690311e+00   3.448182e-02
  5.271938e-01    1.745337e+00   3.495689e-02
  5.294043e-01    1.733535e+00   3.475806e-02
  5.316148e-01    1.767363e+00   3.501519e-02
  5.338252e-01    1.758142e+00   3.484392e-02
  5.360357e-01    1.713653e+00   3.432192e-02
  5.382461e-01    1.743774e+00   3.454398e-02
  5.404566e-01    1.688486e+00   3.391460e-02
  5.426670e-01    1.729054e+00   3.424225e-02
  5.448775e-01    1.750243e+00   3.437447e-02
  5.470879e-01    1.765678e+00   3.444871e-02
  5.492984e-01    1.770200e+00   3.441609e-02
  5.515089e-01    1.777264e+00   3.440821e-02
  5.537193e-01    1.791812e+00   3.447263e-02
  5.559298e-01    1.815387e+00   3.462257e-02
  5.581402e-01    1.798857e+00   3.438928e-02
  5.603507e-01    1.784176e+00   3.417413e-02
  5.625611e-01    1.773687e+00   3.399957e-02
  5.647716e-01    1.773969e+00   3.392846e-02
  5.669821e-01    1.775663e+00   3.387147e-02
  5.691925e-01    1.785867e+00   3.389573e-02
  5.714030e-01    1.778496e+00   3.375360e-02
  5.736134e-01    1.750386e+00   3.341458e-02
  5.758239e-01    1.743086e+00   3.327364e-02
  5.780343e-01    1.742469e+00   3.319738e-02
  5.802448e-01    1.718215e+00   3.289653e-02
  5.824552e-01    1.685969e+00   3.251800e-02
  5.846657e-01    1.651626e+00   3.211800e-02
  5.868762e-01    1.661747e+00   3.214920e-02
  5.890866e-01    1.637654e+00   3.184908e-02
  5.912971e-01    1.670771e+00   3.210286e-02
  5.935075e-01    1.682181e+00   3.214575e-02
  5.957180e-01    1.644580e+00   3.171924e-02
  5.979284e-01    1.644994e+00   3.165847e-02
  6.001389e-01    1.659712e+00   3.173501e-02
  6.023494e-01    1.659066e+00   3.166443e-02
  6.045598e-01    1.662651e+00   3.163407e-02
  6.067703e-01    1.699072e+00   3.191438e-02
  6.089807e-01    1.678331e+00   3.165520e-02
  6.111912e-01    1.706183e+00   3.185306e-02
  6.134016e-01    1.691932e+00   3.165649e-02
  6.156121e-01    1.690648e+00   3.158157e-02
  6.178226e-01    1.673416e+00   3.135800e-02
  6.200330e-01    1.667667e+00   3.124233e-02
  6.222435e-01    1.737562e+00   3.182714e-02
  6.244539e-01    1.761052e+00   3.197883e-02
  6.266644e-01    1.741165e+00   3.173573e-02
  6.288748e-01    1.758161e+00   3.182817e-02
  6.310853e-01    1.741096e+00   3.161185e-02
  6.332957e-01    1.717336e+00   3.133478e-02
  6.355062e-01    1.753245e+00   3.159918e-02
  6.377167e-01    1.788881e+00   3.185746e-02
  6.399271e-01    1.756431e+00   3.150671e-02
  6.421376e-01    1.690003e+00   3.084620e-02
  6.443480e-01    1.685324e+00   3.074486e-02
  6.465585e-01    1.692753e+00   3.075418e-02
  6.487689e-01    1.721719e+00   3.095760e-02
  6.509794e-01    1.762801e+00   3.126571e-02
  6.531899e-01    1.697424e+00   3.062277e-02
  6.554003e-01    1.672766e+00   3.034237e-02
  6.576108e-01    1.651737e+00   3.009490e-02
  6.598212e-01    1.627973e+00   2.982211e-02
  6.620317e-01    1.615031e+00   2.964828e-02
  6.642421e-01    1.616382e+00   2.960581e-02
  6.664526e-01    1.622706e+00   2.960900e-02
  6.686630e-01    1.614852e+00   2.948265e-02
  6.708735e-01    1.648068e+00   2.972968e-02
  6.730840e-01    1.622681e+00   2.944606e-02
  6.752944e-01    1.600568e+00   2.919152e-02
  6.775049e-01    1.600471e+00   2.913765e-02
  6.797153e-01    1.596387e+00   2.904774e-02
  6.819258e-01    1.613402e+00   2.914948e-02
  6.841362e-01    1.646589e+00   2.939478e-02
  6.863467e-01    1.647608e+00   2.935122e-02
  6.885572e-01    1.617903e+00   2.903331e-02
  6.907676e-01    1.619773e+00   2.899802e-02
  6.929781e-01    1.622076e+00   2.896705e-02
  6.951885e-01    1.642525e+00   2.909745e-02
  6.973990e-01    1.615157e+00   2.880301e-02
  6.996094e-01    1.586890e+00   2.849963e-02
  7.018199e-01    1.599256e+00   2.856022e-02
  7.040303e-01    1.613463e+00   2.863643e-02
  7.062408e-01    1.574465e+00   2.823867e-02
  7.084513e-01    1.612314e+00   2.852637e-02
  7.106617e-01    1.619279e+00   2.853824e-02
  7.128722e-01    1.584398e+00   2.818036e-02
  7.150826e-01    1.588020e+00   2.816394e-02
  7.172931e-01    1.562358e+00   2.788727e-02
  7.195035e-01    1.565876e+00   2.787065e-02
  7.217140e-01    1.596466e+00   2.819137e-02
  7.239245e-01    1.584531e+00   2.831324e-02
  7.261349e-01    1.608681e+00   2.863796e-02
  7.283454e-01    1.620204e+00   2.881380e-02
  7.305558e-01    1.612619e+00   2.880090e-02
  7.327663e-01    1.588825e+00   2.863033e-02
  7.349767e-01    1.618989e+00   2.891742e-02
  7.371872e-01    1.599323e+00   2.873001e-02
  7.393976e-01    1.566498e+00   2.841939e-02
  7.416081e-01    1.627627e+00   2.895217e-02
  7.438186e-01    1.578572e+00   2.836804e-02
  7.460290e-01    1.589671e+00   2.817194e-02
  7.482395e-01    1.590971e+00   2.801141e-02
  7.504499e-01    1.591338e+00   2.787765e-02
  7.526604e-01    1.577765e+00   2.764184e-02
  7.548708e-01    1.590188e+00   2.766057e-02
  7.570813e-01    1.612494e+00   2.780234e-02
  7.592918e-01    1.572845e+00   2.742325e-02
  7.615022e-01    1.548795e+00   2.717925e-02
  7.637127e-01    1.560555e+00   2.724959e-02
  7.659231e-01    1.585897e+00   2.743784e-02
  7.681336e-01    1.594017e+00   2.747622e-02
  7.703440e-01    1.608403e+00   2.756836e-02
  7.725545e-01    1.598422e+00   2.745157e-02
  7.747650e-01    1.655654e+00   2.789954e-02
  7.769754e-01    1.642382e+00   2.773370e-02
  7.791859e-01    1.564573e+00   2.701547e-02
  7.813963e-01    1.593236e+00   2.720895e-02
  7.836068e-01    1.606971e+00   2.727364e-02
  7.858172e-01    1.603615e+00   2.719420e-02
  7.880277e-01    1.656155e+00   2.758350e-02
  7.902381e-01    1.701189e+00   2.790525e-02
  7.924486e-01    1.654924e+00   2.747220e-02
  7.946591e-01    1.636667e+00   2.727141e-02
  7.968695e-01    1.639429e+00   2.724555e-02
  7.990800e-01    1.667317e+00   2.742722e-02
  8.012904e-01    1.633577e+00   2.710134e-02
  8.035009e-01    1.642821e+00   2.712953e-02
  8.057113e-01    1.684402e+00   2.742323e-02
  8.079218e-01    1.666078e+00   2.722659e-02
  8.101323e-01    1.689565e+00   2.737127e-02
  8.123427e-01    1.660881e+00   2.709167e-02
  8.145532e-01    1.689427e+00   2.727672e-02
  8.167636e-01    1.752568e+00   2.773507e-02
  8.189741e-01    1.742927e+00   2.761258e-02
  8.211845e-01    1.721566e+00   2.739685e-02
  8.233950e-01    1.669239e+00   2.693342e-02
  8.256054e-01    1.619872e+00   2.648818e-02
  8.278159e-01    1.658561e+00   2.675838e-02
  8.300264e-01    1.689246e+00   2.696102e-02
  8.322368e-01    1.675332e+00   2.680616e-02
  8.344473e-01    1.681560e+00   2.681200e-02
  8.366577e-01    1.651176e+00   2.652593e-02
  8.388682e-01    1.651245e+00   2.648408e-02
  8.410786e-01    1.650735e+00   2.643778e-02
  8.432891e-01    1.643932e+00   2.634133e-02
  8.454996e-01    1.661573e+00   2.644037e-02
  8.477100e-01    1.684732e+00   2.658175e-02
  8.499205e-01    1.701604e+00   2.667256e-02
  8.521309e-01    1.759157e+00   2.707760e-02
  8.543414e-01    1.757667e+00   2.702391e-02
  8.565518e-01    1.710766e+00   2.661943e-02
  8.587623e-01    1.655275e+00   2.614337e-02
  8.609727e-01    1.622129e+00   2.584017e-02
  8.631832e-01    1.654633e+00   2.605752e-02
  8.653937e-01    1.656882e+00   2.603517e-02
  8.676041e-01    1.645308e+00   2.590493e-02
  8.698146e-01    1.599043e+00   2.549910e-02
  8.720250e-01    1.595932e+00   2.543542e-02
  8.742355e-01    1.629219e+00   2.566019e-02
  8.764459e-01    1.657799e+00   2.584481e-02
  8.786564e-01    1.625997e+00   2.555757e-02
  8.808669e-01    1.599364e+00   2.530896e-02
  8.830773e-01    1.621327e+00   2.544376e-02
  8.852878e-01    1.645812e+00   2.559675e-02
  8.874982e-01    1.596031e+00   2.517009e-02
  8.897087e-01    1.599382e+00   2.515882e-02
  8.919191e-01    1.581546e+00   2.498062e-02
  8.941296e-01    1.592505e+00   2.502982e-02
  8.963401e-01    1.588848e+00   2.496476e-02
  8.985505e-01    1.585468e+00   2.490141e-02
  9.007610e-01    1.585474e+00   2.486488e-02
  9.029714e-01    1.611081e+00   2.502890e-02
  9.051819e-01    1.596168e+00   2.487562e-02
  9.073923e-01    1.588217e+00   2.477715e-02
  9.096028e-01    1.583227e+00   2.470347e-02
  9.118132e-01    1.570130e+00   2.456518e-02
  9.140237e-01    1.621691e+00   2.492839e-02
  9.162342e-01    1.640038e+00   2.503405e-02
  9.184446e-01    1.600537e+00   2.469497e-02
  9.206551e-01    1.630419e+00   2.488847e-02
  9.228655e-01    1.682227e+00   2.524469e-02
  9.250760e-01    1.644787e+00   2.492637e-02
  9.272864e-01    1.644163e+00   2.488694e-02
  9.294969e-01    1.615074e+00   2.462985e-02
  9.317074e-01    1.621419e+00   2.464329e-02
  9.339178e-01    1.648063e+00   2.481103e-02
  9.361283e-01    1.643185e+00   2.473775e-02
  9.383387e-01    1.637597e+00   2.466208e-02
  9.405492e-01    1.616518e+00   2.446860e-02
  9.427596e-01    1.627835e+00   2.451877e-02
  9.449701e-01    1.663795e+00   2.475442e-02
  9.471805e-01    1.668612e+00   2.475511e-02
  9.493910e-01    1.691697e+00   2.489156e-02
  9.516015e-01    1.708469e+00   2.497972e-02
  9.538119e-01    1.734885e+00   2.513760e-02
  9.560224e-01    1.758766e+00   2.527440e-02
  9.582328e-01    1.792030e+00   2.547806e-02
  9.604433e-01    1.783080e+00   2.537838e-02
  9.626537e-01    1.764018e+00   2.520842e-02
  9.648642e-01    1.763422e+00   2.516963e-02
  9.670747e-01    1.803763e+00   2.542079e-02
  9.692851e-01    1.832778e+00   2.559040e-02
  9.714956e-01    1.821608e+00   2.547630e-02
  9.737060e-01    1.869365e+00   2.577421e-02
  9.759165e-01    1.848532e+00   2.559404e-02
  9.781269e-01    1.845168e+00   2.553729e-02
  9.803374e-01    1.828856e+00   2.538901e-02
  9.825478e-01    1.816198e+00   2.526761e-02
  9.847583e-01    1.812920e+00   2.521052e-02
  9.869688e-01    1.798376e+00   2.507558e-02
  9.891792e-01    1.784882e+00   2.494812e-02
  9.913897e-01    1.844607e+00   2.532786e-02
  9.936001e-01    1.817697e+00   2.510954e-02
  9.958106e-01    1.772789e+00   2.476372e-02
  9.980210e-01    1.684883e+00   2.411062e-02
  1.000231e+00    1.630959e+00   2.385159e-02
  1.002442e+00    1.627516e+00   2.395298e-02
  1.004652e+00    1.679432e+00   2.439990e-02
  1.006863e+00    1.641949e+00   2.417616e-02
  1.009073e+00    1.589962e+00   2.382675e-02
  1.011284e+00    1.631361e+00   2.416721e-02
  1.013494e+00    1.667898e+00   2.446058e-02
  1.015705e+00    1.677691e+00   2.455547e-02
  1.017915e+00    1.670287e+00   2.451812e-02
  1.020126e+00    1.641790e+00   2.432451e-02
  1.022336e+00    1.604440e+00   2.405807e-02
  1.024547e+00    1.567542e+00   2.379111e-02
  1.026757e+00    1.541841e+00   2.360361e-02
  1.028967e+00    1.540105e+00   2.359798e-02
  1.031178e+00    1.590045e+00   2.398380e-02
  1.033388e+00    1.569130e+00   2.383068e-02
  1.035599e+00    1.553872e+00   2.371796e-02
  1.037809e+00    1.556572e+00   2.374185e-02
  1.040020e+00    1.552713e+00   2.371370e-02
  1.042230e+00    1.532369e+00   2.355978e-02
  1.044441e+00    1.519787e+00   2.346265e-02
  1.046651e+00    1.485617e+00   2.319753e-02
  1.048862e+00    1.542507e+00   2.363673e-02
  1.051072e+00    1.583309e+00   2.394487e-02
  1.053282e+00    1.627430e+00   2.427523e-02
  1.055493e+00    1.625805e+00   2.425862e-02
  1.057703e+00    1.616881e+00   2.419038e-02
  1.059914e+00    1.683506e+00   2.467917e-02
  1.062124e+00    1.786987e+00   2.542192e-02
  1.064335e+00    1.744324e+00   2.511295e-02
  1.066545e+00    1.602953e+00   2.406757e-02
  1.068756e+00    1.540781e+00   2.359236e-02
  1.070966e+00    1.544198e+00   2.361183e-02
  1.073177e+00    1.526808e+00   2.347233e-02
  1.075387e+00    1.477700e+00   2.308654e-02
  1.077597e+00    1.471542e+00   2.303111e-02
  1.079808e+00    1.466597e+00   2.285951e-02
  1.082018e+00    1.494201e+00   2.288257e-02
  1.084229e+00    1.466057e+00   2.255581e-02
  1.086439e+00    1.445370e+00   2.230893e-02
  1.088650e+00    1.480342e+00   2.250088e-02
  1.090860e+00    1.485333e+00   2.247043e-02
  1.093071e+00    1.460106e+00   2.221643e-02
  1.095281e+00    1.432734e+00   2.195020e-02
  1.097492e+00    1.434912e+00   2.191216e-02
  1.099702e+00    1.441801e+00   2.191328e-02
  1.101912e+00    1.458889e+00   2.199359e-02
  1.104123e+00    1.409728e+00   2.157206e-02
  1.106333e+00    1.436033e+00   2.172790e-02
  1.108544e+00    1.440234e+00   2.171527e-02
  1.110754e+00    1.435904e+00   2.163943e-02
  1.112965e+00    1.439502e+00   2.162573e-02
  1.115175e+00    1.422899e+00   2.145947e-02
  1.117386e+00    1.398711e+00   2.123722e-02
  1.119596e+00    1.414403e+00   2.131812e-02
  1.121807e+00    1.439138e+00   2.146450e-02
  1.124017e+00    1.443521e+00   2.146005e-02
  1.126228e+00    1.423611e+00   2.127554e-02
  1.128438e+00    1.409600e+00   2.113372e-02
  1.130648e+00    1.392635e+00   2.097191e-02
  1.132859e+00    1.417890e+00   2.112658e-02
  1.135069e+00    1.416545e+00   2.108156e-02
  1.137280e+00    1.391692e+00   2.086278e-02
  1.139490e+00    1.405764e+00   2.093470e-02
  1.141701e+00    1.397725e+00   2.084149e-02
  1.143911e+00    1.374483e+00   2.063571e-02
  1.146122e+00    1.394397e+00   2.075250e-02
  1.148332e+00    1.379434e+00   2.060899e-02
  1.150543e+00    1.374707e+00   2.054282e-02
  1.152753e+00    1.400664e+00   2.070476e-02
  1.154963e+00    1.365614e+00   2.041311e-02
  1.157174e+00    1.343325e+00   2.021600e-02
  1.159384e+00    1.352863e+00   2.025799e-02
  1.161595e+00    1.379985e+00   2.043010e-02
  1.163805e+00    1.396124e+00   2.051968e-02
  1.166016e+00    1.404902e+00   2.055425e-02
  1.168226e+00    1.440759e+00   2.078517e-02
  1.170437e+00    1.418396e+00   2.059407e-02
  1.172647e+00    1.392307e+00   2.037460e-02
  1.174858e+00    1.404688e+00   2.043649e-02
  1.177068e+00    1.394707e+00   2.033517e-02
  1.179278e+00    1.430064e+00   2.056201e-02
  1.181489e+00    1.461037e+00   2.075551e-02
  1.183699e+00    1.446858e+00   2.062611e-02
  1.185910e+00    1.396980e+00   2.023930e-02
  1.188120e+00    1.370491e+00   2.001966e-02
  1.190331e+00    1.363230e+00   1.993971e-02
  1.192541e+00    1.356095e+00   1.986007e-02
  1.194752e+00    1.375119e+00   1.997162e-02
  1.196962e+00    1.348007e+00   1.974806e-02
  1.199173e+00    1.379718e+00   1.995218e-02
  1.201383e+00    1.384133e+00   1.995659e-02
  1.203593e+00    1.353660e+00   1.971085e-02
  1.205804e+00    1.329361e+00   1.950739e-02
  1.208014e+00    1.364331e+00   1.973531e-02
  1.210225e+00    1.346157e+00   1.957815e-02
  1.212435e+00    1.328554e+00   1.942513e-02
  1.214646e+00    1.335415e+00   1.944924e-02
  1.216856e+00    1.343687e+00   1.948398e-02
  1.219067e+00    1.323824e+00   1.931520e-02
  1.221277e+00    1.357110e+00   1.953143e-02
  1.223488e+00    1.349290e+00   1.944934e-02
  1.225698e+00    1.356988e+00   1.947777e-02
  1.227909e+00    1.344778e+00   1.935985e-02
  1.230119e+00    1.328406e+00   1.921003e-02
  1.232329e+00    1.344566e+00   1.929586e-02
  1.234540e+00    1.343052e+00   1.925478e-02
  1.236750e+00    1.351830e+00   1.928732e-02
  1.238961e+00    1.333645e+00   1.913035e-02
  1.241171e+00    1.338249e+00   1.913927e-02
  1.243382e+00    1.381310e+00   1.942093e-02
  1.245592e+00    1.464131e+00   1.996961e-02
  1.247803e+00    1.430934e+00   1.971759e-02
  1.250013e+00    1.400471e+00   1.948258e-02
  1.252224e+00    1.405712e+00   1.949529e-02
  1.254434e+00    1.370142e+00   1.922313e-02
  1.256644e+00    1.358165e+00   1.911567e-02
  1.258855e+00    1.319395e+00   1.881784e-02
  1.261065e+00    1.350848e+00   1.901742e-02
  1.263276e+00    1.371047e+00   1.913596e-02
  1.265486e+00    1.361245e+00   1.904448e-02
  1.267697e+00    1.335676e+00   1.884186e-02
  1.269907e+00    1.360001e+00   1.898988e-02
  1.272118e+00    1.351439e+00   1.890743e-02
  1.274328e+00    1.355707e+00   1.891446e-02
  1.276539e+00    1.403574e+00   1.922224e-02
  1.278749e+00    1.408020e+00   1.922991e-02
  1.280959e+00    1.423897e+00   1.931490e-02
  1.283170e+00    1.413407e+00   1.922067e-02
  1.285380e+00    1.370326e+00   1.890286e-02
  1.287591e+00    1.347982e+00   1.872609e-02
  1.289801e+00    1.363305e+00   1.881089e-02
  1.292012e+00    1.375063e+00   1.887459e-02
  1.294222e+00    1.359316e+00   1.874989e-02
  1.296433e+00    1.392725e+00   1.896308e-02
  1.298643e+00    1.366306e+00   1.876580e-02
  1.300854e+00    1.360816e+00   1.871156e-02
  1.303064e+00    1.359112e+00   1.868057e-02
  1.305274e+00    1.351494e+00   1.860667e-02
  1.307485e+00    1.383711e+00   1.880533e-02
  1.309695e+00    1.358700e+00   1.861233e-02
  1.311906e+00    1.361180e+00   1.860745e-02
  1.314116e+00    1.386752e+00   1.876039e-02
  1.316327e+00    1.359986e+00   1.855668e-02
  1.318537e+00    1.379225e+00   1.866533e-02
  1.320748e+00    1.380037e+00   1.864908e-02
  1.322958e+00    1.366184e+00   1.853456e-02
  1.325169e+00    1.365514e+00   1.850890e-02
  1.327379e+00    1.355661e+00   1.842012e-02
  1.329589e+00    1.401129e+00   1.870502e-02
  1.331800e+00    1.374600e+00   1.850622e-02
  1.334010e+00    1.369574e+00   1.845156e-02
  1.336221e+00    1.336064e+00   1.820279e-02
  1.338431e+00    1.341740e+00   1.822059e-02
  1.340642e+00    1.372635e+00   1.849389e-02
  1.342852e+00    1.380493e+00   1.864854e-02
  1.345063e+00    1.360637e+00   1.856364e-02
  1.347273e+00    1.340324e+00   1.845966e-02
  1.349484e+00    1.327873e+00   1.840115e-02
  1.351694e+00    1.337602e+00   1.849106e-02
  1.353905e+00    1.318680e+00   1.837759e-02
  1.356115e+00    1.327549e+00   1.845419e-02
  1.358325e+00    1.356242e+00   1.866591e-02
  1.360536e+00    1.331638e+00   1.850739e-02
  1.362746e+00    1.314371e+00   1.839642e-02
  1.364957e+00    1.353676e+00   1.867714e-02
  1.367167e+00    1.347333e+00   1.864048e-02
  1.369378e+00    1.341787e+00   1.860809e-02
  1.371588e+00    1.327401e+00   1.851318e-02
  1.373799e+00    1.346141e+00   1.864707e-02
  1.376009e+00    1.315346e+00   1.843593e-02
  1.378220e+00    1.294150e+00   1.828926e-02
  1.380430e+00    1.285930e+00   1.823374e-02
  1.382640e+00    1.294569e+00   1.829579e-02
  1.384851e+00    1.285931e+00   1.823551e-02
  1.387061e+00    1.279974e+00   1.819352e-02
  1.389272e+00    1.284372e+00   1.822494e-02
  1.391482e+00    1.299221e+00   1.832934e-02
  1.393693e+00    1.292180e+00   1.827871e-02
  1.395903e+00    1.274851e+00   1.815425e-02
  1.398114e+00    1.275167e+00   1.815511e-02
  1.400324e+00    1.297242e+00   1.830944e-02
  1.402535e+00    1.279297e+00   1.818005e-02
  1.404745e+00    1.294728e+00   1.828698e-02
  1.406955e+00    1.270206e+00   1.811031e-02
  1.409166e+00    1.263121e+00   1.805641e-02
  1.411376e+00    1.271507e+00   1.811316e-02
  1.413587e+00    1.279784e+00   1.816815e-02
  1.415797e+00    1.280504e+00   1.816975e-02
  1.418008e+00    1.253920e+00   1.793853e-02
  1.420218e+00    1.262277e+00   1.784893e-02
  1.422429e+00    1.253662e+00   1.770316e-02
  1.424639e+00    1.282407e+00   1.783994e-02
  1.426850e+00    1.296334e+00   1.788131e-02
  1.429060e+00    1.278676e+00   1.770996e-02
  1.431270e+00    1.271079e+00   1.761293e-02
  1.433481e+00    1.250048e+00   1.742599e-02
  1.435691e+00    1.238084e+00   1.730444e-02
  1.437902e+00    1.277366e+00   1.754024e-02
  1.440112e+00    1.292519e+00   1.760834e-02
  1.442323e+00    1.286819e+00   1.753618e-02
  1.444533e+00    1.301598e+00   1.760365e-02
  1.446744e+00    1.286555e+00   1.747030e-02
  1.448954e+00    1.272467e+00   1.734417e-02
  1.451165e+00    1.280731e+00   1.737050e-02
  1.453375e+00    1.279485e+00   1.733392e-02
  1.455586e+00    1.242976e+00   1.705697e-02
  1.457796e+00    1.258896e+00   1.713843e-02
  1.460006e+00    1.247771e+00   1.703555e-02
  1.462217e+00    1.267706e+00   1.714488e-02
  1.464427e+00    1.283995e+00   1.722894e-02
  1.466638e+00    1.260687e+00   1.704660e-02
  1.468848e+00    1.268593e+00   1.707464e-02
  1.471059e+00    1.248416e+00   1.691344e-02
  1.473269e+00    1.263201e+00   1.698896e-02
  1.475480e+00    1.254171e+00   1.690452e-02
  1.477690e+00    1.248392e+00   1.684185e-02
  1.479901e+00    1.262967e+00   1.691609e-02
  1.482111e+00    1.269927e+00   1.693931e-02
  1.484321e+00    1.244971e+00   1.674912e-02
  1.486532e+00    1.248556e+00   1.675105e-02
  1.488742e+00    1.243225e+00   1.669279e-02
  1.490953e+00    1.249548e+00   1.671271e-02
  1.493163e+00    1.257482e+00   1.674345e-02
  1.495374e+00    1.294060e+00   1.696347e-02
  1.497584e+00    1.285323e+00   1.688429e-02
  1.499795e+00    1.250525e+00   1.663257e-02
  1.502005e+00    1.253675e+00   1.663188e-02
  1.504216e+00    1.252430e+00   1.660264e-02
  1.506426e+00    1.273363e+00   1.671987e-02
  1.508636e+00    1.272578e+00   1.669416e-02
  1.510847e+00    1.258608e+00   1.658042e-02
  1.513057e+00    1.264585e+00   1.659458e-02
  1.515268e+00    1.251958e+00   1.648583e-02
  1.517478e+00    1.253002e+00   1.646756e-02
  1.519689e+00    1.271842e+00   1.656576e-02
  1.521899e+00    1.275083e+00   1.656355e-02
  1.524110e+00    1.288631e+00   1.663070e-02
  1.526320e+00    1.278884e+00   1.654788e-02
  1.528531e+00    1.283690e+00   1.655894e-02
  1.530741e+00    1.243775e+00   1.628038e-02
  1.532951e+00    1.239042e+00   1.622984e-02
  1.535162e+00    1.258000e+00   1.644043e-02
  1.537372e+00    1.237797e+00   1.637450e-02
  1.539583e+00    1.233644e+00   1.638102e-02
  1.541793e+00    1.246277e+00   1.647163e-02
  1.544004e+00    1.244160e+00   1.645789e-02
  1.546214e+00    1.252973e+00   1.651457e-02
  1.548425e+00    1.263940e+00   1.658694e-02
  1.550635e+00    1.255315e+00   1.653999e-02
  1.552846e+00    1.254203e+00   1.654234e-02
  1.555056e+00    1.248010e+00   1.645993e-02
  1.557266e+00    1.224466e+00   1.619435e-02
  1.559477e+00    1.223788e+00   1.613125e-02
  1.561687e+00    1.245345e+00   1.624202e-02
  1.563898e+00    1.272759e+00   1.640245e-02
  1.566108e+00    1.272726e+00   1.638613e-02
  1.568319e+00    1.276120e+00   1.639214e-02
  1.570529e+00    1.245391e+00   1.616844e-02
  1.572740e+00    1.253334e+00   1.619218e-02
  1.574950e+00    1.272089e+00   1.628629e-02
  1.577161e+00    1.255952e+00   1.615706e-02
  1.579371e+00    1.231606e+00   1.597616e-02
  1.581582e+00    1.233326e+00   1.596762e-02
  1.583792e+00    1.251154e+00   1.606456e-02
  1.586002e+00    1.236135e+00   1.595027e-02
  1.588213e+00    1.252295e+00   1.603691e-02
  1.590423e+00    1.247429e+00   1.598562e-02
  1.592634e+00    1.263837e+00   1.606860e-02
  1.594844e+00    1.259700e+00   1.602077e-02
  1.597055e+00    1.250850e+00   1.594380e-02
  1.599265e+00    1.280675e+00   1.611173e-02
  1.601476e+00    1.255877e+00   1.593456e-02
  1.603686e+00    1.248414e+00   1.586730e-02
  1.605897e+00    1.260586e+00   1.592413e-02
  1.608107e+00    1.246745e+00   1.581684e-02
  1.610317e+00    1.258320e+00   1.587063e-02
  1.612528e+00    1.251696e+00   1.580950e-02
  1.614738e+00    1.247183e+00   1.576189e-02
  1.616949e+00    1.244200e+00   1.572392e-02
  1.619159e+00    1.235178e+00   1.564799e-02
  1.621370e+00    1.233108e+00   1.561631e-02
  1.623580e+00    1.225095e+00   1.554708e-02
  1.625791e+00    1.194115e+00   1.533110e-02
  1.628001e+00    1.200713e+00   1.535514e-02
  1.630212e+00    1.182346e+00   1.521958e-02
  1.632422e+00    1.180919e+00   1.519253e-02
  1.634632e+00    1.172517e+00   1.512116e-02
  1.636843e+00    1.162513e+00   1.503908e-02
  1.639053e+00    1.179340e+00   1.513018e-02
  1.641264e+00    1.169250e+00   1.504825e-02
  1.643474e+00    1.148656e+00   1.489785e-02
  1.645685e+00    1.136616e+00   1.480305e-02
  1.647895e+00    1.142321e+00   1.482365e-02
  1.650106e+00    1.146975e+00   1.483686e-02
  1.652316e+00    1.122221e+00   1.465958e-02
  1.654527e+00    1.121084e+00   1.463563e-02
  1.656737e+00    1.119030e+00   1.460578e-02
  1.658947e+00    1.115506e+00   1.456661e-02
  1.661158e+00    1.108508e+00   1.450471e-02
  1.663368e+00    1.114671e+00   1.452901e-02
  1.665579e+00    1.100083e+00   1.441762e-02
  1.667789e+00    1.119554e+00   1.452839e-02
  1.670000e+00    1.098576e+00   1.437626e-02
  1.672210e+00    1.085498e+00   1.427470e-02
  1.674421e+00    1.131521e+00   1.455866e-02
  1.676631e+00    1.139636e+00   1.459463e-02
  1.678842e+00    1.126644e+00   1.449525e-02
  1.681052e+00    1.095180e+00   1.427600e-02
  1.683263e+00    1.081919e+00   1.417424e-02
  1.685473e+00    1.062989e+00   1.403469e-02
  1.687683e+00    1.061031e+00   1.400649e-02
  1.689894e+00    1.063088e+00   1.400441e-02
  1.692104e+00    1.074392e+00   1.406378e-02
  1.694315e+00    1.073053e+00   1.404050e-02
  1.696525e+00    1.046838e+00   1.385295e-02
  1.698736e+00    1.038503e+00   1.378304e-02
  1.700946e+00    1.026651e+00   1.368928e-02
  1.703157e+00    1.025593e+00   1.366780e-02
  1.705367e+00    1.038414e+00   1.373857e-02
  1.707578e+00    1.030499e+00   1.367166e-02
  1.709788e+00    1.010285e+00   1.352305e-02
  1.711998e+00    1.020252e+00   1.357472e-02
  1.714209e+00    1.034670e+00   1.365590e-02
  1.716419e+00    1.048123e+00   1.373003e-02
  1.718630e+00    1.028307e+00   1.358539e-02
  1.720840e+00    1.011744e+00   1.346145e-02
  1.723051e+00    1.015985e+00   1.347583e-02
  1.725261e+00    9.836722e-01   1.324541e-02
  1.727472e+00    9.855014e-01   1.324375e-02
  1.729682e+00    9.913006e-01   1.326938e-02
  1.731893e+00    9.900032e-01   1.324693e-02
  1.734103e+00    9.838251e-01   1.319191e-02
  1.736313e+00    9.962099e-01   1.326074e-02
  1.738524e+00    1.008218e+00   1.332654e-02
  1.740734e+00    9.975578e-01   1.324224e-02
  1.742945e+00    9.768953e-01   1.309104e-02
  1.745155e+00    9.960774e-01   1.320546e-02
  1.747366e+00    9.725675e-01   1.303502e-02
  1.749576e+00    9.780869e-01   1.305831e-02
  1.751787e+00    9.674923e-01   1.297417e-02
  1.753997e+00    9.741164e-01   1.300516e-02
  1.756208e+00    9.686085e-01   1.295519e-02
  1.758418e+00    9.592764e-01   1.287960e-02
  1.760628e+00    9.419650e-01   1.274970e-02
  1.762839e+00    9.282033e-01   1.264325e-02
  1.765049e+00    9.405604e-01   1.271416e-02
  1.767260e+00    9.367445e-01   1.267569e-02
  1.769470e+00    9.228712e-01   1.256872e-02
  1.771681e+00    9.146569e-01   1.249977e-02
  1.773891e+00    9.150867e-01   1.248990e-02
  1.776102e+00    9.277251e-01   1.256310e-02
  1.778312e+00    9.391010e-01   1.262722e-02
  1.780523e+00    9.158131e-01   1.245711e-02
  1.782733e+00    9.041754e-01   1.236526e-02
  1.784944e+00    9.490179e-01   1.265517e-02
  1.787154e+00    9.878694e-01   1.289873e-02
  1.789364e+00    9.902054e-01   1.290113e-02
  1.791575e+00    9.364701e-01   1.253358e-02
  1.793785e+00    9.273762e-01   1.246014e-02
  1.795996e+00    9.077412e-01   1.231512e-02
  1.798206e+00    9.165132e-01   1.236193e-02
  1.800417e+00    9.522991e-01   1.258807e-02
  1.802627e+00    9.380041e-01   1.248114e-02
  1.804838e+00    9.323024e-01   1.243089e-02
  1.807048e+00    9.688246e-01   1.265878e-02
  1.809259e+00    9.854628e-01   1.275284e-02
  1.811469e+00    9.935874e-01   1.278964e-02
  1.813679e+00    9.360497e-01   1.239855e-02
  1.815890e+00    9.142876e-01   1.223868e-02
  1.818100e+00    8.995264e-01   1.212436e-02
  1.820311e+00    8.941592e-01   1.207335e-02
  1.822521e+00    8.936030e-01   1.205472e-02
  1.824732e+00    8.901025e-01   1.201627e-02
  1.826942e+00    9.550944e-01   1.243438e-02
  1.829153e+00    1.037105e+00   1.294464e-02
  1.831363e+00    1.016742e+00   1.280405e-02
  1.833574e+00    9.744678e-01   1.252274e-02
  1.835784e+00    9.499065e-01   1.235206e-02
  1.837994e+00    9.159619e-01   1.211737e-02
  1.840205e+00    8.750370e-01   1.183241e-02
  1.842415e+00    8.884898e-01   1.191112e-02
  1.844626e+00    8.887392e-01   1.190112e-02
  1.846836e+00    8.792958e-01   1.182624e-02
  1.849047e+00    8.609381e-01   1.169055e-02
  1.851257e+00    8.524570e-01   1.162330e-02
  1.853468e+00    8.703611e-01   1.173590e-02
  1.855678e+00    8.765868e-01   1.176882e-02
  1.857889e+00    8.624138e-01   1.166479e-02
  1.860099e+00    8.507906e-01   1.157732e-02
  1.862309e+00    8.661808e-01   1.167298e-02
  1.864520e+00    8.581767e-01   1.161038e-02
  1.866730e+00    8.571414e-01   1.159394e-02
  1.868941e+00    8.611622e-01   1.161011e-02
  1.871151e+00    8.443022e-01   1.148457e-02
  1.873362e+00    8.183103e-01   1.129527e-02
  1.875572e+00    8.231854e-01   1.131810e-02
  1.877783e+00    8.343539e-01   1.138328e-02
  1.879993e+00    8.431690e-01   1.143213e-02
  1.882204e+00    8.327267e-01   1.135030e-02
  1.884414e+00    8.389199e-01   1.138137e-02
  1.886624e+00    8.380477e-01   1.136444e-02
  1.888835e+00    8.419613e-01   1.137995e-02
  1.891045e+00    8.620932e-01   1.150419e-02
  1.893256e+00    8.563166e-01   1.145436e-02
  1.895466e+00    8.400960e-01   1.133420e-02
  1.897677e+00    8.236595e-01   1.121190e-02
  1.899887e+00    8.397501e-01   1.130987e-02
  1.902098e+00    8.391424e-01   1.129490e-02
  1.904308e+00    8.303639e-01   1.122507e-02
  1.906519e+00    8.377969e-01   1.126432e-02
  1.908729e+00    8.651916e-01   1.143613e-02
  1.910940e+00    9.083542e-01   1.170629e-02
  1.913150e+00    9.000452e-01   1.164159e-02
  1.915360e+00    8.662670e-01   1.141018e-02
  1.917571e+00    8.196424e-01   1.108800e-02
  1.919781e+00    8.313972e-01   1.115646e-02
  1.921992e+00    8.301924e-01   1.113770e-02
  1.924202e+00    8.205929e-01   1.106234e-02
  1.926413e+00    8.192432e-01   1.104291e-02
  1.928623e+00    8.070254e-01   1.094977e-02
  1.930834e+00    7.996677e-01   1.088940e-02
  1.933044e+00    8.285190e-01   1.107328e-02
  1.935255e+00    8.828619e-01   1.141991e-02
  1.937465e+00    8.483834e-01   1.118408e-02
  1.939675e+00    8.025633e-01   1.086703e-02
  1.941886e+00    8.024246e-01   1.085581e-02
  1.944096e+00    8.147012e-01   1.092829e-02
  1.946307e+00    8.052237e-01   1.085417e-02
  1.948517e+00    8.151707e-01   1.091048e-02
  1.950728e+00    7.967142e-01   1.077602e-02
  1.952938e+00    8.044200e-01   1.081787e-02
  1.955149e+00    8.174381e-01   1.089468e-02
  1.957359e+00    8.069200e-01   1.081427e-02
  1.959570e+00    7.981799e-01   1.074464e-02
  1.961780e+00    7.872876e-01   1.066120e-02
  1.963990e+00    7.799680e-01   1.060148e-02
  1.966201e+00    8.099177e-01   1.079290e-02
  1.968411e+00    8.063954e-01   1.075919e-02
  1.970622e+00    7.758575e-01   1.054345e-02
  1.972832e+00    8.016127e-01   1.070697e-02
  1.975043e+00    8.100488e-01   1.075295e-02
  1.977253e+00    7.978667e-01   1.066179e-02
  1.979464e+00    8.080014e-01   1.071907e-02
  1.981674e+00    8.014285e-01   1.066503e-02
  1.983885e+00    7.934355e-01   1.060160e-02
  1.986095e+00    7.810071e-01   1.050854e-02
  1.988305e+00    7.820275e-01   1.050549e-02
  1.990516e+00    7.855251e-01   1.051900e-02
  1.992726e+00    7.815052e-01   1.048234e-02
  1.994937e+00    7.820648e-01   1.047594e-02
  1.997147e+00    7.880533e-01   1.050617e-02
  1.999358e+00    7.797003e-01   1.044045e-02
  2.001568e+00    7.877033e-01   1.048298e-02
  2.003779e+00    7.638246e-01   1.031104e-02
  2.005989e+00    7.554916e-01   1.024272e-02
  2.008200e+00    7.762569e-01   1.037096e-02
  2.010410e+00    7.789074e-01   1.037684e-02
  2.012621e+00    7.851396e-01   1.040644e-02
  2.014831e+00    7.754298e-01   1.033036e-02
  2.017041e+00    7.751368e-01   1.031798e-02
  2.019252e+00    7.692776e-01   1.026892e-02
  2.021462e+00    7.622197e-01   1.021220e-02
  2.023673e+00    7.663629e-01   1.023053e-02
  2.025883e+00    7.749234e-01   1.027791e-02
  2.028094e+00    7.672561e-01   1.021729e-02
  2.030304e+00    7.832318e-01   1.031340e-02
  2.032515e+00    7.960709e-01   1.038811e-02
  2.034725e+00    7.721355e-01   1.022123e-02
  2.036936e+00    7.639373e-01   1.015743e-02
  2.039146e+00    7.661220e-01   1.016232e-02
  2.041356e+00    7.543032e-01   1.007401e-02
  2.043567e+00    7.656221e-01   1.013993e-02
  2.045777e+00    7.673695e-01   1.014218e-02
  2.047988e+00    7.657170e-01   1.012182e-02
  2.050198e+00    7.651694e-01   1.010970e-02
  2.052409e+00    7.732610e-01   1.015526e-02
  2.054619e+00    7.573164e-01   1.004262e-02
  2.056830e+00    7.646779e-01   1.008406e-02
  2.059040e+00    7.542525e-01   1.000756e-02
  2.061251e+00    7.489966e-01   9.965378e-03
  2.063461e+00    7.541008e-01   9.991670e-03
  2.065671e+00    7.537580e-01   9.980630e-03
  2.067882e+00    7.601579e-01   1.001385e-02
  2.070092e+00    7.886456e-01   1.019031e-02
  2.072303e+00    7.844739e-01   1.015397e-02
  2.074513e+00    7.658544e-01   1.002330e-02
  2.076724e+00    7.542984e-01   9.937855e-03
  2.078934e+00    7.550119e-01   9.933478e-03
  2.081145e+00    7.473251e-01   9.873689e-03
  2.083355e+00    7.489312e-01   9.875043e-03
  2.085566e+00    7.842109e-01   1.009580e-02
  2.087776e+00    7.988351e-01   1.017964e-02
  2.089986e+00    8.329048e-01   1.038507e-02
  2.092197e+00    8.538184e-01   1.050507e-02
  2.094407e+00    7.839796e-01   1.005675e-02
  2.096618e+00    7.568612e-01   9.872236e-03
  2.098828e+00    7.489786e-01   9.811299e-03
  2.101039e+00    7.361075e-01   9.717620e-03
  2.103249e+00    7.327528e-01   9.686775e-03
  2.105460e+00    7.369417e-01   9.705366e-03
  2.107670e+00    7.236086e-01   9.608471e-03
  2.109881e+00    7.232162e-01   9.596705e-03
  2.112091e+00    7.274166e-01   9.615561e-03
  2.114301e+00    7.083365e-01   9.479930e-03
  2.116512e+00    7.069977e-01   9.462260e-03
  2.118722e+00    7.277905e-01   9.591526e-03
  2.120933e+00    7.251254e-01   9.565068e-03
  2.123143e+00    7.204528e-01   9.525291e-03
  2.125354e+00    6.979516e-01   9.366950e-03
  2.127564e+00    7.239537e-01   9.531043e-03
  2.129775e+00    7.134835e-01   9.453176e-03
  2.131985e+00    7.122696e-01   9.436085e-03
  2.134196e+00    7.006624e-01   9.350369e-03
  2.136406e+00    7.063172e-01   9.379309e-03
  2.138617e+00    7.182773e-01   9.449894e-03
  2.140827e+00    7.243012e-01   9.505657e-03
  2.143037e+00    7.116737e-01   9.468072e-03
  2.145248e+00    7.213741e-01   9.554617e-03
  2.147458e+00    6.917773e-01   9.371574e-03
  2.149669e+00    6.800026e-01   9.303122e-03
  2.151879e+00    6.903679e-01   9.382882e-03
  2.154090e+00    7.148662e-01   9.555317e-03
  2.156300e+00    7.013783e-01   9.471351e-03
  2.158511e+00    7.156079e-01   9.572310e-03
  2.160721e+00    7.046576e-01   9.503624e-03
  2.162932e+00    7.097440e-01   9.541635e-03
  2.165142e+00    6.960978e-01   9.452488e-03
  2.167352e+00    6.883546e-01   9.402663e-03
  2.169563e+00    6.981869e-01   9.471524e-03
  2.171773e+00    6.851624e-01   9.385221e-03
  2.173984e+00    6.692544e-01   9.276991e-03
  2.176194e+00    6.899253e-01   9.420362e-03
  2.178405e+00    7.001694e-01   9.490757e-03
  2.180615e+00    6.863075e-01   9.397013e-03
  2.182826e+00    6.873982e-01   9.405161e-03
  2.185036e+00    6.914918e-01   9.433160e-03
  2.187247e+00    6.996267e-01   9.488450e-03
  2.189457e+00    6.858376e-01   9.394065e-03
  2.191667e+00    6.908408e-01   9.428100e-03
  2.193878e+00    6.845528e-01   9.384519e-03
  2.196088e+00    6.919158e-01   9.434173e-03
  2.198299e+00    6.822269e-01   9.366797e-03
  2.200509e+00    6.939200e-01   9.445662e-03
  2.202720e+00    6.957731e-01   9.457102e-03
  2.204930e+00    6.918880e-01   9.429412e-03
  2.207141e+00    6.941053e-01   9.443386e-03
  2.209351e+00    7.020462e-01   9.495333e-03
  2.211562e+00    6.971856e-01   9.460766e-03
  2.213772e+00    6.782629e-01   9.275974e-03
  2.215982e+00    6.721262e-01   9.189806e-03
  2.218193e+00    6.749983e-01   9.179805e-03
  2.220403e+00    6.836029e-01   9.213378e-03
  2.222614e+00    6.912727e-01   9.243710e-03
  2.224824e+00    6.657388e-01   9.052123e-03
  2.227035e+00    6.491351e-01   8.921384e-03
  2.229245e+00    6.781840e-01   9.101762e-03
  2.231456e+00    6.643174e-01   8.992703e-03
  2.233666e+00    6.703659e-01   9.018447e-03
  2.235877e+00    6.920041e-01   9.148358e-03
  2.238087e+00    6.846583e-01   9.086052e-03
  2.240298e+00    6.676067e-01   8.958441e-03
  2.242508e+00    6.639057e-01   8.918495e-03
  2.244718e+00    6.612118e-01   8.884673e-03
  2.246929e+00    6.637268e-01   8.887164e-03
  2.249139e+00    6.715134e-01   8.926726e-03
  2.251350e+00    6.735947e-01   8.928809e-03
  2.253560e+00    6.582231e-01   8.814837e-03
  2.255771e+00    6.508398e-01   8.753968e-03
  2.257981e+00    6.564494e-01   8.780515e-03
  2.260192e+00    6.739206e-01   8.885399e-03
  2.262402e+00    6.695350e-01   8.845548e-03
  2.264613e+00    6.793695e-01   8.899309e-03
  2.266823e+00    6.727466e-01   8.845376e-03
  2.269033e+00    6.708416e-01   8.822360e-03
  2.271244e+00    6.899338e-01   8.936443e-03
  2.273454e+00    7.255121e-01   9.153189e-03
  2.275665e+00    7.395509e-01   9.230481e-03
  2.277875e+00    7.001166e-01   8.970800e-03
  2.280086e+00    6.758108e-01   8.803545e-03
  2.282296e+00    6.651971e-01   8.724667e-03
  2.284507e+00    6.760834e-01   8.785516e-03
  2.286717e+00    6.578951e-01   8.657074e-03
  2.288928e+00    6.567959e-01   8.639969e-03
  2.291138e+00    6.569607e-01   8.631625e-03
  2.293348e+00    6.638122e-01   8.666928e-03
  2.295559e+00    6.466987e-01   8.545216e-03
  2.297769e+00    6.627385e-01   8.641230e-03
  2.299980e+00    6.615020e-01   8.623799e-03
  2.302190e+00    6.497953e-01   8.538032e-03
  2.304401e+00    6.452835e-01   8.499066e-03
  2.306611e+00    6.484513e-01   8.510743e-03
  2.308822e+00    6.390120e-01   8.440237e-03
  2.311032e+00    6.472896e-01   8.488328e-03
  2.313243e+00    6.266680e-01   8.345831e-03
  2.315453e+00    6.516969e-01   8.503285e-03
  2.317663e+00    6.412296e-01   8.425646e-03
  2.319874e+00    6.548998e-01   8.506187e-03
  2.322084e+00    6.477131e-01   8.450435e-03
  2.324295e+00    6.343553e-01   8.354660e-03
  2.326505e+00    6.408826e-01   8.388517e-03
  2.328716e+00    6.444075e-01   8.402995e-03
  2.330926e+00    6.556593e-01   8.467165e-03
  2.333137e+00    6.293665e-01   8.287366e-03
  2.335347e+00    6.368380e-01   8.327554e-03
  2.337558e+00    6.432458e-01   8.361120e-03
  2.339768e+00    6.559633e-01   8.434662e-03
  2.341979e+00    6.432785e-01   8.344349e-03
  2.344189e+00    6.341019e-01   8.276222e-03
  2.346399e+00    6.465456e-01   8.348469e-03
  2.348610e+00    6.379911e-01   8.284599e-03
  2.350820e+00    6.398250e-01   8.288275e-03
  2.353031e+00    6.356467e-01   8.252870e-03
  2.355241e+00    6.355010e-01   8.243856e-03
  2.357452e+00    6.408134e-01   8.269778e-03
  2.359662e+00    6.272407e-01   8.173518e-03
  2.361873e+00    6.299970e-01   8.183234e-03
  2.364083e+00    6.328961e-01   8.194035e-03
  2.366294e+00    6.093944e-01   8.032468e-03
  2.368504e+00    6.241948e-01   8.121355e-03
  2.370714e+00    6.312112e-01   8.158793e-03
  2.372925e+00    6.261987e-01   8.118257e-03
  2.375135e+00    6.271935e-01   8.116656e-03
  2.377346e+00    6.131668e-01   8.017485e-03
  2.379556e+00    6.229808e-01   8.073493e-03
  2.381767e+00    6.190591e-01   8.040207e-03
  2.383977e+00    6.142848e-01   8.001238e-03
  2.386188e+00    6.179374e-01   8.017090e-03
  2.388398e+00    6.241283e-01   8.049149e-03
  2.390609e+00    6.190216e-01   8.008428e-03
  2.392819e+00    6.073912e-01   7.925124e-03
  2.395029e+00    6.064241e-01   7.911191e-03
  2.397240e+00    6.129059e-01   7.945505e-03
  2.399450e+00    6.095132e-01   7.915718e-03
  2.401661e+00    6.039131e-01   7.871622e-03
  2.403871e+00    5.935920e-01   7.796436e-03
  2.406082e+00    6.006262e-01   7.835101e-03
  2.408292e+00    6.050228e-01   7.855977e-03
  2.410503e+00    6.027358e-01   7.833645e-03
  2.412713e+00    6.084223e-01   7.862727e-03
  2.414924e+00    6.104128e-01   7.868041e-03
  2.417134e+00    6.057537e-01   7.830341e-03
  2.419344e+00    6.034447e-01   7.807978e-03
  2.421555e+00    6.094816e-01   7.839385e-03
  2.423765e+00    6.024413e-01   7.786561e-03
  2.425976e+00    6.059880e-01   7.801595e-03
  2.428186e+00    5.857624e-01   7.663167e-03
  2.430397e+00    5.966297e-01   7.726443e-03
  2.432607e+00    5.985603e-01   7.731632e-03
  2.434818e+00    5.972835e-01   7.715847e-03
  2.437028e+00    5.927169e-01   7.679134e-03
  2.439239e+00    5.938397e-01   7.678748e-03
  2.441449e+00    5.928599e-01   7.665218e-03
  2.443659e+00    5.861467e-01   7.614368e-03
  2.445870e+00    5.986058e-01   7.707221e-03
  2.448080e+00    5.840340e-01   7.647664e-03
  2.450291e+00    5.764560e-01   7.614499e-03
  2.452501e+00    5.681388e-01   7.570434e-03
  2.454712e+00    5.723491e-01   7.606854e-03
  2.456922e+00    5.625203e-01   7.547836e-03
  2.459133e+00    5.747115e-01   7.634644e-03
  2.461343e+00    5.733274e-01   7.629826e-03
  2.463554e+00    5.632374e-01   7.565869e-03
  2.465764e+00    5.541671e-01   7.507802e-03
  2.467975e+00    5.643639e-01   7.578854e-03
  2.470185e+00    5.674574e-01   7.601867e-03
  2.472395e+00    5.469763e-01   7.464642e-03
  2.474606e+00    5.554810e-01   7.524011e-03
  2.476816e+00    5.505446e-01   7.491230e-03
  2.479027e+00    5.511001e-01   7.495868e-03
  2.481237e+00    5.337571e-01   7.377261e-03
  2.483448e+00    5.371901e-01   7.401231e-03
  2.485658e+00    5.352418e-01   7.387654e-03
  2.487869e+00    5.265725e-01   7.327635e-03
  2.490079e+00    5.301983e-01   7.352281e-03
  2.492290e+00    5.439327e-01   7.446485e-03
  2.494500e+00    5.427465e-01   7.437603e-03
  2.496710e+00    5.454596e-01   7.455504e-03
  2.498921e+00    5.315230e-01   7.358628e-03
  2.501131e+00    5.403007e-01   7.418192e-03
  2.503342e+00    5.326963e-01   7.364547e-03
  2.505552e+00    5.363370e-01   7.388526e-03
  2.507763e+00    5.257326e-01   7.313712e-03
  2.509973e+00    5.294495e-01   7.338108e-03
  2.512184e+00    5.536406e-01   7.502238e-03
  2.514394e+00    5.366005e-01   7.376446e-03
  2.516605e+00    5.438127e-01   7.377999e-03
  2.518815e+00    5.510815e-01   7.398175e-03
  2.521025e+00    5.413844e-01   7.311512e-03
  2.523236e+00    5.331149e-01   7.237341e-03
  2.525446e+00    5.480469e-01   7.322053e-03
  2.527657e+00    5.426588e-01   7.271134e-03
  2.529867e+00    5.452718e-01   7.274174e-03
  2.532078e+00    5.471990e-01   7.271665e-03
  2.534288e+00    5.307212e-01   7.147387e-03
  2.536499e+00    5.088612e-01   6.986877e-03
  2.538709e+00    5.036191e-01   6.940015e-03
  2.540920e+00    5.332201e-01   7.130312e-03
  2.543130e+00    5.352144e-01   7.133166e-03
  2.545340e+00    5.161468e-01   6.994981e-03
  2.547551e+00    5.097757e-01   6.941837e-03
  2.549761e+00    5.121390e-01   6.948420e-03
  2.551972e+00    5.196996e-01   6.990191e-03
  2.554182e+00    5.256365e-01   7.020793e-03
  2.556393e+00    5.173745e-01   6.956332e-03
  2.558603e+00    5.259811e-01   7.004831e-03
  2.560814e+00    5.227900e-01   6.974826e-03
  2.563024e+00    5.097990e-01   6.879135e-03
  2.565235e+00    5.132121e-01   6.892637e-03
  2.567445e+00    5.211296e-01   6.936041e-03
  2.569656e+00    5.244554e-01   6.948339e-03
  2.571866e+00    5.260350e-01   6.949358e-03
  2.574076e+00    5.342113e-01   6.993735e-03
  2.576287e+00    5.365841e-01   7.000769e-03
  2.578497e+00    5.222887e-01   6.898991e-03
  2.580708e+00    5.119524e-01   6.822332e-03
  2.582918e+00    5.116515e-01   6.812569e-03
  2.585129e+00    5.208945e-01   6.866040e-03
  2.587339e+00    5.127702e-01   6.804618e-03
  2.589550e+00    4.966458e-01   6.689355e-03
  2.591760e+00    4.991228e-01   6.698349e-03
  2.593971e+00    5.158228e-01   6.801941e-03
  2.596181e+00    5.195876e-01   6.820444e-03
  2.598391e+00    5.204647e-01   6.820966e-03
  2.600602e+00    5.166645e-01   6.790070e-03
  2.602812e+00    5.156044e-01   6.775506e-03
  2.605023e+00    5.179385e-01   6.783604e-03
  2.607233e+00    5.012431e-01   6.666287e-03
  2.609444e+00    4.946559e-01   6.615195e-03
  2.611654e+00    4.964374e-01   6.619836e-03
  2.613865e+00    5.182345e-01   6.756497e-03
  2.616075e+00    5.007024e-01   6.634130e-03
  2.618286e+00    4.942927e-01   6.584608e-03
  2.620496e+00    5.145994e-01   6.711737e-03
  2.622706e+00    5.120885e-01   6.689568e-03
  2.624917e+00    4.949973e-01   6.571200e-03
  2.627127e+00    4.953486e-01   6.567826e-03
  2.629338e+00    4.993021e-01   6.588032e-03
  2.631548e+00    5.203356e-01   6.719091e-03
  2.633759e+00    5.176183e-01   6.694281e-03
  2.635969e+00    5.043020e-01   6.600897e-03
  2.638180e+00    5.177591e-01   6.681296e-03
  2.640390e+00    5.006939e-01   6.563675e-03
  2.642601e+00    4.946643e-01   6.517400e-03
  2.644811e+00    5.145231e-01   6.639757e-03
  2.647021e+00    5.011775e-01   6.546522e-03
  2.649232e+00    5.140607e-01   6.623304e-03
  2.651442e+00    4.995498e-01   6.522654e-03
  2.653653e+00    5.018990e-01   6.531159e-03
  2.655863e+00    5.110881e-01   6.583902e-03
  2.658074e+00    5.059659e-01   6.544176e-03
  2.660284e+00    5.080311e-01   6.551083e-03
  2.662495e+00    5.178351e-01   6.607102e-03
  2.664705e+00    5.115176e-01   6.560027e-03
  2.666916e+00    4.914353e-01   6.423519e-03
  2.669126e+00    5.024936e-01   6.488890e-03
  2.671337e+00    4.952447e-01   6.435340e-03
  2.673547e+00    4.926903e-01   6.412352e-03
  2.675757e+00    5.005295e-01   6.456671e-03
  2.677968e+00    5.164562e-01   6.551929e-03
  2.680178e+00    4.925561e-01   6.392163e-03
  2.682389e+00    4.982500e-01   6.422542e-03
  2.684599e+00    4.891390e-01   6.357407e-03
  2.686810e+00    4.749094e-01   6.257757e-03
  2.689020e+00    4.854598e-01   6.320627e-03
  2.691231e+00    4.920721e-01   6.357238e-03
  2.693441e+00    4.851024e-01   6.305936e-03
  2.695652e+00    4.903392e-01   6.333366e-03
  2.697862e+00    4.999613e-01   6.388803e-03
  2.700072e+00    4.842812e-01   6.281785e-03
  2.702283e+00    4.726339e-01   6.199661e-03
  2.704493e+00    4.939638e-01   6.331688e-03
  2.706704e+00    4.980217e-01   6.351174e-03
  2.708914e+00    4.922940e-01   6.308573e-03
  2.711125e+00    4.784386e-01   6.212960e-03
  2.713335e+00    4.928721e-01   6.299862e-03
  2.715546e+00    4.868226e-01   6.254626e-03
  2.717756e+00    4.855834e-01   6.240750e-03
  2.719967e+00    4.982673e-01   6.315483e-03
  2.722177e+00    4.827171e-01   6.210024e-03
  2.724387e+00    4.761711e-01   6.161746e-03
  2.726598e+00    4.787272e-01   6.172226e-03
  2.728808e+00    4.797690e-01   6.172826e-03
  2.731019e+00    4.839790e-01   6.193743e-03
  2.733229e+00    4.768504e-01   6.142186e-03
  2.735440e+00    4.828449e-01   6.174420e-03
  2.737650e+00    4.885657e-01   6.204823e-03
  2.739861e+00    4.939061e-01   6.232535e-03
  2.742071e+00    4.819529e-01   6.150909e-03
  2.744282e+00    4.710577e-01   6.074816e-03
  2.746492e+00    4.836383e-01   6.149341e-03
  2.748702e+00    4.922011e-01   6.197589e-03
  2.750913e+00    4.908868e-01   6.183458e-03
  2.753123e+00    4.902402e-01   6.173217e-03
  2.755334e+00    4.843859e-01   6.130146e-03
  2.757544e+00    4.750844e-01   6.065297e-03
  2.759755e+00    4.802408e-01   6.092246e-03
  2.761965e+00    4.862980e-01   6.124514e-03
  2.764176e+00    4.923889e-01   6.156698e-03
  2.766386e+00    4.828490e-01   6.090946e-03
  2.768597e+00    4.786723e-01   6.058697e-03
  2.770807e+00    4.797497e-01   6.059626e-03
  2.773017e+00    4.855973e-01   6.090428e-03
  2.775228e+00    4.926912e-01   6.128896e-03
  2.777438e+00    4.901193e-01   6.106991e-03
  2.779649e+00    4.897971e-01   6.099028e-03
  2.781859e+00    4.850644e-01   6.063679e-03
  2.784070e+00    4.869213e-01   6.069358e-03
  2.786280e+00    4.739778e-01   5.982395e-03
  2.788491e+00    4.862758e-01   6.053614e-03
  2.790701e+00    4.794001e-01   6.005007e-03
  2.792912e+00    4.736929e-01   5.963201e-03
  2.795122e+00    4.777555e-01   5.982969e-03
  2.797333e+00    4.792916e-01   5.987014e-03
  2.799543e+00    4.653694e-01   5.893616e-03
  2.801753e+00    4.728573e-01   5.934995e-03
  2.803964e+00    4.679227e-01   5.898328e-03
  2.806174e+00    4.777029e-01   5.953487e-03
  2.808385e+00    4.784515e-01   5.951331e-03
  2.810595e+00    4.764230e-01   5.931824e-03
  2.812806e+00    4.741888e-01   5.911291e-03
  2.815016e+00    4.730831e-01   5.899653e-03
  2.817227e+00    4.647538e-01   5.873168e-03
  2.819437e+00    4.782608e-01   5.969021e-03
  2.821648e+00    4.758953e-01   5.956537e-03
  2.823858e+00    4.759006e-01   5.961940e-03
  2.826068e+00    4.749174e-01   5.960756e-03
  2.828279e+00    4.795218e-01   5.993650e-03
  2.830489e+00    4.700272e-01   5.937362e-03
  2.832700e+00    4.653963e-01   5.910559e-03
  2.834910e+00    4.700150e-01   5.941879e-03
  2.837121e+00    4.749337e-01   5.974612e-03
  2.839331e+00    4.702284e-01   5.946178e-03
  2.841542e+00    4.719365e-01   5.957975e-03
  2.843752e+00    4.665030e-01   5.924359e-03
  2.845963e+00    4.696477e-01   5.944701e-03
  2.848173e+00    4.517328e-01   5.830293e-03
  2.850383e+00    4.585936e-01   5.874691e-03
  2.852594e+00    4.757243e-01   5.983318e-03
  2.854804e+00    4.642538e-01   5.910268e-03
  2.857015e+00    4.619632e-01   5.895218e-03
  2.859225e+00    4.689536e-01   5.939409e-03
  2.861436e+00    4.659253e-01   5.919551e-03
  2.863646e+00    4.609300e-01   5.887766e-03
  2.865857e+00    4.565565e-01   5.860107e-03
  2.868067e+00    4.564777e-01   5.859812e-03
  2.870278e+00    4.668973e-01   5.925966e-03
  2.872488e+00    4.700890e-01   5.945011e-03
  2.874698e+00    4.760566e-01   5.981581e-03
  2.876909e+00    4.579054e-01   5.865121e-03
  2.879119e+00    4.662691e-01   5.916799e-03
  2.881330e+00    4.598292e-01   5.874341e-03
  2.883540e+00    4.622137e-01   5.888171e-03
  2.885751e+00    4.506467e-01   5.812388e-03
  2.887961e+00    4.594007e-01   5.866694e-03
  2.890172e+00    4.635034e-01   5.891226e-03
  2.892382e+00    4.674133e-01   5.914206e-03
  2.894593e+00    4.678050e-01   5.914857e-03
  2.896803e+00    4.683120e-01   5.916065e-03
  2.899014e+00    4.632152e-01   5.881868e-03
  2.901224e+00    4.562668e-01   5.835601e-03
  2.903434e+00    4.657085e-01   5.893704e-03
  2.905645e+00    4.708009e-01   5.923595e-03
  2.907855e+00    4.763206e-01   5.956083e-03
  2.910066e+00    4.580527e-01   5.838684e-03
  2.912276e+00    4.653540e-01   5.882885e-03
  2.914487e+00    4.551479e-01   5.815581e-03
  2.916697e+00    4.616948e-01   5.855006e-03
  2.918908e+00    4.695764e-01   5.902753e-03
  2.921118e+00    4.624069e-01   5.854819e-03
  2.923329e+00    4.489722e-01   5.766840e-03
  2.925539e+00    4.690121e-01   5.891828e-03
  2.927749e+00    4.590259e-01   5.826449e-03
  2.929960e+00    4.646188e-01   5.859033e-03
  2.932170e+00    4.610995e-01   5.834466e-03
  2.934381e+00    4.672961e-01   5.871067e-03
  2.936591e+00    4.668226e-01   5.865490e-03
  2.938802e+00    4.675592e-01   5.867373e-03
  2.941012e+00    4.518659e-01   5.765744e-03
  2.943223e+00    4.611290e-01   5.821810e-03
  2.945433e+00    4.641284e-01   5.836956e-03
  2.947644e+00    4.658040e-01   5.843312e-03
  2.949854e+00    4.546083e-01   5.768381e-03
  2.952064e+00    4.607058e-01   5.802695e-03
  2.954275e+00    4.533023e-01   5.751478e-03
  2.956485e+00    4.611489e-01   5.796823e-03
  2.958696e+00    4.660747e-01   5.823279e-03
  2.960906e+00    4.641664e-01   5.807128e-03
  2.963117e+00    4.559863e-01   5.751231e-03
  2.965327e+00    4.521597e-01   5.723163e-03
  2.967538e+00    4.535646e-01   5.729123e-03
  2.969748e+00    4.586122e-01   5.758095e-03
  2.971959e+00    4.676591e-01   5.811415e-03
  2.974169e+00    4.710023e-01   5.829537e-03
  2.976379e+00    4.672875e-01   5.803538e-03
  2.978590e+00    4.513190e-01   5.700395e-03
  2.980800e+00    4.620257e-01   5.764781e-03
  2.983011e+00    4.647815e-01   5.779126e-03
  2.985221e+00    4.539953e-01   5.708520e-03
  2.987432e+00    4.526302e-01   5.696826e-03
  2.989642e+00    4.479013e-01   5.664375e-03
  2.991853e+00    4.558320e-01   5.711020e-03
  2.994063e+00    4.663701e-01   5.773707e-03
  2.996274e+00    4.538074e-01   5.692243e-03
  2.998484e+00    4.510354e-01   5.672127e-03
  3.000694e+00    4.555247e-01   5.696818e-03
  3.002905e+00    4.616940e-01   5.732304e-03
  3.005115e+00    4.656151e-01   5.753590e-03
  3.007326e+00    4.576887e-01   5.701221e-03
  3.009536e+00    4.569933e-01   5.693640e-03
  3.011747e+00    4.494928e-01   5.643803e-03
  3.013957e+00    4.504460e-01   5.646626e-03
  3.016168e+00    4.503453e-01   5.642723e-03
  3.018378e+00    4.589209e-01   5.693150e-03
  3.020589e+00    4.593339e-01   5.692472e-03
  3.022799e+00    4.540704e-01   5.656602e-03
  3.025010e+00    4.486462e-01   5.619488e-03
  3.027220e+00    4.592013e-01   5.682051e-03
  3.029430e+00    4.610770e-01   5.690396e-03
  3.031641e+00    4.689969e-01   5.735843e-03
  3.033851e+00    4.656010e-01   5.711485e-03
  3.036062e+00    4.673924e-01   5.719620e-03
  3.038272e+00    4.579369e-01   5.657886e-03
  3.040483e+00    4.575714e-01   5.652369e-03
  3.042693e+00    4.438223e-01   5.563576e-03
  3.044904e+00    4.535656e-01   5.620254e-03
  3.047114e+00    4.697109e-01   5.714519e-03
  3.049325e+00    4.660399e-01   5.687672e-03
  3.051535e+00    4.663102e-01   5.684874e-03
  3.053745e+00    4.432080e-01   5.537537e-03
  3.055956e+00    4.550329e-01   5.606327e-03
  3.058166e+00    4.498898e-01   5.570296e-03
  3.060377e+00    4.544003e-01   5.593352e-03
  3.062587e+00    4.547629e-01   5.590939e-03
  3.064798e+00    4.486454e-01   5.548951e-03
  3.067008e+00    4.582241e-01   5.603109e-03
  3.069219e+00    4.461704e-01   5.524420e-03
  3.071429e+00    4.671248e-01   5.649082e-03
  3.073640e+00    4.632613e-01   5.622289e-03
  3.075850e+00    4.431421e-01   5.495305e-03
  3.078060e+00    4.527669e-01   5.551517e-03
  3.080271e+00    4.437990e-01   5.492832e-03
  3.082481e+00    4.478562e-01   5.514416e-03
  3.084692e+00    4.467895e-01   5.504491e-03
  3.086902e+00    4.542778e-01   5.547148e-03
  3.089113e+00    4.539547e-01   5.541596e-03
  3.091323e+00    4.473766e-01   5.497913e-03
  3.093534e+00    4.439931e-01   5.473743e-03
  3.095744e+00    4.478988e-01   5.494365e-03
  3.097955e+00    4.408253e-01   5.447300e-03
  3.100165e+00    4.605773e-01   5.564603e-03
  3.102375e+00    4.686840e-01   5.609877e-03
  3.104586e+00    4.600412e-01   5.554372e-03
  3.106796e+00    4.586672e-01   5.542492e-03
  3.109007e+00    4.587913e-01   5.539978e-03
  3.111217e+00    4.524806e-01   5.498032e-03
  3.113428e+00    4.545383e-01   5.507068e-03
  3.115638e+00    4.443265e-01   5.441638e-03
  3.117849e+00    4.446539e-01   5.439909e-03
  3.120059e+00    4.517083e-01   5.479394e-03
  3.122270e+00    4.531898e-01   5.485086e-03
  3.124480e+00    4.553241e-01   5.494280e-03
  3.126691e+00    4.442714e-01   5.423611e-03
  3.128901e+00    4.414684e-01   5.403351e-03
  3.131111e+00    4.528774e-01   5.468863e-03
  3.133322e+00    4.486930e-01   5.440078e-03
  3.135532e+00    4.507603e-01   5.449155e-03
  3.137743e+00    4.557180e-01   5.475527e-03
  3.139953e+00    4.493425e-01   5.433381e-03
  3.142164e+00    4.497278e-01   5.447818e-03
  3.144374e+00    4.446230e-01   5.445282e-03
  3.146585e+00    4.544899e-01   5.520139e-03
  3.148795e+00    4.485202e-01   5.494623e-03
  3.151006e+00    4.466690e-01   5.491851e-03
  3.153216e+00    4.402924e-01   5.459643e-03
  3.155426e+00    4.480247e-01   5.513727e-03
  3.157637e+00    4.433759e-01   5.490587e-03
  3.159847e+00    4.377329e-01   5.460404e-03
  3.162058e+00    4.448078e-01   5.508799e-03
  3.164268e+00    4.332308e-01   5.440676e-03
  3.166479e+00    4.336966e-01   5.447216e-03
  3.168689e+00    4.442879e-01   5.516727e-03
  3.170900e+00    4.399683e-01   5.493002e-03
  3.173110e+00    4.407295e-01   5.500648e-03
  3.175321e+00    4.282377e-01   5.424587e-03
  3.177531e+00    4.402075e-01   5.502622e-03
  3.179741e+00    4.385225e-01   5.494158e-03
  3.181952e+00    4.498425e-01   5.566758e-03
  3.184162e+00    4.357893e-01   5.481313e-03
  3.186373e+00    4.335856e-01   5.469016e-03
  3.188583e+00    4.378403e-01   5.497576e-03
  3.190794e+00    4.420075e-01   5.525437e-03
  3.193004e+00    4.269303e-01   5.431623e-03
  3.195215e+00    4.430223e-01   5.534535e-03
  3.197425e+00    4.440774e-01   5.542371e-03
  3.199636e+00    4.314839e-01   5.462431e-03
  3.201846e+00    4.249083e-01   5.420072e-03
  3.204056e+00    4.345882e-01   5.482334e-03
  3.206267e+00    4.263297e-01   5.430845e-03
  3.208477e+00    4.305996e-01   5.458876e-03
  3.210688e+00    4.365511e-01   5.497336e-03
  3.212898e+00    4.335993e-01   5.479297e-03
  3.215109e+00    4.269424e-01   5.437808e-03
  3.217319e+00    4.294786e-01   5.454582e-03
  3.219530e+00    4.212154e-01   5.402235e-03
  3.221740e+00    4.284909e-01   5.449248e-03
  3.223951e+00    4.303621e-01   5.461610e-03
  3.226161e+00    4.222610e-01   5.410140e-03
  3.228372e+00    4.271207e-01   5.441713e-03
  3.230582e+00    4.095963e-01   5.329056e-03
  3.232792e+00    4.296310e-01   5.458036e-03
  3.235003e+00    4.417623e-01   5.534801e-03
  3.237213e+00    4.417714e-01   5.535001e-03
  3.239424e+00    4.291477e-01   5.455312e-03
  3.241634e+00    4.225082e-01   5.413091e-03
  3.243845e+00    4.318621e-01   5.472742e-03
  3.246055e+00    4.286525e-01   5.452091e-03
  3.248266e+00    4.338983e-01   5.485562e-03
  3.250476e+00    4.184720e-01   5.386864e-03
  3.252687e+00    4.363185e-01   5.500449e-03
  3.254897e+00    4.223748e-01   5.411736e-03
  3.257107e+00    4.236785e-01   5.419754e-03
  3.259318e+00    4.270146e-01   5.440821e-03
  3.261528e+00    4.272585e-01   5.442233e-03
  3.263739e+00    4.379616e-01   5.509413e-03
  3.265949e+00    4.161744e-01   5.370521e-03
  3.268160e+00    4.145275e-01   5.359460e-03
  3.270370e+00    4.168918e-01   5.374216e-03
  3.272581e+00    4.246656e-01   5.423800e-03
  3.274791e+00    4.281430e-01   5.445453e-03
  3.277002e+00    4.327185e-01   5.473894e-03
  3.279212e+00    4.239748e-01   5.417942e-03
  3.281422e+00    4.241064e-01   5.418195e-03
  3.283633e+00    4.214055e-01   5.400242e-03
  3.285843e+00    4.187592e-01   5.382923e-03
  3.288054e+00    4.172019e-01   5.371969e-03
  3.290264e+00    4.212520e-01   5.397669e-03
  3.292475e+00    4.380812e-01   5.503584e-03
  3.294685e+00    4.291951e-01   5.446850e-03
  3.296896e+00    4.144363e-01   5.351639e-03
  3.299106e+00    4.231848e-01   5.407255e-03
  3.301317e+00    4.287889e-01   5.441910e-03
  3.303527e+00    4.338033e-01   5.473158e-03
  3.305737e+00    4.206415e-01   5.388479e-03
  3.307948e+00    4.015016e-01   5.263797e-03
  3.310158e+00    4.150313e-01   5.350888e-03
  3.312369e+00    4.160722e-01   5.356713e-03
  3.314579e+00    4.243886e-01   5.409098e-03
  3.316790e+00    4.226785e-01   5.397466e-03
  3.319000e+00    4.251164e-01   5.411830e-03
  3.321211e+00    4.163185e-01   5.354929e-03
  3.323421e+00    4.229277e-01   5.396061e-03
  3.325632e+00    4.151417e-01   5.345276e-03
  3.327842e+00    4.270618e-01   5.420556e-03
  3.330052e+00    4.069647e-01   5.290447e-03
  3.332263e+00    4.242760e-01   5.400732e-03
  3.334473e+00    4.324856e-01   5.451860e-03
  3.336684e+00    4.194385e-01   5.367702e-03
  3.338894e+00    4.226450e-01   5.387339e-03
  3.341105e+00    4.345905e-01   5.461724e-03
  3.343315e+00    4.271050e-01   5.413330e-03
  3.345526e+00    4.236880e-01   5.390745e-03
  3.347736e+00    4.107050e-01   5.306084e-03
  3.349947e+00    4.159078e-01   5.338687e-03
  3.352157e+00    4.250117e-01   5.395601e-03
  3.354368e+00    4.194298e-01   5.358765e-03
  3.356578e+00    4.257659e-01   5.398066e-03
  3.358788e+00    4.254948e-01   5.395008e-03
  3.360999e+00    4.218732e-01   5.370744e-03
  3.363209e+00    4.147876e-01   5.324446e-03
  3.365420e+00    4.131256e-01   5.312247e-03
  3.367630e+00    4.192179e-01   5.350251e-03
  3.369841e+00    4.202274e-01   5.355269e-03
  3.372051e+00    4.244829e-01   5.380315e-03
  3.374262e+00    4.254453e-01   5.383962e-03
  3.376472e+00    4.146670e-01   5.312876e-03
  3.378683e+00    4.100008e-01   5.280406e-03
  3.380893e+00    4.059435e-01   5.251904e-03
  3.383103e+00    4.047615e-01   5.241591e-03
  3.385314e+00    4.090902e-01   5.267320e-03
  3.387524e+00    4.185241e-01   5.324975e-03
  3.389735e+00    4.236488e-01   5.354804e-03
  3.391945e+00    4.216231e-01   5.338288e-03
  3.394156e+00    4.244266e-01   5.351724e-03
  3.396366e+00    4.051159e-01   5.225183e-03
  3.398577e+00    4.199311e-01   5.316771e-03
  3.400787e+00    4.101575e-01   5.266467e-03
  3.402998e+00    4.109554e-01   5.309680e-03
  3.405208e+00    3.982733e-01   5.247594e-03
  3.407418e+00    3.941171e-01   5.235777e-03
  3.409629e+00    4.061904e-01   5.329399e-03
  3.411839e+00    4.069097e-01   5.346053e-03
  3.414050e+00    4.055443e-01   5.348137e-03
  3.416260e+00    4.116845e-01   5.398358e-03
  3.418471e+00    4.039744e-01   5.357097e-03
  3.420681e+00    3.952043e-01   5.307158e-03
  3.422892e+00    3.921313e-01   5.294490e-03
  3.425102e+00    3.884497e-01   5.277378e-03
  3.427313e+00    3.897115e-01   5.293152e-03
  3.429523e+00    3.786744e-01   5.224645e-03
  3.431733e+00    3.904316e-01   5.311813e-03
  3.433944e+00    3.928945e-01   5.335116e-03
  3.436154e+00    3.837667e-01   5.279032e-03
  3.438365e+00    3.925153e-01   5.344856e-03
  3.440575e+00    3.849525e-01   5.299095e-03
  3.442786e+00    3.771107e-01   5.250426e-03
  3.444996e+00    3.767533e-01   5.253457e-03
  3.447207e+00    3.694586e-01   5.207581e-03
  3.449417e+00    3.765633e-01   5.298494e-03
  3.451628e+00    3.698176e-01   5.280341e-03
  3.453838e+00    3.587852e-01   5.221833e-03
  3.456049e+00    3.766645e-01   5.374623e-03
  3.458259e+00    3.759897e-01   5.391986e-03
  3.460469e+00    3.930165e-01   5.533248e-03
  3.462680e+00    3.746476e-01   5.421666e-03
  3.464890e+00    3.588332e-01   5.323610e-03
  3.467101e+00    3.800283e-01   5.496322e-03
  3.469311e+00    3.985192e-01   5.645627e-03
  3.471522e+00    3.809186e-01   5.536116e-03
  3.473732e+00    3.923171e-01   5.634528e-03
  3.475943e+00    3.927775e-01   5.653745e-03
  3.478153e+00    4.009893e-01   5.728259e-03
  3.480364e+00    4.055228e-01   5.775902e-03
  3.482574e+00    4.122551e-01   5.839178e-03
  3.484784e+00    4.126163e-01   5.856611e-03
  3.486995e+00    4.249773e-01   5.958962e-03
  3.489205e+00    4.324602e-01   6.026044e-03
  3.491416e+00    4.366088e-01   6.069927e-03
  3.493626e+00    4.734422e-01   6.336018e-03
  3.495837e+00    4.539409e-01   6.219153e-03
  3.498047e+00    4.447255e-01   6.170190e-03
  3.500258e+00    4.432434e-01   6.174312e-03
  3.502468e+00    4.689478e-01   6.365486e-03
  3.504679e+00    4.574493e-01   6.301413e-03
  3.506889e+00    4.635646e-01   6.357781e-03
  3.509099e+00    4.772266e-01   6.465236e-03
  3.511310e+00    4.804753e-01   6.501753e-03
  3.513520e+00    4.733851e-01   6.467861e-03
  3.515731e+00    4.827880e-01   6.546136e-03
  3.517941e+00    4.791934e-01   6.535932e-03
  3.520152e+00    4.891681e-01   6.617780e-03
  3.522362e+00    5.148799e-01   6.804211e-03
  3.524573e+00    5.222433e-01   6.867181e-03
  3.526783e+00    5.061695e-01   6.773989e-03
  3.528994e+00    5.339884e-01   6.970076e-03
  3.531204e+00    5.218394e-01   6.902807e-03
  3.533414e+00    5.202150e-01   6.904070e-03
  3.535625e+00    5.242394e-01   6.943026e-03
  3.537835e+00    5.296242e-01   6.990711e-03
  3.540046e+00    5.266560e-01   6.979913e-03
  3.542256e+00    5.460939e-01   7.115181e-03
  3.544467e+00    5.220923e-01   6.964592e-03
  3.546677e+00    5.470658e-01   7.136839e-03
  3.548888e+00    5.531678e-01   7.184190e-03
  3.551098e+00    5.456254e-01   7.142361e-03
  3.553309e+00    5.563680e-01   7.220664e-03
  3.555519e+00    5.295011e-01   7.055435e-03
  3.557729e+00    5.351691e-01   7.104740e-03
  3.559940e+00    5.406579e-01   7.152721e-03
  3.562150e+00    5.486525e-01   7.217230e-03
  3.564361e+00    5.586863e-01   7.296543e-03
  3.566571e+00    5.406968e-01   7.192003e-03
  3.568782e+00    5.389626e-01   7.194614e-03
  3.570992e+00    5.400628e-01   7.215735e-03
  3.573203e+00    5.495644e-01   7.293310e-03
  3.575413e+00    5.396047e-01   7.240678e-03
  3.577624e+00    5.450919e-01   7.291698e-03
  3.579834e+00    5.228988e-01   7.155404e-03
  3.582045e+00    5.379447e-01   7.271667e-03
  3.584255e+00    5.319462e-01   7.245029e-03
  3.586465e+00    5.305943e-01   7.249676e-03
  3.588676e+00    5.307560e-01   7.264872e-03
  3.590886e+00    5.428962e-01   7.361315e-03
  3.593097e+00    5.360401e-01   7.329197e-03
  3.595307e+00    5.423848e-01   7.386431e-03
  3.597518e+00    5.398275e-01   7.383297e-03
  3.599728e+00    5.287932e-01   7.321442e-03
  3.601939e+00    5.466877e-01   7.458508e-03
  3.604149e+00    5.393333e-01   7.422604e-03
  3.606360e+00    5.403677e-01   7.443970e-03
  3.608570e+00    5.245752e-01   7.348372e-03
  3.610780e+00    5.443208e-01   7.496573e-03
  3.612991e+00    5.257992e-01   7.377841e-03
  3.615201e+00    5.478873e-01   7.541136e-03
  3.617412e+00    5.313577e-01   7.433758e-03
  3.619622e+00    5.318663e-01   7.443249e-03
  3.621833e+00    5.274445e-01   7.418920e-03
  3.624043e+00    5.410398e-01   7.523457e-03
  3.626254e+00    5.271950e-01   7.436269e-03
  3.628464e+00    5.269071e-01   7.445092e-03
  3.630675e+00    5.511178e-01   7.628547e-03
  3.632885e+00    5.583385e-01   7.693185e-03
  3.635095e+00    5.434098e-01   7.604138e-03
  3.637306e+00    5.436653e-01   7.620452e-03
  3.639516e+00    5.503298e-01   7.681747e-03
  3.641727e+00    5.469738e-01   7.673074e-03
  3.643937e+00    5.168332e-01   7.472990e-03
  3.646148e+00    5.317894e-01   7.594908e-03
  3.648358e+00    5.342597e-01   7.627422e-03
  3.650569e+00    5.331045e-01   7.633907e-03
  3.652779e+00    5.309959e-01   7.633535e-03
  3.654990e+00    5.273475e-01   7.622085e-03
  3.657200e+00    5.639178e-01   7.897251e-03
  3.659410e+00    5.746073e-01   7.987348e-03
  3.661621e+00    5.340549e-01   7.715460e-03
  3.663831e+00    5.397978e-01   7.772054e-03
  3.666042e+00    5.659766e-01   7.973943e-03
  3.668252e+00    5.395254e-01   7.800752e-03
  3.670463e+00    5.344841e-01   7.779489e-03
  3.672673e+00    5.195935e-01   7.685614e-03
  3.674884e+00    5.298069e-01   7.776123e-03
  3.677094e+00    5.440421e-01   7.895686e-03
  3.679305e+00    5.386664e-01   7.872186e-03
  3.681515e+00    5.374686e-01   7.879183e-03
  3.683726e+00    5.442870e-01   7.945044e-03
  3.685936e+00    5.193349e-01   7.776341e-03
  3.688146e+00    5.268809e-01   7.848381e-03
  3.690357e+00    5.040444e-01   7.692029e-03
  3.692567e+00    5.314914e-01   7.914816e-03
  3.694778e+00    5.277589e-01   7.903097e-03
  3.696988e+00    5.146001e-01   7.819721e-03
  3.699199e+00    5.304998e-01   7.955904e-03
  3.701409e+00    5.267303e-01   7.944063e-03
  3.703620e+00    5.220757e-01   7.925073e-03
  3.705830e+00    5.267168e-01   7.976719e-03
  3.708041e+00    5.249537e-01   7.979945e-03
  3.710251e+00    5.089374e-01   7.873737e-03
  3.712461e+00    5.423736e-01   8.145301e-03
  3.714672e+00    5.305970e-01   8.073268e-03
  3.716882e+00    5.369507e-01   8.138460e-03
  3.719093e+00    5.347734e-01   8.139293e-03
  3.721303e+00    5.356614e-01   8.163298e-03
  3.723514e+00    5.080621e-01   7.967266e-03
  3.725724e+00    5.123060e-01   8.017517e-03
  3.727935e+00    5.192705e-01   8.089324e-03
  3.730145e+00    5.091309e-01   8.027176e-03
  3.732356e+00    5.158956e-01   8.097825e-03
  3.734566e+00    5.145264e-01   8.104623e-03
  3.736776e+00    5.083753e-01   8.073638e-03
  3.738987e+00    5.107818e-01   8.110453e-03
  3.741197e+00    5.041042e-01   8.075059e-03
  3.743408e+00    5.087903e-01   8.130500e-03
  3.745618e+00    5.229734e-01   8.261550e-03
  3.747829e+00    5.088133e-01   8.166976e-03
  3.750039e+00    5.240104e-01   8.306636e-03
  3.752250e+00    4.959066e-01   8.099020e-03
  3.754460e+00    4.960434e-01   8.118399e-03
  3.756671e+00    5.023541e-01   8.188563e-03
  3.758881e+00    5.125436e-01   8.289900e-03
  3.761091e+00    5.000798e-01   8.207480e-03
  3.763302e+00    5.025696e-01   8.246835e-03
  3.765512e+00    5.233659e-01   8.435304e-03
  3.767723e+00    5.021357e-01   8.281664e-03
  3.769933e+00    5.283844e-01   8.515139e-03
  3.772144e+00    5.104911e-01   8.389393e-03
  3.774354e+00    5.053109e-01   8.366550e-03
  3.776565e+00    5.088156e-01   8.415424e-03
  3.778775e+00    4.998909e-01   8.361199e-03
  3.780986e+00    4.995677e-01   8.378657e-03
  3.783196e+00    5.172340e-01   8.546044e-03
  3.785407e+00    5.108425e-01   8.513718e-03
  3.787617e+00    5.105878e-01   8.532431e-03
  3.789827e+00    5.288865e-01   8.705085e-03
  3.792038e+00    5.292234e-01   8.729241e-03
  3.794248e+00    5.156991e-01   8.638505e-03
  3.796459e+00    4.833147e-01   8.383814e-03
  3.798669e+00    4.721488e-01   8.307115e-03
  3.800880e+00    5.076358e-01   8.635237e-03
  3.803090e+00    5.057889e-01   8.641486e-03
  3.805301e+00    4.854338e-01   8.487589e-03
  3.807511e+00    5.125775e-01   8.743919e-03
  3.809722e+00    4.834257e-01   8.513534e-03
  3.811932e+00    4.965021e-01   8.650004e-03
  3.814142e+00    5.220698e-01   8.893316e-03
  3.816353e+00    5.226958e-01   8.922104e-03
  3.818563e+00    4.914115e-01   8.673853e-03
  3.820774e+00    4.872256e-01   8.659781e-03
  3.822984e+00    5.040737e-01   8.831705e-03
  3.825195e+00    5.019317e-01   8.836756e-03
  3.827405e+00    5.066122e-01   8.901972e-03
  3.829616e+00    5.202119e-01   9.045221e-03
  3.831826e+00    5.148246e-01   9.022970e-03
  3.834037e+00    4.938015e-01   8.861188e-03
  3.836247e+00    4.877732e-01   8.831317e-03
  3.838457e+00    5.123836e-01   9.076867e-03
  3.840668e+00    5.035801e-01   9.023919e-03
  3.842878e+00    4.983817e-01   9.002792e-03
  3.845089e+00    5.125346e-01   9.155747e-03
  3.847299e+00    4.865032e-01   8.945744e-03
  3.849510e+00    5.178590e-01   9.255956e-03
  3.851720e+00    5.079687e-01   9.188867e-03
  3.853931e+00    5.061459e-01   9.191586e-03
  3.856141e+00    5.233642e-01   9.366137e-03
  3.858352e+00    4.945311e-01   9.123727e-03
  3.860562e+00    5.084144e-01   9.270563e-03
  3.862772e+00    4.975012e-01   9.190155e-03
  3.864983e+00    5.053884e-01   9.282579e-03
  3.867193e+00    4.966637e-01   9.222000e-03
  3.869404e+00    5.094973e-01   9.360461e-03
  3.871614e+00    4.922662e-01   9.220798e-03
  3.873825e+00    4.919223e-01   9.237868e-03
  3.876035e+00    5.038719e-01   9.370158e-03
  3.878246e+00    5.008164e-01   9.367739e-03
  3.880456e+00    4.880820e-01   9.276747e-03
  3.882667e+00    4.756739e-01   9.186909e-03
  3.884877e+00    5.096975e-01   9.540001e-03
  3.887087e+00    4.853052e-01   9.338762e-03
  3.889298e+00    4.715386e-01   9.235059e-03
  3.891508e+00    5.175243e-01   9.706195e-03
  3.893719e+00    5.189100e-01   9.751121e-03
  3.895929e+00    5.152837e-01   9.749243e-03
  3.898140e+00    4.903951e-01   9.542530e-03
  3.900350e+00    4.930833e-01   9.600835e-03
  3.902561e+00    5.128996e-01   9.824954e-03
  3.904771e+00    5.389276e-01   1.010562e-02
  3.906982e+00    5.038949e-01   9.805297e-03
  3.909192e+00    5.045984e-01   9.846134e-03
  3.911403e+00    4.987974e-01   9.823747e-03
  3.913613e+00    4.901866e-01   9.772849e-03
  3.915823e+00    5.112905e-01   1.001664e-02
  3.918034e+00    5.112119e-01   1.005194e-02
  3.920244e+00    4.863663e-01   9.840306e-03
  3.922455e+00    4.955434e-01   9.969100e-03
  3.924665e+00    4.886122e-01   9.935503e-03
  3.926876e+00    4.930854e-01   1.001823e-02
  3.929086e+00    5.156096e-01   1.028288e-02
  3.931297e+00    4.804128e-01   9.960306e-03
  3.933507e+00    4.682562e-01   9.861822e-03
  3.935718e+00    4.977142e-01   1.019629e-02
  3.937928e+00    5.055389e-01   1.030616e-02
  3.940138e+00    5.099840e-01   1.038139e-02
  3.942349e+00    5.136163e-01   1.044888e-02
  3.944559e+00    5.118378e-01   1.046170e-02
  3.946770e+00    4.877208e-01   1.024236e-02
  3.948980e+00    4.701006e-01   1.008586e-02
  3.951191e+00    4.804894e-01   1.022726e-02
  3.953401e+00    5.192643e-01   1.066438e-02
  3.955612e+00    4.918392e-01   1.041074e-02
  3.957822e+00    5.219876e-01   1.075800e-02
  3.960033e+00    5.050682e-01   1.061534e-02
  3.962243e+00    5.259712e-01   1.086710e-02
  3.964453e+00    4.759405e-01   1.037002e-02
  3.966664e+00    4.821643e-01   1.047091e-02
  3.968874e+00    4.795121e-01   1.047034e-02
  3.971085e+00    4.801296e-01   1.049879e-02
  3.973295e+00    5.225401e-01   1.097498e-02
  3.975506e+00    4.929009e-01   1.068094e-02
  3.977716e+00    5.316419e-01   1.111579e-02
  3.979927e+00    4.894589e-01   1.068791e-02
  3.982137e+00    5.149968e-01   1.098606e-02
  3.984348e+00    5.149955e-01   1.100947e-02
  3.986558e+00    4.809057e-01   1.066095e-02
  3.988768e+00    5.038257e-01   1.093549e-02
  3.990979e+00    5.092389e-01   1.101745e-02
  3.993189e+00    5.329226e-01   1.129491e-02
  3.995400e+00    4.980153e-01   1.094249e-02
  3.997610e+00    5.320355e-01   1.134141e-02
  3.999821e+00    4.762632e-01   1.076764e-02
  4.002031e+00    4.928998e-01   1.099285e-02
  4.004242e+00    4.907665e-01   1.100770e-02
  4.006452e+00    4.603456e-01   1.069951e-02
  4.008663e+00    4.492602e-01   1.060839e-02
  4.010873e+00    4.607792e-01   1.078246e-02
  4.013084e+00    4.958598e-01   1.122678e-02
  4.015294e+00    4.887896e-01   1.118775e-02
  4.017504e+00    4.844766e-01   1.118004e-02
  4.019715e+00    4.900877e-01   1.128732e-02
  4.021925e+00    5.034455e-01   1.148399e-02
  4.024136e+00    5.062725e-01   1.156097e-02
  4.026346e+00    4.806192e-01   1.130810e-02
  4.028557e+00    4.818534e-01   1.136691e-02
  4.030767e+00    4.900673e-01   1.150926e-02
  4.032978e+00    5.096417e-01   1.178450e-02
  4.035188e+00    4.768984e-01   1.144541e-02
  4.037399e+00    5.161976e-01   1.195682e-02
  4.039609e+00    4.932535e-01   1.173638e-02
  4.041819e+00    4.695543e-01   1.149898e-02
  4.044030e+00    4.767327e-01   1.163606e-02
  4.046240e+00    5.057681e-01   1.203619e-02
  4.048451e+00    4.985328e-01   1.200160e-02
  4.050661e+00    5.033076e-01   1.211137e-02
  4.052872e+00    4.850261e-01   1.194229e-02
  4.055082e+00    4.820584e-01   1.195923e-02
  4.057293e+00    4.835486e-01   1.203144e-02
  4.059503e+00    5.070475e-01   1.237633e-02
  4.061714e+00    4.675733e-01   1.194044e-02
  4.063924e+00    4.885230e-01   1.226215e-02
  4.066134e+00    4.932896e-01   1.237988e-02
  4.068345e+00    4.899477e-01   1.239731e-02
  4.070555e+00    4.896646e-01   1.245350e-02
  4.072766e+00    4.811425e-01   1.240534e-02
  4.074976e+00    4.906493e-01   1.259001e-02
  4.077187e+00    4.915051e-01   1.266347e-02
  4.079397e+00    5.053990e-01   1.290677e-02
  4.081608e+00    5.045676e-01   1.296334e-02
  4.083818e+00    4.741437e-01   1.263167e-02
  4.086029e+00    4.652399e-01   1.257855e-02
  4.088239e+00    4.786077e-01   1.282667e-02
  4.090449e+00    4.660867e-01   1.272631e-02
  4.092660e+00    4.809979e-01   1.299947e-02
  4.094870e+00    5.369375e-01   1.381093e-02
  4.097081e+00    5.035675e-01   1.344821e-02
  4.099291e+00    4.957426e-01   1.339868e-02
  4.101502e+00    5.082537e-01   1.361718e-02
  4.103712e+00    5.154542e-01   1.376436e-02
  4.105923e+00    4.939821e-01   1.352685e-02
  4.108133e+00    5.433413e-01   1.424121e-02
  4.110344e+00    4.563173e-01   1.310092e-02
  4.112554e+00    4.915174e-01   1.365065e-02
  4.114764e+00    4.654743e-01   1.333741e-02
  4.116975e+00    4.700329e-01   1.345541e-02
  4.119185e+00    4.542171e-01   1.328071e-02
  4.121396e+00    5.015478e-01   1.401330e-02
  4.123606e+00    4.818972e-01   1.379217e-02
  4.125817e+00    5.165725e-01   1.433970e-02
  4.128027e+00    4.712284e-01   1.375368e-02
  4.130238e+00    5.179536e-01   1.448113e-02
  4.132448e+00    4.747334e-01   1.392414e-02
  4.134659e+00    5.106614e-01   1.450338e-02
  4.136869e+00    5.408831e-01   1.499312e-02
  4.139080e+00    4.504727e-01   1.374438e-02
  4.141290e+00    5.187681e-01   1.481476e-02
  4.143500e+00    4.843298e-01   1.438053e-02
  4.145711e+00    5.130355e-01   1.486999e-02
  4.147921e+00    5.077710e-01   1.486120e-02
  4.150132e+00    5.073271e-01   1.492565e-02
  4.152342e+00    5.074332e-01   1.499942e-02
  4.154553e+00    4.831914e-01   1.470661e-02
  4.156763e+00    4.786937e-01   1.471008e-02
  4.158974e+00    5.338445e-01   1.561256e-02
  4.161184e+00    4.963983e-01   1.512994e-02
  4.163395e+00    4.724713e-01   1.483588e-02
  4.165605e+00    4.939804e-01   1.524879e-02
  4.167815e+00    4.924845e-01   1.530532e-02
  4.170026e+00    4.923035e-01   1.538282e-02
  4.172236e+00    4.535615e-01   1.484537e-02
  4.174447e+00    4.513042e-01   1.488845e-02
  4.176657e+00    5.397581e-01   1.637166e-02
  4.178868e+00    5.060531e-01   1.594170e-02
  4.181078e+00    4.789896e-01   1.559711e-02
  4.183289e+00    4.623869e-01   1.541206e-02
  4.185499e+00    5.257269e-01   1.653095e-02
  4.187710e+00    4.665665e-01   1.566429e-02
  4.189920e+00    4.662960e-01   1.575381e-02
  4.192130e+00    4.673884e-01   1.586871e-02
  4.194341e+00    4.965521e-01   1.645668e-02
  4.196551e+00    4.608195e-01   1.595389e-02
  4.198762e+00    4.898329e-01   1.655283e-02
  4.200972e+00    4.499743e-01   1.596789e-02
  4.203183e+00    4.483936e-01   1.604472e-02
  4.205393e+00    4.491983e-01   1.616604e-02
  4.207604e+00    4.923584e-01   1.704033e-02
  4.209814e+00    4.872178e-01   1.706755e-02
  4.212025e+00    4.912944e-01   1.726010e-02
  4.214235e+00    5.017081e-01   1.756560e-02
  4.216445e+00    4.689372e-01   1.710530e-02
  4.218656e+00    4.615178e-01   1.709657e-02
  4.220866e+00    5.164279e-01   1.821895e-02
  4.223077e+00    4.609188e-01   1.734434e-02
  4.225287e+00    4.733404e-01   1.771465e-02
  4.227498e+00    4.476258e-01   1.736213e-02
  4.229708e+00    4.743850e-01   1.801844e-02
  4.231919e+00    5.046701e-01   1.873869e-02
  4.234129e+00    5.030470e-01   1.886554e-02
  4.236340e+00    4.676830e-01   1.834581e-02
  4.238550e+00    5.238775e-01   1.958806e-02
  4.240761e+00    5.420024e-01   2.010021e-02
  4.242971e+00    5.018457e-01   1.951834e-02
  4.245181e+00    5.835945e-01   2.124608e-02
  4.247392e+00    4.457115e-01   1.874114e-02
  4.249602e+00    4.405885e-01   1.881786e-02
  4.251813e+00    4.619324e-01   1.945812e-02
  4.254023e+00    4.516546e-01   1.943420e-02
  4.256234e+00    5.395568e-01   2.146848e-02
  4.258444e+00    4.717835e-01   2.028516e-02
  4.260655e+00    4.396089e-01   1.979640e-02
  4.262865e+00    4.731488e-01   2.077088e-02
  4.265076e+00    4.493410e-01   2.047099e-02
  4.267286e+00    5.378407e-01   2.266268e-02
  4.269496e+00    4.682006e-01   2.140288e-02
  4.271707e+00    5.007483e-01   2.240725e-02
  4.273917e+00    4.496713e-01   2.150850e-02
  4.276128e+00    4.513981e-01   2.183588e-02
  4.278338e+00    4.525959e-01   2.215656e-02
  4.280549e+00    4.152851e-01   2.152896e-02
  4.282759e+00    4.072277e-01   2.162477e-02
  4.284970e+00    4.240813e-01   2.239398e-02
  4.287180e+00    4.553709e-01   2.348369e-02
  4.289391e+00    5.401635e-01   2.576910e-02
  4.291601e+00    5.133900e-01   2.532349e-02
  4.293811e+00    5.282421e-01   2.588683e-02
  4.296022e+00    4.728371e-01   2.468913e-02
  4.298232e+00    5.122231e-01   2.591221e-02
  4.300443e+00    3.681591e-01   2.214929e-02
  4.302653e+00    4.657994e-01   2.512966e-02
  4.304864e+00    4.865027e-01   2.590387e-02
  4.307074e+00    5.020740e-01   2.655215e-02
  4.309285e+00    4.328285e-01   2.487694e-02
  4.311495e+00    5.080976e-01   2.720583e-02
  4.313706e+00    4.385436e-01   2.551238e-02
  4.315916e+00    4.813490e-01   2.699183e-02
  4.318126e+00    4.247573e-01   2.560731e-02
  4.320337e+00    3.631857e-01   2.391630e-02
  4.322547e+00    4.483807e-01   2.685639e-02
  4.324758e+00    4.737981e-01   2.789518e-02
  4.326968e+00    5.072507e-01   2.918684e-02
  4.329179e+00    5.373778e-01   3.037347e-02
  4.331389e+00    3.944041e-01   2.631987e-02
  4.333600e+00    5.136636e-01   3.039595e-02
  4.335810e+00    4.880079e-01   2.998000e-02
  4.338021e+00    5.537618e-01   3.234395e-02
  4.340231e+00    3.897971e-01   2.747833e-02
  4.342442e+00    3.459337e-01   2.623234e-02
  4.344652e+00    4.183286e-01   2.923791e-02
  4.346862e+00    4.117459e-01   2.941451e-02
  4.349073e+00    5.121206e-01   3.328064e-02
  4.351283e+00    4.048312e-01   3.003335e-02
  4.353494e+00    3.809924e-01   2.958524e-02
  4.355704e+00    4.122587e-01   3.126887e-02
  4.357915e+00    5.834541e-01   3.782042e-02
  4.360125e+00    5.999020e-01   3.900372e-02
  4.362336e+00    5.105519e-01   3.663888e-02
  4.364546e+00    4.420461e-01   3.471183e-02
  4.366757e+00    5.091774e-01   3.799702e-02
  4.368967e+00    3.468843e-01   3.198690e-02
  4.371177e+00    4.119504e-01   3.559926e-02
  4.373388e+00    6.015652e-01   4.397931e-02
  4.375598e+00    5.028536e-01   4.112912e-02
  4.377809e+00    4.227624e-01   3.866376e-02
  4.380019e+00    5.807014e-01   4.645542e-02
  4.382230e+00    4.072725e-01   3.998996e-02
  4.384440e+00    3.661033e-01   3.900651e-02
  4.386651e+00    3.927117e-01   4.164314e-02
  4.388861e+00    4.249441e-01   4.477227e-02
  4.391072e+00    5.674235e-01   5.355387e-02
  4.393282e+00    5.266181e-01   5.359022e-02
  4.395492e+00    3.842067e-01   4.767374e-02
  4.397703e+00    3.656986e-01   4.863834e-02
  4.399913e+00    4.250866e-01   5.509476e-02
  4.402124e+00    3.074962e-01   4.951363e-02
  4.404334e+00    5.573680e-01   7.086071e-02
  4.406545e+00    4.408355e-01   6.770798e-02
  4.408755e+00    4.804221e-01   7.666056e-02
  4.410966e+00    4.154783e-01   7.890079e-02
  4.413176e+00    2.619513e-01   7.091607e-02
  4.415387e+00   -5.958006e-01            nan
  4.417597e+00   -1.864350e+00            nan
  4.419807e+00   -1.939845e-01            nan
