# == pyFAI calibration ==
# Distance Sample to Detector: 0.216 m
# PONI: 1.166e-01, 1.308e-01 m
# Rotations: 0.000000 0.000000 0.000000 rad
# 
# == Fit2d calibration ==
# Distance Sample-beamCenter: 216.000 mm
# Center: x=1744.293, y=1555.000 pix
# Tilt: 0.000 deg  TiltPlanRot: 0.000 deg
# 
# Detector Eiger 9M	 PixelSize= 7.500e-05, 7.500e-05 m
#    Detector has a mask: True 
#    Detector has a dark current: False 
#    detector has a flat field: False 
# 
# Wavelength: 9.8e-11 m
# Mask applied: from detector
# Dark current applied: False
# Flat field applied: False
# Polarization factor: None
# Normalization factor: 1.0
# 
# Headers of the input frame:
# {
# "_array_data.header_convention": "SLS_1.0",
# "_array_data.header_contents": "# Detector: Dectris Eiger 9M, S/N E-18-0102\r\n# Pixel_size 75e-6 m x 75e-6 m\r\n# Silicon sensor, thickness 0.000450 m\r\n# Exposure_time 0.024997 s\r\n# Exposure_period 0.025000 s\r\n# Count_cutoff 62318 counts\r\n# Wavelength 0.980106 A\r\n# Detector_distance 0.215992 m\r\n# Beam_xy (1555, 1744) pixels\r\n# Start_angle 0.000000 deg.\r\n# Angle_increment 0.000000 deg.",
# "Content-Type": "application/octet-stream;",
# "conversions": "x-CBF_BYTE_OFFSET",
# "Content-Transfer-Encoding": "BINARY",
# "X-Binary-Size": "10166594",
# "X-Binary-ID": "1",
# "X-Binary-Element-Type": "signed 32-bit integer",
# "X-Binary-Element-Byte-Order": "LITTLE_ENDIAN",
# "Content-MD5": "sEy05yuim2mNWFJk479eBA==",
# "X-Binary-Number-of-Elements": "10166590",
# "X-Binary-Size-Fastest-Dimension": "3110",
# "X-Binary-Size-Second-Dimension": "3269",
# "X-Binary-Size-Padding": "4095"
# }
# --> H:/Proxima2a_2019-04-05/RAW_DATA/C5_gel17_position5/C5_mesh_1_data.cbf/C5_mesh_1_data.cbf000079.dat
#        q_A^-1              I           sigma 
  1.105228e-03    1.300655e+00   6.171177e-01
  3.315685e-03    1.275109e+00   3.714660e-01
  5.526141e-03    1.591744e+00   3.209289e-01
  7.736597e-03    1.361145e+00   2.507104e-01
  9.947054e-03    1.481267e+00   2.305649e-01
  1.215751e-02    1.543749e+00   2.128418e-01
  1.436797e-02    1.574183e+00   1.976985e-01
  1.657842e-02    1.357180e+00   1.708689e-01
  1.878888e-02    1.496862e+00   1.685599e-01
  2.099934e-02    1.488174e+00   1.590117e-01
  2.320979e-02    1.366666e+00   1.449319e-01
  2.542025e-02    1.483943e+00   1.443172e-01
  2.763070e-02    1.420553e+00   1.354313e-01
  2.984116e-02    1.405594e+00   1.296303e-01
  3.205162e-02    1.464983e+00   1.277034e-01
  3.426207e-02    1.479411e+00   1.241136e-01
  3.647253e-02    1.294922e+00   1.125412e-01
  3.868299e-02    1.485635e+00   1.170582e-01
  4.089344e-02    1.488857e+00   1.139744e-01
  4.310390e-02    1.480904e+00   1.107101e-01
  4.531436e-02    1.476664e+00   1.078218e-01
  4.752481e-02    1.372754e+00   1.015115e-01
  4.973527e-02    1.421121e+00   1.009642e-01
  5.194572e-02    1.434448e+00   9.925337e-02
  5.415618e-02    1.430301e+00   9.706274e-02
  5.636664e-02    1.419634e+00   9.478800e-02
  5.857709e-02    1.432119e+00   9.339082e-02
  6.078755e-02    1.507694e+00   9.406193e-02
  6.299801e-02    1.461303e+00   9.096341e-02
  6.520846e-02    1.514325e+00   9.101652e-02
  6.741892e-02    1.570908e+00   9.116439e-02
  6.962938e-02    1.444320e+00   8.601972e-02
  7.183983e-02    1.627984e+00   8.990775e-02
  7.405029e-02    1.462649e+00   8.393660e-02
  7.626074e-02    1.374672e+00   8.018441e-02
  7.847120e-02    1.357379e+00   7.854608e-02
  8.068166e-02    1.424481e+00   7.935360e-02
  8.289211e-02    1.411693e+00   7.793575e-02
  8.510257e-02    1.436211e+00   7.758155e-02
  8.731303e-02    1.433672e+00   7.652259e-02
  8.952348e-02    1.480687e+00   7.680318e-02
  9.173394e-02    1.409548e+00   7.402423e-02
  9.394439e-02    1.449054e+00   7.416372e-02
  9.615485e-02    1.501746e+00   7.462561e-02
  9.836531e-02    1.500440e+00   7.374825e-02
  1.005758e-01    1.428206e+00   7.115656e-02
  1.027862e-01    1.465556e+00   7.129993e-02
  1.049967e-01    1.525190e+00   7.196508e-02
  1.072071e-01    1.525491e+00   7.122553e-02
  1.094176e-01    1.506420e+00   7.005923e-02
  1.116280e-01    1.556889e+00   7.051288e-02
  1.138385e-01    1.560631e+00   6.990744e-02
  1.160490e-01    1.546198e+00   6.891673e-02
  1.182594e-01    1.504406e+00   6.733920e-02
  1.204699e-01    1.459073e+00   6.570510e-02
  1.226803e-01    1.541478e+00   6.692108e-02
  1.248908e-01    1.556542e+00   6.664875e-02
  1.271012e-01    1.505680e+00   6.497699e-02
  1.293117e-01    1.633353e+00   6.709402e-02
  1.315222e-01    1.653894e+00   6.694330e-02
  1.337326e-01    1.663790e+00   6.658478e-02
  1.359431e-01    1.554595e+00   6.440038e-02
  1.381535e-01    1.562669e+00   6.543408e-02
  1.403640e-01    1.571287e+00   6.589757e-02
  1.425744e-01    1.525315e+00   6.503016e-02
  1.447849e-01    1.488857e+00   6.426305e-02
  1.469953e-01    1.585887e+00   6.628250e-02
  1.492058e-01    1.592189e+00   6.633690e-02
  1.514163e-01    1.548452e+00   6.531079e-02
  1.536267e-01    1.598042e+00   6.621881e-02
  1.558372e-01    1.656069e+00   6.726152e-02
  1.580476e-01    1.651260e+00   6.700083e-02
  1.602581e-01    1.635279e+00   6.650648e-02
  1.624685e-01    1.656863e+00   6.676065e-02
  1.646790e-01    1.697950e+00   6.738929e-02
  1.668895e-01    1.668911e+00   6.661762e-02
  1.690999e-01    1.686182e+00   6.676031e-02
  1.713104e-01    1.773861e+00   6.826155e-02
  1.735208e-01    1.897449e+00   7.037992e-02
  1.757313e-01    1.823964e+00   6.878738e-02
  1.779417e-01    1.838863e+00   6.884248e-02
  1.801522e-01    1.855407e+00   6.893123e-02
  1.823626e-01    1.830961e+00   6.824768e-02
  1.845731e-01    1.863783e+00   6.863362e-02
  1.867836e-01    1.915837e+00   6.935062e-02
  1.889940e-01    1.909804e+00   6.901507e-02
  1.912045e-01    1.943981e+00   6.939735e-02
  1.934149e-01    1.999625e+00   7.014796e-02
  1.956254e-01    1.986263e+00   6.968264e-02
  1.978358e-01    1.971054e+00   6.917746e-02
  2.000463e-01    2.022734e+00   6.984625e-02
  2.022568e-01    1.979636e+00   6.887136e-02
  2.044672e-01    1.938341e+00   6.791577e-02
  2.066777e-01    2.010116e+00   6.893220e-02
  2.088881e-01    2.017186e+00   6.882745e-02
  2.110986e-01    1.916773e+00   6.686239e-02
  2.133090e-01    1.952239e+00   6.725881e-02
  2.155195e-01    1.969911e+00   6.733838e-02
  2.177300e-01    1.959380e+00   6.663057e-02
  2.199404e-01    1.940563e+00   6.456261e-02
  2.221509e-01    1.991409e+00   6.432901e-02
  2.243613e-01    1.960134e+00   6.301278e-02
  2.265718e-01    2.097757e+00   6.446886e-02
  2.287822e-01    1.983352e+00   6.206581e-02
  2.309927e-01    1.980238e+00   6.145206e-02
  2.332031e-01    2.130448e+00   6.319465e-02
  2.354136e-01    2.154449e+00   6.303457e-02
  2.376241e-01    2.168053e+00   6.274243e-02
  2.398345e-01    2.253067e+00   6.348740e-02
  2.420450e-01    2.242422e+00   6.288460e-02
  2.442554e-01    2.181159e+00   6.159238e-02
  2.464659e-01    2.189739e+00   6.129906e-02
  2.486763e-01    2.136497e+00   6.015125e-02
  2.508868e-01    2.071385e+00   5.885395e-02
  2.530973e-01    2.023939e+00   5.781532e-02
  2.553077e-01    2.027215e+00   5.751112e-02
  2.575182e-01    2.033945e+00   5.726565e-02
  2.597286e-01    2.145828e+00   5.847769e-02
  2.619391e-01    2.065466e+00   5.704196e-02
  2.641495e-01    2.094113e+00   5.711825e-02
  2.663600e-01    2.085352e+00   5.668520e-02
  2.685704e-01    2.038436e+00   5.574013e-02
  2.707809e-01    2.038776e+00   5.544889e-02
  2.729914e-01    2.034956e+00   5.510822e-02
  2.752018e-01    2.037735e+00   5.485882e-02
  2.774123e-01    2.012479e+00   5.423932e-02
  2.796227e-01    1.994743e+00   5.373265e-02
  2.818332e-01    2.030850e+00   5.394633e-02
  2.840436e-01    1.975623e+00   5.294985e-02
  2.862541e-01    1.983530e+00   5.280066e-02
  2.884646e-01    1.947290e+00   5.206780e-02
  2.906750e-01    1.942485e+00   5.175694e-02
  2.928855e-01    2.027944e+00   5.263817e-02
  2.950959e-01    2.032528e+00   5.245557e-02
  2.973064e-01    1.994876e+00   5.173387e-02
  2.995168e-01    1.972339e+00   5.120784e-02
  3.017273e-01    1.899908e+00   5.003719e-02
  3.039377e-01    1.882779e+00   4.959301e-02
  3.061482e-01    1.918556e+00   4.984542e-02
  3.083587e-01    1.861905e+00   4.889145e-02
  3.105691e-01    1.854374e+00   4.858406e-02
  3.127796e-01    1.793609e+00   4.758054e-02
  3.149900e-01    1.807180e+00   4.756119e-02
  3.172005e-01    1.794484e+00   4.720005e-02
  3.194109e-01    1.863177e+00   4.789641e-02
  3.216214e-01    1.794254e+00   4.681041e-02
  3.238319e-01    1.857846e+00   4.744396e-02
  3.260423e-01    1.929770e+00   4.816105e-02
  3.282528e-01    1.852669e+00   4.700126e-02
  3.304632e-01    1.854067e+00   4.683683e-02
  3.326737e-01    1.961203e+00   4.798310e-02
  3.348841e-01    1.908877e+00   4.715512e-02
  3.370946e-01    1.874654e+00   4.655466e-02
  3.393050e-01    1.868932e+00   4.630748e-02
  3.415155e-01    1.888321e+00   4.637204e-02
  3.437260e-01    1.828492e+00   4.546240e-02
  3.459364e-01    1.866871e+00   4.576707e-02
  3.481469e-01    1.859626e+00   4.551149e-02
  3.503573e-01    1.795075e+00   4.455171e-02
  3.525678e-01    1.753921e+00   4.388112e-02
  3.547782e-01    1.780375e+00   4.405099e-02
  3.569887e-01    1.824022e+00   4.442973e-02
  3.591992e-01    1.804363e+00   4.403329e-02
  3.614096e-01    1.756879e+00   4.329937e-02
  3.636201e-01    1.774578e+00   4.336401e-02
  3.658305e-01    1.773100e+00   4.319809e-02
  3.680410e-01    1.763537e+00   4.293327e-02
  3.702514e-01    1.810078e+00   4.334980e-02
  3.724619e-01    1.808294e+00   4.318091e-02
  3.746724e-01    1.816769e+00   4.313756e-02
  3.768828e-01    1.816590e+00   4.299029e-02
  3.790933e-01    1.779460e+00   4.241003e-02
  3.813037e-01    1.804560e+00   4.256836e-02
  3.835142e-01    1.757712e+00   4.187418e-02
  3.857246e-01    1.753803e+00   4.169222e-02
  3.879351e-01    1.787080e+00   4.194968e-02
  3.901455e-01    1.784993e+00   4.179171e-02
  3.923560e-01    1.780232e+00   4.160328e-02
  3.945665e-01    1.816633e+00   4.189320e-02
  3.967769e-01    1.823148e+00   4.183682e-02
  3.989874e-01    1.746880e+00   4.082452e-02
  4.011978e-01    1.784213e+00   4.113156e-02
  4.034083e-01    1.788430e+00   4.105372e-02
  4.056187e-01    1.820174e+00   4.128889e-02
  4.078292e-01    1.765720e+00   4.054353e-02
  4.100397e-01    1.780369e+00   4.058703e-02
  4.122501e-01    1.775360e+00   4.040864e-02
  4.144606e-01    1.743911e+00   3.993040e-02
  4.166710e-01    1.764814e+00   4.004953e-02
  4.188815e-01    1.790227e+00   4.021771e-02
  4.210919e-01    1.811056e+00   4.033245e-02
  4.233024e-01    1.804566e+00   4.014170e-02
  4.255128e-01    1.797419e+00   3.994632e-02
  4.277233e-01    1.811829e+00   3.999091e-02
  4.299338e-01    1.769476e+00   3.940701e-02
  4.321442e-01    1.779107e+00   3.940103e-02
  4.343547e-01    1.766284e+00   3.914779e-02
  4.365651e-01    1.737536e+00   3.871755e-02
  4.387756e-01    1.780226e+00   3.908059e-02
  4.409860e-01    1.707329e+00   3.816604e-02
  4.431965e-01    1.720100e+00   3.820259e-02
  4.454070e-01    1.766761e+00   3.860957e-02
  4.476174e-01    1.779522e+00   3.864235e-02
  4.498279e-01    1.762285e+00   3.835015e-02
  4.520383e-01    1.688752e+00   3.743847e-02
  4.542488e-01    1.765301e+00   3.817438e-02
  4.564592e-01    1.718602e+00   3.756502e-02
  4.586697e-01    1.699340e+00   3.725478e-02
  4.608801e-01    1.705191e+00   3.721888e-02
  4.630906e-01    1.701547e+00   3.708066e-02
  4.653011e-01    1.655821e+00   3.648284e-02
  4.675115e-01    1.720726e+00   3.709302e-02
  4.697220e-01    1.684199e+00   3.660115e-02
  4.719324e-01    1.724672e+00   3.694250e-02
  4.741429e-01    1.707853e+00   3.666722e-02
  4.763533e-01    1.675226e+00   3.622218e-02
  4.785638e-01    1.692776e+00   3.631737e-02
  4.807743e-01    1.692303e+00   3.621993e-02
  4.829847e-01    1.728134e+00   3.650892e-02
  4.851952e-01    1.656919e+00   3.565828e-02
  4.874056e-01    1.708615e+00   3.611897e-02
  4.896161e-01    1.693927e+00   3.587423e-02
  4.918265e-01    1.701077e+00   3.586056e-02
  4.940370e-01    1.679470e+00   3.554413e-02
  4.962475e-01    1.650439e+00   3.514856e-02
  4.984579e-01    1.650406e+00   3.506159e-02
  5.006684e-01    1.709887e+00   3.560078e-02
  5.028788e-01    1.700093e+00   3.541269e-02
  5.050893e-01    1.671922e+00   3.503263e-02
  5.072997e-01    1.670740e+00   3.493568e-02
  5.095102e-01    1.666445e+00   3.480716e-02
  5.117206e-01    1.705067e+00   3.512448e-02
  5.139311e-01    1.676016e+00   3.474157e-02
  5.161416e-01    1.686247e+00   3.476510e-02
  5.183520e-01    1.639339e+00   3.419667e-02
  5.205625e-01    1.675525e+00   3.449103e-02
  5.227729e-01    1.664275e+00   3.429488e-02
  5.249834e-01    1.640014e+00   3.396497e-02
  5.271938e-01    1.693617e+00   3.443502e-02
  5.294043e-01    1.774631e+00   3.516765e-02
  5.316148e-01    1.769220e+00   3.503359e-02
  5.338252e-01    1.798223e+00   3.523884e-02
  5.360357e-01    1.801722e+00   3.519282e-02
  5.382461e-01    1.761819e+00   3.472227e-02
  5.404566e-01    1.681749e+00   3.384686e-02
  5.426670e-01    1.743670e+00   3.438666e-02
  5.448775e-01    1.745726e+00   3.433009e-02
  5.470879e-01    1.736486e+00   3.416275e-02
  5.492984e-01    1.803532e+00   3.473859e-02
  5.515089e-01    1.813937e+00   3.476140e-02
  5.537193e-01    1.783778e+00   3.439527e-02
  5.559298e-01    1.756723e+00   3.405856e-02
  5.581402e-01    1.786821e+00   3.427402e-02
  5.603507e-01    1.793088e+00   3.425937e-02
  5.625611e-01    1.752808e+00   3.379887e-02
  5.647716e-01    1.774463e+00   3.393318e-02
  5.669821e-01    1.740776e+00   3.353707e-02
  5.691925e-01    1.776346e+00   3.380526e-02
  5.714030e-01    1.745923e+00   3.344308e-02
  5.736134e-01    1.727944e+00   3.319966e-02
  5.758239e-01    1.693664e+00   3.279855e-02
  5.780343e-01    1.676999e+00   3.256776e-02
  5.802448e-01    1.619660e+00   3.193915e-02
  5.824552e-01    1.594532e+00   3.162390e-02
  5.846657e-01    1.649207e+00   3.209447e-02
  5.868762e-01    1.644235e+00   3.197934e-02
  5.890866e-01    1.590770e+00   3.138988e-02
  5.912971e-01    1.610643e+00   3.151992e-02
  5.935075e-01    1.614639e+00   3.149378e-02
  5.957180e-01    1.629387e+00   3.157238e-02
  5.979284e-01    1.619411e+00   3.141132e-02
  6.001389e-01    1.640519e+00   3.155098e-02
  6.023494e-01    1.652561e+00   3.160229e-02
  6.045598e-01    1.614211e+00   3.116986e-02
  6.067703e-01    1.629043e+00   3.124975e-02
  6.089807e-01    1.627955e+00   3.117651e-02
  6.111912e-01    1.634726e+00   3.117891e-02
  6.134016e-01    1.658496e+00   3.134211e-02
  6.156121e-01    1.682220e+00   3.150275e-02
  6.178226e-01    1.694504e+00   3.155497e-02
  6.200330e-01    1.652378e+00   3.109880e-02
  6.222435e-01    1.682983e+00   3.132330e-02
  6.244539e-01    1.707379e+00   3.148774e-02
  6.266644e-01    1.698982e+00   3.134894e-02
  6.288748e-01    1.739601e+00   3.165974e-02
  6.310853e-01    1.731712e+00   3.152654e-02
  6.332957e-01    1.715002e+00   3.131348e-02
  6.355062e-01    1.737710e+00   3.145888e-02
  6.377167e-01    1.707750e+00   3.112667e-02
  6.399271e-01    1.731839e+00   3.128538e-02
  6.421376e-01    1.699329e+00   3.093118e-02
  6.443480e-01    1.716020e+00   3.102357e-02
  6.465585e-01    1.726662e+00   3.106069e-02
  6.487689e-01    1.653592e+00   3.033897e-02
  6.509794e-01    1.659014e+00   3.033133e-02
  6.531899e-01    1.635503e+00   3.005904e-02
  6.554003e-01    1.603113e+00   2.970392e-02
  6.576108e-01    1.613953e+00   2.974871e-02
  6.598212e-01    1.577285e+00   2.935418e-02
  6.620317e-01    1.598631e+00   2.949735e-02
  6.642421e-01    1.627475e+00   2.970721e-02
  6.664526e-01    1.610785e+00   2.950005e-02
  6.686630e-01    1.568325e+00   2.905483e-02
  6.708735e-01    1.545076e+00   2.878575e-02
  6.730840e-01    1.597694e+00   2.921845e-02
  6.752944e-01    1.595157e+00   2.914214e-02
  6.775049e-01    1.573938e+00   2.889512e-02
  6.797153e-01    1.620196e+00   2.926354e-02
  6.819258e-01    1.590769e+00   2.894432e-02
  6.841362e-01    1.576915e+00   2.876616e-02
  6.863467e-01    1.583074e+00   2.877065e-02
  6.885572e-01    1.594794e+00   2.882522e-02
  6.907676e-01    1.579019e+00   2.863090e-02
  6.929781e-01    1.575159e+00   2.854506e-02
  6.951885e-01    1.597997e+00   2.870033e-02
  6.973990e-01    1.560143e+00   2.830823e-02
  6.996094e-01    1.560506e+00   2.826170e-02
  7.018199e-01    1.583200e+00   2.841650e-02
  7.040303e-01    1.587498e+00   2.840505e-02
  7.062408e-01    1.589512e+00   2.837330e-02
  7.084513e-01    1.566915e+00   2.812188e-02
  7.106617e-01    1.544568e+00   2.787213e-02
  7.128722e-01    1.544175e+00   2.782034e-02
  7.150826e-01    1.542659e+00   2.775877e-02
  7.172931e-01    1.582614e+00   2.806747e-02
  7.195035e-01    1.557100e+00   2.779246e-02
  7.217140e-01    1.562868e+00   2.789313e-02
  7.239245e-01    1.597481e+00   2.842870e-02
  7.261349e-01    1.579310e+00   2.837534e-02
  7.283454e-01    1.549804e+00   2.818085e-02
  7.305558e-01    1.543655e+00   2.817835e-02
  7.327663e-01    1.554624e+00   2.832049e-02
  7.349767e-01    1.577762e+00   2.854687e-02
  7.371872e-01    1.587810e+00   2.862639e-02
  7.393976e-01    1.575605e+00   2.850192e-02
  7.416081e-01    1.521235e+00   2.798993e-02
  7.438186e-01    1.549601e+00   2.810650e-02
  7.460290e-01    1.562977e+00   2.793441e-02
  7.482395e-01    1.557985e+00   2.771951e-02
  7.504499e-01    1.573336e+00   2.771952e-02
  7.526604e-01    1.573854e+00   2.760755e-02
  7.548708e-01    1.580748e+00   2.757837e-02
  7.570813e-01    1.577707e+00   2.750081e-02
  7.592918e-01    1.574871e+00   2.744089e-02
  7.615022e-01    1.574553e+00   2.740433e-02
  7.637127e-01    1.582041e+00   2.743655e-02
  7.659231e-01    1.558868e+00   2.720304e-02
  7.681336e-01    1.588854e+00   2.743166e-02
  7.703440e-01    1.591226e+00   2.742077e-02
  7.725545e-01    1.576275e+00   2.726073e-02
  7.747650e-01    1.586079e+00   2.730705e-02
  7.769754e-01    1.563268e+00   2.705747e-02
  7.791859e-01    1.563304e+00   2.700450e-02
  7.813963e-01    1.564979e+00   2.696661e-02
  7.836068e-01    1.535454e+00   2.665983e-02
  7.858172e-01    1.574820e+00   2.694892e-02
  7.880277e-01    1.601234e+00   2.712231e-02
  7.902381e-01    1.635235e+00   2.735894e-02
  7.924486e-01    1.632225e+00   2.728315e-02
  7.946591e-01    1.580318e+00   2.679781e-02
  7.968695e-01    1.639046e+00   2.724238e-02
  7.990800e-01    1.643289e+00   2.722887e-02
  8.012904e-01    1.631136e+00   2.708107e-02
  8.035009e-01    1.654662e+00   2.722714e-02
  8.057113e-01    1.631750e+00   2.699123e-02
  8.079218e-01    1.617668e+00   2.682811e-02
  8.101323e-01    1.634595e+00   2.692233e-02
  8.123427e-01    1.641177e+00   2.693049e-02
  8.145532e-01    1.632625e+00   2.681427e-02
  8.167636e-01    1.626777e+00   2.672120e-02
  8.189741e-01    1.626311e+00   2.667283e-02
  8.211845e-01    1.632347e+00   2.667748e-02
  8.233950e-01    1.674303e+00   2.697421e-02
  8.256054e-01    1.674971e+00   2.693491e-02
  8.278159e-01    1.635474e+00   2.657150e-02
  8.300264e-01    1.625777e+00   2.644970e-02
  8.322368e-01    1.625817e+00   2.640703e-02
  8.344473e-01    1.661888e+00   2.665471e-02
  8.366577e-01    1.664662e+00   2.663403e-02
  8.388682e-01    1.629483e+00   2.630897e-02
  8.410786e-01    1.639943e+00   2.635122e-02
  8.432891e-01    1.619638e+00   2.614598e-02
  8.454996e-01    1.618296e+00   2.609376e-02
  8.477100e-01    1.659174e+00   2.637935e-02
  8.499205e-01    1.642568e+00   2.620580e-02
  8.521309e-01    1.635233e+00   2.610645e-02
  8.543414e-01    1.595594e+00   2.574784e-02
  8.565518e-01    1.619056e+00   2.589610e-02
  8.587623e-01    1.623575e+00   2.589181e-02
  8.609727e-01    1.663775e+00   2.616977e-02
  8.631832e-01    1.620107e+00   2.578424e-02
  8.653937e-01    1.604089e+00   2.561703e-02
  8.676041e-01    1.574159e+00   2.533864e-02
  8.698146e-01    1.622941e+00   2.568888e-02
  8.720250e-01    1.651029e+00   2.587078e-02
  8.742355e-01    1.625541e+00   2.563123e-02
  8.764459e-01    1.585751e+00   2.527697e-02
  8.786564e-01    1.581388e+00   2.520454e-02
  8.808669e-01    1.584376e+00   2.519008e-02
  8.830773e-01    1.594597e+00   2.523317e-02
  8.852878e-01    1.572232e+00   2.501801e-02
  8.874982e-01    1.580084e+00   2.504401e-02
  8.897087e-01    1.571606e+00   2.493941e-02
  8.919191e-01    1.586723e+00   2.502147e-02
  8.941296e-01    1.578079e+00   2.491620e-02
  8.963401e-01    1.587105e+00   2.495106e-02
  8.985505e-01    1.603621e+00   2.504356e-02
  9.007610e-01    1.577201e+00   2.479993e-02
  9.029714e-01    1.568323e+00   2.469454e-02
  9.051819e-01    1.561092e+00   2.460078e-02
  9.073923e-01    1.584881e+00   2.475111e-02
  9.096028e-01    1.589143e+00   2.474957e-02
  9.118132e-01    1.577549e+00   2.462318e-02
  9.140237e-01    1.581002e+00   2.461367e-02
  9.162342e-01    1.609063e+00   2.479651e-02
  9.184446e-01    1.607167e+00   2.474605e-02
  9.206551e-01    1.612112e+00   2.474836e-02
  9.228655e-01    1.604924e+00   2.465785e-02
  9.250760e-01    1.594179e+00   2.453988e-02
  9.272864e-01    1.607746e+00   2.460978e-02
  9.294969e-01    1.579298e+00   2.435553e-02
  9.317074e-01    1.571885e+00   2.426396e-02
  9.339178e-01    1.623183e+00   2.462303e-02
  9.361283e-01    1.641607e+00   2.472587e-02
  9.383387e-01    1.641645e+00   2.469254e-02
  9.405492e-01    1.601961e+00   2.435820e-02
  9.427596e-01    1.622684e+00   2.447993e-02
  9.449701e-01    1.651654e+00   2.466394e-02
  9.471805e-01    1.660357e+00   2.469379e-02
  9.493910e-01    1.715063e+00   2.506287e-02
  9.516015e-01    1.695517e+00   2.488487e-02
  9.538119e-01    1.691853e+00   2.482390e-02
  9.560224e-01    1.703144e+00   2.487153e-02
  9.582328e-01    1.739849e+00   2.510437e-02
  9.604433e-01    1.749999e+00   2.514187e-02
  9.626537e-01    1.772177e+00   2.526663e-02
  9.648642e-01    1.813348e+00   2.552346e-02
  9.670747e-01    1.777936e+00   2.523816e-02
  9.692851e-01    1.807791e+00   2.541534e-02
  9.714956e-01    1.824955e+00   2.549970e-02
  9.737060e-01    1.822834e+00   2.545142e-02
  9.759165e-01    1.811476e+00   2.533621e-02
  9.781269e-01    1.820756e+00   2.536780e-02
  9.803374e-01    1.851880e+00   2.554830e-02
  9.825478e-01    1.841116e+00   2.544036e-02
  9.847583e-01    1.819547e+00   2.525656e-02
  9.869688e-01    1.795450e+00   2.505518e-02
  9.891792e-01    1.780673e+00   2.491869e-02
  9.913897e-01    1.766515e+00   2.478594e-02
  9.936001e-01    1.737652e+00   2.455044e-02
  9.958106e-01    1.719324e+00   2.438743e-02
  9.980210e-01    1.678578e+00   2.406545e-02
  1.000231e+00    1.676043e+00   2.417900e-02
  1.002442e+00    1.630849e+00   2.397752e-02
  1.004652e+00    1.594100e+00   2.377196e-02
  1.006863e+00    1.603208e+00   2.388921e-02
  1.009073e+00    1.613715e+00   2.400408e-02
  1.011284e+00    1.626162e+00   2.412867e-02
  1.013494e+00    1.628221e+00   2.416789e-02
  1.015705e+00    1.661509e+00   2.443676e-02
  1.017915e+00    1.650971e+00   2.437595e-02
  1.020126e+00    1.614576e+00   2.412205e-02
  1.022336e+00    1.607522e+00   2.408117e-02
  1.024547e+00    1.531097e+00   2.351291e-02
  1.026757e+00    1.542490e+00   2.360857e-02
  1.028967e+00    1.568645e+00   2.381562e-02
  1.031178e+00    1.573161e+00   2.385613e-02
  1.033388e+00    1.560349e+00   2.376390e-02
  1.035599e+00    1.510689e+00   2.338608e-02
  1.037809e+00    1.532497e+00   2.355754e-02
  1.040020e+00    1.564994e+00   2.380727e-02
  1.042230e+00    1.619131e+00   2.421755e-02
  1.044441e+00    1.651215e+00   2.445611e-02
  1.046651e+00    1.617334e+00   2.420409e-02
  1.048862e+00    1.533760e+00   2.356964e-02
  1.051072e+00    1.533658e+00   2.356644e-02
  1.053282e+00    1.549323e+00   2.368554e-02
  1.055493e+00    1.541908e+00   2.362441e-02
  1.057703e+00    1.509401e+00   2.337257e-02
  1.059914e+00    1.491894e+00   2.323233e-02
  1.062124e+00    1.531481e+00   2.353444e-02
  1.064335e+00    1.505599e+00   2.333127e-02
  1.066545e+00    1.496437e+00   2.325414e-02
  1.068756e+00    1.497359e+00   2.325754e-02
  1.070966e+00    1.484720e+00   2.315263e-02
  1.073177e+00    1.448271e+00   2.286067e-02
  1.075387e+00    1.475379e+00   2.306837e-02
  1.077597e+00    1.470552e+00   2.302336e-02
  1.079808e+00    1.477620e+00   2.294527e-02
  1.082018e+00    1.478547e+00   2.276239e-02
  1.084229e+00    1.436286e+00   2.232560e-02
  1.086439e+00    1.479751e+00   2.257271e-02
  1.088650e+00    1.475712e+00   2.246566e-02
  1.090860e+00    1.484934e+00   2.246743e-02
  1.093071e+00    1.481528e+00   2.237878e-02
  1.095281e+00    1.482757e+00   2.233011e-02
  1.097492e+00    1.448119e+00   2.201278e-02
  1.099702e+00    1.419546e+00   2.174351e-02
  1.101912e+00    1.454157e+00   2.195787e-02
  1.104123e+00    1.452449e+00   2.189649e-02
  1.106333e+00    1.428148e+00   2.166818e-02
  1.108544e+00    1.445735e+00   2.175669e-02
  1.110754e+00    1.441987e+00   2.168522e-02
  1.112965e+00    1.435304e+00   2.159420e-02
  1.115175e+00    1.392857e+00   2.123170e-02
  1.117386e+00    1.412423e+00   2.134107e-02
  1.119596e+00    1.388399e+00   2.112124e-02
  1.121807e+00    1.399807e+00   2.116918e-02
  1.124017e+00    1.373721e+00   2.093477e-02
  1.126228e+00    1.392951e+00   2.104518e-02
  1.128438e+00    1.415528e+00   2.117809e-02
  1.130648e+00    1.401924e+00   2.104175e-02
  1.132859e+00    1.397213e+00   2.097197e-02
  1.135069e+00    1.394394e+00   2.091607e-02
  1.137280e+00    1.383832e+00   2.080378e-02
  1.139490e+00    1.372051e+00   2.068215e-02
  1.141701e+00    1.367342e+00   2.061372e-02
  1.143911e+00    1.366952e+00   2.057911e-02
  1.146122e+00    1.365448e+00   2.053594e-02
  1.148332e+00    1.367895e+00   2.052260e-02
  1.150543e+00    1.342867e+00   2.030355e-02
  1.152753e+00    1.339947e+00   2.025102e-02
  1.154963e+00    1.349148e+00   2.028966e-02
  1.157174e+00    1.368353e+00   2.040345e-02
  1.159384e+00    1.366465e+00   2.035960e-02
  1.161595e+00    1.360880e+00   2.028819e-02
  1.163805e+00    1.362850e+00   2.027368e-02
  1.166016e+00    1.364078e+00   2.025342e-02
  1.168226e+00    1.382199e+00   2.035838e-02
  1.170437e+00    1.362531e+00   2.018443e-02
  1.172647e+00    1.383824e+00   2.031243e-02
  1.174858e+00    1.393902e+00   2.035789e-02
  1.177068e+00    1.362115e+00   2.009617e-02
  1.179278e+00    1.336887e+00   1.988089e-02
  1.181489e+00    1.326452e+00   1.977647e-02
  1.183699e+00    1.310254e+00   1.962825e-02
  1.185910e+00    1.353563e+00   1.992229e-02
  1.188120e+00    1.324032e+00   1.967741e-02
  1.190331e+00    1.356860e+00   1.989307e-02
  1.192541e+00    1.371081e+00   1.996950e-02
  1.194752e+00    1.358763e+00   1.985250e-02
  1.196962e+00    1.353943e+00   1.979147e-02
  1.199173e+00    1.371612e+00   1.989350e-02
  1.201383e+00    1.354182e+00   1.973949e-02
  1.203593e+00    1.332202e+00   1.955399e-02
  1.205804e+00    1.345915e+00   1.962847e-02
  1.208014e+00    1.348590e+00   1.962114e-02
  1.210225e+00    1.334633e+00   1.949417e-02
  1.212435e+00    1.344947e+00   1.954460e-02
  1.214646e+00    1.341526e+00   1.949370e-02
  1.216856e+00    1.351013e+00   1.953702e-02
  1.219067e+00    1.336256e+00   1.940570e-02
  1.221277e+00    1.328339e+00   1.932328e-02
  1.223488e+00    1.342485e+00   1.940024e-02
  1.225698e+00    1.332323e+00   1.929995e-02
  1.227909e+00    1.330523e+00   1.925695e-02
  1.230119e+00    1.346140e+00   1.933783e-02
  1.232329e+00    1.344804e+00   1.929758e-02
  1.234540e+00    1.360296e+00   1.937799e-02
  1.236750e+00    1.355746e+00   1.931524e-02
  1.238961e+00    1.337672e+00   1.915921e-02
  1.241171e+00    1.344678e+00   1.918518e-02
  1.243382e+00    1.343266e+00   1.915165e-02
  1.245592e+00    1.367164e+00   1.929701e-02
  1.247803e+00    1.357632e+00   1.920591e-02
  1.250013e+00    1.339003e+00   1.905023e-02
  1.252224e+00    1.329259e+00   1.895774e-02
  1.254434e+00    1.331689e+00   1.895144e-02
  1.256644e+00    1.347055e+00   1.903730e-02
  1.258855e+00    1.340380e+00   1.896691e-02
  1.261065e+00    1.336731e+00   1.891779e-02
  1.263276e+00    1.372796e+00   1.914816e-02
  1.265486e+00    1.354026e+00   1.899391e-02
  1.267697e+00    1.343067e+00   1.889393e-02
  1.269907e+00    1.323032e+00   1.873001e-02
  1.272118e+00    1.327018e+00   1.873582e-02
  1.274328e+00    1.318788e+00   1.865515e-02
  1.276539e+00    1.345495e+00   1.882034e-02
  1.278749e+00    1.333749e+00   1.871589e-02
  1.280959e+00    1.309664e+00   1.852393e-02
  1.283170e+00    1.308976e+00   1.849697e-02
  1.285380e+00    1.323154e+00   1.857463e-02
  1.287591e+00    1.356439e+00   1.878475e-02
  1.289801e+00    1.327080e+00   1.855929e-02
  1.292012e+00    1.330770e+00   1.856811e-02
  1.294222e+00    1.340873e+00   1.862226e-02
  1.296433e+00    1.341962e+00   1.861428e-02
  1.298643e+00    1.354214e+00   1.868256e-02
  1.300854e+00    1.355386e+00   1.867420e-02
  1.303064e+00    1.345299e+00   1.858539e-02
  1.305274e+00    1.368554e+00   1.872375e-02
  1.307485e+00    1.344266e+00   1.853538e-02
  1.309695e+00    1.336682e+00   1.846086e-02
  1.311906e+00    1.350740e+00   1.853598e-02
  1.314116e+00    1.374422e+00   1.867678e-02
  1.316327e+00    1.362916e+00   1.857667e-02
  1.318537e+00    1.355003e+00   1.850072e-02
  1.320748e+00    1.338984e+00   1.836956e-02
  1.322958e+00    1.370921e+00   1.856668e-02
  1.325169e+00    1.359302e+00   1.846674e-02
  1.327379e+00    1.343779e+00   1.833923e-02
  1.329589e+00    1.370720e+00   1.850092e-02
  1.331800e+00    1.376627e+00   1.851987e-02
  1.334010e+00    1.368289e+00   1.844288e-02
  1.336221e+00    1.368449e+00   1.842207e-02
  1.338431e+00    1.373482e+00   1.843487e-02
  1.340642e+00    1.380275e+00   1.854527e-02
  1.342852e+00    1.360634e+00   1.851394e-02
  1.345063e+00    1.325342e+00   1.832127e-02
  1.347273e+00    1.335961e+00   1.842959e-02
  1.349484e+00    1.328561e+00   1.840592e-02
  1.351694e+00    1.353240e+00   1.859883e-02
  1.353905e+00    1.337010e+00   1.850487e-02
  1.356115e+00    1.340648e+00   1.854502e-02
  1.358325e+00    1.345295e+00   1.859043e-02
  1.360536e+00    1.323198e+00   1.844864e-02
  1.362746e+00    1.323126e+00   1.845758e-02
  1.364957e+00    1.342722e+00   1.860143e-02
  1.367167e+00    1.316310e+00   1.842463e-02
  1.369378e+00    1.318787e+00   1.844791e-02
  1.371588e+00    1.313330e+00   1.841480e-02
  1.373799e+00    1.312049e+00   1.840944e-02
  1.376009e+00    1.312794e+00   1.841802e-02
  1.378220e+00    1.312597e+00   1.841915e-02
  1.380430e+00    1.306173e+00   1.837670e-02
  1.382640e+00    1.318985e+00   1.846750e-02
  1.384851e+00    1.306479e+00   1.838064e-02
  1.387061e+00    1.263105e+00   1.807324e-02
  1.389272e+00    1.244855e+00   1.794239e-02
  1.391482e+00    1.289228e+00   1.825867e-02
  1.393693e+00    1.311534e+00   1.841510e-02
  1.395903e+00    1.294768e+00   1.829552e-02
  1.398114e+00    1.285899e+00   1.823136e-02
  1.400324e+00    1.281866e+00   1.820062e-02
  1.402535e+00    1.296297e+00   1.830045e-02
  1.404745e+00    1.295474e+00   1.829225e-02
  1.406955e+00    1.283606e+00   1.820558e-02
  1.409166e+00    1.265561e+00   1.807386e-02
  1.411376e+00    1.246627e+00   1.793504e-02
  1.413587e+00    1.268724e+00   1.808950e-02
  1.415797e+00    1.242905e+00   1.790099e-02
  1.418008e+00    1.287859e+00   1.817966e-02
  1.420218e+00    1.279593e+00   1.797095e-02
  1.422429e+00    1.257506e+00   1.773028e-02
  1.424639e+00    1.259615e+00   1.768072e-02
  1.426850e+00    1.237296e+00   1.746937e-02
  1.429060e+00    1.245374e+00   1.747781e-02
  1.431270e+00    1.264739e+00   1.756894e-02
  1.433481e+00    1.269999e+00   1.756450e-02
  1.435691e+00    1.245313e+00   1.735491e-02
  1.437902e+00    1.242839e+00   1.730156e-02
  1.440112e+00    1.236740e+00   1.722419e-02
  1.442323e+00    1.280660e+00   1.749416e-02
  1.444533e+00    1.270745e+00   1.739377e-02
  1.446744e+00    1.278511e+00   1.741559e-02
  1.448954e+00    1.267109e+00   1.730763e-02
  1.451165e+00    1.252098e+00   1.717524e-02
  1.453375e+00    1.255876e+00   1.717324e-02
  1.455586e+00    1.267805e+00   1.722647e-02
  1.457796e+00    1.247645e+00   1.706170e-02
  1.460006e+00    1.258624e+00   1.710947e-02
  1.462217e+00    1.239726e+00   1.695463e-02
  1.464427e+00    1.240749e+00   1.693630e-02
  1.466638e+00    1.249442e+00   1.697039e-02
  1.468848e+00    1.261656e+00   1.702790e-02
  1.471059e+00    1.246698e+00   1.690178e-02
  1.473269e+00    1.257910e+00   1.695335e-02
  1.475480e+00    1.249217e+00   1.687107e-02
  1.477690e+00    1.271722e+00   1.699851e-02
  1.479901e+00    1.277600e+00   1.701380e-02
  1.482111e+00    1.250076e+00   1.680642e-02
  1.484321e+00    1.225494e+00   1.661757e-02
  1.486532e+00    1.259170e+00   1.682209e-02
  1.488742e+00    1.251340e+00   1.674718e-02
  1.490953e+00    1.255820e+00   1.675460e-02
  1.493163e+00    1.237185e+00   1.660779e-02
  1.495374e+00    1.237309e+00   1.658735e-02
  1.497584e+00    1.232795e+00   1.653565e-02
  1.499795e+00    1.257086e+00   1.667615e-02
  1.502005e+00    1.266971e+00   1.671983e-02
  1.504216e+00    1.278843e+00   1.677681e-02
  1.506426e+00    1.254374e+00   1.659475e-02
  1.508636e+00    1.272347e+00   1.669263e-02
  1.510847e+00    1.252472e+00   1.653996e-02
  1.513057e+00    1.280505e+00   1.669869e-02
  1.515268e+00    1.264856e+00   1.657055e-02
  1.517478e+00    1.255666e+00   1.648506e-02
  1.519689e+00    1.250972e+00   1.642930e-02
  1.521899e+00    1.251961e+00   1.641269e-02
  1.524110e+00    1.259046e+00   1.643868e-02
  1.526320e+00    1.280287e+00   1.655695e-02
  1.528531e+00    1.268882e+00   1.646316e-02
  1.530741e+00    1.248841e+00   1.631348e-02
  1.532951e+00    1.241713e+00   1.624735e-02
  1.535162e+00    1.231716e+00   1.626777e-02
  1.537372e+00    1.219548e+00   1.625335e-02
  1.539583e+00    1.234761e+00   1.638844e-02
  1.541793e+00    1.239492e+00   1.642673e-02
  1.544004e+00    1.237244e+00   1.641209e-02
  1.546214e+00    1.237493e+00   1.641224e-02
  1.548425e+00    1.234179e+00   1.639052e-02
  1.550635e+00    1.225785e+00   1.634427e-02
  1.552846e+00    1.219765e+00   1.631366e-02
  1.555056e+00    1.219775e+00   1.627265e-02
  1.557266e+00    1.215392e+00   1.613424e-02
  1.559477e+00    1.223997e+00   1.613262e-02
  1.561687e+00    1.238110e+00   1.619478e-02
  1.563898e+00    1.231036e+00   1.613137e-02
  1.566108e+00    1.236861e+00   1.615360e-02
  1.568319e+00    1.229599e+00   1.609057e-02
  1.570529e+00    1.229761e+00   1.606665e-02
  1.572740e+00    1.247879e+00   1.615691e-02
  1.574950e+00    1.242133e+00   1.609338e-02
  1.577161e+00    1.275065e+00   1.627953e-02
  1.579371e+00    1.248924e+00   1.608810e-02
  1.581582e+00    1.231417e+00   1.595526e-02
  1.583792e+00    1.246830e+00   1.603678e-02
  1.586002e+00    1.251136e+00   1.604676e-02
  1.588213e+00    1.253331e+00   1.604355e-02
  1.590423e+00    1.233716e+00   1.589752e-02
  1.592634e+00    1.225799e+00   1.582495e-02
  1.594844e+00    1.229163e+00   1.582539e-02
  1.597055e+00    1.219534e+00   1.574296e-02
  1.599265e+00    1.234957e+00   1.582154e-02
  1.601476e+00    1.235865e+00   1.580708e-02
  1.603686e+00    1.231092e+00   1.575684e-02
  1.605897e+00    1.230185e+00   1.573095e-02
  1.608107e+00    1.236130e+00   1.574936e-02
  1.610317e+00    1.230774e+00   1.569596e-02
  1.612528e+00    1.236139e+00   1.571093e-02
  1.614738e+00    1.213088e+00   1.554497e-02
  1.616949e+00    1.205588e+00   1.547801e-02
  1.619159e+00    1.198368e+00   1.541307e-02
  1.621370e+00    1.186955e+00   1.532127e-02
  1.623580e+00    1.188667e+00   1.531420e-02
  1.625791e+00    1.160243e+00   1.511209e-02
  1.628001e+00    1.161335e+00   1.510125e-02
  1.630212e+00    1.185595e+00   1.524047e-02
  1.632422e+00    1.176621e+00   1.516486e-02
  1.634632e+00    1.179442e+00   1.516574e-02
  1.636843e+00    1.156100e+00   1.499754e-02
  1.639053e+00    1.154463e+00   1.496977e-02
  1.641264e+00    1.161855e+00   1.500058e-02
  1.643474e+00    1.134232e+00   1.480402e-02
  1.645685e+00    1.124542e+00   1.472421e-02
  1.647895e+00    1.152193e+00   1.488757e-02
  1.650106e+00    1.132985e+00   1.474610e-02
  1.652316e+00    1.123801e+00   1.466988e-02
  1.654527e+00    1.132439e+00   1.470957e-02
  1.656737e+00    1.125481e+00   1.464783e-02
  1.658947e+00    1.127120e+00   1.464224e-02
  1.661158e+00    1.123310e+00   1.460123e-02
  1.663368e+00    1.106369e+00   1.447482e-02
  1.665579e+00    1.101689e+00   1.442813e-02
  1.667789e+00    1.124174e+00   1.455834e-02
  1.670000e+00    1.082411e+00   1.427010e-02
  1.672210e+00    1.098945e+00   1.436284e-02
  1.674421e+00    1.091159e+00   1.429666e-02
  1.676631e+00    1.103549e+00   1.436170e-02
  1.678842e+00    1.087010e+00   1.423800e-02
  1.681052e+00    1.074772e+00   1.414236e-02
  1.683263e+00    1.065509e+00   1.406633e-02
  1.685473e+00    1.057435e+00   1.399796e-02
  1.687683e+00    1.065014e+00   1.403277e-02
  1.689894e+00    1.044233e+00   1.387966e-02
  1.692104e+00    1.065628e+00   1.400630e-02
  1.694315e+00    1.055857e+00   1.392754e-02
  1.696525e+00    1.051027e+00   1.388064e-02
  1.698736e+00    1.027237e+00   1.370809e-02
  1.700946e+00    1.046203e+00   1.381899e-02
  1.703157e+00    1.057075e+00   1.387599e-02
  1.705367e+00    1.046771e+00   1.379376e-02
  1.707578e+00    1.037366e+00   1.371713e-02
  1.709788e+00    1.047268e+00   1.376833e-02
  1.711998e+00    1.023098e+00   1.359366e-02
  1.714209e+00    1.015196e+00   1.352677e-02
  1.716419e+00    1.036117e+00   1.365117e-02
  1.718630e+00    1.028651e+00   1.358765e-02
  1.720840e+00    1.018230e+00   1.350453e-02
  1.723051e+00    1.011494e+00   1.344602e-02
  1.725261e+00    9.896320e-01   1.328548e-02
  1.727472e+00    1.001156e+00   1.334851e-02
  1.729682e+00    1.009133e+00   1.338821e-02
  1.731893e+00    9.952421e-01   1.328192e-02
  1.734103e+00    9.893470e-01   1.322889e-02
  1.736313e+00    9.831831e-01   1.317376e-02
  1.738524e+00    9.865533e-01   1.318259e-02
  1.740734e+00    9.628915e-01   1.301011e-02
  1.742945e+00    9.706765e-01   1.304931e-02
  1.745155e+00    9.653597e-01   1.300025e-02
  1.747366e+00    9.847907e-01   1.311665e-02
  1.749576e+00    9.974288e-01   1.318680e-02
  1.751787e+00    9.762719e-01   1.303292e-02
  1.753997e+00    9.588251e-01   1.290268e-02
  1.756208e+00    9.662396e-01   1.293933e-02
  1.758418e+00    9.829546e-01   1.303759e-02
  1.760628e+00    9.584833e-01   1.286099e-02
  1.762839e+00    9.737551e-01   1.294977e-02
  1.765049e+00    9.650760e-01   1.287880e-02
  1.767260e+00    9.485748e-01   1.275548e-02
  1.769470e+00    9.446045e-01   1.271585e-02
  1.771681e+00    9.301944e-01   1.260549e-02
  1.773891e+00    9.594907e-01   1.278934e-02
  1.776102e+00    9.456857e-01   1.268415e-02
  1.778312e+00    9.465861e-01   1.267744e-02
  1.780523e+00    9.147928e-01   1.245018e-02
  1.782733e+00    9.369029e-01   1.258704e-02
  1.784944e+00    9.326324e-01   1.254549e-02
  1.787154e+00    9.322124e-01   1.253010e-02
  1.789364e+00    9.740695e-01   1.279556e-02
  1.791575e+00    9.670674e-01   1.273669e-02
  1.793785e+00    9.310142e-01   1.248456e-02
  1.795996e+00    9.111730e-01   1.233837e-02
  1.798206e+00    9.125671e-01   1.233530e-02
  1.800417e+00    9.336424e-01   1.246414e-02
  1.802627e+00    9.552771e-01   1.259552e-02
  1.804838e+00    9.368640e-01   1.246129e-02
  1.807048e+00    9.191523e-01   1.233001e-02
  1.809259e+00    9.114599e-01   1.226467e-02
  1.811469e+00    9.160942e-01   1.228076e-02
  1.813679e+00    8.992189e-01   1.215216e-02
  1.815890e+00    9.000756e-01   1.214318e-02
  1.818100e+00    8.918286e-01   1.207237e-02
  1.820311e+00    8.697435e-01   1.190738e-02
  1.822521e+00    8.726344e-01   1.191244e-02
  1.824732e+00    8.799489e-01   1.194754e-02
  1.826942e+00    8.817992e-01   1.194780e-02
  1.829153e+00    8.742882e-01   1.188519e-02
  1.831363e+00    8.787453e-01   1.190344e-02
  1.833574e+00    8.952188e-01   1.200273e-02
  1.835784e+00    8.732895e-01   1.184344e-02
  1.837994e+00    8.610220e-01   1.174834e-02
  1.840205e+00    8.756472e-01   1.183651e-02
  1.842415e+00    8.796408e-01   1.185166e-02
  1.844626e+00    8.711004e-01   1.178243e-02
  1.846836e+00    8.899946e-01   1.189794e-02
  1.849047e+00    9.013684e-01   1.196190e-02
  1.851257e+00    9.023593e-01   1.195869e-02
  1.853468e+00    8.782329e-01   1.178886e-02
  1.855678e+00    8.580387e-01   1.164367e-02
  1.857889e+00    8.397966e-01   1.151081e-02
  1.860099e+00    8.527136e-01   1.159039e-02
  1.862309e+00    8.627781e-01   1.165004e-02
  1.864520e+00    8.734868e-01   1.171346e-02
  1.866730e+00    8.843212e-01   1.177634e-02
  1.868941e+00    8.792667e-01   1.173153e-02
  1.871151e+00    8.780207e-01   1.171163e-02
  1.873362e+00    9.007079e-01   1.185031e-02
  1.875572e+00    8.854270e-01   1.173819e-02
  1.877783e+00    8.794836e-01   1.168709e-02
  1.879993e+00    8.661370e-01   1.158679e-02
  1.882204e+00    8.658436e-01   1.157379e-02
  1.884414e+00    8.508840e-01   1.146226e-02
  1.886624e+00    8.490847e-01   1.143902e-02
  1.888835e+00    8.678228e-01   1.155341e-02
  1.891045e+00    8.663189e-01   1.153234e-02
  1.893256e+00    8.634738e-01   1.150215e-02
  1.895466e+00    8.379441e-01   1.131965e-02
  1.897677e+00    8.558549e-01   1.142893e-02
  1.899887e+00    8.324122e-01   1.126037e-02
  1.902098e+00    8.321624e-01   1.124781e-02
  1.904308e+00    8.329666e-01   1.124266e-02
  1.906519e+00    8.311036e-01   1.121923e-02
  1.908729e+00    8.235799e-01   1.115777e-02
  1.910940e+00    8.259296e-01   1.116254e-02
  1.913150e+00    8.224568e-01   1.112850e-02
  1.915360e+00    8.211380e-01   1.110897e-02
  1.917571e+00    8.250607e-01   1.112457e-02
  1.919781e+00    8.237869e-01   1.110530e-02
  1.921992e+00    8.050110e-01   1.096750e-02
  1.924202e+00    7.805257e-01   1.078888e-02
  1.926413e+00    7.960254e-01   1.088531e-02
  1.928623e+00    7.982330e-01   1.088994e-02
  1.930834e+00    8.111885e-01   1.096755e-02
  1.933044e+00    8.199180e-01   1.101567e-02
  1.935255e+00    8.099164e-01   1.093798e-02
  1.937465e+00    7.884738e-01   1.078193e-02
  1.939675e+00    7.838897e-01   1.073986e-02
  1.941886e+00    7.911426e-01   1.077922e-02
  1.944096e+00    8.204836e-01   1.096700e-02
  1.946307e+00    8.158355e-01   1.092548e-02
  1.948517e+00    7.884750e-01   1.073034e-02
  1.950728e+00    7.917069e-01   1.074209e-02
  1.952938e+00    7.913477e-01   1.072962e-02
  1.955149e+00    7.936723e-01   1.073514e-02
  1.957359e+00    7.799641e-01   1.063210e-02
  1.959570e+00    7.903894e-01   1.069206e-02
  1.961780e+00    7.796678e-01   1.060949e-02
  1.963990e+00    7.907048e-01   1.067418e-02
  1.966201e+00    8.028367e-01   1.074564e-02
  1.968411e+00    7.822712e-01   1.059701e-02
  1.970622e+00    7.962868e-01   1.068136e-02
  1.972832e+00    7.968234e-01   1.067494e-02
  1.975043e+00    7.854800e-01   1.058865e-02
  1.977253e+00    7.727743e-01   1.049278e-02
  1.979464e+00    7.854863e-01   1.056868e-02
  1.981674e+00    7.796806e-01   1.051932e-02
  1.983885e+00    7.689111e-01   1.043648e-02
  1.986095e+00    7.690911e-01   1.042806e-02
  1.988305e+00    7.605748e-01   1.036040e-02
  1.990516e+00    7.628006e-01   1.036571e-02
  1.992726e+00    7.739557e-01   1.043160e-02
  1.994937e+00    7.760863e-01   1.043581e-02
  1.997147e+00    7.817624e-01   1.046415e-02
  1.999358e+00    7.606081e-01   1.031184e-02
  2.001568e+00    7.819599e-01   1.044469e-02
  2.003779e+00    7.916756e-01   1.049733e-02
  2.005989e+00    7.724943e-01   1.035736e-02
  2.008200e+00    7.558080e-01   1.023345e-02
  2.010410e+00    7.675482e-01   1.030090e-02
  2.012621e+00    7.648523e-01   1.027112e-02
  2.014831e+00    7.392197e-01   1.008628e-02
  2.017041e+00    7.565538e-01   1.019353e-02
  2.019252e+00    7.543862e-01   1.016905e-02
  2.021462e+00    7.537787e-01   1.015550e-02
  2.023673e+00    7.634192e-01   1.021086e-02
  2.025883e+00    7.675717e-01   1.022904e-02
  2.028094e+00    7.624374e-01   1.018514e-02
  2.030304e+00    7.612278e-01   1.016752e-02
  2.032515e+00    7.697484e-01   1.021491e-02
  2.034725e+00    7.571920e-01   1.012183e-02
  2.036936e+00    7.563089e-01   1.010659e-02
  2.039146e+00    7.526923e-01   1.007287e-02
  2.041356e+00    7.462733e-01   1.002023e-02
  2.043567e+00    7.425959e-01   9.986299e-03
  2.045777e+00    7.491764e-01   1.002122e-02
  2.047988e+00    7.523463e-01   1.003306e-02
  2.050198e+00    7.552863e-01   1.004420e-02
  2.052409e+00    7.651358e-01   1.010176e-02
  2.054619e+00    7.576099e-01   1.004456e-02
  2.056830e+00    7.593855e-01   1.004911e-02
  2.059040e+00    7.551441e-01   1.001346e-02
  2.061251e+00    7.689604e-01   1.009732e-02
  2.063461e+00    7.770755e-01   1.014271e-02
  2.065671e+00    7.760347e-01   1.012707e-02
  2.067882e+00    7.574481e-01   9.995993e-03
  2.070092e+00    7.506649e-01   9.941915e-03
  2.072303e+00    7.486748e-01   9.919571e-03
  2.074513e+00    7.448733e-01   9.885032e-03
  2.076724e+00    7.625964e-01   9.992369e-03
  2.078934e+00    7.319444e-01   9.780575e-03
  2.081145e+00    7.300825e-01   9.759095e-03
  2.083355e+00    7.412737e-01   9.824451e-03
  2.085566e+00    7.465882e-01   9.850657e-03
  2.087776e+00    7.486886e-01   9.854937e-03
  2.089986e+00    7.425657e-01   9.805767e-03
  2.092197e+00    7.301316e-01   9.714403e-03
  2.094407e+00    7.063050e-01   9.545545e-03
  2.096618e+00    7.181112e-01   9.616169e-03
  2.098828e+00    7.384384e-01   9.742014e-03
  2.101039e+00    7.247177e-01   9.642151e-03
  2.103249e+00    7.128844e-01   9.554540e-03
  2.105460e+00    7.204430e-01   9.596115e-03
  2.107670e+00    7.255561e-01   9.621379e-03
  2.109881e+00    7.224953e-01   9.591934e-03
  2.112091e+00    7.236077e-01   9.590342e-03
  2.114301e+00    7.175283e-01   9.541230e-03
  2.116512e+00    7.208722e-01   9.554661e-03
  2.118722e+00    7.113869e-01   9.482822e-03
  2.120933e+00    7.181410e-01   9.518902e-03
  2.123143e+00    7.054868e-01   9.425833e-03
  2.125354e+00    7.051104e-01   9.414867e-03
  2.127564e+00    6.965517e-01   9.348935e-03
  2.129775e+00    6.969099e-01   9.342735e-03
  2.131985e+00    7.022616e-01   9.369548e-03
  2.134196e+00    6.961517e-01   9.320228e-03
  2.136406e+00    7.042305e-01   9.365440e-03
  2.138617e+00    7.057700e-01   9.367258e-03
  2.140827e+00    6.964035e-01   9.320820e-03
  2.143037e+00    6.779338e-01   9.240895e-03
  2.145248e+00    7.046164e-01   9.442976e-03
  2.147458e+00    7.119097e-01   9.506943e-03
  2.149669e+00    7.086574e-01   9.497124e-03
  2.151879e+00    7.024571e-01   9.464690e-03
  2.154090e+00    6.954556e-01   9.424705e-03
  2.156300e+00    6.904511e-01   9.397274e-03
  2.158511e+00    7.007769e-01   9.472591e-03
  2.160721e+00    6.919781e-01   9.417740e-03
  2.162932e+00    7.090257e-01   9.536799e-03
  2.165142e+00    7.200251e-01   9.613554e-03
  2.167352e+00    7.228239e-01   9.635216e-03
  2.169563e+00    6.970674e-01   9.463936e-03
  2.171773e+00    7.079391e-01   9.539927e-03
  2.173984e+00    6.868373e-01   9.398073e-03
  2.176194e+00    6.917803e-01   9.433030e-03
  2.178405e+00    6.809341e-01   9.359482e-03
  2.180615e+00    6.898167e-01   9.421006e-03
  2.182826e+00    6.748868e-01   9.319182e-03
  2.185036e+00    6.773770e-01   9.336385e-03
  2.187247e+00    6.857767e-01   9.394063e-03
  2.189457e+00    6.776782e-01   9.338018e-03
  2.191667e+00    6.803014e-01   9.355900e-03
  2.193878e+00    6.877961e-01   9.406725e-03
  2.196088e+00    6.923606e-01   9.437211e-03
  2.198299e+00    6.867733e-01   9.397945e-03
  2.200509e+00    6.877266e-01   9.403430e-03
  2.202720e+00    6.772339e-01   9.330256e-03
  2.204930e+00    6.653755e-01   9.246983e-03
  2.207141e+00    6.886155e-01   9.405966e-03
  2.209351e+00    6.627955e-01   9.226084e-03
  2.211562e+00    6.848685e-01   9.376821e-03
  2.213772e+00    6.782466e-01   9.275831e-03
  2.215982e+00    6.950530e-01   9.345236e-03
  2.218193e+00    6.672650e-01   9.127078e-03
  2.220403e+00    6.710914e-01   9.128680e-03
  2.222614e+00    6.705668e-01   9.104216e-03
  2.224824e+00    6.708407e-01   9.086730e-03
  2.227035e+00    6.708256e-01   9.069205e-03
  2.229245e+00    6.608053e-01   8.984405e-03
  2.231456e+00    6.503901e-01   8.897925e-03
  2.233666e+00    6.734744e-01   9.039341e-03
  2.235877e+00    6.829596e-01   9.088371e-03
  2.238087e+00    6.712496e-01   8.996647e-03
  2.240298e+00    6.607540e-01   8.912335e-03
  2.242508e+00    6.736535e-01   8.983731e-03
  2.244718e+00    6.634130e-01   8.899444e-03
  2.246929e+00    6.723350e-01   8.944619e-03
  2.249139e+00    6.567060e-01   8.827779e-03
  2.251350e+00    6.528751e-01   8.790384e-03
  2.253560e+00    6.649629e-01   8.859850e-03
  2.255771e+00    6.777861e-01   8.933350e-03
  2.257981e+00    6.546327e-01   8.768365e-03
  2.260192e+00    6.672769e-01   8.841490e-03
  2.262402e+00    6.507023e-01   8.720271e-03
  2.264613e+00    6.667302e-01   8.816129e-03
  2.266823e+00    6.652112e-01   8.795691e-03
  2.269033e+00    6.534599e-01   8.707340e-03
  2.271244e+00    6.525100e-01   8.690691e-03
  2.273454e+00    6.566384e-01   8.707927e-03
  2.275665e+00    6.516678e-01   8.664690e-03
  2.277875e+00    6.556973e-01   8.681527e-03
  2.280086e+00    6.611929e-01   8.707809e-03
  2.282296e+00    6.408499e-01   8.563522e-03
  2.284507e+00    6.388422e-01   8.540116e-03
  2.286717e+00    6.571033e-01   8.651846e-03
  2.288928e+00    6.702830e-01   8.728233e-03
  2.291138e+00    6.517776e-01   8.597521e-03
  2.293348e+00    6.414631e-01   8.519769e-03
  2.295559e+00    6.549189e-01   8.599357e-03
  2.297769e+00    6.538420e-01   8.583045e-03
  2.299980e+00    6.451710e-01   8.516680e-03
  2.302190e+00    6.417032e-01   8.484695e-03
  2.304401e+00    6.395877e-01   8.461483e-03
  2.306611e+00    6.483377e-01   8.509974e-03
  2.308822e+00    6.612065e-01   8.585572e-03
  2.311032e+00    6.502107e-01   8.507454e-03
  2.313243e+00    6.471162e-01   8.480910e-03
  2.315453e+00    6.281876e-01   8.348520e-03
  2.317663e+00    6.349884e-01   8.384526e-03
  2.319874e+00    6.336110e-01   8.366799e-03
  2.322084e+00    6.383386e-01   8.389057e-03
  2.324295e+00    6.265410e-01   8.303042e-03
  2.326505e+00    6.413695e-01   8.391705e-03
  2.328716e+00    6.305330e-01   8.312051e-03
  2.330926e+00    6.333598e-01   8.321919e-03
  2.333137e+00    6.489809e-01   8.415494e-03
  2.335347e+00    6.472871e-01   8.395624e-03
  2.337558e+00    6.391858e-01   8.334676e-03
  2.339768e+00    6.445834e-01   8.361191e-03
  2.341979e+00    6.460548e-01   8.362317e-03
  2.344189e+00    6.499540e-01   8.379048e-03
  2.346399e+00    6.312289e-01   8.248997e-03
  2.348610e+00    6.299337e-01   8.232106e-03
  2.350820e+00    6.343933e-01   8.253018e-03
  2.353031e+00    6.298091e-01   8.214897e-03
  2.355241e+00    6.257854e-01   8.180594e-03
  2.357452e+00    6.277030e-01   8.184743e-03
  2.359662e+00    6.230374e-01   8.146096e-03
  2.361873e+00    6.183309e-01   8.107109e-03
  2.364083e+00    6.336573e-01   8.198956e-03
  2.366294e+00    6.361539e-01   8.206928e-03
  2.368504e+00    6.314075e-01   8.168156e-03
  2.370714e+00    6.149966e-01   8.053320e-03
  2.372925e+00    6.099987e-01   8.012569e-03
  2.375135e+00    6.265063e-01   8.112183e-03
  2.377346e+00    6.204222e-01   8.064791e-03
  2.379556e+00    6.267391e-01   8.097810e-03
  2.381767e+00    6.315620e-01   8.120983e-03
  2.383977e+00    6.033778e-01   7.929908e-03
  2.386188e+00    6.060412e-01   7.939527e-03
  2.388398e+00    6.084650e-01   7.947520e-03
  2.390609e+00    6.074152e-01   7.932987e-03
  2.392819e+00    6.227227e-01   8.024503e-03
  2.395029e+00    6.122631e-01   7.949209e-03
  2.397240e+00    6.029044e-01   7.880415e-03
  2.399450e+00    6.056358e-01   7.890488e-03
  2.401661e+00    5.954477e-01   7.816268e-03
  2.403871e+00    6.080682e-01   7.890914e-03
  2.406082e+00    6.035742e-01   7.854323e-03
  2.408292e+00    5.922915e-01   7.772876e-03
  2.410503e+00    6.095955e-01   7.878095e-03
  2.412713e+00    6.093424e-01   7.868660e-03
  2.414924e+00    6.164061e-01   7.906597e-03
  2.417134e+00    6.031192e-01   7.813280e-03
  2.419344e+00    6.045228e-01   7.814958e-03
  2.421555e+00    5.928086e-01   7.731426e-03
  2.423765e+00    5.860580e-01   7.679943e-03
  2.425976e+00    5.899729e-01   7.697821e-03
  2.428186e+00    5.874586e-01   7.674249e-03
  2.430397e+00    6.012434e-01   7.756250e-03
  2.432607e+00    5.967358e-01   7.719848e-03
  2.434818e+00    5.910181e-01   7.675265e-03
  2.437028e+00    5.860271e-01   7.635676e-03
  2.439239e+00    5.864976e-01   7.631138e-03
  2.441449e+00    5.784722e-01   7.571643e-03
  2.443659e+00    5.738806e-01   7.534267e-03
  2.445870e+00    5.818605e-01   7.598663e-03
  2.448080e+00    5.636294e-01   7.512880e-03
  2.450291e+00    5.723482e-01   7.587302e-03
  2.452501e+00    5.967647e-01   7.758805e-03
  2.454712e+00    5.817186e-01   7.668877e-03
  2.456922e+00    5.707077e-01   7.602567e-03
  2.459133e+00    5.523331e-01   7.484541e-03
  2.461343e+00    5.467591e-01   7.450941e-03
  2.463554e+00    5.632259e-01   7.565784e-03
  2.465764e+00    5.435930e-01   7.435836e-03
  2.467975e+00    5.585524e-01   7.539712e-03
  2.470185e+00    5.658353e-01   7.591014e-03
  2.472395e+00    5.493928e-01   7.481104e-03
  2.474606e+00    5.490847e-01   7.480565e-03
  2.476816e+00    5.568584e-01   7.534065e-03
  2.479027e+00    5.382163e-01   7.407740e-03
  2.481237e+00    5.396099e-01   7.417574e-03
  2.483448e+00    5.397682e-01   7.418976e-03
  2.485658e+00    5.341001e-01   7.379782e-03
  2.487869e+00    5.349866e-01   7.385927e-03
  2.490079e+00    5.463052e-01   7.463142e-03
  2.492290e+00    5.416183e-01   7.430617e-03
  2.494500e+00    5.391048e-01   7.412627e-03
  2.496710e+00    5.410433e-01   7.425231e-03
  2.498921e+00    5.285832e-01   7.338276e-03
  2.501131e+00    5.213464e-01   7.286908e-03
  2.503342e+00    5.197149e-01   7.274249e-03
  2.505552e+00    5.274709e-01   7.327206e-03
  2.507763e+00    5.197700e-01   7.272115e-03
  2.509973e+00    5.209467e-01   7.278968e-03
  2.512184e+00    5.247412e-01   7.303802e-03
  2.514394e+00    5.360040e-01   7.372328e-03
  2.516605e+00    5.232417e-01   7.237142e-03
  2.518815e+00    5.166050e-01   7.163002e-03
  2.521025e+00    5.171933e-01   7.146299e-03
  2.523236e+00    5.140254e-01   7.106585e-03
  2.525446e+00    5.258755e-01   7.172419e-03
  2.527657e+00    5.230805e-01   7.138766e-03
  2.529867e+00    5.221266e-01   7.118118e-03
  2.532078e+00    5.266355e-01   7.133720e-03
  2.534288e+00    5.223983e-01   7.091107e-03
  2.536499e+00    5.337904e-01   7.155966e-03
  2.538709e+00    5.294397e-01   7.115709e-03
  2.540920e+00    5.171649e-01   7.022148e-03
  2.543130e+00    5.299733e-01   7.098163e-03
  2.545340e+00    5.169001e-01   7.000061e-03
  2.547551e+00    5.157681e-01   6.982533e-03
  2.549761e+00    5.119732e-01   6.947295e-03
  2.551972e+00    5.103128e-01   6.926785e-03
  2.554182e+00    5.135165e-01   6.939367e-03
  2.556393e+00    5.020214e-01   6.852348e-03
  2.558603e+00    5.208512e-01   6.970581e-03
  2.560814e+00    5.123593e-01   6.904895e-03
  2.563024e+00    5.146706e-01   6.911905e-03
  2.565235e+00    5.183154e-01   6.926845e-03
  2.567445e+00    5.149385e-01   6.894728e-03
  2.569656e+00    5.111210e-01   6.859430e-03
  2.571866e+00    5.193599e-01   6.905127e-03
  2.574076e+00    5.068528e-01   6.812299e-03
  2.576287e+00    5.164311e-01   6.868050e-03
  2.578497e+00    4.987064e-01   6.741441e-03
  2.580708e+00    5.101460e-01   6.810255e-03
  2.582918e+00    5.187098e-01   6.859416e-03
  2.585129e+00    5.045917e-01   6.757753e-03
  2.587339e+00    5.053720e-01   6.755335e-03
  2.589550e+00    5.161888e-01   6.819689e-03
  2.591760e+00    5.024276e-01   6.720508e-03
  2.593971e+00    4.972529e-01   6.678395e-03
  2.596181e+00    4.933570e-01   6.646045e-03
  2.598391e+00    5.093027e-01   6.747427e-03
  2.600602e+00    5.087843e-01   6.738085e-03
  2.602812e+00    5.105342e-01   6.742117e-03
  2.605023e+00    5.000716e-01   6.665568e-03
  2.607233e+00    5.030594e-01   6.678346e-03
  2.609444e+00    5.110633e-01   6.724006e-03
  2.611654e+00    5.083879e-01   6.699055e-03
  2.613865e+00    5.075775e-01   6.686665e-03
  2.616075e+00    5.006543e-01   6.633814e-03
  2.618286e+00    4.991963e-01   6.617191e-03
  2.620496e+00    4.964431e-01   6.592267e-03
  2.622706e+00    5.080380e-01   6.663064e-03
  2.624917e+00    4.945224e-01   6.568039e-03
  2.627127e+00    4.935356e-01   6.555805e-03
  2.629338e+00    4.971588e-01   6.573876e-03
  2.631548e+00    4.998710e-01   6.585648e-03
  2.633759e+00    4.840452e-01   6.473538e-03
  2.635969e+00    5.024228e-01   6.588583e-03
  2.638180e+00    5.109514e-01   6.637227e-03
  2.640390e+00    4.939005e-01   6.518986e-03
  2.642601e+00    5.016376e-01   6.563183e-03
  2.644811e+00    5.039171e-01   6.570970e-03
  2.647021e+00    5.028885e-01   6.557681e-03
  2.649232e+00    4.997017e-01   6.530150e-03
  2.651442e+00    5.024346e-01   6.541461e-03
  2.653653e+00    4.930028e-01   6.473019e-03
  2.655863e+00    4.908268e-01   6.452083e-03
  2.658074e+00    4.958310e-01   6.478297e-03
  2.660284e+00    5.030985e-01   6.519199e-03
  2.662495e+00    4.942894e-01   6.455146e-03
  2.664705e+00    5.092771e-01   6.545630e-03
  2.666916e+00    5.051246e-01   6.512380e-03
  2.669126e+00    4.890416e-01   6.401450e-03
  2.671337e+00    4.848319e-01   6.367326e-03
  2.673547e+00    4.853163e-01   6.364180e-03
  2.675757e+00    4.968553e-01   6.432932e-03
  2.677968e+00    4.933185e-01   6.403493e-03
  2.680178e+00    4.787920e-01   6.302198e-03
  2.682389e+00    4.938750e-01   6.394288e-03
  2.684599e+00    4.936559e-01   6.386682e-03
  2.686810e+00    4.967507e-01   6.400038e-03
  2.689020e+00    4.869973e-01   6.330634e-03
  2.691231e+00    4.959118e-01   6.381985e-03
  2.693441e+00    4.902999e-01   6.339638e-03
  2.695652e+00    4.846067e-01   6.296242e-03
  2.697862e+00    4.790404e-01   6.253709e-03
  2.700072e+00    4.787174e-01   6.245586e-03
  2.702283e+00    4.804292e-01   6.250577e-03
  2.704493e+00    4.793275e-01   6.237178e-03
  2.706704e+00    4.835275e-01   6.258081e-03
  2.708914e+00    4.746522e-01   6.194502e-03
  2.711125e+00    4.806010e-01   6.226985e-03
  2.713335e+00    4.820991e-01   6.230629e-03
  2.715546e+00    4.829090e-01   6.229425e-03
  2.717756e+00    4.861972e-01   6.244716e-03
  2.719967e+00    4.802887e-01   6.200489e-03
  2.722177e+00    4.796101e-01   6.190013e-03
  2.724387e+00    4.834496e-01   6.208640e-03
  2.726598e+00    4.823478e-01   6.195539e-03
  2.728808e+00    4.744292e-01   6.138377e-03
  2.731019e+00    4.851266e-01   6.201073e-03
  2.733229e+00    4.694479e-01   6.094338e-03
  2.735440e+00    4.817194e-01   6.167206e-03
  2.737650e+00    4.745669e-01   6.115304e-03
  2.739861e+00    4.799792e-01   6.144019e-03
  2.742071e+00    4.818493e-01   6.150250e-03
  2.744282e+00    4.836835e-01   6.155682e-03
  2.746492e+00    4.776322e-01   6.111054e-03
  2.748702e+00    4.694054e-01   6.052373e-03
  2.750913e+00    4.792618e-01   6.109799e-03
  2.753123e+00    4.712408e-01   6.052407e-03
  2.755334e+00    4.842069e-01   6.129003e-03
  2.757544e+00    4.904584e-01   6.162657e-03
  2.759755e+00    4.867258e-01   6.133241e-03
  2.761965e+00    4.723555e-01   6.036093e-03
  2.764176e+00    4.712630e-01   6.023166e-03
  2.766386e+00    4.821932e-01   6.086802e-03
  2.768597e+00    4.823963e-01   6.082220e-03
  2.770807e+00    4.818820e-01   6.073076e-03
  2.773017e+00    4.753501e-01   6.025836e-03
  2.775228e+00    4.688669e-01   5.978873e-03
  2.777438e+00    4.733806e-01   6.001805e-03
  2.779649e+00    4.780689e-01   6.025559e-03
  2.781859e+00    4.746760e-01   5.998398e-03
  2.784070e+00    4.766618e-01   6.005063e-03
  2.786280e+00    4.811866e-01   6.027724e-03
  2.788491e+00    4.681896e-01   5.939974e-03
  2.790701e+00    4.621499e-01   5.895983e-03
  2.792912e+00    4.711109e-01   5.946918e-03
  2.795122e+00    4.785791e-01   5.988129e-03
  2.797333e+00    4.770256e-01   5.972836e-03
  2.799543e+00    4.788721e-01   5.978505e-03
  2.801753e+00    4.686849e-01   5.908764e-03
  2.803964e+00    4.754289e-01   5.945433e-03
  2.806174e+00    4.876347e-01   6.015058e-03
  2.808385e+00    4.799458e-01   5.960631e-03
  2.810595e+00    4.625531e-01   5.844841e-03
  2.812806e+00    4.594987e-01   5.819005e-03
  2.815016e+00    4.571910e-01   5.799718e-03
  2.817227e+00    4.630034e-01   5.862090e-03
  2.819437e+00    4.653502e-01   5.887908e-03
  2.821648e+00    4.594624e-01   5.852801e-03
  2.823858e+00    4.671970e-01   5.907154e-03
  2.826068e+00    4.752584e-01   5.962900e-03
  2.828279e+00    4.625147e-01   5.886411e-03
  2.830489e+00    4.693391e-01   5.932994e-03
  2.832700e+00    4.645150e-01   5.904969e-03
  2.834910e+00    4.660649e-01   5.916856e-03
  2.837121e+00    4.756392e-01   5.979052e-03
  2.839331e+00    4.711197e-01   5.951807e-03
  2.841542e+00    4.566298e-01   5.860566e-03
  2.843752e+00    4.656064e-01   5.918653e-03
  2.845963e+00    4.663723e-01   5.923925e-03
  2.848173e+00    4.772620e-01   5.992773e-03
  2.850383e+00    4.801268e-01   6.011035e-03
  2.852594e+00    4.658932e-01   5.921189e-03
  2.854804e+00    4.639669e-01   5.908429e-03
  2.857015e+00    4.649468e-01   5.914223e-03
  2.859225e+00    4.726191e-01   5.962579e-03
  2.861436e+00    4.743457e-01   5.972797e-03
  2.863646e+00    4.615906e-01   5.892001e-03
  2.865857e+00    4.473056e-01   5.800430e-03
  2.868067e+00    4.623545e-01   5.897403e-03
  2.870278e+00    4.632185e-01   5.902580e-03
  2.872488e+00    4.582823e-01   5.869888e-03
  2.874698e+00    4.706364e-01   5.947416e-03
  2.876909e+00    4.672170e-01   5.924453e-03
  2.879119e+00    4.802657e-01   6.004946e-03
  2.881330e+00    4.661401e-01   5.914523e-03
  2.883540e+00    4.540844e-01   5.836158e-03
  2.885751e+00    4.520773e-01   5.821610e-03
  2.887961e+00    4.463522e-01   5.782787e-03
  2.890172e+00    4.514477e-01   5.814098e-03
  2.892382e+00    4.479260e-01   5.789618e-03
  2.894593e+00    4.512548e-01   5.809274e-03
  2.896803e+00    4.594748e-01   5.859978e-03
  2.899014e+00    4.552446e-01   5.831044e-03
  2.901224e+00    4.671015e-01   5.904471e-03
  2.903434e+00    4.682060e-01   5.909497e-03
  2.905645e+00    4.731430e-01   5.938308e-03
  2.907855e+00    4.578110e-01   5.839217e-03
  2.910066e+00    4.655408e-01   5.886210e-03
  2.912276e+00    4.511778e-01   5.792592e-03
  2.914487e+00    4.595841e-01   5.843841e-03
  2.916697e+00    4.532243e-01   5.801060e-03
  2.918908e+00    4.565579e-01   5.820360e-03
  2.921118e+00    4.600666e-01   5.839964e-03
  2.923329e+00    4.570944e-01   5.818795e-03
  2.925539e+00    4.470524e-01   5.752232e-03
  2.927749e+00    4.460957e-01   5.743795e-03
  2.929960e+00    4.561238e-01   5.805231e-03
  2.932170e+00    4.617182e-01   5.838372e-03
  2.934381e+00    4.651324e-01   5.857469e-03
  2.936591e+00    4.545034e-01   5.787576e-03
  2.938802e+00    4.566386e-01   5.798442e-03
  2.941012e+00    4.683386e-01   5.869888e-03
  2.943223e+00    4.554482e-01   5.785849e-03
  2.945433e+00    4.607499e-01   5.815682e-03
  2.947644e+00    4.582821e-01   5.795917e-03
  2.949854e+00    4.594158e-01   5.798823e-03
  2.952064e+00    4.573315e-01   5.781399e-03
  2.954275e+00    4.645290e-01   5.822266e-03
  2.956485e+00    4.708474e-01   5.857451e-03
  2.958696e+00    4.674735e-01   5.832026e-03
  2.960906e+00    4.527451e-01   5.735237e-03
  2.963117e+00    4.447848e-01   5.680155e-03
  2.965327e+00    4.535418e-01   5.731888e-03
  2.967538e+00    4.633437e-01   5.790564e-03
  2.969748e+00    4.529185e-01   5.722241e-03
  2.971959e+00    4.624520e-01   5.778981e-03
  2.974169e+00    4.569407e-01   5.741849e-03
  2.976379e+00    4.613697e-01   5.766683e-03
  2.978590e+00    4.458132e-01   5.665512e-03
  2.980800e+00    4.457437e-01   5.662309e-03
  2.983011e+00    4.431051e-01   5.642741e-03
  2.985221e+00    4.496354e-01   5.681042e-03
  2.987432e+00    4.428083e-01   5.634677e-03
  2.989642e+00    4.374066e-01   5.597625e-03
  2.991853e+00    4.424811e-01   5.626763e-03
  2.994063e+00    4.553772e-01   5.705242e-03
  2.996274e+00    4.500396e-01   5.668551e-03
  2.998484e+00    4.713567e-01   5.798505e-03
  3.000694e+00    4.565256e-01   5.703074e-03
  3.002905e+00    4.638002e-01   5.745382e-03
  3.005115e+00    4.458538e-01   5.630159e-03
  3.007326e+00    4.514282e-01   5.662100e-03
  3.009536e+00    4.524487e-01   5.665248e-03
  3.011747e+00    4.425144e-01   5.599824e-03
  3.013957e+00    4.553753e-01   5.677428e-03
  3.016168e+00    4.484341e-01   5.630753e-03
  3.018378e+00    4.571167e-01   5.681945e-03
  3.020589e+00    4.595952e-01   5.694088e-03
  3.022799e+00    4.562461e-01   5.670137e-03
  3.025010e+00    4.542528e-01   5.654487e-03
  3.027220e+00    4.413387e-01   5.570472e-03
  3.029430e+00    4.390673e-01   5.552898e-03
  3.031641e+00    4.487782e-01   5.610854e-03
  3.033851e+00    4.448888e-01   5.582994e-03
  3.036062e+00    4.379275e-01   5.536415e-03
  3.038272e+00    4.517315e-01   5.619393e-03
  3.040483e+00    4.505381e-01   5.608765e-03
  3.042693e+00    4.583425e-01   5.653846e-03
  3.044904e+00    4.499528e-01   5.597840e-03
  3.047114e+00    4.550964e-01   5.624929e-03
  3.049325e+00    4.513372e-01   5.597234e-03
  3.051535e+00    4.529905e-01   5.603081e-03
  3.053745e+00    4.515533e-01   5.589431e-03
  3.055956e+00    4.541605e-01   5.600951e-03
  3.058166e+00    4.543673e-01   5.597941e-03
  3.060377e+00    4.523892e-01   5.580976e-03
  3.062587e+00    4.430988e-01   5.518764e-03
  3.064798e+00    4.579672e-01   5.606305e-03
  3.067008e+00    4.584756e-01   5.604627e-03
  3.069219e+00    4.688751e-01   5.663252e-03
  3.071429e+00    4.514834e-01   5.553702e-03
  3.073640e+00    4.484549e-01   5.531717e-03
  3.075850e+00    4.560072e-01   5.574484e-03
  3.078060e+00    4.495910e-01   5.532026e-03
  3.080271e+00    4.444105e-01   5.496604e-03
  3.082481e+00    4.394490e-01   5.462423e-03
  3.084692e+00    4.432862e-01   5.482864e-03
  3.086902e+00    4.385966e-01   5.450571e-03
  3.089113e+00    4.466565e-01   5.496860e-03
  3.091323e+00    4.402061e-01   5.453687e-03
  3.093534e+00    4.418904e-01   5.460742e-03
  3.095744e+00    4.452655e-01   5.478207e-03
  3.097955e+00    4.402704e-01   5.443868e-03
  3.100165e+00    4.438375e-01   5.462555e-03
  3.102375e+00    4.380383e-01   5.423371e-03
  3.104586e+00    4.386179e-01   5.423489e-03
  3.106796e+00    4.438033e-01   5.451947e-03
  3.109007e+00    4.500039e-01   5.486678e-03
  3.111217e+00    4.489035e-01   5.476239e-03
  3.113428e+00    4.610111e-01   5.546148e-03
  3.115638e+00    4.465581e-01   5.455284e-03
  3.117849e+00    4.469576e-01   5.453981e-03
  3.120059e+00    4.445311e-01   5.435691e-03
  3.122270e+00    4.562210e-01   5.503415e-03
  3.124480e+00    4.534736e-01   5.483081e-03
  3.126691e+00    4.421981e-01   5.410955e-03
  3.128901e+00    4.365065e-01   5.372901e-03
  3.131111e+00    4.461372e-01   5.428013e-03
  3.133322e+00    4.527424e-01   5.464564e-03
  3.135532e+00    4.490617e-01   5.438888e-03
  3.137743e+00    4.496326e-01   5.438840e-03
  3.139953e+00    4.355227e-01   5.349181e-03
  3.142164e+00    4.395634e-01   5.385900e-03
  3.144374e+00    4.388360e-01   5.409733e-03
  3.146585e+00    4.435203e-01   5.453111e-03
  3.148795e+00    4.570150e-01   5.546396e-03
  3.151006e+00    4.452080e-01   5.482872e-03
  3.153216e+00    4.423406e-01   5.472327e-03
  3.155426e+00    4.357070e-01   5.437398e-03
  3.157637e+00    4.449176e-01   5.500132e-03
  3.159847e+00    4.396125e-01   5.472107e-03
  3.162058e+00    4.406594e-01   5.483060e-03
  3.164268e+00    4.373737e-01   5.466621e-03
  3.166479e+00    4.420847e-01   5.499639e-03
  3.168689e+00    4.317266e-01   5.438193e-03
  3.170900e+00    4.275864e-01   5.415154e-03
  3.173110e+00    4.365473e-01   5.474477e-03
  3.175321e+00    4.238696e-01   5.396865e-03
  3.177531e+00    4.177076e-01   5.360146e-03
  3.179741e+00    4.304515e-01   5.443367e-03
  3.181952e+00    4.239209e-01   5.403991e-03
  3.184162e+00    4.322095e-01   5.458750e-03
  3.186373e+00    4.305083e-01   5.449562e-03
  3.188583e+00    4.237095e-01   5.408143e-03
  3.190794e+00    4.289081e-01   5.442942e-03
  3.193004e+00    4.374879e-01   5.498360e-03
  3.195215e+00    4.452017e-01   5.548146e-03
  3.197425e+00    4.426280e-01   5.533312e-03
  3.199636e+00    4.330460e-01   5.472313e-03
  3.201846e+00    4.412970e-01   5.523608e-03
  3.204056e+00    4.182879e-01   5.378544e-03
  3.206267e+00    4.204937e-01   5.393539e-03
  3.208477e+00    4.300273e-01   5.455251e-03
  3.210688e+00    4.196934e-01   5.390153e-03
  3.212898e+00    4.378535e-01   5.506089e-03
  3.215109e+00    4.272109e-01   5.439532e-03
  3.217319e+00    4.422918e-01   5.535332e-03
  3.219530e+00    4.335613e-01   5.480855e-03
  3.221740e+00    4.239662e-01   5.420397e-03
  3.223951e+00    4.233623e-01   5.417014e-03
  3.226161e+00    4.268230e-01   5.439285e-03
  3.228372e+00    4.260316e-01   5.434770e-03
  3.230582e+00    4.324581e-01   5.475748e-03
  3.232792e+00    4.248894e-01   5.427862e-03
  3.235003e+00    4.276762e-01   5.445835e-03
  3.237213e+00    4.315700e-01   5.470715e-03
  3.239424e+00    4.158327e-01   5.370032e-03
  3.241634e+00    4.205408e-01   5.400459e-03
  3.243845e+00    4.332682e-01   5.481643e-03
  3.246055e+00    4.283365e-01   5.450095e-03
  3.248266e+00    4.366351e-01   5.502824e-03
  3.250476e+00    4.358607e-01   5.497646e-03
  3.252687e+00    4.359684e-01   5.498248e-03
  3.254897e+00    4.285829e-01   5.451344e-03
  3.257107e+00    4.358763e-01   5.497232e-03
  3.259318e+00    4.220350e-01   5.409020e-03
  3.261528e+00    4.017887e-01   5.277534e-03
  3.263739e+00    4.176392e-01   5.380061e-03
  3.265949e+00    4.222370e-01   5.409485e-03
  3.268160e+00    4.244861e-01   5.423456e-03
  3.270370e+00    4.220462e-01   5.407344e-03
  3.272581e+00    4.148422e-01   5.360711e-03
  3.274791e+00    4.272987e-01   5.440071e-03
  3.277002e+00    4.253253e-01   5.426955e-03
  3.279212e+00    4.325648e-01   5.472519e-03
  3.281422e+00    4.220279e-01   5.404925e-03
  3.283633e+00    4.217709e-01   5.402563e-03
  3.285843e+00    4.336679e-01   5.477903e-03
  3.288054e+00    4.227395e-01   5.407519e-03
  3.290264e+00    4.224609e-01   5.405402e-03
  3.292475e+00    4.307454e-01   5.457304e-03
  3.294685e+00    4.377890e-01   5.501116e-03
  3.296896e+00    4.238363e-01   5.411988e-03
  3.299106e+00    4.217605e-01   5.398140e-03
  3.301317e+00    4.158356e-01   5.359099e-03
  3.303527e+00    4.083483e-01   5.310172e-03
  3.305737e+00    4.232897e-01   5.405368e-03
  3.307948e+00    4.369724e-01   5.491382e-03
  3.310158e+00    4.345916e-01   5.475557e-03
  3.312369e+00    4.292049e-01   5.440605e-03
  3.314579e+00    4.221469e-01   5.394787e-03
  3.316790e+00    4.266786e-01   5.422928e-03
  3.319000e+00    4.295294e-01   5.439863e-03
  3.321211e+00    4.227274e-01   5.395984e-03
  3.323421e+00    4.227447e-01   5.394898e-03
  3.325632e+00    4.200363e-01   5.376700e-03
  3.327842e+00    4.145052e-01   5.340272e-03
  3.330052e+00    4.181091e-01   5.362381e-03
  3.332263e+00    4.167443e-01   5.352602e-03
  3.334473e+00    4.187161e-01   5.364346e-03
  3.336684e+00    4.318608e-01   5.446606e-03
  3.338894e+00    4.205124e-01   5.373748e-03
  3.341105e+00    4.140272e-01   5.330940e-03
  3.343315e+00    4.154029e-01   5.338657e-03
  3.345526e+00    4.142305e-01   5.330228e-03
  3.347736e+00    4.176238e-01   5.350602e-03
  3.349947e+00    4.179058e-01   5.351487e-03
  3.352157e+00    4.272632e-01   5.409879e-03
  3.354368e+00    4.255973e-01   5.398020e-03
  3.356578e+00    4.254337e-01   5.395956e-03
  3.358788e+00    4.155397e-01   5.331518e-03
  3.360999e+00    4.145750e-01   5.324087e-03
  3.363209e+00    4.119068e-01   5.305907e-03
  3.365420e+00    4.239939e-01   5.381679e-03
  3.367630e+00    4.228464e-01   5.373366e-03
  3.369841e+00    4.170088e-01   5.334719e-03
  3.372051e+00    4.161687e-01   5.327373e-03
  3.374262e+00    4.164186e-01   5.326508e-03
  3.376472e+00    4.304097e-01   5.412792e-03
  3.378683e+00    4.175070e-01   5.328535e-03
  3.380893e+00    4.003677e-01   5.215728e-03
  3.383103e+00    4.006847e-01   5.215112e-03
  3.385314e+00    4.070598e-01   5.254231e-03
  3.387524e+00    4.039060e-01   5.231163e-03
  3.389735e+00    4.097777e-01   5.266395e-03
  3.391945e+00    4.212621e-01   5.336010e-03
  3.394156e+00    4.177310e-01   5.309338e-03
  3.396366e+00    4.083089e-01   5.245724e-03
  3.398577e+00    4.207870e-01   5.322215e-03
  3.400787e+00    3.993941e-01   5.196902e-03
  3.402998e+00    3.967558e-01   5.217140e-03
  3.405208e+00    3.950417e-01   5.226247e-03
  3.407418e+00    4.020270e-01   5.288055e-03
  3.409629e+00    3.934811e-01   5.245395e-03
  3.411839e+00    3.855615e-01   5.203906e-03
  3.414050e+00    3.921491e-01   5.259076e-03
  3.416260e+00    3.927650e-01   5.272863e-03
  3.418471e+00    3.893378e-01   5.259151e-03
  3.420681e+00    3.848983e-01   5.237488e-03
  3.422892e+00    3.832565e-01   5.234250e-03
  3.425102e+00    3.741830e-01   5.179555e-03
  3.427313e+00    3.722411e-01   5.173147e-03
  3.429523e+00    3.729180e-01   5.184772e-03
  3.431733e+00    3.750027e-01   5.205802e-03
  3.433944e+00    3.816390e-01   5.258139e-03
  3.436154e+00    3.844683e-01   5.283854e-03
  3.438365e+00    3.806396e-01   5.263397e-03
  3.440575e+00    3.775000e-01   5.247538e-03
  3.442786e+00    3.779915e-01   5.256545e-03
  3.444996e+00    3.844373e-01   5.306768e-03
  3.447207e+00    3.641075e-01   5.169717e-03
  3.449417e+00    3.850678e-01   5.358010e-03
  3.451628e+00    3.685505e-01   5.271265e-03
  3.453838e+00    3.727868e-01   5.322775e-03
  3.456049e+00    3.600317e-01   5.254617e-03
  3.458259e+00    3.538398e-01   5.230763e-03
  3.460469e+00    3.796123e-01   5.438054e-03
  3.462680e+00    3.713014e-01   5.397397e-03
  3.464890e+00    3.814659e-01   5.488911e-03
  3.467101e+00    3.721757e-01   5.439278e-03
  3.469311e+00    3.772247e-01   5.492729e-03
  3.471522e+00    3.737205e-01   5.483528e-03
  3.473732e+00    3.849533e-01   5.581391e-03
  3.475943e+00    4.079278e-01   5.761757e-03
  3.478153e+00    4.147944e-01   5.826018e-03
  3.480364e+00    4.174407e-01   5.860186e-03
  3.482574e+00    4.052437e-01   5.789290e-03
  3.484784e+00    4.083048e-01   5.825961e-03
  3.486995e+00    4.104759e-01   5.856414e-03
  3.489205e+00    4.226233e-01   5.957087e-03
  3.491416e+00    4.424313e-01   6.110275e-03
  3.493626e+00    4.527324e-01   6.195900e-03
  3.495837e+00    4.501494e-01   6.193112e-03
  3.498047e+00    4.562638e-01   6.249720e-03
  3.500258e+00    4.575274e-01   6.273009e-03
  3.502468e+00    4.759555e-01   6.412878e-03
  3.504679e+00    4.625983e-01   6.336772e-03
  3.506889e+00    4.656284e-01   6.371918e-03
  3.509099e+00    4.731999e-01   6.437908e-03
  3.511310e+00    4.782745e-01   6.486834e-03
  3.513520e+00    4.670256e-01   6.424277e-03
  3.515731e+00    4.997670e-01   6.660237e-03
  3.517941e+00    4.864391e-01   6.585141e-03
  3.520152e+00    4.923314e-01   6.639200e-03
  3.522362e+00    4.999238e-01   6.704644e-03
  3.524573e+00    5.104927e-01   6.789479e-03
  3.526783e+00    5.198858e-01   6.865153e-03
  3.528994e+00    5.144157e-01   6.841148e-03
  3.531204e+00    5.284100e-01   6.946113e-03
  3.533414e+00    5.326673e-01   6.986224e-03
  3.535625e+00    5.147521e-01   6.879931e-03
  3.537835e+00    5.280662e-01   6.980392e-03
  3.540046e+00    5.372080e-01   7.049493e-03
  3.542256e+00    5.477760e-01   7.126151e-03
  3.544467e+00    5.295293e-01   7.014009e-03
  3.546677e+00    5.391836e-01   7.085256e-03
  3.548888e+00    5.354222e-01   7.068005e-03
  3.551098e+00    5.458596e-01   7.143902e-03
  3.553309e+00    5.355688e-01   7.084416e-03
  3.555519e+00    5.484253e-01   7.180364e-03
  3.557729e+00    5.361393e-01   7.111209e-03
  3.559940e+00    5.403107e-01   7.150411e-03
  3.562150e+00    5.575558e-01   7.275573e-03
  3.564361e+00    5.395440e-01   7.170449e-03
  3.566571e+00    5.370641e-01   7.167805e-03
  3.568782e+00    5.324860e-01   7.151245e-03
  3.570992e+00    5.223964e-01   7.096757e-03
  3.573203e+00    5.416499e-01   7.240570e-03
  3.575413e+00    5.270666e-01   7.156097e-03
  3.577624e+00    5.342080e-01   7.218504e-03
  3.579834e+00    5.355703e-01   7.241581e-03
  3.582045e+00    5.369690e-01   7.265080e-03
  3.584255e+00    5.419165e-01   7.312593e-03
  3.586465e+00    5.480217e-01   7.367768e-03
  3.588676e+00    5.438315e-01   7.353837e-03
  3.590886e+00    5.494437e-01   7.405577e-03
  3.593097e+00    5.182621e-01   7.206652e-03
  3.595307e+00    5.249522e-01   7.266747e-03
  3.597518e+00    5.452201e-01   7.420067e-03
  3.599728e+00    5.546423e-01   7.498254e-03
  3.601939e+00    5.420760e-01   7.426990e-03
  3.604149e+00    5.480276e-01   7.482201e-03
  3.606360e+00    5.323039e-01   7.388219e-03
  3.608570e+00    5.397277e-01   7.453743e-03
  3.610780e+00    5.310097e-01   7.404341e-03
  3.612991e+00    5.491013e-01   7.539531e-03
  3.615201e+00    5.636523e-01   7.648847e-03
  3.617412e+00    5.580754e-01   7.618364e-03
  3.619622e+00    5.441399e-01   7.528649e-03
  3.621833e+00    5.353100e-01   7.474032e-03
  3.624043e+00    5.324303e-01   7.463387e-03
  3.626254e+00    5.405944e-01   7.530113e-03
  3.628464e+00    5.579702e-01   7.661448e-03
  3.630675e+00    5.304849e-01   7.484413e-03
  3.632885e+00    5.306113e-01   7.499725e-03
  3.635095e+00    5.213072e-01   7.447891e-03
  3.637306e+00    5.260560e-01   7.496000e-03
  3.639516e+00    5.390738e-01   7.602791e-03
  3.641727e+00    5.482726e-01   7.682153e-03
  3.643937e+00    5.388433e-01   7.630461e-03
  3.646148e+00    5.207551e-01   7.515721e-03
  3.648358e+00    5.235959e-01   7.550910e-03
  3.650569e+00    5.393406e-01   7.678414e-03
  3.652779e+00    5.334768e-01   7.651331e-03
  3.654990e+00    5.588433e-01   7.846423e-03
  3.657200e+00    5.243367e-01   7.615088e-03
  3.659410e+00    5.499175e-01   7.813819e-03
  3.661621e+00    5.284548e-01   7.674937e-03
  3.663831e+00    5.213934e-01   7.638400e-03
  3.666042e+00    5.478598e-01   7.845274e-03
  3.668252e+00    5.333823e-01   7.756194e-03
  3.670463e+00    5.397477e-01   7.817687e-03
  3.672673e+00    5.161906e-01   7.660443e-03
  3.674884e+00    5.134912e-01   7.655468e-03
  3.677094e+00    5.227156e-01   7.739324e-03
  3.679305e+00    5.355418e-01   7.849356e-03
  3.681515e+00    5.335893e-01   7.850708e-03
  3.683726e+00    5.328872e-01   7.861385e-03
  3.685936e+00    5.153723e-01   7.746628e-03
  3.688146e+00    5.093603e-01   7.716803e-03
  3.690357e+00    5.229117e-01   7.834628e-03
  3.692567e+00    5.415250e-01   7.989164e-03
  3.694778e+00    5.290624e-01   7.912872e-03
  3.696988e+00    5.102472e-01   7.786577e-03
  3.699199e+00    5.107696e-01   7.806603e-03
  3.701409e+00    5.029951e-01   7.762959e-03
  3.703620e+00    5.420563e-01   8.075316e-03
  3.705830e+00    5.343634e-01   8.034385e-03
  3.708041e+00    5.144895e-01   7.900017e-03
  3.710251e+00    5.263517e-01   8.007330e-03
  3.712461e+00    5.193114e-01   7.970272e-03
  3.714672e+00    5.221334e-01   8.008641e-03
  3.716882e+00    5.165769e-01   7.982544e-03
  3.719093e+00    5.176703e-01   8.008053e-03
  3.721303e+00    5.436769e-01   8.224135e-03
  3.723514e+00    5.014777e-01   7.915500e-03
  3.725724e+00    5.151792e-01   8.039973e-03
  3.727935e+00    5.217395e-01   8.108526e-03
  3.730145e+00    5.327599e-01   8.211302e-03
  3.732356e+00    5.386451e-01   8.274453e-03
  3.734566e+00    5.430433e-01   8.326177e-03
  3.736776e+00    5.291042e-01   8.236629e-03
  3.738987e+00    5.214463e-01   8.194668e-03
  3.741197e+00    5.272955e-01   8.258723e-03
  3.743408e+00    5.156862e-01   8.185442e-03
  3.745618e+00    5.239497e-01   8.269213e-03
  3.747829e+00    5.301936e-01   8.336805e-03
  3.750039e+00    5.240620e-01   8.307017e-03
  3.752250e+00    5.305070e-01   8.376822e-03
  3.754460e+00    5.043063e-01   8.185754e-03
  3.756671e+00    5.183236e-01   8.317687e-03
  3.758881e+00    5.156096e-01   8.314666e-03
  3.761091e+00    5.107980e-01   8.294962e-03
  3.763302e+00    5.115466e-01   8.320154e-03
  3.765512e+00    5.135173e-01   8.355564e-03
  3.767723e+00    5.205121e-01   8.431850e-03
  3.769933e+00    5.134793e-01   8.394212e-03
  3.772144e+00    5.026335e-01   8.324549e-03
  3.774354e+00    5.179521e-01   8.470556e-03
  3.776565e+00    4.993863e-01   8.337107e-03
  3.778775e+00    4.880641e-01   8.261653e-03
  3.780986e+00    4.900444e-01   8.298438e-03
  3.783196e+00    5.125897e-01   8.507594e-03
  3.785407e+00    5.015444e-01   8.435851e-03
  3.787617e+00    5.132314e-01   8.554523e-03
  3.789827e+00    5.274708e-01   8.693398e-03
  3.792038e+00    5.188702e-01   8.643499e-03
  3.794248e+00    4.967208e-01   8.477984e-03
  3.796459e+00    5.088901e-01   8.602758e-03
  3.798669e+00    5.253497e-01   8.762667e-03
  3.800880e+00    5.168716e-01   8.713448e-03
  3.803090e+00    5.331516e-01   8.872179e-03
  3.805301e+00    4.926947e-01   8.550807e-03
  3.807511e+00    5.075000e-01   8.700537e-03
  3.809722e+00    4.847795e-01   8.525398e-03
  3.811932e+00    4.818577e-01   8.521529e-03
  3.814142e+00    5.102736e-01   8.792304e-03
  3.816353e+00    4.984478e-01   8.712655e-03
  3.818563e+00    4.856487e-01   8.622882e-03
  3.820774e+00    4.660664e-01   8.469624e-03
  3.822984e+00    5.068920e-01   8.856340e-03
  3.825195e+00    5.064980e-01   8.876847e-03
  3.827405e+00    5.099106e-01   8.930926e-03
  3.829616e+00    5.136483e-01   8.988003e-03
  3.831826e+00    5.247710e-01   9.109628e-03
  3.834037e+00    5.022269e-01   8.936490e-03
  3.836247e+00    5.108055e-01   9.037476e-03
  3.838457e+00    4.816363e-01   8.800315e-03
  3.840668e+00    5.103139e-01   9.084024e-03
  3.842878e+00    4.964333e-01   8.985152e-03
  3.845089e+00    4.839104e-01   8.896450e-03
  3.847299e+00    4.934320e-01   9.009207e-03
  3.849510e+00    4.804632e-01   8.915529e-03
  3.851720e+00    5.178061e-01   9.277358e-03
  3.853931e+00    5.285897e-01   9.393174e-03
  3.856141e+00    4.905471e-01   9.067764e-03
  3.858352e+00    4.903369e-01   9.084981e-03
  3.860562e+00    5.121102e-01   9.304140e-03
  3.862772e+00    5.058296e-01   9.266756e-03
  3.864983e+00    4.912645e-01   9.151933e-03
  3.867193e+00    5.104988e-01   9.349540e-03
  3.869404e+00    4.928268e-01   9.206125e-03
  3.871614e+00    4.758019e-01   9.065278e-03
  3.873825e+00    4.748772e-01   9.076382e-03
  3.876035e+00    5.056185e-01   9.386455e-03
  3.878246e+00    4.760767e-01   9.133421e-03
  3.880456e+00    4.694717e-01   9.098138e-03
  3.882667e+00    4.896351e-01   9.320713e-03
  3.884877e+00    4.907688e-01   9.361243e-03
  3.887087e+00    4.996729e-01   9.475924e-03
  3.889298e+00    5.095786e-01   9.600320e-03
  3.891508e+00    5.242836e-01   9.769499e-03
  3.893719e+00    4.846137e-01   9.423397e-03
  3.895929e+00    4.932712e-01   9.538632e-03
  3.898140e+00    5.082124e-01   9.714306e-03
  3.900350e+00    5.328019e-01   9.980083e-03
  3.902561e+00    4.960337e-01   9.662098e-03
  3.904771e+00    4.966296e-01   9.700940e-03
  3.906982e+00    4.957266e-01   9.725471e-03
  3.909192e+00    4.893553e-01   9.696268e-03
  3.911403e+00    4.939642e-01   9.776026e-03
  3.913613e+00    5.280359e-01   1.014314e-02
  3.915823e+00    4.915231e-01   9.821161e-03
  3.918034e+00    4.800782e-01   9.740991e-03
  3.920244e+00    4.829266e-01   9.805480e-03
  3.922455e+00    4.719711e-01   9.729065e-03
  3.924665e+00    5.053768e-01   1.010451e-02
  3.926876e+00    5.197144e-01   1.028514e-02
  3.929086e+00    5.072502e-01   1.019924e-02
  3.931297e+00    5.147130e-01   1.030970e-02
  3.933507e+00    4.895234e-01   1.008337e-02
  3.935718e+00    4.936249e-01   1.015428e-02
  3.937928e+00    4.942918e-01   1.019091e-02
  3.940138e+00    4.922827e-01   1.019964e-02
  3.942349e+00    5.059441e-01   1.037061e-02
  3.944559e+00    4.945234e-01   1.028313e-02
  3.946770e+00    4.871815e-01   1.023671e-02
  3.948980e+00    4.910933e-01   1.030861e-02
  3.951191e+00    4.747983e-01   1.016657e-02
  3.953401e+00    4.792331e-01   1.024503e-02
  3.955612e+00    5.109027e-01   1.061064e-02
  3.957822e+00    4.771950e-01   1.028601e-02
  3.960033e+00    4.935310e-01   1.049349e-02
  3.962243e+00    4.607004e-01   1.017044e-02
  3.964453e+00    4.758410e-01   1.036892e-02
  3.966664e+00    5.067058e-01   1.073409e-02
  3.968874e+00    5.035110e-01   1.072914e-02
  3.971085e+00    4.951117e-01   1.066132e-02
  3.973295e+00    5.098733e-01   1.084118e-02
  3.975506e+00    4.753583e-01   1.048921e-02
  3.977716e+00    4.865344e-01   1.063371e-02
  3.979927e+00    4.939510e-01   1.073682e-02
  3.982137e+00    5.016657e-01   1.084303e-02
  3.984348e+00    5.210957e-01   1.107437e-02
  3.986558e+00    4.962371e-01   1.082960e-02
  3.988768e+00    4.856365e-01   1.073630e-02
  3.990979e+00    4.865378e-01   1.076908e-02
  3.993189e+00    4.609795e-01   1.050484e-02
  3.995400e+00    4.847910e-01   1.079633e-02
  3.997610e+00    4.819891e-01   1.079471e-02
  3.999821e+00    4.910606e-01   1.093367e-02
  4.002031e+00    4.821697e-01   1.087254e-02
  4.004242e+00    4.428757e-01   1.045692e-02
  4.006452e+00    4.786220e-01   1.090968e-02
  4.008663e+00    4.857569e-01   1.103089e-02
  4.010873e+00    4.826295e-01   1.103519e-02
  4.013084e+00    5.110874e-01   1.139790e-02
  4.015294e+00    5.042945e-01   1.136374e-02
  4.017504e+00    4.949941e-01   1.130080e-02
  4.019715e+00    5.209810e-01   1.163763e-02
  4.021925e+00    4.813412e-01   1.122914e-02
  4.024136e+00    4.631398e-01   1.105750e-02
  4.026346e+00    4.850393e-01   1.135989e-02
  4.028557e+00    4.831673e-01   1.138248e-02
  4.030767e+00    4.763454e-01   1.134697e-02
  4.032978e+00    4.762811e-01   1.139232e-02
  4.035188e+00    4.684334e-01   1.134336e-02
  4.037399e+00    4.805269e-01   1.153627e-02
  4.039609e+00    4.987944e-01   1.180213e-02
  4.041819e+00    4.509633e-01   1.126904e-02
  4.044030e+00    5.014285e-01   1.193365e-02
  4.046240e+00    4.399399e-01   1.122572e-02
  4.048451e+00    4.559800e-01   1.147783e-02
  4.050661e+00    4.541690e-01   1.150499e-02
  4.052872e+00    4.929032e-01   1.203890e-02
  4.055082e+00    4.955774e-01   1.212576e-02
  4.057293e+00    4.510488e-01   1.162002e-02
  4.059503e+00    4.934841e-01   1.220964e-02
  4.061714e+00    4.693300e-01   1.196297e-02
  4.063924e+00    4.700427e-01   1.202786e-02
  4.066134e+00    4.914624e-01   1.235697e-02
  4.068345e+00    4.707717e-01   1.215231e-02
  4.070555e+00    4.766206e-01   1.228648e-02
  4.072766e+00    4.753127e-01   1.233001e-02
  4.074976e+00    4.971170e-01   1.267268e-02
  4.077187e+00    4.901995e-01   1.264660e-02
  4.079397e+00    5.245697e-01   1.314933e-02
  4.081608e+00    4.637285e-01   1.242756e-02
  4.083818e+00    4.739261e-01   1.262887e-02
  4.086029e+00    4.623722e-01   1.253970e-02
  4.088239e+00    4.759932e-01   1.279164e-02
  4.090449e+00    4.739849e-01   1.283370e-02
  4.092660e+00    4.811716e-01   1.300180e-02
  4.094870e+00    4.718042e-01   1.294633e-02
  4.097081e+00    4.678036e-01   1.296180e-02
  4.099291e+00    4.602490e-01   1.291018e-02
  4.101502e+00    4.476642e-01   1.277967e-02
  4.103712e+00    4.858182e-01   1.336280e-02
  4.105923e+00    4.991748e-01   1.359770e-02
  4.108133e+00    4.716627e-01   1.326872e-02
  4.110344e+00    4.259706e-01   1.265781e-02
  4.112554e+00    4.743546e-01   1.341009e-02
  4.114764e+00    4.886406e-01   1.366520e-02
  4.116975e+00    5.064600e-01   1.396710e-02
  4.119185e+00    4.786778e-01   1.363380e-02
  4.121396e+00    4.858417e-01   1.379199e-02
  4.123606e+00    5.128479e-01   1.422829e-02
  4.125817e+00    4.912800e-01   1.398428e-02
  4.128027e+00    5.130274e-01   1.435072e-02
  4.130238e+00    4.566889e-01   1.359783e-02
  4.132448e+00    5.214173e-01   1.459251e-02
  4.134659e+00    5.051251e-01   1.442473e-02
  4.136869e+00    4.891299e-01   1.425769e-02
  4.139080e+00    4.827759e-01   1.422851e-02
  4.141290e+00    5.086121e-01   1.466909e-02
  4.143500e+00    4.932007e-01   1.451191e-02
  4.145711e+00    4.981425e-01   1.465238e-02
  4.147921e+00    4.248045e-01   1.359285e-02
  4.150132e+00    5.166712e-01   1.506248e-02
  4.152342e+00    4.601595e-01   1.428371e-02
  4.154553e+00    4.875701e-01   1.477296e-02
  4.156763e+00    4.691915e-01   1.456340e-02
  4.158974e+00    5.078608e-01   1.522798e-02
  4.161184e+00    4.710958e-01   1.473910e-02
  4.163395e+00    5.142251e-01   1.547751e-02
  4.165605e+00    5.242762e-01   1.570945e-02
  4.167815e+00    5.200523e-01   1.572781e-02
  4.170026e+00    4.386205e-01   1.452011e-02
  4.172236e+00    5.086966e-01   1.572154e-02
  4.174447e+00    5.286245e-01   1.611353e-02
  4.176657e+00    5.050566e-01   1.583657e-02
  4.178868e+00    5.387750e-01   1.644917e-02
  4.181078e+00    4.959126e-01   1.587027e-02
  4.183289e+00    5.508615e-01   1.682201e-02
  4.185499e+00    4.350402e-01   1.503794e-02
  4.187710e+00    4.821115e-01   1.592277e-02
  4.189920e+00    5.004126e-01   1.632011e-02
  4.192130e+00    4.798894e-01   1.607974e-02
  4.194341e+00    4.530643e-01   1.571933e-02
  4.196551e+00    4.789408e-01   1.626471e-02
  4.198762e+00    4.321329e-01   1.554728e-02
  4.200972e+00    4.931885e-01   1.671696e-02
  4.203183e+00    4.761156e-01   1.653349e-02
  4.205393e+00    4.362303e-01   1.593092e-02
  4.207604e+00    5.102137e-01   1.734660e-02
  4.209814e+00    4.464919e-01   1.633855e-02
  4.212025e+00    4.548502e-01   1.660773e-02
  4.214235e+00    4.769670e-01   1.712711e-02
  4.216445e+00    4.327098e-01   1.643129e-02
  4.218656e+00    4.847447e-01   1.752137e-02
  4.220866e+00    4.348788e-01   1.671874e-02
  4.223077e+00    4.995032e-01   1.805555e-02
  4.225287e+00    4.971206e-01   1.815423e-02
  4.227498e+00    5.249830e-01   1.880251e-02
  4.229708e+00    4.535959e-01   1.761947e-02
  4.231919e+00    4.704967e-01   1.809309e-02
  4.234129e+00    4.684905e-01   1.820609e-02
  4.236340e+00    4.202722e-01   1.739109e-02
  4.238550e+00    4.576557e-01   1.830832e-02
  4.240761e+00    4.516830e-01   1.834912e-02
  4.242971e+00    4.636748e-01   1.876159e-02
  4.245181e+00    4.240859e-01   1.811128e-02
  4.247392e+00    4.518377e-01   1.886886e-02
  4.249602e+00    4.711138e-01   1.945870e-02
  4.251813e+00    4.603216e-01   1.942451e-02
  4.254023e+00    4.825340e-01   2.008755e-02
  4.256234e+00    4.998258e-01   2.066308e-02
  4.258444e+00    4.434015e-01   1.966539e-02
  4.260655e+00    5.259838e-01   2.165400e-02
  4.262865e+00    4.657510e-01   2.060761e-02
  4.265076e+00    4.503119e-01   2.049374e-02
  4.267286e+00    4.250592e-01   2.014641e-02
  4.269496e+00    5.325423e-01   2.282582e-02
  4.271707e+00    5.145686e-01   2.271452e-02
  4.273917e+00    5.173888e-01   2.307118e-02
  4.276128e+00    5.365044e-01   2.380545e-02
  4.278338e+00    4.412057e-01   2.187668e-02
  4.280549e+00    4.507120e-01   2.242746e-02
  4.282759e+00    4.488646e-01   2.270379e-02
  4.284970e+00    5.144109e-01   2.466430e-02
  4.287180e+00    4.541998e-01   2.345388e-02
  4.289391e+00    4.074850e-01   2.238195e-02
  4.291601e+00    4.744607e-01   2.434368e-02
  4.293811e+00    4.469438e-01   2.381238e-02
  4.296022e+00    4.797084e-01   2.486739e-02
  4.298232e+00    4.579009e-01   2.449998e-02
  4.300443e+00    3.955980e-01   2.295933e-02
  4.302653e+00    4.368298e-01   2.433542e-02
  4.304864e+00    5.081457e-01   2.647440e-02
  4.307074e+00    4.341087e-01   2.468936e-02
  4.309285e+00    5.296866e-01   2.752048e-02
  4.311495e+00    5.103723e-01   2.726656e-02
  4.313706e+00    4.520926e-01   2.590403e-02
  4.315916e+00    4.565333e-01   2.628654e-02
  4.318126e+00    5.730151e-01   2.974085e-02
  4.320337e+00    4.485539e-01   2.658081e-02
  4.322547e+00    4.464872e-01   2.679914e-02
  4.324758e+00    4.760888e-01   2.796243e-02
  4.326968e+00    4.056219e-01   2.609976e-02
  4.329179e+00    5.386998e-01   3.041020e-02
  4.331389e+00    4.935306e-01   2.944318e-02
  4.333600e+00    5.240173e-01   3.070013e-02
  4.335810e+00    4.788958e-01   2.969889e-02
  4.338021e+00    4.974079e-01   3.065388e-02
  4.340231e+00    4.529190e-01   2.961864e-02
  4.342442e+00    5.183042e-01   3.210934e-02
  4.344652e+00    3.941889e-01   2.838271e-02
  4.346862e+00    4.636376e-01   3.121224e-02
  4.349073e+00    3.999134e-01   2.941032e-02
  4.351283e+00    4.556104e-01   3.185969e-02
  4.353494e+00    3.870711e-01   2.982081e-02
  4.355704e+00    3.845677e-01   3.020111e-02
  4.357915e+00    4.544796e-01   3.337904e-02
  4.360125e+00    4.802110e-01   3.489593e-02
  4.362336e+00    5.307817e-01   3.735725e-02
  4.364546e+00    4.471395e-01   3.491179e-02
  4.366757e+00    3.636831e-01   3.211156e-02
  4.368967e+00    4.580711e-01   3.675816e-02
  4.371177e+00    4.154783e-01   3.575047e-02
  4.373388e+00    4.221351e-01   3.684232e-02
  4.375598e+00    3.527867e-01   3.444830e-02
  4.377809e+00    4.855720e-01   4.143700e-02
  4.380019e+00    5.434845e-01   4.494250e-02
  4.382230e+00    3.185567e-01   3.536608e-02
  4.384440e+00    4.710408e-01   4.424565e-02
  4.386651e+00    3.353905e-01   3.848545e-02
  4.388861e+00    4.368226e-01   4.539427e-02
  4.391072e+00    3.171819e-01   4.004091e-02
  4.393282e+00    6.108035e-01   5.771123e-02
  4.395492e+00    6.483661e-01   6.193346e-02
  4.397703e+00    4.241263e-01   5.237830e-02
  4.399913e+00    3.280722e-01   4.840587e-02
  4.402124e+00    4.010251e-01   5.654185e-02
  4.404334e+00    3.176439e-01   5.349584e-02
  4.406545e+00    2.943843e-01   5.532948e-02
  4.408755e+00    2.878732e-01   5.933775e-02
  4.410966e+00    2.946881e-01   6.645300e-02
  4.413176e+00    3.867931e-01   8.617431e-02
  4.415387e+00   -6.521853e-01            nan
  4.417597e+00   -2.027282e+00            nan
  4.419807e+00    2.807437e-01   1.902519e-01
