# == pyFAI calibration ==
# Distance Sample to Detector: 0.216 m
# PONI: 1.166e-01, 1.308e-01 m
# Rotations: 0.000000 0.000000 0.000000 rad
# 
# == Fit2d calibration ==
# Distance Sample-beamCenter: 216.000 mm
# Center: x=1744.293, y=1555.000 pix
# Tilt: 0.000 deg  TiltPlanRot: 0.000 deg
# 
# Detector Eiger 9M	 PixelSize= 7.500e-05, 7.500e-05 m
#    Detector has a mask: True 
#    Detector has a dark current: False 
#    detector has a flat field: False 
# 
# Wavelength: 9.8e-11 m
# Mask applied: from detector
# Dark current applied: False
# Flat field applied: False
# Polarization factor: None
# Normalization factor: 1.0
# 
# Headers of the input frame:
# {
# "_array_data.header_convention": "SLS_1.0",
# "_array_data.header_contents": "# Detector: Dectris Eiger 9M, S/N E-18-0102\r\n# Pixel_size 75e-6 m x 75e-6 m\r\n# Silicon sensor, thickness 0.000450 m\r\n# Exposure_time 0.024997 s\r\n# Exposure_period 0.025000 s\r\n# Count_cutoff 62318 counts\r\n# Wavelength 0.980106 A\r\n# Detector_distance 0.215992 m\r\n# Beam_xy (1555, 1744) pixels\r\n# Start_angle 0.000000 deg.\r\n# Angle_increment 0.000000 deg.",
# "Content-Type": "application/octet-stream;",
# "conversions": "x-CBF_BYTE_OFFSET",
# "Content-Transfer-Encoding": "BINARY",
# "X-Binary-Size": "10166598",
# "X-Binary-ID": "1",
# "X-Binary-Element-Type": "signed 32-bit integer",
# "X-Binary-Element-Byte-Order": "LITTLE_ENDIAN",
# "Content-MD5": "T9HIDwQnQ34yN9HtI4Quyg==",
# "X-Binary-Number-of-Elements": "10166590",
# "X-Binary-Size-Fastest-Dimension": "3110",
# "X-Binary-Size-Second-Dimension": "3269",
# "X-Binary-Size-Padding": "4095"
# }
# --> H:/Proxima2a_2019-04-05/RAW_DATA/C5_gel17_position5/C5_mesh_1_data.cbf/C5_mesh_1_data.cbf000074.dat
#        q_A^-1              I           sigma 
  1.105228e-03    1.470377e+00   6.561473e-01
  3.315685e-03    1.687690e+00   4.273579e-01
  5.526141e-03    1.365780e+00   2.972778e-01
  7.736597e-03    8.999997e-01   2.038644e-01
  9.947054e-03    1.075060e+00   1.964232e-01
  1.215751e-02    1.293358e+00   1.948175e-01
  1.436797e-02    1.313942e+00   1.806192e-01
  1.657842e-02    1.251401e+00   1.640751e-01
  1.878888e-02    1.444311e+00   1.655746e-01
  2.099934e-02    1.401980e+00   1.543380e-01
  2.320979e-02    1.377983e+00   1.455308e-01
  2.542025e-02    1.115405e+00   1.251197e-01
  2.763070e-02    1.214302e+00   1.252142e-01
  2.984116e-02    1.393204e+00   1.290577e-01
  3.205162e-02    1.534309e+00   1.306901e-01
  3.426207e-02    1.496942e+00   1.248468e-01
  3.647253e-02    1.487862e+00   1.206343e-01
  3.868299e-02    1.378243e+00   1.127479e-01
  4.089344e-02    1.463231e+00   1.129893e-01
  4.310390e-02    1.411450e+00   1.080828e-01
  4.531436e-02    1.432399e+00   1.061935e-01
  4.752481e-02    1.432059e+00   1.036811e-01
  4.973527e-02    1.466674e+00   1.025696e-01
  5.194572e-02    1.465852e+00   1.003340e-01
  5.415618e-02    1.545402e+00   1.008926e-01
  5.636664e-02    1.433427e+00   9.524737e-02
  5.857709e-02    1.429098e+00   9.329224e-02
  6.078755e-02    1.372247e+00   8.973741e-02
  6.299801e-02    1.457983e+00   9.085999e-02
  6.520846e-02    1.551967e+00   9.214079e-02
  6.741892e-02    1.482237e+00   8.855411e-02
  6.962938e-02    1.433449e+00   8.569540e-02
  7.183983e-02    1.438533e+00   8.451464e-02
  7.405029e-02    1.470499e+00   8.416153e-02
  7.626074e-02    1.405153e+00   8.106851e-02
  7.847120e-02    1.447850e+00   8.112147e-02
  8.068166e-02    1.386045e+00   7.827569e-02
  8.289211e-02    1.498706e+00   8.030174e-02
  8.510257e-02    1.595828e+00   8.177911e-02
  8.731303e-02    1.495243e+00   7.814851e-02
  8.952348e-02    1.513679e+00   7.765410e-02
  9.173394e-02    1.586508e+00   7.853350e-02
  9.394439e-02    1.433735e+00   7.377069e-02
  9.615485e-02    1.492604e+00   7.439811e-02
  9.836531e-02    1.612165e+00   7.644467e-02
  1.005758e-01    1.438686e+00   7.141716e-02
  1.027862e-01    1.407192e+00   6.986579e-02
  1.049967e-01    1.517541e+00   7.178440e-02
  1.072071e-01    1.517580e+00   7.104060e-02
  1.094176e-01    1.454395e+00   6.883883e-02
  1.116280e-01    1.555916e+00   7.049085e-02
  1.138385e-01    1.511460e+00   6.879736e-02
  1.160490e-01    1.604168e+00   7.019673e-02
  1.182594e-01    1.594132e+00   6.931825e-02
  1.204699e-01    1.551162e+00   6.774686e-02
  1.226803e-01    1.602674e+00   6.823653e-02
  1.248908e-01    1.641722e+00   6.844809e-02
  1.271012e-01    1.687505e+00   6.878849e-02
  1.293117e-01    1.589932e+00   6.619621e-02
  1.315222e-01    1.515756e+00   6.408669e-02
  1.337326e-01    1.612604e+00   6.555253e-02
  1.359431e-01    1.650350e+00   6.635411e-02
  1.381535e-01    1.605434e+00   6.632341e-02
  1.403640e-01    1.531803e+00   6.506435e-02
  1.425744e-01    1.567125e+00   6.591538e-02
  1.447849e-01    1.538417e+00   6.532387e-02
  1.469953e-01    1.593902e+00   6.644980e-02
  1.492058e-01    1.473795e+00   6.382289e-02
  1.514163e-01    1.512463e+00   6.454735e-02
  1.536267e-01    1.592469e+00   6.610326e-02
  1.558372e-01    1.657651e+00   6.729363e-02
  1.580476e-01    1.645489e+00   6.688363e-02
  1.602581e-01    1.603199e+00   6.585090e-02
  1.624685e-01    1.646521e+00   6.655195e-02
  1.646790e-01    1.657303e+00   6.657781e-02
  1.668895e-01    1.706547e+00   6.736455e-02
  1.690999e-01    1.726292e+00   6.754968e-02
  1.713104e-01    1.765011e+00   6.809106e-02
  1.735208e-01    1.757594e+00   6.773656e-02
  1.757313e-01    1.798902e+00   6.831314e-02
  1.779417e-01    1.809928e+00   6.829871e-02
  1.801522e-01    1.863435e+00   6.908020e-02
  1.823626e-01    1.929745e+00   7.006451e-02
  1.845731e-01    1.924915e+00   6.975015e-02
  1.867836e-01    1.961174e+00   7.016637e-02
  1.889940e-01    1.972044e+00   7.013067e-02
  1.912045e-01    2.009247e+00   7.055267e-02
  1.934149e-01    2.027405e+00   7.063358e-02
  1.956254e-01    1.983451e+00   6.963331e-02
  1.978358e-01    1.996266e+00   6.961846e-02
  2.000463e-01    2.041280e+00   7.016575e-02
  2.022568e-01    2.014316e+00   6.947199e-02
  2.044672e-01    1.994547e+00   6.889343e-02
  2.066777e-01    1.990759e+00   6.859951e-02
  2.088881e-01    1.966879e+00   6.796375e-02
  2.110986e-01    2.029331e+00   6.879757e-02
  2.133090e-01    2.021524e+00   6.844190e-02
  2.155195e-01    1.991931e+00   6.771374e-02
  2.177300e-01    1.983934e+00   6.704674e-02
  2.199404e-01    2.113080e+00   6.737134e-02
  2.221509e-01    2.037165e+00   6.506386e-02
  2.243613e-01    2.003261e+00   6.370225e-02
  2.265718e-01    1.972689e+00   6.251749e-02
  2.287822e-01    2.185223e+00   6.514786e-02
  2.309927e-01    2.132842e+00   6.377602e-02
  2.332031e-01    2.070676e+00   6.230183e-02
  2.354136e-01    2.202872e+00   6.373900e-02
  2.376241e-01    2.191750e+00   6.308440e-02
  2.398345e-01    2.258611e+00   6.356546e-02
  2.420450e-01    2.218289e+00   6.254531e-02
  2.442554e-01    2.222601e+00   6.217473e-02
  2.464659e-01    2.232067e+00   6.188870e-02
  2.486763e-01    2.138796e+00   6.018361e-02
  2.508868e-01    2.052263e+00   5.858165e-02
  2.530973e-01    2.127446e+00   5.927524e-02
  2.553077e-01    2.145347e+00   5.916308e-02
  2.575182e-01    2.026557e+00   5.716158e-02
  2.597286e-01    2.040427e+00   5.702342e-02
  2.619391e-01    2.183028e+00   5.864280e-02
  2.641495e-01    2.095680e+00   5.713966e-02
  2.663600e-01    2.105624e+00   5.696004e-02
  2.685704e-01    2.087773e+00   5.641066e-02
  2.707809e-01    2.021582e+00   5.521459e-02
  2.729914e-01    2.031726e+00   5.506447e-02
  2.752018e-01    2.029852e+00   5.475260e-02
  2.774123e-01    1.969369e+00   5.365523e-02
  2.796227e-01    2.023135e+00   5.411370e-02
  2.818332e-01    2.084387e+00   5.465277e-02
  2.840436e-01    1.984689e+00   5.307122e-02
  2.862541e-01    1.965007e+00   5.255355e-02
  2.884646e-01    1.999283e+00   5.275834e-02
  2.906750e-01    2.023049e+00   5.281934e-02
  2.928855e-01    1.976946e+00   5.197211e-02
  2.950959e-01    1.961127e+00   5.152596e-02
  2.973064e-01    2.056614e+00   5.252830e-02
  2.995168e-01    2.046956e+00   5.216748e-02
  3.017273e-01    1.969820e+00   5.094950e-02
  3.039377e-01    1.963832e+00   5.064925e-02
  3.061482e-01    1.894501e+00   4.953194e-02
  3.083587e-01    1.934406e+00   4.983424e-02
  3.105691e-01    1.963547e+00   4.999375e-02
  3.127796e-01    1.949015e+00   4.959903e-02
  3.149900e-01    1.885045e+00   4.857502e-02
  3.172005e-01    1.928272e+00   4.892792e-02
  3.194109e-01    1.873603e+00   4.803026e-02
  3.216214e-01    1.851828e+00   4.755549e-02
  3.238319e-01    1.843562e+00   4.726125e-02
  3.260423e-01    1.837911e+00   4.700080e-02
  3.282528e-01    1.869156e+00   4.720993e-02
  3.304632e-01    1.839113e+00   4.664758e-02
  3.326737e-01    1.877247e+00   4.694483e-02
  3.348841e-01    1.884096e+00   4.684802e-02
  3.370946e-01    1.826400e+00   4.595159e-02
  3.393050e-01    1.855134e+00   4.613622e-02
  3.415155e-01    1.881105e+00   4.628336e-02
  3.437260e-01    1.825005e+00   4.541904e-02
  3.459364e-01    1.763559e+00   4.448271e-02
  3.481469e-01    1.788315e+00   4.463033e-02
  3.503573e-01    1.820838e+00   4.487027e-02
  3.525678e-01    1.849208e+00   4.505734e-02
  3.547782e-01    1.810272e+00   4.441933e-02
  3.569887e-01    1.860870e+00   4.487626e-02
  3.591992e-01    1.839557e+00   4.446064e-02
  3.614096e-01    1.824445e+00   4.412412e-02
  3.636201e-01    1.814038e+00   4.384349e-02
  3.658305e-01    1.800556e+00   4.353126e-02
  3.680410e-01    1.831829e+00   4.375665e-02
  3.702514e-01    1.836463e+00   4.366462e-02
  3.724619e-01    1.841993e+00   4.358141e-02
  3.746724e-01    1.790259e+00   4.282169e-02
  3.768828e-01    1.811932e+00   4.293514e-02
  3.790933e-01    1.798885e+00   4.264088e-02
  3.813037e-01    1.799562e+00   4.250937e-02
  3.835142e-01    1.820325e+00   4.261346e-02
  3.857246e-01    1.852252e+00   4.284644e-02
  3.879351e-01    1.814219e+00   4.226701e-02
  3.901455e-01    1.833117e+00   4.235132e-02
  3.923560e-01    1.811708e+00   4.196947e-02
  3.945665e-01    1.811047e+00   4.182875e-02
  3.967769e-01    1.785238e+00   4.139955e-02
  3.989874e-01    1.837396e+00   4.186883e-02
  4.011978e-01    1.814627e+00   4.148066e-02
  4.034083e-01    1.831193e+00   4.154164e-02
  4.056187e-01    1.804178e+00   4.110707e-02
  4.078292e-01    1.769386e+00   4.058558e-02
  4.100397e-01    1.781399e+00   4.059876e-02
  4.122501e-01    1.769964e+00   4.034720e-02
  4.144606e-01    1.841172e+00   4.102876e-02
  4.166710e-01    1.815632e+00   4.062209e-02
  4.188815e-01    1.793382e+00   4.025313e-02
  4.210919e-01    1.826737e+00   4.050669e-02
  4.233024e-01    1.787799e+00   3.995477e-02
  4.255128e-01    1.820305e+00   4.019984e-02
  4.277233e-01    1.789655e+00   3.974544e-02
  4.299338e-01    1.843477e+00   4.022257e-02
  4.321442e-01    1.868877e+00   4.038287e-02
  4.343547e-01    1.750848e+00   3.897635e-02
  4.365651e-01    1.753075e+00   3.889031e-02
  4.387756e-01    1.757566e+00   3.883107e-02
  4.409860e-01    1.737058e+00   3.849689e-02
  4.431965e-01    1.730095e+00   3.831343e-02
  4.454070e-01    1.749290e+00   3.841820e-02
  4.476174e-01    1.679867e+00   3.754478e-02
  4.498279e-01    1.710374e+00   3.778105e-02
  4.520383e-01    1.790846e+00   3.855355e-02
  4.542488e-01    1.726390e+00   3.775133e-02
  4.564592e-01    1.723304e+00   3.761636e-02
  4.586697e-01    1.768112e+00   3.800115e-02
  4.608801e-01    1.770183e+00   3.792154e-02
  4.630906e-01    1.743318e+00   3.753306e-02
  4.653011e-01    1.727939e+00   3.726885e-02
  4.675115e-01    1.725574e+00   3.714527e-02
  4.697220e-01    1.667494e+00   3.641918e-02
  4.719324e-01    1.698066e+00   3.665644e-02
  4.741429e-01    1.725031e+00   3.685115e-02
  4.763533e-01    1.739020e+00   3.690542e-02
  4.785638e-01    1.727631e+00   3.668934e-02
  4.807743e-01    1.697910e+00   3.627990e-02
  4.829847e-01    1.718701e+00   3.640912e-02
  4.851952e-01    1.713987e+00   3.626715e-02
  4.874056e-01    1.748386e+00   3.653692e-02
  4.896161e-01    1.743537e+00   3.639575e-02
  4.918265e-01    1.718566e+00   3.604444e-02
  4.940370e-01    1.707842e+00   3.584309e-02
  4.962475e-01    1.686240e+00   3.552773e-02
  4.984579e-01    1.745351e+00   3.605598e-02
  5.006684e-01    1.777602e+00   3.629888e-02
  5.028788e-01    1.721321e+00   3.563308e-02
  5.050893e-01    1.666482e+00   3.497561e-02
  5.072997e-01    1.703164e+00   3.527303e-02
  5.095102e-01    1.709052e+00   3.524933e-02
  5.117206e-01    1.719733e+00   3.527523e-02
  5.139311e-01    1.670113e+00   3.468033e-02
  5.161416e-01    1.665302e+00   3.454851e-02
  5.183520e-01    1.679252e+00   3.461045e-02
  5.205625e-01    1.692154e+00   3.466178e-02
  5.227729e-01    1.690970e+00   3.456883e-02
  5.249834e-01    1.675897e+00   3.433452e-02
  5.271938e-01    1.690573e+00   3.440406e-02
  5.294043e-01    1.746555e+00   3.488835e-02
  5.316148e-01    1.784613e+00   3.518566e-02
  5.338252e-01    1.776807e+00   3.502839e-02
  5.360357e-01    1.748384e+00   3.466798e-02
  5.382461e-01    1.749283e+00   3.459850e-02
  5.404566e-01    1.789009e+00   3.490954e-02
  5.426670e-01    1.767625e+00   3.462209e-02
  5.448775e-01    1.804275e+00   3.490101e-02
  5.470879e-01    1.810733e+00   3.488546e-02
  5.492984e-01    1.786061e+00   3.456995e-02
  5.515089e-01    1.777461e+00   3.441011e-02
  5.537193e-01    1.800253e+00   3.455375e-02
  5.559298e-01    1.758918e+00   3.407985e-02
  5.581402e-01    1.758105e+00   3.399749e-02
  5.603507e-01    1.759011e+00   3.393226e-02
  5.625611e-01    1.765483e+00   3.392085e-02
  5.647716e-01    1.791907e+00   3.409955e-02
  5.669821e-01    1.775575e+00   3.387065e-02
  5.691925e-01    1.753343e+00   3.358566e-02
  5.714030e-01    1.756507e+00   3.354429e-02
  5.736134e-01    1.725871e+00   3.317975e-02
  5.758239e-01    1.734176e+00   3.318849e-02
  5.780343e-01    1.729685e+00   3.307537e-02
  5.802448e-01    1.709052e+00   3.280869e-02
  5.824552e-01    1.678070e+00   3.244174e-02
  5.846657e-01    1.666574e+00   3.226301e-02
  5.868762e-01    1.671279e+00   3.224128e-02
  5.890866e-01    1.624644e+00   3.172230e-02
  5.912971e-01    1.703916e+00   3.241974e-02
  5.935075e-01    1.694567e+00   3.226388e-02
  5.957180e-01    1.648925e+00   3.176111e-02
  5.979284e-01    1.631987e+00   3.153305e-02
  6.001389e-01    1.644635e+00   3.159055e-02
  6.023494e-01    1.650116e+00   3.157890e-02
  6.045598e-01    1.653230e+00   3.154431e-02
  6.067703e-01    1.673440e+00   3.167273e-02
  6.089807e-01    1.648814e+00   3.137560e-02
  6.111912e-01    1.656067e+00   3.138176e-02
  6.134016e-01    1.704324e+00   3.177219e-02
  6.156121e-01    1.712637e+00   3.178629e-02
  6.178226e-01    1.686139e+00   3.147697e-02
  6.200330e-01    1.716127e+00   3.169302e-02
  6.222435e-01    1.734286e+00   3.179713e-02
  6.244539e-01    1.731111e+00   3.170582e-02
  6.266644e-01    1.714911e+00   3.149556e-02
  6.288748e-01    1.719066e+00   3.147232e-02
  6.310853e-01    1.698675e+00   3.122436e-02
  6.332957e-01    1.673616e+00   3.093335e-02
  6.355062e-01    1.719861e+00   3.129688e-02
  6.377167e-01    1.748805e+00   3.149859e-02
  6.399271e-01    1.730341e+00   3.127185e-02
  6.421376e-01    1.706289e+00   3.099445e-02
  6.443480e-01    1.731263e+00   3.116106e-02
  6.465585e-01    1.730138e+00   3.109193e-02
  6.487689e-01    1.721859e+00   3.095889e-02
  6.509794e-01    1.686839e+00   3.058465e-02
  6.531899e-01    1.645353e+00   3.014940e-02
  6.554003e-01    1.636163e+00   3.000856e-02
  6.576108e-01    1.626757e+00   2.986646e-02
  6.598212e-01    1.631800e+00   2.985714e-02
  6.620317e-01    1.623910e+00   2.972967e-02
  6.642421e-01    1.644351e+00   2.986083e-02
  6.664526e-01    1.642535e+00   2.978937e-02
  6.686630e-01    1.631129e+00   2.963087e-02
  6.708735e-01    1.621849e+00   2.949225e-02
  6.730840e-01    1.648164e+00   2.967636e-02
  6.752944e-01    1.590259e+00   2.909738e-02
  6.775049e-01    1.629553e+00   2.940118e-02
  6.797153e-01    1.590580e+00   2.899488e-02
  6.819258e-01    1.596540e+00   2.899675e-02
  6.841362e-01    1.606087e+00   2.903103e-02
  6.863467e-01    1.585020e+00   2.878834e-02
  6.885572e-01    1.590542e+00   2.878674e-02
  6.907676e-01    1.629586e+00   2.908574e-02
  6.929781e-01    1.608139e+00   2.884234e-02
  6.951885e-01    1.579295e+00   2.853190e-02
  6.973990e-01    1.595407e+00   2.862635e-02
  6.996094e-01    1.603788e+00   2.865097e-02
  7.018199e-01    1.605017e+00   2.861162e-02
  7.040303e-01    1.598225e+00   2.850087e-02
  7.062408e-01    1.612482e+00   2.857757e-02
  7.084513e-01    1.614201e+00   2.854305e-02
  7.106617e-01    1.581047e+00   2.819935e-02
  7.128722e-01    1.588002e+00   2.821237e-02
  7.150826e-01    1.631263e+00   2.854482e-02
  7.172931e-01    1.599879e+00   2.822015e-02
  7.195035e-01    1.577509e+00   2.797399e-02
  7.217140e-01    1.590906e+00   2.814224e-02
  7.239245e-01    1.578436e+00   2.825873e-02
  7.261349e-01    1.609242e+00   2.864296e-02
  7.283454e-01    1.610083e+00   2.872365e-02
  7.305558e-01    1.608275e+00   2.876210e-02
  7.327663e-01    1.599386e+00   2.872532e-02
  7.349767e-01    1.572960e+00   2.850341e-02
  7.371872e-01    1.570017e+00   2.846555e-02
  7.393976e-01    1.554370e+00   2.830920e-02
  7.416081e-01    1.550416e+00   2.825709e-02
  7.438186e-01    1.581493e+00   2.839426e-02
  7.460290e-01    1.584514e+00   2.812620e-02
  7.482395e-01    1.603343e+00   2.812012e-02
  7.504499e-01    1.586061e+00   2.783139e-02
  7.526604e-01    1.566629e+00   2.754411e-02
  7.548708e-01    1.553477e+00   2.733945e-02
  7.570813e-01    1.552981e+00   2.728444e-02
  7.592918e-01    1.544764e+00   2.717734e-02
  7.615022e-01    1.577234e+00   2.742763e-02
  7.637127e-01    1.569733e+00   2.732962e-02
  7.659231e-01    1.592226e+00   2.749254e-02
  7.681336e-01    1.602363e+00   2.754805e-02
  7.703440e-01    1.617016e+00   2.764208e-02
  7.725545e-01    1.582203e+00   2.731195e-02
  7.747650e-01    1.643142e+00   2.779391e-02
  7.769754e-01    1.614761e+00   2.749950e-02
  7.791859e-01    1.583077e+00   2.717475e-02
  7.813963e-01    1.580962e+00   2.710396e-02
  7.836068e-01    1.581831e+00   2.705946e-02
  7.858172e-01    1.615103e+00   2.729143e-02
  7.880277e-01    1.608122e+00   2.718060e-02
  7.902381e-01    1.596543e+00   2.703334e-02
  7.924486e-01    1.585814e+00   2.689246e-02
  7.946591e-01    1.602192e+00   2.698263e-02
  7.968695e-01    1.632070e+00   2.718434e-02
  7.990800e-01    1.629779e+00   2.711671e-02
  8.012904e-01    1.614734e+00   2.694458e-02
  8.035009e-01    1.624549e+00   2.697824e-02
  8.057113e-01    1.661817e+00   2.723875e-02
  8.079218e-01    1.658461e+00   2.716428e-02
  8.101323e-01    1.633211e+00   2.691094e-02
  8.123427e-01    1.593853e+00   2.653936e-02
  8.145532e-01    1.621274e+00   2.672090e-02
  8.167636e-01    1.599985e+00   2.650024e-02
  8.189741e-01    1.632637e+00   2.672465e-02
  8.211845e-01    1.638752e+00   2.672978e-02
  8.233950e-01    1.647905e+00   2.676074e-02
  8.256054e-01    1.659931e+00   2.681369e-02
  8.278159e-01    1.648685e+00   2.667861e-02
  8.300264e-01    1.642562e+00   2.658586e-02
  8.322368e-01    1.667596e+00   2.674419e-02
  8.344473e-01    1.665166e+00   2.668097e-02
  8.366577e-01    1.651535e+00   2.652881e-02
  8.388682e-01    1.633425e+00   2.634078e-02
  8.410786e-01    1.644756e+00   2.638985e-02
  8.432891e-01    1.649532e+00   2.638617e-02
  8.454996e-01    1.633627e+00   2.621708e-02
  8.477100e-01    1.663525e+00   2.641392e-02
  8.499205e-01    1.671277e+00   2.643382e-02
  8.521309e-01    1.627916e+00   2.604797e-02
  8.543414e-01    1.658203e+00   2.624814e-02
  8.565518e-01    1.627399e+00   2.596273e-02
  8.587623e-01    1.649569e+00   2.609825e-02
  8.609727e-01    1.681929e+00   2.631215e-02
  8.631832e-01    1.646224e+00   2.599124e-02
  8.653937e-01    1.627386e+00   2.580237e-02
  8.676041e-01    1.652740e+00   2.596336e-02
  8.698146e-01    1.623653e+00   2.569455e-02
  8.720250e-01    1.600008e+00   2.546790e-02
  8.742355e-01    1.614236e+00   2.554193e-02
  8.764459e-01    1.614863e+00   2.550795e-02
  8.786564e-01    1.570385e+00   2.511670e-02
  8.808669e-01    1.595881e+00   2.528137e-02
  8.830773e-01    1.605797e+00   2.532163e-02
  8.852878e-01    1.593047e+00   2.518309e-02
  8.874982e-01    1.602125e+00   2.521809e-02
  8.897087e-01    1.633765e+00   2.542779e-02
  8.919191e-01    1.642103e+00   2.545439e-02
  8.941296e-01    1.641001e+00   2.540807e-02
  8.963401e-01    1.623031e+00   2.523190e-02
  8.985505e-01    1.619952e+00   2.517076e-02
  9.007610e-01    1.639089e+00   2.528180e-02
  9.029714e-01    1.618011e+00   2.508269e-02
  9.051819e-01    1.588390e+00   2.481494e-02
  9.073923e-01    1.594044e+00   2.482256e-02
  9.096028e-01    1.606997e+00   2.488821e-02
  9.118132e-01    1.601206e+00   2.480711e-02
  9.140237e-01    1.584813e+00   2.464334e-02
  9.162342e-01    1.580511e+00   2.457551e-02
  9.184446e-01    1.647138e+00   2.505187e-02
  9.206551e-01    1.623417e+00   2.483501e-02
  9.228655e-01    1.633950e+00   2.487980e-02
  9.250760e-01    1.652553e+00   2.498514e-02
  9.272864e-01    1.604124e+00   2.458205e-02
  9.294969e-01    1.605727e+00   2.455845e-02
  9.317074e-01    1.623938e+00   2.466244e-02
  9.339178e-01    1.617019e+00   2.457623e-02
  9.361283e-01    1.677334e+00   2.499348e-02
  9.383387e-01    1.640946e+00   2.468728e-02
  9.405492e-01    1.666384e+00   2.484314e-02
  9.427596e-01    1.662362e+00   2.477742e-02
  9.449701e-01    1.688269e+00   2.493583e-02
  9.471805e-01    1.670707e+00   2.477065e-02
  9.493910e-01    1.706276e+00   2.499858e-02
  9.516015e-01    1.710283e+00   2.499299e-02
  9.538119e-01    1.732299e+00   2.511886e-02
  9.560224e-01    1.747776e+00   2.519532e-02
  9.582328e-01    1.742049e+00   2.512025e-02
  9.604433e-01    1.768435e+00   2.527394e-02
  9.626537e-01    1.743136e+00   2.505878e-02
  9.648642e-01    1.794620e+00   2.539129e-02
  9.670747e-01    1.807916e+00   2.545006e-02
  9.692851e-01    1.817272e+00   2.548189e-02
  9.714956e-01    1.900855e+00   2.602456e-02
  9.737060e-01    1.906074e+00   2.602604e-02
  9.759165e-01    1.899914e+00   2.594731e-02
  9.781269e-01    1.883548e+00   2.580152e-02
  9.803374e-01    1.879856e+00   2.574057e-02
  9.825478e-01    1.890247e+00   2.577757e-02
  9.847583e-01    1.857792e+00   2.552062e-02
  9.869688e-01    1.814497e+00   2.518772e-02
  9.891792e-01    1.805070e+00   2.508882e-02
  9.913897e-01    1.762239e+00   2.475594e-02
  9.936001e-01    1.713191e+00   2.437703e-02
  9.958106e-01    1.711078e+00   2.432887e-02
  9.980210e-01    1.687830e+00   2.413167e-02
  1.000231e+00    1.661951e+00   2.407714e-02
  1.002442e+00    1.630596e+00   2.397565e-02
  1.004652e+00    1.627612e+00   2.402052e-02
  1.006863e+00    1.628093e+00   2.407392e-02
  1.009073e+00    1.613676e+00   2.400379e-02
  1.011284e+00    1.568667e+00   2.369830e-02
  1.013494e+00    1.580227e+00   2.380904e-02
  1.015705e+00    1.559452e+00   2.367437e-02
  1.017915e+00    1.561811e+00   2.370859e-02
  1.020126e+00    1.567444e+00   2.376736e-02
  1.022336e+00    1.593886e+00   2.397880e-02
  1.024547e+00    1.628583e+00   2.424988e-02
  1.026757e+00    1.662782e+00   2.451186e-02
  1.028967e+00    1.651661e+00   2.443771e-02
  1.031178e+00    1.601171e+00   2.406758e-02
  1.033388e+00    1.587476e+00   2.396957e-02
  1.035599e+00    1.584983e+00   2.395423e-02
  1.037809e+00    1.640715e+00   2.437509e-02
  1.040020e+00    1.720021e+00   2.495861e-02
  1.042230e+00    1.703858e+00   2.484314e-02
  1.044441e+00    1.632667e+00   2.431838e-02
  1.046651e+00    1.648967e+00   2.443960e-02
  1.048862e+00    1.679428e+00   2.466350e-02
  1.051072e+00    1.666952e+00   2.456923e-02
  1.053282e+00    1.649807e+00   2.444156e-02
  1.055493e+00    1.620695e+00   2.422048e-02
  1.057703e+00    1.613846e+00   2.416765e-02
  1.059914e+00    1.633250e+00   2.430805e-02
  1.062124e+00    1.652513e+00   2.444670e-02
  1.064335e+00    1.744149e+00   2.511163e-02
  1.066545e+00    1.813121e+00   2.559674e-02
  1.068756e+00    1.702393e+00   2.479885e-02
  1.070966e+00    1.596062e+00   2.400509e-02
  1.073177e+00    1.564183e+00   2.375790e-02
  1.075387e+00    1.490001e+00   2.318243e-02
  1.077597e+00    1.455741e+00   2.290713e-02
  1.079808e+00    1.419073e+00   2.248611e-02
  1.082018e+00    1.428992e+00   2.237769e-02
  1.084229e+00    1.426415e+00   2.224874e-02
  1.086439e+00    1.449641e+00   2.234188e-02
  1.088650e+00    1.437396e+00   2.217210e-02
  1.090860e+00    1.433862e+00   2.207767e-02
  1.093071e+00    1.424137e+00   2.194107e-02
  1.095281e+00    1.423647e+00   2.188047e-02
  1.097492e+00    1.457016e+00   2.208028e-02
  1.099702e+00    1.432186e+00   2.184010e-02
  1.101912e+00    1.457580e+00   2.198370e-02
  1.104123e+00    1.459998e+00   2.195331e-02
  1.106333e+00    1.411355e+00   2.154044e-02
  1.108544e+00    1.386592e+00   2.130701e-02
  1.110754e+00    1.414839e+00   2.148012e-02
  1.112965e+00    1.380280e+00   2.117623e-02
  1.115175e+00    1.396384e+00   2.125856e-02
  1.117386e+00    1.399504e+00   2.124325e-02
  1.119596e+00    1.396555e+00   2.118320e-02
  1.121807e+00    1.375741e+00   2.098640e-02
  1.124017e+00    1.401349e+00   2.114425e-02
  1.126228e+00    1.405182e+00   2.113737e-02
  1.128438e+00    1.374037e+00   2.086543e-02
  1.130648e+00    1.366601e+00   2.077495e-02
  1.132859e+00    1.383292e+00   2.086724e-02
  1.135069e+00    1.400980e+00   2.096540e-02
  1.137280e+00    1.352355e+00   2.056583e-02
  1.139490e+00    1.347923e+00   2.049949e-02
  1.141701e+00    1.365882e+00   2.060270e-02
  1.143911e+00    1.400963e+00   2.083354e-02
  1.146122e+00    1.390943e+00   2.072678e-02
  1.148332e+00    1.402931e+00   2.078376e-02
  1.150543e+00    1.391077e+00   2.066480e-02
  1.152753e+00    1.363081e+00   2.042508e-02
  1.154963e+00    1.366029e+00   2.041620e-02
  1.157174e+00    1.382205e+00   2.050647e-02
  1.159384e+00    1.358369e+00   2.029919e-02
  1.161595e+00    1.399805e+00   2.057628e-02
  1.163805e+00    1.368663e+00   2.031689e-02
  1.166016e+00    1.346251e+00   2.012063e-02
  1.168226e+00    1.372028e+00   2.028332e-02
  1.170437e+00    1.393523e+00   2.041269e-02
  1.172647e+00    1.371753e+00   2.022367e-02
  1.174858e+00    1.366318e+00   2.015544e-02
  1.177068e+00    1.356425e+00   2.005415e-02
  1.179278e+00    1.392748e+00   2.029197e-02
  1.181489e+00    1.382619e+00   2.019083e-02
  1.183699e+00    1.369850e+00   2.006968e-02
  1.185910e+00    1.382161e+00   2.013166e-02
  1.188120e+00    1.363690e+00   1.996993e-02
  1.190331e+00    1.356702e+00   1.989191e-02
  1.192541e+00    1.363215e+00   1.991214e-02
  1.194752e+00    1.359809e+00   1.986013e-02
  1.196962e+00    1.365136e+00   1.987313e-02
  1.199173e+00    1.346251e+00   1.970873e-02
  1.201383e+00    1.321867e+00   1.950254e-02
  1.203593e+00    1.328909e+00   1.952980e-02
  1.205804e+00    1.345322e+00   1.962415e-02
  1.208014e+00    1.342948e+00   1.958006e-02
  1.210225e+00    1.342601e+00   1.955226e-02
  1.212435e+00    1.372884e+00   1.974654e-02
  1.214646e+00    1.350639e+00   1.955982e-02
  1.216856e+00    1.337037e+00   1.943570e-02
  1.219067e+00    1.360667e+00   1.958214e-02
  1.221277e+00    1.359249e+00   1.954683e-02
  1.223488e+00    1.304083e+00   1.912076e-02
  1.225698e+00    1.317415e+00   1.919165e-02
  1.227909e+00    1.342389e+00   1.934263e-02
  1.230119e+00    1.336039e+00   1.926515e-02
  1.232329e+00    1.337901e+00   1.924798e-02
  1.234540e+00    1.320529e+00   1.909265e-02
  1.236750e+00    1.334765e+00   1.916519e-02
  1.238961e+00    1.346238e+00   1.922046e-02
  1.241171e+00    1.339898e+00   1.915105e-02
  1.243382e+00    1.323905e+00   1.901313e-02
  1.245592e+00    1.312175e+00   1.890495e-02
  1.247803e+00    1.323287e+00   1.896141e-02
  1.250013e+00    1.372776e+00   1.928899e-02
  1.252224e+00    1.356802e+00   1.915313e-02
  1.254434e+00    1.349105e+00   1.907499e-02
  1.256644e+00    1.369102e+00   1.919244e-02
  1.258855e+00    1.357894e+00   1.909042e-02
  1.261065e+00    1.341099e+00   1.894867e-02
  1.263276e+00    1.363045e+00   1.908004e-02
  1.265486e+00    1.348189e+00   1.895294e-02
  1.267697e+00    1.341390e+00   1.888211e-02
  1.269907e+00    1.369063e+00   1.905305e-02
  1.272118e+00    1.354568e+00   1.892930e-02
  1.274328e+00    1.360451e+00   1.894754e-02
  1.276539e+00    1.337581e+00   1.876492e-02
  1.278749e+00    1.347105e+00   1.880936e-02
  1.280959e+00    1.349115e+00   1.880084e-02
  1.283170e+00    1.342718e+00   1.873387e-02
  1.285380e+00    1.326243e+00   1.859631e-02
  1.287591e+00    1.349927e+00   1.873959e-02
  1.289801e+00    1.364356e+00   1.881814e-02
  1.292012e+00    1.344693e+00   1.866500e-02
  1.294222e+00    1.339095e+00   1.860993e-02
  1.296433e+00    1.346849e+00   1.864814e-02
  1.298643e+00    1.350292e+00   1.865549e-02
  1.300854e+00    1.360884e+00   1.871205e-02
  1.303064e+00    1.346642e+00   1.859466e-02
  1.305274e+00    1.359847e+00   1.866410e-02
  1.307485e+00    1.367125e+00   1.869229e-02
  1.309695e+00    1.364714e+00   1.865344e-02
  1.311906e+00    1.379903e+00   1.873502e-02
  1.314116e+00    1.357728e+00   1.856303e-02
  1.316327e+00    1.349562e+00   1.848542e-02
  1.318537e+00    1.354065e+00   1.849432e-02
  1.320748e+00    1.364499e+00   1.854377e-02
  1.322958e+00    1.353962e+00   1.845149e-02
  1.325169e+00    1.338778e+00   1.832679e-02
  1.327379e+00    1.367767e+00   1.850220e-02
  1.329589e+00    1.359971e+00   1.842825e-02
  1.331800e+00    1.374564e+00   1.850598e-02
  1.334010e+00    1.364390e+00   1.841659e-02
  1.336221e+00    1.369461e+00   1.842887e-02
  1.338431e+00    1.354483e+00   1.830694e-02
  1.340642e+00    1.343631e+00   1.829744e-02
  1.342852e+00    1.374269e+00   1.860645e-02
  1.345063e+00    1.376050e+00   1.866849e-02
  1.347273e+00    1.337529e+00   1.844039e-02
  1.349484e+00    1.328562e+00   1.840594e-02
  1.351694e+00    1.335158e+00   1.847415e-02
  1.353905e+00    1.316781e+00   1.836436e-02
  1.356115e+00    1.308227e+00   1.831940e-02
  1.358325e+00    1.343246e+00   1.857627e-02
  1.360536e+00    1.330697e+00   1.850084e-02
  1.362746e+00    1.310883e+00   1.837201e-02
  1.364957e+00    1.325235e+00   1.847989e-02
  1.367167e+00    1.349853e+00   1.865791e-02
  1.369378e+00    1.338644e+00   1.858628e-02
  1.371588e+00    1.334454e+00   1.856229e-02
  1.373799e+00    1.337919e+00   1.859004e-02
  1.376009e+00    1.332252e+00   1.855402e-02
  1.378220e+00    1.303338e+00   1.835408e-02
  1.380430e+00    1.280966e+00   1.819852e-02
  1.382640e+00    1.293647e+00   1.828926e-02
  1.384851e+00    1.290289e+00   1.826640e-02
  1.387061e+00    1.294307e+00   1.829509e-02
  1.389272e+00    1.287926e+00   1.825017e-02
  1.391482e+00    1.269730e+00   1.812009e-02
  1.393693e+00    1.294557e+00   1.829551e-02
  1.395903e+00    1.304126e+00   1.836151e-02
  1.398114e+00    1.283196e+00   1.821219e-02
  1.400324e+00    1.279403e+00   1.818312e-02
  1.402535e+00    1.285415e+00   1.822347e-02
  1.404745e+00    1.279173e+00   1.817681e-02
  1.406955e+00    1.277327e+00   1.816099e-02
  1.409166e+00    1.252915e+00   1.798332e-02
  1.411376e+00    1.243197e+00   1.791037e-02
  1.413587e+00    1.256423e+00   1.800158e-02
  1.415797e+00    1.281523e+00   1.817696e-02
  1.418008e+00    1.260216e+00   1.798351e-02
  1.420218e+00    1.264405e+00   1.786396e-02
  1.422429e+00    1.286160e+00   1.793114e-02
  1.424639e+00    1.287899e+00   1.787811e-02
  1.426850e+00    1.279728e+00   1.776642e-02
  1.429060e+00    1.271737e+00   1.766182e-02
  1.431270e+00    1.294430e+00   1.777397e-02
  1.433481e+00    1.281288e+00   1.764239e-02
  1.435691e+00    1.270707e+00   1.753095e-02
  1.437902e+00    1.268210e+00   1.747728e-02
  1.440112e+00    1.286150e+00   1.756489e-02
  1.442323e+00    1.249063e+00   1.727703e-02
  1.444533e+00    1.243258e+00   1.720461e-02
  1.446744e+00    1.267881e+00   1.734304e-02
  1.448954e+00    1.265259e+00   1.729498e-02
  1.451165e+00    1.264704e+00   1.726148e-02
  1.453375e+00    1.276362e+00   1.731274e-02
  1.455586e+00    1.269369e+00   1.723710e-02
  1.457796e+00    1.264453e+00   1.717624e-02
  1.460006e+00    1.265285e+00   1.715467e-02
  1.462217e+00    1.269378e+00   1.715619e-02
  1.464427e+00    1.279444e+00   1.719836e-02
  1.466638e+00    1.256981e+00   1.702153e-02
  1.468848e+00    1.270579e+00   1.708800e-02
  1.471059e+00    1.276513e+00   1.710270e-02
  1.473269e+00    1.267028e+00   1.701468e-02
  1.475480e+00    1.253376e+00   1.689914e-02
  1.477690e+00    1.251547e+00   1.686314e-02
  1.479901e+00    1.262286e+00   1.691153e-02
  1.482111e+00    1.276582e+00   1.698362e-02
  1.484321e+00    1.280427e+00   1.698594e-02
  1.486532e+00    1.307355e+00   1.714093e-02
  1.488742e+00    1.271062e+00   1.687865e-02
  1.490953e+00    1.253612e+00   1.673988e-02
  1.493163e+00    1.267256e+00   1.680840e-02
  1.495374e+00    1.256738e+00   1.671708e-02
  1.497584e+00    1.248509e+00   1.664070e-02
  1.499795e+00    1.263554e+00   1.671900e-02
  1.502005e+00    1.260516e+00   1.667720e-02
  1.504216e+00    1.245509e+00   1.655670e-02
  1.506426e+00    1.237400e+00   1.648208e-02
  1.508636e+00    1.247653e+00   1.652985e-02
  1.510847e+00    1.272866e+00   1.667407e-02
  1.513057e+00    1.268502e+00   1.662026e-02
  1.515268e+00    1.271860e+00   1.661635e-02
  1.517478e+00    1.273491e+00   1.660164e-02
  1.519689e+00    1.289325e+00   1.667926e-02
  1.521899e+00    1.236907e+00   1.631373e-02
  1.524110e+00    1.239689e+00   1.631182e-02
  1.526320e+00    1.265082e+00   1.645834e-02
  1.528531e+00    1.248561e+00   1.633081e-02
  1.530741e+00    1.236295e+00   1.623133e-02
  1.532951e+00    1.243839e+00   1.626124e-02
  1.535162e+00    1.258487e+00   1.644362e-02
  1.537372e+00    1.256766e+00   1.649948e-02
  1.539583e+00    1.244025e+00   1.644981e-02
  1.541793e+00    1.249237e+00   1.649118e-02
  1.544004e+00    1.217619e+00   1.628142e-02
  1.546214e+00    1.215699e+00   1.626707e-02
  1.548425e+00    1.235813e+00   1.640135e-02
  1.550635e+00    1.236263e+00   1.641398e-02
  1.552846e+00    1.253860e+00   1.654008e-02
  1.555056e+00    1.246306e+00   1.644868e-02
  1.557266e+00    1.245822e+00   1.633497e-02
  1.559477e+00    1.233563e+00   1.619555e-02
  1.561687e+00    1.225294e+00   1.611073e-02
  1.563898e+00    1.258214e+00   1.630847e-02
  1.566108e+00    1.279919e+00   1.643234e-02
  1.568319e+00    1.267706e+00   1.633802e-02
  1.570529e+00    1.253363e+00   1.622008e-02
  1.572740e+00    1.253236e+00   1.619157e-02
  1.574950e+00    1.238269e+00   1.606833e-02
  1.577161e+00    1.267432e+00   1.623072e-02
  1.579371e+00    1.248680e+00   1.608654e-02
  1.581582e+00    1.241601e+00   1.602110e-02
  1.583792e+00    1.265563e+00   1.615679e-02
  1.586002e+00    1.237813e+00   1.596112e-02
  1.588213e+00    1.227838e+00   1.587953e-02
  1.590423e+00    1.235605e+00   1.590967e-02
  1.592634e+00    1.232644e+00   1.586907e-02
  1.594844e+00    1.249420e+00   1.595525e-02
  1.597055e+00    1.241169e+00   1.588200e-02
  1.599265e+00    1.237582e+00   1.583834e-02
  1.601476e+00    1.215950e+00   1.567921e-02
  1.603686e+00    1.241656e+00   1.582429e-02
  1.605897e+00    1.211267e+00   1.560954e-02
  1.608107e+00    1.204252e+00   1.554495e-02
  1.610317e+00    1.228746e+00   1.568301e-02
  1.612528e+00    1.225750e+00   1.564479e-02
  1.614738e+00    1.216777e+00   1.556857e-02
  1.616949e+00    1.205813e+00   1.547946e-02
  1.619159e+00    1.202225e+00   1.543785e-02
  1.621370e+00    1.198861e+00   1.539793e-02
  1.623580e+00    1.192768e+00   1.534057e-02
  1.625791e+00    1.201488e+00   1.537835e-02
  1.628001e+00    1.176336e+00   1.519848e-02
  1.630212e+00    1.159122e+00   1.506936e-02
  1.632422e+00    1.148279e+00   1.498111e-02
  1.634632e+00    1.152465e+00   1.499129e-02
  1.636843e+00    1.134293e+00   1.485542e-02
  1.639053e+00    1.137440e+00   1.485898e-02
  1.641264e+00    1.153804e+00   1.494851e-02
  1.643474e+00    1.170573e+00   1.503930e-02
  1.645685e+00    1.182384e+00   1.509814e-02
  1.647895e+00    1.173754e+00   1.502623e-02
  1.650106e+00    1.141169e+00   1.479924e-02
  1.652316e+00    1.155620e+00   1.487612e-02
  1.654527e+00    1.137440e+00   1.474201e-02
  1.656737e+00    1.129074e+00   1.467119e-02
  1.658947e+00    1.131458e+00   1.467041e-02
  1.661158e+00    1.126186e+00   1.461989e-02
  1.663368e+00    1.193768e+00   1.503567e-02
  1.665579e+00    1.169042e+00   1.486264e-02
  1.667789e+00    1.127857e+00   1.458218e-02
  1.670000e+00    1.119236e+00   1.451080e-02
  1.672210e+00    1.120770e+00   1.450478e-02
  1.674421e+00    1.104233e+00   1.438205e-02
  1.676631e+00    1.114722e+00   1.443421e-02
  1.678842e+00    1.089910e+00   1.425698e-02
  1.681052e+00    1.078366e+00   1.416600e-02
  1.683263e+00    1.067529e+00   1.407965e-02
  1.685473e+00    1.072111e+00   1.409478e-02
  1.687683e+00    1.084974e+00   1.416363e-02
  1.689894e+00    1.078102e+00   1.410297e-02
  1.692104e+00    1.061298e+00   1.397781e-02
  1.694315e+00    1.045441e+00   1.385868e-02
  1.696525e+00    1.048883e+00   1.386646e-02
  1.698736e+00    1.052003e+00   1.387234e-02
  1.700946e+00    1.062333e+00   1.392513e-02
  1.703157e+00    1.058926e+00   1.388814e-02
  1.705367e+00    1.038815e+00   1.374123e-02
  1.707578e+00    1.046410e+00   1.377679e-02
  1.709788e+00    1.043208e+00   1.374163e-02
  1.711998e+00    1.016741e+00   1.355136e-02
  1.714209e+00    1.011412e+00   1.350155e-02
  1.716419e+00    1.013422e+00   1.350082e-02
  1.718630e+00    1.011329e+00   1.347278e-02
  1.720840e+00    9.895512e-01   1.331298e-02
  1.723051e+00    1.028567e+00   1.355901e-02
  1.725261e+00    1.004757e+00   1.338662e-02
  1.727472e+00    9.973931e-01   1.332342e-02
  1.729682e+00    1.011459e+00   1.340362e-02
  1.731893e+00    9.896597e-01   1.324463e-02
  1.734103e+00    1.013881e+00   1.339190e-02
  1.736313e+00    1.001888e+00   1.329849e-02
  1.738524e+00    9.894044e-01   1.320163e-02
  1.740734e+00    9.872518e-01   1.317365e-02
  1.742945e+00    9.811274e-01   1.311937e-02
  1.745155e+00    9.536969e-01   1.292150e-02
  1.747366e+00    9.514509e-01   1.289272e-02
  1.749576e+00    9.437732e-01   1.282721e-02
  1.751787e+00    9.509302e-01   1.286263e-02
  1.753997e+00    9.766235e-01   1.302189e-02
  1.756208e+00    9.390037e-01   1.275568e-02
  1.758418e+00    9.634944e-01   1.290788e-02
  1.760628e+00    9.386830e-01   1.272747e-02
  1.762839e+00    9.395062e-01   1.272000e-02
  1.765049e+00    9.394065e-01   1.270637e-02
  1.767260e+00    9.400526e-01   1.269805e-02
  1.769470e+00    9.380043e-01   1.267133e-02
  1.771681e+00    9.402481e-01   1.267345e-02
  1.773891e+00    9.216693e-01   1.253474e-02
  1.776102e+00    9.178003e-01   1.249574e-02
  1.778312e+00    9.019579e-01   1.237498e-02
  1.780523e+00    9.197769e-01   1.248404e-02
  1.782733e+00    9.303685e-01   1.254308e-02
  1.784944e+00    9.168710e-01   1.243902e-02
  1.787154e+00    9.262075e-01   1.248968e-02
  1.789364e+00    9.523923e-01   1.265238e-02
  1.791575e+00    9.477484e-01   1.260882e-02
  1.793785e+00    9.452841e-01   1.257987e-02
  1.795996e+00    9.298359e-01   1.246409e-02
  1.798206e+00    9.368584e-01   1.249840e-02
  1.800417e+00    9.967899e-01   1.287872e-02
  1.802627e+00    1.080178e+00   1.339363e-02
  1.804838e+00    1.118888e+00   1.361812e-02
  1.807048e+00    1.060356e+00   1.324333e-02
  1.809259e+00    9.531942e-01   1.254233e-02
  1.811469e+00    9.635997e-01   1.259514e-02
  1.813679e+00    9.584606e-01   1.254608e-02
  1.815890e+00    9.499743e-01   1.247525e-02
  1.818100e+00    9.031427e-01   1.214872e-02
  1.820311e+00    8.905256e-01   1.204879e-02
  1.822521e+00    9.132057e-01   1.218621e-02
  1.824732e+00    9.102943e-01   1.215183e-02
  1.826942e+00    8.676184e-01   1.185135e-02
  1.829153e+00    8.541729e-01   1.174766e-02
  1.831363e+00    8.750764e-01   1.187856e-02
  1.833574e+00    8.817244e-01   1.191192e-02
  1.835784e+00    8.823866e-01   1.190495e-02
  1.837994e+00    8.875514e-01   1.192796e-02
  1.840205e+00    8.755522e-01   1.183589e-02
  1.842415e+00    8.740442e-01   1.181390e-02
  1.844626e+00    8.634946e-01   1.173089e-02
  1.846836e+00    8.576948e-01   1.168006e-02
  1.849047e+00    8.769506e-01   1.179874e-02
  1.851257e+00    8.822773e-01   1.182488e-02
  1.853468e+00    8.820834e-01   1.181465e-02
  1.855678e+00    8.998293e-01   1.192384e-02
  1.857889e+00    8.682114e-01   1.170394e-02
  1.860099e+00    8.662252e-01   1.168184e-02
  1.862309e+00    8.772948e-01   1.174765e-02
  1.864520e+00    8.607650e-01   1.162786e-02
  1.866730e+00    8.540374e-01   1.157293e-02
  1.868941e+00    8.659610e-01   1.164242e-02
  1.871151e+00    8.720976e-01   1.167206e-02
  1.873362e+00    9.171031e-01   1.195765e-02
  1.875572e+00    9.284441e-01   1.201996e-02
  1.877783e+00    8.676277e-01   1.160807e-02
  1.879993e+00    8.473746e-01   1.146060e-02
  1.882204e+00    8.525709e-01   1.148475e-02
  1.884414e+00    8.332572e-01   1.134291e-02
  1.886624e+00    8.277008e-01   1.129406e-02
  1.888835e+00    8.506193e-01   1.143832e-02
  1.891045e+00    8.262210e-01   1.126229e-02
  1.893256e+00    8.652524e-01   1.151396e-02
  1.895466e+00    8.711668e-01   1.154188e-02
  1.897677e+00    8.462160e-01   1.136440e-02
  1.899887e+00    8.351034e-01   1.127855e-02
  1.902098e+00    8.136651e-01   1.112211e-02
  1.904308e+00    8.192308e-01   1.114957e-02
  1.906519e+00    8.163873e-01   1.111946e-02
  1.908729e+00    8.244665e-01   1.116376e-02
  1.910940e+00    8.059525e-01   1.102673e-02
  1.913150e+00    8.057269e-01   1.101473e-02
  1.915360e+00    8.161425e-01   1.107511e-02
  1.917571e+00    8.088178e-01   1.101454e-02
  1.919781e+00    7.998389e-01   1.094268e-02
  1.921992e+00    8.165079e-01   1.104552e-02
  1.924202e+00    8.147075e-01   1.102259e-02
  1.926413e+00    7.984541e-01   1.090190e-02
  1.928623e+00    8.133805e-01   1.099280e-02
  1.930834e+00    7.904772e-01   1.082663e-02
  1.933044e+00    7.945991e-01   1.084427e-02
  1.935255e+00    7.925780e-01   1.082025e-02
  1.937465e+00    8.049448e-01   1.089397e-02
  1.939675e+00    7.996052e-01   1.084698e-02
  1.941886e+00    7.982651e-01   1.082764e-02
  1.944096e+00    7.945899e-01   1.079257e-02
  1.946307e+00    8.042313e-01   1.084748e-02
  1.948517e+00    7.928476e-01   1.076005e-02
  1.950728e+00    7.858919e-01   1.070258e-02
  1.952938e+00    7.988321e-01   1.078023e-02
  1.955149e+00    7.866576e-01   1.068761e-02
  1.957359e+00    7.846012e-01   1.066365e-02
  1.959570e+00    7.878042e-01   1.067457e-02
  1.961780e+00    7.930105e-01   1.069988e-02
  1.963990e+00    7.775074e-01   1.058475e-02
  1.966201e+00    7.769583e-01   1.057103e-02
  1.968411e+00    7.842109e-01   1.061014e-02
  1.970622e+00    7.833195e-01   1.059403e-02
  1.972832e+00    7.899260e-01   1.062864e-02
  1.975043e+00    7.812817e-01   1.056031e-02
  1.977253e+00    7.597578e-01   1.040405e-02
  1.979464e+00    7.817912e-01   1.054378e-02
  1.981674e+00    7.704677e-01   1.045699e-02
  1.983885e+00    7.632708e-01   1.039812e-02
  1.986095e+00    7.610888e-01   1.037367e-02
  1.988305e+00    7.764612e-01   1.046802e-02
  1.990516e+00    7.807692e-01   1.048712e-02
  1.992726e+00    7.724384e-01   1.042135e-02
  1.994937e+00    7.727471e-01   1.041336e-02
  1.997147e+00    7.778583e-01   1.043798e-02
  1.999358e+00    7.695461e-01   1.037225e-02
  2.001568e+00    7.739271e-01   1.039091e-02
  2.003779e+00    7.624567e-01   1.030179e-02
  2.005989e+00    7.692751e-01   1.033576e-02
  2.008200e+00    7.723624e-01   1.034490e-02
  2.010410e+00    7.829989e-01   1.040407e-02
  2.012621e+00    7.703478e-01   1.030794e-02
  2.014831e+00    7.812142e-01   1.036882e-02
  2.017041e+00    7.728192e-01   1.030254e-02
  2.019252e+00    7.668011e-01   1.025237e-02
  2.021462e+00    7.724286e-01   1.028038e-02
  2.023673e+00    7.451284e-01   1.008780e-02
  2.025883e+00    7.638164e-01   1.020398e-02
  2.028094e+00    7.807003e-01   1.030640e-02
  2.030304e+00    7.874187e-01   1.034095e-02
  2.032515e+00    7.633853e-01   1.017262e-02
  2.034725e+00    7.415878e-01   1.001698e-02
  2.036936e+00    7.624709e-01   1.014768e-02
  2.039146e+00    7.534339e-01   1.007782e-02
  2.041356e+00    7.568208e-01   1.009080e-02
  2.043567e+00    7.509140e-01   1.004207e-02
  2.045777e+00    7.498711e-01   1.002588e-02
  2.047988e+00    7.588858e-01   1.007656e-02
  2.050198e+00    7.609232e-01   1.008162e-02
  2.052409e+00    7.575988e-01   1.005189e-02
  2.054619e+00    7.591313e-01   1.005464e-02
  2.056830e+00    7.512673e-01   9.995249e-03
  2.059040e+00    7.358616e-01   9.884804e-03
  2.061251e+00    7.645379e-01   1.006822e-02
  2.063461e+00    7.596098e-01   1.002810e-02
  2.065671e+00    7.443868e-01   9.918397e-03
  2.067882e+00    7.546031e-01   9.977202e-03
  2.070092e+00    7.548265e-01   9.969427e-03
  2.072303e+00    7.518874e-01   9.940834e-03
  2.074513e+00    7.583479e-01   9.974037e-03
  2.076724e+00    7.626351e-01   9.992633e-03
  2.078934e+00    7.427962e-01   9.852787e-03
  2.081145e+00    7.539371e-01   9.917263e-03
  2.083355e+00    7.391951e-01   9.810666e-03
  2.085566e+00    7.453945e-01   9.842781e-03
  2.087776e+00    7.485012e-01   9.853709e-03
  2.089986e+00    7.478160e-01   9.840354e-03
  2.092197e+00    7.682659e-01   9.964848e-03
  2.094407e+00    7.591422e-01   9.896142e-03
  2.096618e+00    7.616471e-01   9.903400e-03
  2.098828e+00    7.333865e-01   9.708641e-03
  2.101039e+00    7.257317e-01   9.648882e-03
  2.103249e+00    7.393929e-01   9.730564e-03
  2.105460e+00    7.235382e-01   9.616702e-03
  2.107670e+00    7.332553e-01   9.672302e-03
  2.109881e+00    7.099312e-01   9.508169e-03
  2.112091e+00    7.203938e-01   9.569015e-03
  2.114301e+00    7.099321e-01   9.490608e-03
  2.116512e+00    6.909124e-01   9.354005e-03
  2.118722e+00    7.013092e-01   9.415411e-03
  2.120933e+00    7.095441e-01   9.461749e-03
  2.123143e+00    7.110758e-01   9.463093e-03
  2.125354e+00    6.870944e-01   9.293815e-03
  2.127564e+00    6.840979e-01   9.264983e-03
  2.129775e+00    6.925607e-01   9.313529e-03
  2.131985e+00    6.972300e-01   9.335921e-03
  2.134196e+00    7.024365e-01   9.362198e-03
  2.136406e+00    7.098989e-01   9.403063e-03
  2.138617e+00    7.172174e-01   9.442917e-03
  2.140827e+00    7.103410e-01   9.413619e-03
  2.143037e+00    7.004322e-01   9.392985e-03
  2.145248e+00    7.037417e-01   9.437129e-03
  2.147458e+00    6.880943e-01   9.346582e-03
  2.149669e+00    6.936122e-01   9.395743e-03
  2.151879e+00    7.117473e-01   9.527078e-03
  2.154090e+00    7.094252e-01   9.518883e-03
  2.156300e+00    6.913068e-01   9.403116e-03
  2.158511e+00    6.860254e-01   9.372350e-03
  2.160721e+00    7.067246e-01   9.517564e-03
  2.162932e+00    6.809464e-01   9.346063e-03
  2.165142e+00    6.878458e-01   9.396281e-03
  2.167352e+00    7.022228e-01   9.496896e-03
  2.169563e+00    6.974026e-01   9.466215e-03
  2.171773e+00    6.936746e-01   9.443324e-03
  2.173984e+00    6.917415e-01   9.431558e-03
  2.176194e+00    7.019601e-01   9.502186e-03
  2.178405e+00    6.999251e-01   9.489087e-03
  2.180615e+00    7.108853e-01   9.563796e-03
  2.182826e+00    6.882738e-01   9.411152e-03
  2.185036e+00    6.880097e-01   9.409389e-03
  2.187247e+00    6.937603e-01   9.448582e-03
  2.189457e+00    6.806842e-01   9.358704e-03
  2.191667e+00    6.983862e-01   9.479436e-03
  2.193878e+00    6.871206e-01   9.402114e-03
  2.196088e+00    6.920094e-01   9.434804e-03
  2.198299e+00    6.874171e-01   9.402365e-03
  2.200509e+00    6.730879e-01   9.302806e-03
  2.202720e+00    6.586332e-01   9.201243e-03
  2.204930e+00    6.613181e-01   9.218737e-03
  2.207141e+00    6.883268e-01   9.403978e-03
  2.209351e+00    7.029791e-01   9.501646e-03
  2.211562e+00    6.810413e-01   9.350599e-03
  2.213772e+00    6.799438e-01   9.287435e-03
  2.215982e+00    6.834809e-01   9.267112e-03
  2.218193e+00    6.703253e-01   9.147979e-03
  2.220403e+00    6.773966e-01   9.171462e-03
  2.222614e+00    6.787711e-01   9.159734e-03
  2.224824e+00    6.765416e-01   9.125261e-03
  2.227035e+00    6.774099e-01   9.113607e-03
  2.229245e+00    6.715035e-01   9.056829e-03
  2.231456e+00    6.698911e-01   9.030355e-03
  2.233666e+00    6.613123e-01   8.957347e-03
  2.235877e+00    6.704848e-01   9.004988e-03
  2.238087e+00    6.732213e-01   9.009838e-03
  2.240298e+00    6.741515e-01   9.002239e-03
  2.242508e+00    6.678700e-01   8.945100e-03
  2.244718e+00    6.568068e-01   8.855005e-03
  2.246929e+00    6.847062e-01   9.026544e-03
  2.249139e+00    6.660082e-01   8.890068e-03
  2.251350e+00    6.681253e-01   8.892465e-03
  2.253560e+00    6.550765e-01   8.793747e-03
  2.255771e+00    6.609029e-01   8.821389e-03
  2.257981e+00    6.666154e-01   8.848230e-03
  2.260192e+00    6.792104e-01   8.920220e-03
  2.262402e+00    6.610593e-01   8.789372e-03
  2.264613e+00    6.781513e-01   8.891340e-03
  2.266823e+00    6.527236e-01   8.712741e-03
  2.269033e+00    6.659393e-01   8.790073e-03
  2.271244e+00    6.872992e-01   8.919349e-03
  2.273454e+00    6.959693e-01   8.964937e-03
  2.275665e+00    6.780804e-01   8.838527e-03
  2.277875e+00    6.805416e-01   8.844488e-03
  2.280086e+00    6.694685e-01   8.762122e-03
  2.282296e+00    6.638132e-01   8.715600e-03
  2.284507e+00    6.670045e-01   8.726326e-03
  2.286717e+00    6.686576e-01   8.727589e-03
  2.288928e+00    6.671764e-01   8.707977e-03
  2.291138e+00    6.581956e-01   8.639751e-03
  2.293348e+00    6.519103e-01   8.588864e-03
  2.295559e+00    6.636776e-01   8.656672e-03
  2.297769e+00    6.530936e-01   8.578140e-03
  2.299980e+00    6.378630e-01   8.468299e-03
  2.302190e+00    6.476890e-01   8.524172e-03
  2.304401e+00    6.636767e-01   8.619340e-03
  2.306611e+00    6.585651e-01   8.576862e-03
  2.308822e+00    6.530460e-01   8.532429e-03
  2.311032e+00    6.252111e-01   8.342308e-03
  2.313243e+00    6.295907e-01   8.365267e-03
  2.315453e+00    6.487807e-01   8.484244e-03
  2.317663e+00    6.237620e-01   8.310107e-03
  2.319874e+00    6.178510e-01   8.262076e-03
  2.322084e+00    6.353722e-01   8.369523e-03
  2.324295e+00    6.468389e-01   8.436465e-03
  2.326505e+00    6.494585e-01   8.444466e-03
  2.328716e+00    6.466523e-01   8.417618e-03
  2.330926e+00    6.427088e-01   8.383130e-03
  2.333137e+00    6.213121e-01   8.234167e-03
  2.335347e+00    6.381782e-01   8.336311e-03
  2.337558e+00    6.505367e-01   8.408356e-03
  2.339768e+00    6.501174e-01   8.397013e-03
  2.341979e+00    6.485785e-01   8.378632e-03
  2.344189e+00    6.345804e-01   8.279360e-03
  2.346399e+00    6.379029e-01   8.292482e-03
  2.348610e+00    6.361201e-01   8.272440e-03
  2.350820e+00    6.439407e-01   8.314882e-03
  2.353031e+00    6.354183e-01   8.251394e-03
  2.355241e+00    6.397071e-01   8.271097e-03
  2.357452e+00    6.411467e-01   8.271920e-03
  2.359662e+00    6.373537e-01   8.239154e-03
  2.361873e+00    6.194987e-01   8.114774e-03
  2.364083e+00    6.343170e-01   8.203215e-03
  2.366294e+00    6.211320e-01   8.109454e-03
  2.368504e+00    6.250890e-01   8.127194e-03
  2.370714e+00    6.002179e-01   7.955963e-03
  2.372925e+00    6.153070e-01   8.047357e-03
  2.375135e+00    6.065683e-01   7.982063e-03
  2.377346e+00    6.206315e-01   8.066140e-03
  2.379556e+00    6.224356e-01   8.069960e-03
  2.381767e+00    6.181307e-01   8.034170e-03
  2.383977e+00    6.160077e-01   8.012456e-03
  2.386188e+00    6.118003e-01   7.977182e-03
  2.388398e+00    6.205859e-01   8.026277e-03
  2.390609e+00    6.086840e-01   7.941281e-03
  2.392819e+00    6.031528e-01   7.897415e-03
  2.395029e+00    6.165136e-01   7.976731e-03
  2.397240e+00    6.004933e-01   7.864653e-03
  2.399450e+00    5.988799e-01   7.846352e-03
  2.401661e+00    6.105251e-01   7.914590e-03
  2.403871e+00    6.199861e-01   7.967878e-03
  2.406082e+00    6.174654e-01   7.944191e-03
  2.408292e+00    6.061921e-01   7.863565e-03
  2.410503e+00    5.989920e-01   7.809289e-03
  2.412713e+00    5.994893e-01   7.804782e-03
  2.414924e+00    6.026171e-01   7.817645e-03
  2.417134e+00    5.991442e-01   7.787500e-03
  2.419344e+00    6.091279e-01   7.844660e-03
  2.421555e+00    5.927747e-01   7.731191e-03
  2.423765e+00    6.027339e-01   7.788452e-03
  2.425976e+00    5.895911e-01   7.695336e-03
  2.428186e+00    5.851663e-01   7.659260e-03
  2.430397e+00    5.961172e-01   7.723110e-03
  2.432607e+00    6.030281e-01   7.760440e-03
  2.434818e+00    5.999804e-01   7.733242e-03
  2.437028e+00    5.877960e-01   7.647196e-03
  2.439239e+00    5.936053e-01   7.677236e-03
  2.441449e+00    5.818428e-01   7.593673e-03
  2.443659e+00    5.813299e-01   7.583013e-03
  2.445870e+00    5.803293e-01   7.588653e-03
  2.448080e+00    5.595083e-01   7.485373e-03
  2.450291e+00    5.798641e-01   7.636948e-03
  2.452501e+00    5.808733e-01   7.654807e-03
  2.454712e+00    5.764646e-01   7.634167e-03
  2.456922e+00    5.667962e-01   7.576480e-03
  2.459133e+00    5.533203e-01   7.491208e-03
  2.461343e+00    5.666698e-01   7.585405e-03
  2.463554e+00    5.611300e-01   7.551685e-03
  2.465764e+00    5.651975e-01   7.582159e-03
  2.467975e+00    5.569817e-01   7.529127e-03
  2.470185e+00    5.498129e-01   7.482749e-03
  2.472395e+00    5.480691e-01   7.472093e-03
  2.474606e+00    5.509461e-01   7.493216e-03
  2.476816e+00    5.582426e-01   7.543447e-03
  2.479027e+00    5.473986e-01   7.470629e-03
  2.481237e+00    5.576336e-01   7.540459e-03
  2.483448e+00    5.449688e-01   7.454630e-03
  2.485658e+00    5.516542e-01   7.500067e-03
  2.487869e+00    5.420178e-01   7.434319e-03
  2.490079e+00    5.327375e-01   7.369881e-03
  2.492290e+00    5.323752e-01   7.366939e-03
  2.494500e+00    5.297403e-01   7.347967e-03
  2.496710e+00    5.357952e-01   7.389133e-03
  2.498921e+00    5.467187e-01   7.463083e-03
  2.501131e+00    5.420756e-01   7.430372e-03
  2.503342e+00    5.241545e-01   7.305252e-03
  2.505552e+00    5.517279e-01   7.493788e-03
  2.507763e+00    5.345460e-01   7.374767e-03
  2.509973e+00    5.406712e-01   7.415478e-03
  2.512184e+00    5.308810e-01   7.346420e-03
  2.514394e+00    5.280474e-01   7.317417e-03
  2.516605e+00    5.231256e-01   7.236328e-03
  2.518815e+00    5.170006e-01   7.165744e-03
  2.521025e+00    5.376296e-01   7.286102e-03
  2.523236e+00    5.272009e-01   7.197103e-03
  2.525446e+00    5.248040e-01   7.165106e-03
  2.527657e+00    5.187913e-01   7.109439e-03
  2.529867e+00    5.349771e-01   7.205165e-03
  2.532078e+00    5.486719e-01   7.281450e-03
  2.534288e+00    5.254083e-01   7.111515e-03
  2.536499e+00    5.228601e-01   7.082321e-03
  2.538709e+00    5.310104e-01   7.126237e-03
  2.540920e+00    5.274402e-01   7.091577e-03
  2.543130e+00    5.352349e-01   7.133307e-03
  2.545340e+00    5.182782e-01   7.009399e-03
  2.547551e+00    5.242687e-01   7.039820e-03
  2.549761e+00    5.149962e-01   6.967787e-03
  2.551972e+00    5.110482e-01   6.931762e-03
  2.554182e+00    5.281483e-01   7.037545e-03
  2.556393e+00    5.215634e-01   6.984436e-03
  2.558603e+00    5.272540e-01   7.013302e-03
  2.560814e+00    5.243304e-01   6.985098e-03
  2.563024e+00    5.205861e-01   6.951508e-03
  2.565235e+00    5.222594e-01   6.953152e-03
  2.567445e+00    5.070302e-01   6.841581e-03
  2.569656e+00    5.033403e-01   6.807016e-03
  2.571866e+00    5.164205e-01   6.885562e-03
  2.574076e+00    5.108694e-01   6.839235e-03
  2.576287e+00    5.113012e-01   6.833849e-03
  2.578497e+00    5.276739e-01   6.934446e-03
  2.580708e+00    5.262800e-01   6.917139e-03
  2.582918e+00    5.087877e-01   6.793488e-03
  2.585129e+00    5.046403e-01   6.758078e-03
  2.587339e+00    5.052970e-01   6.754840e-03
  2.589550e+00    4.950621e-01   6.678669e-03
  2.591760e+00    5.046322e-01   6.735227e-03
  2.593971e+00    5.117980e-01   6.775358e-03
  2.596181e+00    5.026593e-01   6.708422e-03
  2.598391e+00    5.065365e-01   6.729078e-03
  2.600602e+00    5.043650e-01   6.708763e-03
  2.602812e+00    5.027887e-01   6.690779e-03
  2.605023e+00    4.981511e-01   6.652747e-03
  2.607233e+00    5.100275e-01   6.724437e-03
  2.609444e+00    5.177009e-01   6.767528e-03
  2.611654e+00    5.154836e-01   6.745644e-03
  2.613865e+00    5.081282e-01   6.690297e-03
  2.616075e+00    4.984507e-01   6.619193e-03
  2.618286e+00    5.073283e-01   6.670871e-03
  2.620496e+00    4.983647e-01   6.605021e-03
  2.622706e+00    5.022031e-01   6.624686e-03
  2.624917e+00    4.911103e-01   6.545347e-03
  2.627127e+00    4.939578e-01   6.558595e-03
  2.629338e+00    5.040224e-01   6.619106e-03
  2.631548e+00    4.994518e-01   6.582881e-03
  2.633759e+00    5.059304e-01   6.618261e-03
  2.635969e+00    4.965356e-01   6.549878e-03
  2.638180e+00    5.037207e-01   6.590092e-03
  2.640390e+00    5.124696e-01   6.640397e-03
  2.642601e+00    5.014814e-01   6.562163e-03
  2.644811e+00    5.046043e-01   6.575451e-03
  2.647021e+00    5.044447e-01   6.567822e-03
  2.649232e+00    4.909526e-01   6.472735e-03
  2.651442e+00    4.951909e-01   6.494117e-03
  2.653653e+00    5.087969e-01   6.575897e-03
  2.655863e+00    5.054310e-01   6.547367e-03
  2.658074e+00    4.885236e-01   6.430378e-03
  2.660284e+00    5.020784e-01   6.512599e-03
  2.662495e+00    4.836077e-01   6.385019e-03
  2.664705e+00    4.867693e-01   6.399342e-03
  2.666916e+00    5.014638e-01   6.488737e-03
  2.669126e+00    4.927714e-01   6.425816e-03
  2.671337e+00    4.840884e-01   6.362433e-03
  2.673547e+00    4.934650e-01   6.417396e-03
  2.675757e+00    4.966029e-01   6.431303e-03
  2.677968e+00    4.968604e-01   6.426426e-03
  2.680178e+00    4.933000e-01   6.396972e-03
  2.682389e+00    4.920047e-01   6.382178e-03
  2.684599e+00    4.775502e-01   6.281634e-03
  2.686810e+00    4.889760e-01   6.349751e-03
  2.689020e+00    4.888363e-01   6.342578e-03
  2.691231e+00    4.959716e-01   6.382374e-03
  2.693441e+00    4.870728e-01   6.318741e-03
  2.695652e+00    4.852019e-01   6.300104e-03
  2.697862e+00    4.833812e-01   6.281971e-03
  2.700072e+00    4.991935e-01   6.377751e-03
  2.702283e+00    4.920692e-01   6.325848e-03
  2.704493e+00    4.951956e-01   6.339585e-03
  2.706704e+00    4.942187e-01   6.326886e-03
  2.708914e+00    4.901233e-01   6.294641e-03
  2.711125e+00    4.780248e-01   6.210272e-03
  2.713335e+00    4.965088e-01   6.323062e-03
  2.715546e+00    4.802404e-01   6.212195e-03
  2.717756e+00    4.876781e-01   6.254213e-03
  2.719967e+00    4.955561e-01   6.298258e-03
  2.722177e+00    4.830994e-01   6.212495e-03
  2.724387e+00    4.897674e-01   6.249080e-03
  2.726598e+00    4.852810e-01   6.214338e-03
  2.728808e+00    4.802682e-01   6.176046e-03
  2.731019e+00    4.816839e-01   6.179027e-03
  2.733229e+00    4.864059e-01   6.203420e-03
  2.735440e+00    4.759490e-01   6.130186e-03
  2.737650e+00    4.730544e-01   6.105536e-03
  2.739861e+00    4.745692e-01   6.109300e-03
  2.742071e+00    4.937329e-01   6.225612e-03
  2.744282e+00    4.850940e-01   6.164663e-03
  2.746492e+00    4.997017e-01   6.250634e-03
  2.748702e+00    4.976749e-01   6.231964e-03
  2.750913e+00    4.793012e-01   6.110068e-03
  2.753123e+00    4.707750e-01   6.049411e-03
  2.755334e+00    4.804707e-01   6.105325e-03
  2.757544e+00    4.799431e-01   6.096222e-03
  2.759755e+00    4.758331e-01   6.064236e-03
  2.761965e+00    4.696158e-01   6.018548e-03
  2.764176e+00    4.844173e-01   6.106654e-03
  2.766386e+00    4.797430e-01   6.071327e-03
  2.768597e+00    4.714096e-01   6.012563e-03
  2.770807e+00    4.763888e-01   6.038349e-03
  2.773017e+00    4.830254e-01   6.074295e-03
  2.775228e+00    4.728959e-01   6.004496e-03
  2.777438e+00    4.797130e-01   6.041823e-03
  2.779649e+00    4.864744e-01   6.078298e-03
  2.781859e+00    4.890250e-01   6.088388e-03
  2.784070e+00    4.728162e-01   5.980807e-03
  2.786280e+00    4.634326e-01   5.915480e-03
  2.788491e+00    4.719525e-01   5.963783e-03
  2.790701e+00    4.743105e-01   5.973044e-03
  2.792912e+00    4.753230e-01   5.973455e-03
  2.795122e+00    4.727593e-01   5.951612e-03
  2.797333e+00    4.772561e-01   5.974273e-03
  2.799543e+00    4.601427e-01   5.860444e-03
  2.801753e+00    4.581996e-01   5.842275e-03
  2.803964e+00    4.664668e-01   5.889145e-03
  2.806174e+00    4.658029e-01   5.878867e-03
  2.808385e+00    4.745274e-01   5.926884e-03
  2.810595e+00    4.651958e-01   5.861508e-03
  2.812806e+00    4.778938e-01   5.934330e-03
  2.815016e+00    4.596118e-01   5.815072e-03
  2.817227e+00    4.595439e-01   5.840132e-03
  2.819437e+00    4.765498e-01   5.958338e-03
  2.821648e+00    4.734992e-01   5.941533e-03
  2.823858e+00    4.770299e-01   5.969003e-03
  2.826068e+00    4.647490e-01   5.896608e-03
  2.828279e+00    4.674403e-01   5.917660e-03
  2.830489e+00    4.719630e-01   5.949559e-03
  2.832700e+00    4.755346e-01   5.974595e-03
  2.834910e+00    4.789594e-01   5.998156e-03
  2.837121e+00    4.830693e-01   6.025559e-03
  2.839331e+00    4.722216e-01   5.958769e-03
  2.841542e+00    4.685039e-01   5.936271e-03
  2.843752e+00    4.785444e-01   6.000319e-03
  2.845963e+00    4.794240e-01   6.006257e-03
  2.848173e+00    4.617778e-01   5.894765e-03
  2.850383e+00    4.645444e-01   5.912686e-03
  2.852594e+00    4.648127e-01   5.914315e-03
  2.854804e+00    4.656820e-01   5.919341e-03
  2.857015e+00    4.610240e-01   5.889232e-03
  2.859225e+00    4.593204e-01   5.878089e-03
  2.861436e+00    4.501135e-01   5.818239e-03
  2.863646e+00    4.543110e-01   5.845339e-03
  2.865857e+00    4.577694e-01   5.867870e-03
  2.868067e+00    4.763333e-01   5.985907e-03
  2.870278e+00    4.648067e-01   5.912689e-03
  2.872488e+00    4.595304e-01   5.877873e-03
  2.874698e+00    4.615219e-01   5.889553e-03
  2.876909e+00    4.595315e-01   5.875529e-03
  2.879119e+00    4.586466e-01   5.868237e-03
  2.881330e+00    4.486329e-01   5.802377e-03
  2.883540e+00    4.669488e-01   5.918255e-03
  2.885751e+00    4.639146e-01   5.897323e-03
  2.887961e+00    4.584848e-01   5.860853e-03
  2.890172e+00    4.459804e-01   5.778791e-03
  2.892382e+00    4.619671e-01   5.879657e-03
  2.894593e+00    4.590696e-01   5.859360e-03
  2.896803e+00    4.703720e-01   5.929061e-03
  2.899014e+00    4.603402e-01   5.863585e-03
  2.901224e+00    4.619124e-01   5.871587e-03
  2.903434e+00    4.671609e-01   5.902903e-03
  2.905645e+00    4.561965e-01   5.830996e-03
  2.907855e+00    4.620152e-01   5.865955e-03
  2.910066e+00    4.485676e-01   5.777919e-03
  2.912276e+00    4.552097e-01   5.818399e-03
  2.914487e+00    4.610323e-01   5.853050e-03
  2.916697e+00    4.541155e-01   5.806763e-03
  2.918908e+00    4.456994e-01   5.750733e-03
  2.921118e+00    4.504051e-01   5.778319e-03
  2.923329e+00    4.544412e-01   5.801853e-03
  2.925539e+00    4.554118e-01   5.805781e-03
  2.927749e+00    4.550867e-01   5.801386e-03
  2.929960e+00    4.610636e-01   5.836583e-03
  2.932170e+00    4.487933e-01   5.756085e-03
  2.934381e+00    4.522566e-01   5.775817e-03
  2.936591e+00    4.563457e-01   5.799286e-03
  2.938802e+00    4.641463e-01   5.845921e-03
  2.941012e+00    4.553612e-01   5.787996e-03
  2.943223e+00    4.498966e-01   5.750480e-03
  2.945433e+00    4.525335e-01   5.763588e-03
  2.947644e+00    4.645440e-01   5.835388e-03
  2.949854e+00    4.492375e-01   5.734220e-03
  2.952064e+00    4.521900e-01   5.748808e-03
  2.954275e+00    4.675893e-01   5.841404e-03
  2.956485e+00    4.574859e-01   5.773763e-03
  2.958696e+00    4.606043e-01   5.788999e-03
  2.960906e+00    4.548270e-01   5.748408e-03
  2.963117e+00    4.513503e-01   5.721925e-03
  2.965327e+00    4.455940e-01   5.681454e-03
  2.967538e+00    4.483043e-01   5.695811e-03
  2.969748e+00    4.482366e-01   5.692585e-03
  2.971959e+00    4.496755e-01   5.698602e-03
  2.974169e+00    4.505287e-01   5.701411e-03
  2.976379e+00    4.611032e-01   5.765005e-03
  2.978590e+00    4.654543e-01   5.788973e-03
  2.980800e+00    4.620129e-01   5.764698e-03
  2.983011e+00    4.577246e-01   5.735101e-03
  2.985221e+00    4.483020e-01   5.672606e-03
  2.987432e+00    4.448049e-01   5.647359e-03
  2.989642e+00    4.523217e-01   5.692257e-03
  2.991853e+00    4.527152e-01   5.691473e-03
  2.994063e+00    4.411824e-01   5.615622e-03
  2.996274e+00    4.534112e-01   5.689748e-03
  2.998484e+00    4.612843e-01   5.736211e-03
  3.000694e+00    4.557850e-01   5.698445e-03
  3.002905e+00    4.627055e-01   5.738588e-03
  3.005115e+00    4.539526e-01   5.681082e-03
  3.007326e+00    4.517812e-01   5.664302e-03
  3.009536e+00    4.503428e-01   5.652057e-03
  3.011747e+00    4.495686e-01   5.644282e-03
  3.013957e+00    4.471992e-01   5.626230e-03
  3.016168e+00    4.562315e-01   5.679492e-03
  3.018378e+00    4.452697e-01   5.607842e-03
  3.020589e+00    4.421198e-01   5.584776e-03
  3.022799e+00    4.432814e-01   5.588995e-03
  3.025010e+00    4.586593e-01   5.681831e-03
  3.027220e+00    4.586348e-01   5.678569e-03
  3.029430e+00    4.565989e-01   5.662686e-03
  3.031641e+00    4.465259e-01   5.596754e-03
  3.033851e+00    4.498537e-01   5.614064e-03
  3.036062e+00    4.600114e-01   5.674286e-03
  3.038272e+00    4.472322e-01   5.591354e-03
  3.040483e+00    4.560982e-01   5.643254e-03
  3.042693e+00    4.524821e-01   5.617590e-03
  3.044904e+00    4.532749e-01   5.618478e-03
  3.047114e+00    4.479093e-01   5.580318e-03
  3.049325e+00    4.584000e-01   5.640863e-03
  3.051535e+00    4.523160e-01   5.598908e-03
  3.053745e+00    4.498219e-01   5.578709e-03
  3.055956e+00    4.458730e-01   5.549604e-03
  3.058166e+00    4.603842e-01   5.634900e-03
  3.060377e+00    4.344595e-01   5.469253e-03
  3.062587e+00    4.444062e-01   5.526901e-03
  3.064798e+00    4.481567e-01   5.545927e-03
  3.067008e+00    4.477415e-01   5.538651e-03
  3.069219e+00    4.410524e-01   5.492643e-03
  3.071429e+00    4.476979e-01   5.530376e-03
  3.073640e+00    4.435185e-01   5.501178e-03
  3.075850e+00    4.401616e-01   5.476779e-03
  3.078060e+00    4.453201e-01   5.505683e-03
  3.080271e+00    4.450158e-01   5.500343e-03
  3.082481e+00    4.584428e-01   5.579226e-03
  3.084692e+00    4.412733e-01   5.470389e-03
  3.086902e+00    4.519032e-01   5.532649e-03
  3.089113e+00    4.458860e-01   5.492111e-03
  3.091323e+00    4.451738e-01   5.484362e-03
  3.093534e+00    4.378974e-01   5.436041e-03
  3.095744e+00    4.283817e-01   5.373327e-03
  3.097955e+00    4.447729e-01   5.471635e-03
  3.100165e+00    4.501940e-01   5.501522e-03
  3.102375e+00    4.548262e-01   5.526321e-03
  3.104586e+00    4.483035e-01   5.483053e-03
  3.106796e+00    4.429164e-01   5.446500e-03
  3.109007e+00    4.636939e-01   5.569492e-03
  3.111217e+00    4.589647e-01   5.537284e-03
  3.113428e+00    4.586576e-01   5.531976e-03
  3.115638e+00    4.417255e-01   5.425672e-03
  3.117849e+00    4.485298e-01   5.463569e-03
  3.120059e+00    4.500960e-01   5.469617e-03
  3.122270e+00    4.454864e-01   5.438280e-03
  3.124480e+00    4.457625e-01   5.436270e-03
  3.126691e+00    4.456873e-01   5.432247e-03
  3.128901e+00    4.461347e-01   5.431837e-03
  3.131111e+00    4.498725e-01   5.450688e-03
  3.133322e+00    4.473274e-01   5.431796e-03
  3.135532e+00    4.419193e-01   5.395461e-03
  3.137743e+00    4.325356e-01   5.334446e-03
  3.139953e+00    4.343231e-01   5.341788e-03
  3.142164e+00    4.494454e-01   5.446109e-03
  3.144374e+00    4.404167e-01   5.419464e-03
  3.146585e+00    4.518422e-01   5.504040e-03
  3.148795e+00    4.419419e-01   5.454167e-03
  3.151006e+00    4.415745e-01   5.460462e-03
  3.153216e+00    4.363774e-01   5.435309e-03
  3.155426e+00    4.412045e-01   5.471594e-03
  3.157637e+00    4.475944e-01   5.516646e-03
  3.159847e+00    4.441732e-01   5.500425e-03
  3.162058e+00    4.462846e-01   5.517946e-03
  3.164268e+00    4.315366e-01   5.430013e-03
  3.166479e+00    4.514982e-01   5.557893e-03
  3.168689e+00    4.465117e-01   5.530504e-03
  3.170900e+00    4.611494e-01   5.623675e-03
  3.173110e+00    4.325252e-01   5.449221e-03
  3.175321e+00    4.249941e-01   5.403996e-03
  3.177531e+00    4.363583e-01   5.478515e-03
  3.179741e+00    4.395260e-01   5.500450e-03
  3.181952e+00    4.255503e-01   5.414367e-03
  3.184162e+00    4.369086e-01   5.488337e-03
  3.186373e+00    4.332102e-01   5.466643e-03
  3.188583e+00    4.445070e-01   5.539273e-03
  3.190794e+00    4.463937e-01   5.552790e-03
  3.193004e+00    4.305507e-01   5.454610e-03
  3.195215e+00    4.308289e-01   5.457846e-03
  3.197425e+00    4.426914e-01   5.533700e-03
  3.199636e+00    4.347756e-01   5.483235e-03
  3.201846e+00    4.322641e-01   5.466764e-03
  3.204056e+00    4.470411e-01   5.560341e-03
  3.206267e+00    4.362859e-01   5.493891e-03
  3.208477e+00    4.245545e-01   5.420437e-03
  3.210688e+00    4.282547e-01   5.444833e-03
  3.212898e+00    4.366153e-01   5.498319e-03
  3.215109e+00    4.349072e-01   5.488294e-03
  3.217319e+00    4.339043e-01   5.482608e-03
  3.219530e+00    4.442517e-01   5.547992e-03
  3.221740e+00    4.362841e-01   5.498589e-03
  3.223951e+00    4.242028e-01   5.422393e-03
  3.226161e+00    4.206929e-01   5.400080e-03
  3.228372e+00    4.352188e-01   5.493057e-03
  3.230582e+00    4.338325e-01   5.484448e-03
  3.232792e+00    4.455000e-01   5.557927e-03
  3.235003e+00    4.368926e-01   5.504229e-03
  3.237213e+00    4.362873e-01   5.500524e-03
  3.239424e+00    4.288608e-01   5.453492e-03
  3.241634e+00    4.334798e-01   5.482926e-03
  3.243845e+00    4.267045e-01   5.439964e-03
  3.246055e+00    4.317052e-01   5.471466e-03
  3.248266e+00    4.344162e-01   5.488835e-03
  3.250476e+00    4.275291e-01   5.444842e-03
  3.252687e+00    4.387683e-01   5.515873e-03
  3.254897e+00    4.362532e-01   5.499913e-03
  3.257107e+00    4.298168e-01   5.458892e-03
  3.259318e+00    4.276142e-01   5.444627e-03
  3.261528e+00    4.213459e-01   5.404465e-03
  3.263739e+00    4.139769e-01   5.356424e-03
  3.265949e+00    4.174421e-01   5.378684e-03
  3.268160e+00    4.131199e-01   5.350350e-03
  3.270370e+00    4.300920e-01   5.458621e-03
  3.272581e+00    4.263169e-01   5.434356e-03
  3.274791e+00    4.362767e-01   5.496924e-03
  3.277002e+00    4.270678e-01   5.438048e-03
  3.279212e+00    4.249567e-01   5.424211e-03
  3.281422e+00    4.218065e-01   5.403474e-03
  3.283633e+00    4.272950e-01   5.437854e-03
  3.285843e+00    4.227255e-01   5.408349e-03
  3.288054e+00    4.430321e-01   5.535766e-03
  3.290264e+00    4.288812e-01   5.446347e-03
  3.292475e+00    4.209614e-01   5.394982e-03
  3.294685e+00    4.248115e-01   5.418945e-03
  3.296896e+00    4.212788e-01   5.395634e-03
  3.299106e+00    4.226123e-01   5.403602e-03
  3.301317e+00    4.246840e-01   5.415798e-03
  3.303527e+00    4.393511e-01   5.508050e-03
  3.305737e+00    4.260005e-01   5.422689e-03
  3.307948e+00    4.217259e-01   5.394713e-03
  3.310158e+00    4.439419e-01   5.534136e-03
  3.312369e+00    4.300905e-01   5.446224e-03
  3.314579e+00    4.157872e-01   5.353993e-03
  3.316790e+00    4.147900e-01   5.346864e-03
  3.319000e+00    4.289615e-01   5.436246e-03
  3.321211e+00    4.296864e-01   5.440223e-03
  3.323421e+00    4.191356e-01   5.371810e-03
  3.325632e+00    4.276313e-01   5.425090e-03
  3.327842e+00    4.283292e-01   5.428610e-03
  3.330052e+00    4.161397e-01   5.349728e-03
  3.332263e+00    4.224670e-01   5.389233e-03
  3.334473e+00    4.166856e-01   5.351327e-03
  3.336684e+00    4.104384e-01   5.309812e-03
  3.338894e+00    4.220642e-01   5.383646e-03
  3.341105e+00    4.115794e-01   5.315154e-03
  3.343315e+00    4.217485e-01   5.379280e-03
  3.345526e+00    4.086667e-01   5.294304e-03
  3.347736e+00    4.142565e-01   5.328998e-03
  3.349947e+00    4.056750e-01   5.272588e-03
  3.352157e+00    4.206367e-01   5.367748e-03
  3.354368e+00    4.265179e-01   5.403873e-03
  3.356578e+00    4.156100e-01   5.333282e-03
  3.358788e+00    4.127213e-01   5.313416e-03
  3.360999e+00    4.095266e-01   5.291555e-03
  3.363209e+00    4.230138e-01   5.376981e-03
  3.365420e+00    4.226183e-01   5.372935e-03
  3.367630e+00    4.248792e-01   5.386261e-03
  3.369841e+00    4.152792e-01   5.323652e-03
  3.372051e+00    4.142706e-01   5.315206e-03
  3.374262e+00    4.111851e-01   5.292938e-03
  3.376472e+00    4.257887e-01   5.383656e-03
  3.378683e+00    4.141292e-01   5.306932e-03
  3.380893e+00    4.204389e-01   5.344852e-03
  3.383103e+00    4.158892e-01   5.313145e-03
  3.385314e+00    4.186179e-01   5.328316e-03
  3.387524e+00    4.187562e-01   5.326454e-03
  3.389735e+00    4.024214e-01   5.218936e-03
  3.391945e+00    3.941183e-01   5.161233e-03
  3.394156e+00    4.100997e-01   5.260596e-03
  3.396366e+00    4.170721e-01   5.301733e-03
  3.398577e+00    4.169922e-01   5.298150e-03
  3.400787e+00    4.081317e-01   5.253436e-03
  3.402998e+00    4.023503e-01   5.253793e-03
  3.405208e+00    4.095726e-01   5.321497e-03
  3.407418e+00    4.033198e-01   5.296561e-03
  3.409629e+00    3.949290e-01   5.255026e-03
  3.411839e+00    3.921676e-01   5.248300e-03
  3.414050e+00    3.993571e-01   5.307182e-03
  3.416260e+00    3.999020e-01   5.320556e-03
  3.418471e+00    3.759343e-01   5.167834e-03
  3.420681e+00    3.951774e-01   5.306955e-03
  3.422892e+00    3.909494e-01   5.286520e-03
  3.425102e+00    3.793488e-01   5.215203e-03
  3.427313e+00    3.752670e-01   5.194126e-03
  3.429523e+00    3.733562e-01   5.187807e-03
  3.431733e+00    3.864400e-01   5.284603e-03
  3.433944e+00    3.822367e-01   5.262271e-03
  3.436154e+00    3.737263e-01   5.209497e-03
  3.438365e+00    3.878357e-01   5.312915e-03
  3.440575e+00    3.809032e-01   5.271140e-03
  3.442786e+00    3.970912e-01   5.387714e-03
  3.444996e+00    3.927937e-01   5.364138e-03
  3.447207e+00    3.783199e-01   5.269653e-03
  3.449417e+00    3.689880e-01   5.244951e-03
  3.451628e+00    3.724606e-01   5.299141e-03
  3.453838e+00    3.714704e-01   5.313378e-03
  3.456049e+00    3.680012e-01   5.312446e-03
  3.458259e+00    3.522024e-01   5.218654e-03
  3.460469e+00    3.627665e-01   5.316019e-03
  3.462680e+00    3.687893e-01   5.379110e-03
  3.464890e+00    3.780626e-01   5.464371e-03
  3.467101e+00    3.697399e-01   5.421466e-03
  3.469311e+00    3.793622e-01   5.508230e-03
  3.471522e+00    3.816457e-01   5.541385e-03
  3.473732e+00    3.860284e-01   5.589197e-03
  3.475943e+00    3.827236e-01   5.580927e-03
  3.478153e+00    4.034902e-01   5.746061e-03
  3.480364e+00    4.167353e-01   5.855218e-03
  3.482574e+00    4.242598e-01   5.923586e-03
  3.484784e+00    4.209945e-01   5.915785e-03
  3.486995e+00    4.324950e-01   6.011437e-03
  3.489205e+00    4.440131e-01   6.106000e-03
  3.491416e+00    4.410542e-01   6.100761e-03
  3.493626e+00    4.458462e-01   6.148586e-03
  3.495837e+00    4.527976e-01   6.211305e-03
  3.498047e+00    4.477407e-01   6.191048e-03
  3.500258e+00    4.724205e-01   6.374308e-03
  3.502468e+00    4.567314e-01   6.282041e-03
  3.504679e+00    4.626221e-01   6.336922e-03
  3.506889e+00    4.651239e-01   6.368477e-03
  3.509099e+00    4.808180e-01   6.489501e-03
  3.511310e+00    4.917275e-01   6.577444e-03
  3.513520e+00    4.775464e-01   6.496239e-03
  3.515731e+00    4.961531e-01   6.636112e-03
  3.517941e+00    5.018886e-01   6.688901e-03
  3.520152e+00    4.999460e-01   6.690336e-03
  3.522362e+00    4.952596e-01   6.673301e-03
  3.524573e+00    4.982897e-01   6.707854e-03
  3.526783e+00    5.329106e-01   6.950595e-03
  3.528994e+00    5.183089e-01   6.867017e-03
  3.531204e+00    5.054383e-01   6.793454e-03
  3.533414e+00    5.188056e-01   6.894681e-03
  3.535625e+00    5.373580e-01   7.029391e-03
  3.537835e+00    5.380949e-01   7.046351e-03
  3.540046e+00    5.416121e-01   7.078368e-03
  3.542256e+00    5.300710e-01   7.010003e-03
  3.544467e+00    5.483419e-01   7.137523e-03
  3.546677e+00    5.328562e-01   7.043571e-03
  3.548888e+00    5.461224e-01   7.138285e-03
  3.551098e+00    5.277445e-01   7.024378e-03
  3.553309e+00    5.311701e-01   7.055236e-03
  3.555519e+00    5.484107e-01   7.180283e-03
  3.557729e+00    5.577236e-01   7.252926e-03
  3.559940e+00    5.422310e-01   7.163111e-03
  3.562150e+00    5.365951e-01   7.137506e-03
  3.564361e+00    5.522311e-01   7.254254e-03
  3.566571e+00    5.423381e-01   7.202919e-03
  3.568782e+00    5.453748e-01   7.237259e-03
  3.570992e+00    5.460671e-01   7.255772e-03
  3.573203e+00    5.307795e-01   7.167554e-03
  3.575413e+00    5.320174e-01   7.189618e-03
  3.577624e+00    5.344443e-01   7.220101e-03
  3.579834e+00    5.440233e-01   7.298504e-03
  3.582045e+00    5.344862e-01   7.248271e-03
  3.584255e+00    5.332639e-01   7.253997e-03
  3.586465e+00    5.192935e-01   7.172049e-03
  3.588676e+00    5.462273e-01   7.369984e-03
  3.590886e+00    5.596385e-01   7.473993e-03
  3.593097e+00    5.553932e-01   7.460289e-03
  3.595307e+00    5.475536e-01   7.421565e-03
  3.597518e+00    5.449741e-01   7.418421e-03
  3.599728e+00    5.426428e-01   7.416667e-03
  3.601939e+00    5.501629e-01   7.482220e-03
  3.604149e+00    5.317485e-01   7.370217e-03
  3.606360e+00    5.447649e-01   7.474186e-03
  3.608570e+00    5.414341e-01   7.465527e-03
  3.610780e+00    5.329128e-01   7.417600e-03
  3.612991e+00    5.291544e-01   7.401342e-03
  3.615201e+00    5.494270e-01   7.551705e-03
  3.617412e+00    5.492726e-01   7.558040e-03
  3.619622e+00    5.356431e-01   7.469623e-03
  3.621833e+00    5.404012e-01   7.509491e-03
  3.624043e+00    5.440210e-01   7.544159e-03
  3.626254e+00    5.309426e-01   7.462658e-03
  3.628464e+00    5.212198e-01   7.404799e-03
  3.630675e+00    5.318230e-01   7.493873e-03
  3.632885e+00    5.286316e-01   7.485670e-03
  3.635095e+00    5.448362e-01   7.614131e-03
  3.637306e+00    5.302612e-01   7.525911e-03
  3.639516e+00    5.277070e-01   7.522212e-03
  3.641727e+00    5.313148e-01   7.562426e-03
  3.643937e+00    5.546344e-01   7.741429e-03
  3.646148e+00    5.424910e-01   7.670959e-03
  3.648358e+00    5.318400e-01   7.610140e-03
  3.650569e+00    5.347323e-01   7.645533e-03
  3.652779e+00    5.514663e-01   7.779296e-03
  3.654990e+00    5.392101e-01   7.707363e-03
  3.657200e+00    5.296165e-01   7.653285e-03
  3.659410e+00    5.400027e-01   7.743109e-03
  3.661621e+00    5.368890e-01   7.735902e-03
  3.663831e+00    5.290812e-01   7.694530e-03
  3.666042e+00    5.413898e-01   7.798812e-03
  3.668252e+00    5.155445e-01   7.625407e-03
  3.670463e+00    5.376648e-01   7.802591e-03
  3.672673e+00    5.231955e-01   7.712204e-03
  3.674884e+00    5.373192e-01   7.831077e-03
  3.677094e+00    5.376350e-01   7.849016e-03
  3.679305e+00    5.398592e-01   7.880955e-03
  3.681515e+00    5.309121e-01   7.830970e-03
  3.683726e+00    5.263367e-01   7.812924e-03
  3.685936e+00    5.363681e-01   7.902818e-03
  3.688146e+00    5.329857e-01   7.893756e-03
  3.690357e+00    5.198169e-01   7.811395e-03
  3.692567e+00    5.292993e-01   7.898517e-03
  3.694778e+00    5.269707e-01   7.897196e-03
  3.696988e+00    5.053899e-01   7.749410e-03
  3.699199e+00    5.376795e-01   8.009573e-03
  3.701409e+00    5.350155e-01   8.006273e-03
  3.703620e+00    5.056776e-01   7.799663e-03
  3.705830e+00    5.219284e-01   7.940354e-03
  3.708041e+00    5.124761e-01   7.884518e-03
  3.710251e+00    5.239621e-01   7.989134e-03
  3.712461e+00    5.136403e-01   7.926616e-03
  3.714672e+00    5.199929e-01   7.992207e-03
  3.716882e+00    5.294871e-01   8.081675e-03
  3.719093e+00    5.074930e-01   7.929016e-03
  3.721303e+00    4.862027e-01   7.777279e-03
  3.723514e+00    5.015939e-01   7.916359e-03
  3.725724e+00    5.117896e-01   8.013480e-03
  3.727935e+00    5.072066e-01   7.994833e-03
  3.730145e+00    5.268787e-01   8.165842e-03
  3.732356e+00    5.159584e-01   8.098346e-03
  3.734566e+00    5.027314e-01   8.011153e-03
  3.736776e+00    5.243115e-01   8.199227e-03
  3.738987e+00    5.273932e-01   8.241271e-03
  3.741197e+00    4.921084e-01   7.978424e-03
  3.743408e+00    5.113685e-01   8.151057e-03
  3.745618e+00    5.224752e-01   8.257626e-03
  3.747829e+00    5.168172e-01   8.230946e-03
  3.750039e+00    5.347392e-01   8.391212e-03
  3.752250e+00    5.159889e-01   8.261419e-03
  3.754460e+00    5.090154e-01   8.223844e-03
  3.756671e+00    5.246975e-01   8.368697e-03
  3.758881e+00    5.127098e-01   8.291222e-03
  3.761091e+00    5.184655e-01   8.357008e-03
  3.763302e+00    5.095000e-01   8.303556e-03
  3.765512e+00    5.126561e-01   8.348485e-03
  3.767723e+00    5.298580e-01   8.507228e-03
  3.769933e+00    5.431280e-01   8.633114e-03
  3.772144e+00    5.164976e-01   8.438614e-03
  3.774354e+00    5.134677e-01   8.433827e-03
  3.776565e+00    5.181016e-01   8.491839e-03
  3.778775e+00    5.373025e-01   8.668384e-03
  3.780986e+00    5.222598e-01   8.566890e-03
  3.783196e+00    5.041214e-01   8.437059e-03
  3.785407e+00    5.032004e-01   8.449731e-03
  3.787617e+00    4.856210e-01   8.321261e-03
  3.789827e+00    4.965090e-01   8.434432e-03
  3.792038e+00    5.070497e-01   8.544398e-03
  3.794248e+00    4.968306e-01   8.478953e-03
  3.796459e+00    5.207860e-01   8.702681e-03
  3.798669e+00    5.085550e-01   8.621508e-03
  3.800880e+00    4.991074e-01   8.562437e-03
  3.803090e+00    5.006229e-01   8.597215e-03
  3.805301e+00    4.735787e-01   8.383364e-03
  3.807511e+00    5.224936e-01   8.827981e-03
  3.809722e+00    5.276421e-01   8.894396e-03
  3.811932e+00    5.166011e-01   8.823364e-03
  3.814142e+00    5.020092e-01   8.720824e-03
  3.816353e+00    4.921954e-01   8.657878e-03
  3.818563e+00    4.800996e-01   8.573427e-03
  3.820774e+00    4.978039e-01   8.753259e-03
  3.822984e+00    5.050813e-01   8.840526e-03
  3.825195e+00    5.307776e-01   9.087121e-03
  3.827405e+00    4.910459e-01   8.764187e-03
  3.829616e+00    4.866091e-01   8.748215e-03
  3.831826e+00    5.098402e-01   8.979115e-03
  3.834037e+00    5.067605e-01   8.976700e-03
  3.836247e+00    5.099115e-01   9.029543e-03
  3.838457e+00    5.086839e-01   9.044019e-03
  3.840668e+00    4.926890e-01   8.925805e-03
  3.842878e+00    5.035480e-01   9.049359e-03
  3.845089e+00    4.745566e-01   8.810015e-03
  3.847299e+00    4.824931e-01   8.908802e-03
  3.849510e+00    4.995324e-01   9.090712e-03
  3.851720e+00    5.047064e-01   9.159290e-03
  3.853931e+00    5.191187e-01   9.308597e-03
  3.856141e+00    5.225924e-01   9.359239e-03
  3.858352e+00    5.191449e-01   9.348059e-03
  3.860562e+00    5.006638e-01   9.199566e-03
  3.862772e+00    5.131679e-01   9.333760e-03
  3.864983e+00    4.932385e-01   9.170336e-03
  3.867193e+00    4.637558e-01   8.911245e-03
  3.869404e+00    4.799989e-01   9.085465e-03
  3.871614e+00    4.732626e-01   9.041037e-03
  3.873825e+00    4.843594e-01   9.166609e-03
  3.876035e+00    5.027627e-01   9.359795e-03
  3.878246e+00    5.009729e-01   9.369224e-03
  3.880456e+00    4.868469e-01   9.264995e-03
  3.882667e+00    4.956887e-01   9.378161e-03
  3.884877e+00    4.993367e-01   9.442620e-03
  3.887087e+00    4.818049e-01   9.305006e-03
  3.889298e+00    5.056637e-01   9.563381e-03
  3.891508e+00    5.023652e-01   9.563045e-03
  3.893719e+00    5.102314e-01   9.669227e-03
  3.895929e+00    4.902424e-01   9.509364e-03
  3.898140e+00    4.894597e-01   9.533416e-03
  3.900350e+00    4.693065e-01   9.366505e-03
  3.902561e+00    5.105902e-01   9.802856e-03
  3.904771e+00    4.876808e-01   9.613111e-03
  3.906982e+00    4.976007e-01   9.743874e-03
  3.909192e+00    5.106843e-01   9.905327e-03
  3.911403e+00    4.623588e-01   9.458133e-03
  3.913613e+00    5.006973e-01   9.877033e-03
  3.915823e+00    5.408227e-01   1.030184e-02
  3.918034e+00    4.950881e-01   9.892223e-03
  3.920244e+00    5.102670e-01   1.007914e-02
  3.922455e+00    4.927825e-01   9.941292e-03
  3.924665e+00    5.075937e-01   1.012666e-02
  3.926876e+00    4.866352e-01   9.952508e-03
  3.929086e+00    4.959574e-01   1.008506e-02
  3.931297e+00    4.785447e-01   9.940886e-03
  3.933507e+00    4.897893e-01   1.008602e-02
  3.935718e+00    4.979482e-01   1.019869e-02
  3.937928e+00    5.168936e-01   1.042126e-02
  3.940138e+00    4.720199e-01   9.987550e-03
  3.942349e+00    4.944557e-01   1.025213e-02
  3.944559e+00    4.788422e-01   1.011882e-02
  3.946770e+00    5.075203e-01   1.044816e-02
  3.948980e+00    4.952008e-01   1.035163e-02
  3.951191e+00    5.016879e-01   1.045048e-02
  3.953401e+00    4.708936e-01   1.015561e-02
  3.955612e+00    4.754279e-01   1.023557e-02
  3.957822e+00    4.592045e-01   1.009032e-02
  3.960033e+00    4.766173e-01   1.031202e-02
  3.962243e+00    4.933399e-01   1.052454e-02
  3.964453e+00    4.789222e-01   1.040252e-02
  3.966664e+00    4.813325e-01   1.046184e-02
  3.968874e+00    5.042568e-01   1.073699e-02
  3.971085e+00    4.967079e-01   1.067858e-02
  3.973295e+00    5.039623e-01   1.077814e-02
  3.975506e+00    4.944946e-01   1.069823e-02
  3.977716e+00    5.239260e-01   1.103476e-02
  3.979927e+00    4.915711e-01   1.071104e-02
  3.982137e+00    4.770783e-01   1.057392e-02
  3.984348e+00    5.007371e-01   1.085589e-02
  3.986558e+00    5.028924e-01   1.090196e-02
  3.988768e+00    5.095880e-01   1.099791e-02
  3.990979e+00    4.707645e-01   1.059301e-02
  3.993189e+00    4.674599e-01   1.057854e-02
  3.995400e+00    4.959839e-01   1.092014e-02
  3.997610e+00    4.855475e-01   1.083458e-02
  3.999821e+00    4.770503e-01   1.077655e-02
  4.002031e+00    4.816996e-01   1.086718e-02
  4.004242e+00    4.833388e-01   1.092411e-02
  4.006452e+00    4.693702e-01   1.080385e-02
  4.008663e+00    4.721776e-01   1.087558e-02
  4.010873e+00    4.921468e-01   1.114347e-02
  4.013084e+00    5.095655e-01   1.138094e-02
  4.015294e+00    4.833035e-01   1.112479e-02
  4.017504e+00    4.874696e-01   1.121445e-02
  4.019715e+00    4.919407e-01   1.130874e-02
  4.021925e+00    4.925737e-01   1.135931e-02
  4.024136e+00    5.204459e-01   1.172158e-02
  4.026346e+00    4.754508e-01   1.124720e-02
  4.028557e+00    4.955243e-01   1.152702e-02
  4.030767e+00    4.932912e-01   1.154707e-02
  4.032978e+00    5.322694e-01   1.204315e-02
  4.035188e+00    5.002289e-01   1.172214e-02
  4.037399e+00    4.869216e-01   1.161279e-02
  4.039609e+00    4.951075e-01   1.175844e-02
  4.041819e+00    4.707606e-01   1.151368e-02
  4.044030e+00    5.028870e-01   1.195100e-02
  4.046240e+00    4.881696e-01   1.182501e-02
  4.048451e+00    4.650773e-01   1.159181e-02
  4.050661e+00    4.703304e-01   1.170786e-02
  4.052872e+00    5.246598e-01   1.242071e-02
  4.055082e+00    4.856011e-01   1.200308e-02
  4.057293e+00    4.738312e-01   1.190988e-02
  4.059503e+00    4.931348e-01   1.220533e-02
  4.061714e+00    4.787633e-01   1.208253e-02
  4.063924e+00    4.535434e-01   1.181499e-02
  4.066134e+00    4.897838e-01   1.233581e-02
  4.068345e+00    4.833919e-01   1.231410e-02
  4.070555e+00    4.944624e-01   1.251422e-02
  4.072766e+00    5.496213e-01   1.325898e-02
  4.074976e+00    5.291275e-01   1.307423e-02
  4.077187e+00    4.831842e-01   1.255595e-02
  4.079397e+00    4.626018e-01   1.234820e-02
  4.081608e+00    4.690339e-01   1.249855e-02
  4.083818e+00    5.051484e-01   1.303803e-02
  4.086029e+00    5.007447e-01   1.304959e-02
  4.088239e+00    5.051470e-01   1.317772e-02
  4.090449e+00    4.751985e-01   1.285016e-02
  4.092660e+00    4.703354e-01   1.285451e-02
  4.094870e+00    4.893420e-01   1.318470e-02
  4.097081e+00    4.791948e-01   1.311881e-02
  4.099291e+00    5.224725e-01   1.375499e-02
  4.101502e+00    5.154550e-01   1.371332e-02
  4.103712e+00    5.040072e-01   1.361072e-02
  4.105923e+00    4.815802e-01   1.335605e-02
  4.108133e+00    4.794686e-01   1.337789e-02
  4.110344e+00    4.994826e-01   1.370660e-02
  4.112554e+00    5.155584e-01   1.398046e-02
  4.114764e+00    4.574869e-01   1.322256e-02
  4.116975e+00    4.920169e-01   1.376640e-02
  4.119185e+00    4.723546e-01   1.354327e-02
  4.121396e+00    4.969550e-01   1.394892e-02
  4.123606e+00    5.041797e-01   1.410749e-02
  4.125817e+00    5.082467e-01   1.422388e-02
  4.128027e+00    4.724450e-01   1.377138e-02
  4.130238e+00    4.516717e-01   1.352286e-02
  4.132448e+00    4.957035e-01   1.422818e-02
  4.134659e+00    5.121719e-01   1.452497e-02
  4.136869e+00    5.029130e-01   1.445721e-02
  4.139080e+00    5.120068e-01   1.465303e-02
  4.141290e+00    5.033499e-01   1.459315e-02
  4.143500e+00    4.558368e-01   1.395128e-02
  4.145711e+00    4.920067e-01   1.456172e-02
  4.147921e+00    4.983308e-01   1.472235e-02
  4.150132e+00    4.825705e-01   1.455689e-02
  4.152342e+00    5.229200e-01   1.522660e-02
  4.154553e+00    4.766613e-01   1.460676e-02
  4.156763e+00    4.755493e-01   1.466171e-02
  4.158974e+00    4.955808e-01   1.504279e-02
  4.161184e+00    4.345509e-01   1.415590e-02
  4.163395e+00    4.862722e-01   1.505104e-02
  4.165605e+00    4.732051e-01   1.492470e-02
  4.167815e+00    5.008962e-01   1.543526e-02
  4.170026e+00    5.071920e-01   1.561385e-02
  4.172236e+00    5.062346e-01   1.568355e-02
  4.174447e+00    4.682725e-01   1.516592e-02
  4.176657e+00    4.481881e-01   1.491837e-02
  4.178868e+00    4.928994e-01   1.573323e-02
  4.181078e+00    4.958983e-01   1.586990e-02
  4.183289e+00    5.637465e-01   1.701762e-02
  4.185499e+00    5.066216e-01   1.622781e-02
  4.187710e+00    5.135993e-01   1.643470e-02
  4.189920e+00    4.825673e-01   1.602660e-02
  4.192130e+00    4.429002e-01   1.544753e-02
  4.194341e+00    4.649613e-01   1.592446e-02
  4.196551e+00    4.816052e-01   1.630971e-02
  4.198762e+00    4.647280e-01   1.612309e-02
  4.200972e+00    5.256112e-01   1.725782e-02
  4.203183e+00    4.618070e-01   1.628287e-02
  4.205393e+00    5.169213e-01   1.734181e-02
  4.207604e+00    4.623756e-01   1.651360e-02
  4.209814e+00    4.820072e-01   1.697579e-02
  4.212025e+00    4.996534e-01   1.740631e-02
  4.214235e+00    4.681834e-01   1.696872e-02
  4.216445e+00    5.378945e-01   1.831955e-02
  4.218656e+00    5.133465e-01   1.803112e-02
  4.220866e+00    5.263627e-01   1.839337e-02
  4.223077e+00    4.590486e-01   1.730905e-02
  4.225287e+00    4.654718e-01   1.756684e-02
  4.227498e+00    4.980644e-01   1.831393e-02
  4.229708e+00    5.065144e-01   1.861890e-02
  4.231919e+00    4.353315e-01   1.740379e-02
  4.234129e+00    5.054647e-01   1.891066e-02
  4.236340e+00    4.496337e-01   1.798846e-02
  4.238550e+00    4.639885e-01   1.843476e-02
  4.240761e+00    4.365866e-01   1.803958e-02
  4.242971e+00    5.099921e-01   1.967631e-02
  4.245181e+00    4.623923e-01   1.891159e-02
  4.247392e+00    4.708731e-01   1.926216e-02
  4.249602e+00    4.470149e-01   1.895486e-02
  4.251813e+00    4.505500e-01   1.921709e-02
  4.254023e+00    4.552947e-01   1.951233e-02
  4.256234e+00    5.120846e-01   2.091447e-02
  4.258444e+00    5.005692e-01   2.089503e-02
  4.260655e+00    5.097592e-01   2.131742e-02
  4.262865e+00    4.452283e-01   2.014850e-02
  4.265076e+00    4.984381e-01   2.156055e-02
  4.267286e+00    5.558665e-01   2.303921e-02
  4.269496e+00    4.768160e-01   2.159912e-02
  4.271707e+00    4.567828e-01   2.140063e-02
  4.273917e+00    5.357108e-01   2.347613e-02
  4.276128e+00    5.222980e-01   2.348827e-02
  4.278338e+00    4.921844e-01   2.310559e-02
  4.280549e+00    4.664938e-01   2.281720e-02
  4.282759e+00    4.684935e-01   2.319460e-02
  4.284970e+00    4.247940e-01   2.241326e-02
  4.287180e+00    4.953156e-01   2.449238e-02
  4.289391e+00    4.021348e-01   2.223411e-02
  4.291601e+00    4.588445e-01   2.393959e-02
  4.293811e+00    5.100788e-01   2.543874e-02
  4.296022e+00    4.976144e-01   2.532745e-02
  4.298232e+00    5.974822e-01   2.798513e-02
  4.300443e+00    5.068398e-01   2.598886e-02
  4.302653e+00    3.917962e-01   2.304721e-02
  4.304864e+00    5.171385e-01   2.670705e-02
  4.307074e+00    4.218023e-01   2.433700e-02
  4.309285e+00    5.271699e-01   2.745516e-02
  4.311495e+00    3.729761e-01   2.330928e-02
  4.313706e+00    5.104775e-01   2.752503e-02
  4.315916e+00    4.580735e-01   2.633094e-02
  4.318126e+00    5.851175e-01   3.005370e-02
  4.320337e+00    5.203105e-01   2.862692e-02
  4.322547e+00    4.997187e-01   2.835265e-02
  4.324758e+00    5.031125e-01   2.874506e-02
  4.326968e+00    5.391603e-01   3.009098e-02
  4.329179e+00    5.521210e-01   3.078643e-02
  4.331389e+00    5.840683e-01   3.202989e-02
  4.333600e+00    5.180523e-01   3.052669e-02
  4.335810e+00    4.070761e-01   2.737980e-02
  4.338021e+00    5.032174e-01   3.083365e-02
  4.340231e+00    5.399849e-01   3.233944e-02
  4.342442e+00    4.695122e-01   3.056189e-02
  4.344652e+00    3.776087e-01   2.777882e-02
  4.346862e+00    4.329995e-01   3.016353e-02
  4.349073e+00    4.353892e-01   3.068703e-02
  4.351283e+00    4.596412e-01   3.200099e-02
  4.353494e+00    4.561023e-01   3.236953e-02
  4.355704e+00    5.434735e-01   3.590347e-02
  4.357915e+00    5.220132e-01   3.577306e-02
  4.360125e+00    4.786503e-01   3.484072e-02
  4.362336e+00    3.507479e-01   3.036682e-02
  4.364546e+00    3.441415e-01   3.062802e-02
  4.366757e+00    4.569166e-01   3.599270e-02
  4.368967e+00    4.854342e-01   3.783921e-02
  4.371177e+00    3.926508e-01   3.475623e-02
  4.373388e+00    4.617536e-01   3.853069e-02
  4.375598e+00    5.543270e-01   4.318127e-02
  4.377809e+00    4.134732e-01   3.823785e-02
  4.380019e+00    4.060086e-01   3.884336e-02
  4.382230e+00    4.020185e-01   3.972989e-02
  4.384440e+00    5.932835e-01   4.965506e-02
  4.386651e+00    4.829420e-01   4.618272e-02
  4.388861e+00    3.267488e-01   3.926123e-02
  4.391072e+00    4.025280e-01   4.510546e-02
  4.393282e+00    4.990253e-01   5.216642e-02
  4.395492e+00    5.422966e-01   5.663883e-02
  4.397703e+00    4.674568e-01   5.499220e-02
  4.399913e+00    2.657095e-01   4.355816e-02
  4.402124e+00    3.696773e-01   5.428803e-02
  4.404334e+00    4.012580e-01   6.012412e-02
  4.406545e+00    2.572376e-01   5.172745e-02
  4.408755e+00    4.112608e-01   7.092196e-02
  4.410966e+00    4.225456e-01   7.957069e-02
  4.413176e+00    5.244061e-01   1.003362e-01
  4.415387e+00   -3.061169e-01            nan
  4.417597e+00   -1.650688e+00            nan
  4.419807e+00    2.807437e-01   1.902519e-01
