# == pyFAI calibration ==
# Distance Sample to Detector: 0.216 m
# PONI: 1.166e-01, 1.308e-01 m
# Rotations: 0.000000 0.000000 0.000000 rad
# 
# == Fit2d calibration ==
# Distance Sample-beamCenter: 216.000 mm
# Center: x=1744.293, y=1555.000 pix
# Tilt: 0.000 deg  TiltPlanRot: 0.000 deg
# 
# Detector Eiger 9M	 PixelSize= 7.500e-05, 7.500e-05 m
#    Detector has a mask: True 
#    Detector has a dark current: False 
#    detector has a flat field: False 
# 
# Wavelength: 9.8e-11 m
# Mask applied: from detector
# Dark current applied: False
# Flat field applied: False
# Polarization factor: None
# Normalization factor: 1.0
# 
# Headers of the input frame:
# {
# "_array_data.header_convention": "SLS_1.0",
# "_array_data.header_contents": "# Detector: Dectris Eiger 9M, S/N E-18-0102\r\n# Pixel_size 75e-6 m x 75e-6 m\r\n# Silicon sensor, thickness 0.000450 m\r\n# Exposure_time 0.024997 s\r\n# Exposure_period 0.025000 s\r\n# Count_cutoff 62318 counts\r\n# Wavelength 0.980106 A\r\n# Detector_distance 0.215992 m\r\n# Beam_xy (1555, 1744) pixels\r\n# Start_angle 0.000000 deg.\r\n# Angle_increment 0.000000 deg.",
# "Content-Type": "application/octet-stream;",
# "conversions": "x-CBF_BYTE_OFFSET",
# "Content-Transfer-Encoding": "BINARY",
# "X-Binary-Size": "10166604",
# "X-Binary-ID": "1",
# "X-Binary-Element-Type": "signed 32-bit integer",
# "X-Binary-Element-Byte-Order": "LITTLE_ENDIAN",
# "Content-MD5": "wi7HeSK/DPtKga5aBUSMQQ==",
# "X-Binary-Number-of-Elements": "10166590",
# "X-Binary-Size-Fastest-Dimension": "3110",
# "X-Binary-Size-Second-Dimension": "3269",
# "X-Binary-Size-Padding": "4095"
# }
# --> H:/Proxima2a_2019-04-05/RAW_DATA/C5_gel17_position5/C5_mesh_1_data.cbf/C5_mesh_1_data.cbf000152.dat
#        q_A^-1              I           sigma 
  1.105228e-03    1.355602e+00   6.300181e-01
  3.315685e-03    1.674268e+00   4.256552e-01
  5.526141e-03    1.698431e+00   3.315096e-01
  7.736597e-03    1.631773e+00   2.745048e-01
  9.947054e-03    1.335598e+00   2.189346e-01
  1.215751e-02    1.218464e+00   1.890928e-01
  1.436797e-02    1.275240e+00   1.779393e-01
  1.657842e-02    1.404115e+00   1.737984e-01
  1.878888e-02    1.327431e+00   1.587338e-01
  2.099934e-02    1.360520e+00   1.520389e-01
  2.320979e-02    1.403140e+00   1.468531e-01
  2.542025e-02    1.413401e+00   1.408452e-01
  2.763070e-02    1.639692e+00   1.455029e-01
  2.984116e-02    1.455788e+00   1.319245e-01
  3.205162e-02    1.406562e+00   1.251312e-01
  3.426207e-02    1.411394e+00   1.212269e-01
  3.647253e-02    1.513924e+00   1.216863e-01
  3.868299e-02    1.441613e+00   1.153108e-01
  4.089344e-02    1.404254e+00   1.106888e-01
  4.310390e-02    1.480658e+00   1.107009e-01
  4.531436e-02    1.517126e+00   1.092890e-01
  4.752481e-02    1.500017e+00   1.061127e-01
  4.973527e-02    1.488165e+00   1.033183e-01
  5.194572e-02    1.458862e+00   1.000945e-01
  5.415618e-02    1.431380e+00   9.709933e-02
  5.636664e-02    1.469534e+00   9.643950e-02
  5.857709e-02    1.545674e+00   9.702276e-02
  6.078755e-02    1.523726e+00   9.456073e-02
  6.299801e-02    1.599615e+00   9.517089e-02
  6.520846e-02    1.488783e+00   9.024569e-02
  6.741892e-02    1.474235e+00   8.831476e-02
  6.962938e-02    1.472481e+00   8.685427e-02
  7.183983e-02    1.409267e+00   8.365052e-02
  7.405029e-02    1.464411e+00   8.398711e-02
  7.626074e-02    1.582572e+00   8.603436e-02
  7.847120e-02    1.533296e+00   8.348089e-02
  8.068166e-02    1.405338e+00   7.881860e-02
  8.289211e-02    1.501875e+00   8.038657e-02
  8.510257e-02    1.602851e+00   8.195887e-02
  8.731303e-02    1.481578e+00   7.779060e-02
  8.952348e-02    1.532142e+00   7.812625e-02
  9.173394e-02    1.657864e+00   8.028020e-02
  9.394439e-02    1.548165e+00   7.665809e-02
  9.615485e-02    1.496004e+00   7.448282e-02
  9.836531e-02    1.517729e+00   7.417191e-02
  1.005758e-01    1.551728e+00   7.416982e-02
  1.027862e-01    1.600289e+00   7.450529e-02
  1.049967e-01    1.523073e+00   7.191514e-02
  1.072071e-01    1.504599e+00   7.073609e-02
  1.094176e-01    1.608868e+00   7.240233e-02
  1.116280e-01    1.616556e+00   7.185137e-02
  1.138385e-01    1.628352e+00   7.140810e-02
  1.160490e-01    1.637023e+00   7.091196e-02
  1.182594e-01    1.575954e+00   6.892189e-02
  1.204699e-01    1.520083e+00   6.706474e-02
  1.226803e-01    1.536683e+00   6.681694e-02
  1.248908e-01    1.657607e+00   6.877843e-02
  1.271012e-01    1.601840e+00   6.701978e-02
  1.293117e-01    1.546474e+00   6.528524e-02
  1.315222e-01    1.613587e+00   6.612252e-02
  1.337326e-01    1.598337e+00   6.526192e-02
  1.359431e-01    1.621203e+00   6.576556e-02
  1.381535e-01    1.672193e+00   6.768832e-02
  1.403640e-01    1.678708e+00   6.811289e-02
  1.425744e-01    1.636918e+00   6.736718e-02
  1.447849e-01    1.659175e+00   6.783923e-02
  1.469953e-01    1.677857e+00   6.817740e-02
  1.492058e-01    1.550835e+00   6.546974e-02
  1.514163e-01    1.572575e+00   6.581756e-02
  1.536267e-01    1.627901e+00   6.683459e-02
  1.558372e-01    1.657295e+00   6.728642e-02
  1.580476e-01    1.621848e+00   6.640144e-02
  1.602581e-01    1.627702e+00   6.635222e-02
  1.624685e-01    1.612090e+00   6.585243e-02
  1.646790e-01    1.753941e+00   6.849135e-02
  1.668895e-01    1.830863e+00   6.977509e-02
  1.690999e-01    1.694116e+00   6.691722e-02
  1.713104e-01    1.741572e+00   6.763743e-02
  1.735208e-01    1.865674e+00   6.978814e-02
  1.757313e-01    2.001779e+00   7.206237e-02
  1.779417e-01    2.006787e+00   7.191716e-02
  1.801522e-01    1.965322e+00   7.094361e-02
  1.823626e-01    1.947864e+00   7.039270e-02
  1.845731e-01    1.971411e+00   7.058749e-02
  1.867836e-01    1.961906e+00   7.017948e-02
  1.889940e-01    1.940705e+00   6.957118e-02
  1.912045e-01    1.980715e+00   7.004995e-02
  1.934149e-01    2.022150e+00   7.054199e-02
  1.956254e-01    1.941550e+00   6.889385e-02
  1.978358e-01    2.029553e+00   7.019651e-02
  2.000463e-01    2.063894e+00   7.055330e-02
  2.022568e-01    2.000815e+00   6.923880e-02
  2.044672e-01    1.952794e+00   6.816851e-02
  2.066777e-01    1.987065e+00   6.853582e-02
  2.088881e-01    2.094485e+00   7.013375e-02
  2.110986e-01    2.067563e+00   6.944261e-02
  2.133090e-01    1.973809e+00   6.762934e-02
  2.155195e-01    1.911350e+00   6.632993e-02
  2.177300e-01    2.014396e+00   6.755953e-02
  2.199404e-01    2.087648e+00   6.696469e-02
  2.221509e-01    2.039673e+00   6.510390e-02
  2.243613e-01    2.089339e+00   6.505642e-02
  2.265718e-01    2.103473e+00   6.455664e-02
  2.287822e-01    2.081300e+00   6.357989e-02
  2.309927e-01    2.154502e+00   6.409900e-02
  2.332031e-01    2.294126e+00   6.557730e-02
  2.354136e-01    2.205901e+00   6.378281e-02
  2.376241e-01    2.205603e+00   6.328347e-02
  2.398345e-01    2.182744e+00   6.248874e-02
  2.420450e-01    2.197512e+00   6.225170e-02
  2.442554e-01    2.131643e+00   6.088923e-02
  2.464659e-01    2.188173e+00   6.127714e-02
  2.486763e-01    2.114928e+00   5.984685e-02
  2.508868e-01    2.133629e+00   5.973165e-02
  2.530973e-01    2.106558e+00   5.898355e-02
  2.553077e-01    2.187145e+00   5.973661e-02
  2.575182e-01    2.217387e+00   5.979234e-02
  2.597286e-01    2.147316e+00   5.849798e-02
  2.619391e-01    2.075438e+00   5.717947e-02
  2.641495e-01    2.110909e+00   5.734687e-02
  2.663600e-01    2.076662e+00   5.656699e-02
  2.685704e-01    2.094109e+00   5.649616e-02
  2.707809e-01    2.112427e+00   5.644156e-02
  2.729914e-01    2.051761e+00   5.533531e-02
  2.752018e-01    2.037189e+00   5.485145e-02
  2.774123e-01    2.050761e+00   5.475277e-02
  2.796227e-01    2.022745e+00   5.410850e-02
  2.818332e-01    2.101037e+00   5.487060e-02
  2.840436e-01    2.046924e+00   5.389687e-02
  2.862541e-01    2.056557e+00   5.376385e-02
  2.884646e-01    1.916594e+00   5.165582e-02
  2.906750e-01    1.928012e+00   5.156376e-02
  2.928855e-01    1.995724e+00   5.221834e-02
  2.950959e-01    1.988315e+00   5.188190e-02
  2.973064e-01    2.043446e+00   5.235987e-02
  2.995168e-01    2.035107e+00   5.201628e-02
  3.017273e-01    1.999885e+00   5.133683e-02
  3.039377e-01    2.032069e+00   5.152168e-02
  3.061482e-01    1.982479e+00   5.066901e-02
  3.083587e-01    1.983318e+00   5.046035e-02
  3.105691e-01    1.939285e+00   4.968394e-02
  3.127796e-01    1.943610e+00   4.953017e-02
  3.149900e-01    1.966984e+00   4.961953e-02
  3.172005e-01    1.894601e+00   4.849885e-02
  3.194109e-01    1.991303e+00   4.951590e-02
  3.216214e-01    2.007739e+00   4.951696e-02
  3.238319e-01    1.972314e+00   4.888372e-02
  3.260423e-01    2.000966e+00   4.904140e-02
  3.282528e-01    1.982735e+00   4.862314e-02
  3.304632e-01    1.954491e+00   4.808855e-02
  3.326737e-01    1.911325e+00   4.736901e-02
  3.348841e-01    1.882103e+00   4.682324e-02
  3.370946e-01    1.899278e+00   4.685941e-02
  3.393050e-01    1.877412e+00   4.641242e-02
  3.415155e-01    1.884930e+00   4.633037e-02
  3.437260e-01    1.918256e+00   4.656495e-02
  3.459364e-01    1.834949e+00   4.537412e-02
  3.481469e-01    1.904688e+00   4.605956e-02
  3.503573e-01    1.916495e+00   4.603381e-02
  3.525678e-01    1.922836e+00   4.594559e-02
  3.547782e-01    1.869759e+00   4.514326e-02
  3.569887e-01    1.888145e+00   4.520395e-02
  3.591992e-01    1.812924e+00   4.413763e-02
  3.614096e-01    1.885473e+00   4.485602e-02
  3.636201e-01    1.945571e+00   4.540518e-02
  3.658305e-01    1.900447e+00   4.472248e-02
  3.680410e-01    1.868796e+00   4.419597e-02
  3.702514e-01    1.814949e+00   4.340809e-02
  3.724619e-01    1.883961e+00   4.407509e-02
  3.746724e-01    1.900648e+00   4.412215e-02
  3.768828e-01    1.916845e+00   4.416065e-02
  3.790933e-01    1.814148e+00   4.282142e-02
  3.813037e-01    1.744744e+00   4.185688e-02
  3.835142e-01    1.844663e+00   4.289739e-02
  3.857246e-01    1.832583e+00   4.261835e-02
  3.879351e-01    1.778809e+00   4.185249e-02
  3.901455e-01    1.893773e+00   4.304629e-02
  3.923560e-01    1.926367e+00   4.327717e-02
  3.945665e-01    1.889605e+00   4.272633e-02
  3.967769e-01    1.802351e+00   4.159750e-02
  3.989874e-01    1.842984e+00   4.193246e-02
  4.011978e-01    1.836349e+00   4.172819e-02
  4.034083e-01    1.816252e+00   4.137182e-02
  4.056187e-01    1.799740e+00   4.105647e-02
  4.078292e-01    1.807444e+00   4.101972e-02
  4.100397e-01    1.848107e+00   4.135195e-02
  4.122501e-01    1.820783e+00   4.092233e-02
  4.144606e-01    1.762825e+00   4.014634e-02
  4.166710e-01    1.795110e+00   4.039183e-02
  4.188815e-01    1.822608e+00   4.057979e-02
  4.210919e-01    1.862102e+00   4.089690e-02
  4.233024e-01    1.844260e+00   4.058078e-02
  4.255128e-01    1.850938e+00   4.053668e-02
  4.277233e-01    1.841043e+00   4.031201e-02
  4.299338e-01    1.854988e+00   4.034797e-02
  4.321442e-01    1.838324e+00   4.005140e-02
  4.343547e-01    1.854047e+00   4.010857e-02
  4.365651e-01    1.848168e+00   3.993117e-02
  4.387756e-01    1.794537e+00   3.923735e-02
  4.409860e-01    1.749042e+00   3.862946e-02
  4.431965e-01    1.762965e+00   3.867567e-02
  4.454070e-01    1.763964e+00   3.857900e-02
  4.476174e-01    1.799668e+00   3.886048e-02
  4.498279e-01    1.781523e+00   3.855887e-02
  4.520383e-01    1.803432e+00   3.868879e-02
  4.542488e-01    1.799447e+00   3.854182e-02
  4.564592e-01    1.765071e+00   3.806949e-02
  4.586697e-01    1.774981e+00   3.807487e-02
  4.608801e-01    1.786972e+00   3.810095e-02
  4.630906e-01    1.743154e+00   3.753128e-02
  4.653011e-01    1.743880e+00   3.744037e-02
  4.675115e-01    1.772348e+00   3.764532e-02
  4.697220e-01    1.810893e+00   3.795285e-02
  4.719324e-01    1.763297e+00   3.735390e-02
  4.741429e-01    1.757782e+00   3.719932e-02
  4.763533e-01    1.768909e+00   3.722123e-02
  4.785638e-01    1.721991e+00   3.662942e-02
  4.807743e-01    1.755926e+00   3.689451e-02
  4.829847e-01    1.769096e+00   3.693907e-02
  4.851952e-01    1.748823e+00   3.663386e-02
  4.874056e-01    1.738388e+00   3.643231e-02
  4.896161e-01    1.735655e+00   3.631338e-02
  4.918265e-01    1.734532e+00   3.621146e-02
  4.940370e-01    1.735060e+00   3.612760e-02
  4.962475e-01    1.705694e+00   3.573207e-02
  4.984579e-01    1.779104e+00   3.640296e-02
  5.006684e-01    1.764384e+00   3.616368e-02
  5.028788e-01    1.727032e+00   3.569213e-02
  5.050893e-01    1.714104e+00   3.547182e-02
  5.072997e-01    1.715575e+00   3.540133e-02
  5.095102e-01    1.706367e+00   3.522161e-02
  5.117206e-01    1.728984e+00   3.536998e-02
  5.139311e-01    1.711877e+00   3.511128e-02
  5.161416e-01    1.699489e+00   3.490132e-02
  5.183520e-01    1.739003e+00   3.522083e-02
  5.205625e-01    1.681099e+00   3.454839e-02
  5.227729e-01    1.660402e+00   3.425493e-02
  5.249834e-01    1.719475e+00   3.477805e-02
  5.271938e-01    1.730257e+00   3.480553e-02
  5.294043e-01    1.726569e+00   3.468816e-02
  5.316148e-01    1.774843e+00   3.508920e-02
  5.338252e-01    1.802262e+00   3.527841e-02
  5.360357e-01    1.796157e+00   3.513844e-02
  5.382461e-01    1.772174e+00   3.482415e-02
  5.404566e-01    1.801281e+00   3.502906e-02
  5.426670e-01    1.780044e+00   3.474350e-02
  5.448775e-01    1.789241e+00   3.475531e-02
  5.470879e-01    1.832035e+00   3.509006e-02
  5.492984e-01    1.759245e+00   3.430944e-02
  5.515089e-01    1.851326e+00   3.511781e-02
  5.537193e-01    1.851218e+00   3.503944e-02
  5.559298e-01    1.798992e+00   3.446588e-02
  5.581402e-01    1.816364e+00   3.455620e-02
  5.603507e-01    1.822841e+00   3.454245e-02
  5.625611e-01    1.790374e+00   3.415912e-02
  5.647716e-01    1.822933e+00   3.439351e-02
  5.669821e-01    1.802515e+00   3.412661e-02
  5.691925e-01    1.804545e+00   3.407253e-02
  5.714030e-01    1.756649e+00   3.354566e-02
  5.736134e-01    1.742064e+00   3.333503e-02
  5.758239e-01    1.723582e+00   3.308697e-02
  5.780343e-01    1.720523e+00   3.298766e-02
  5.802448e-01    1.695457e+00   3.267794e-02
  5.824552e-01    1.657806e+00   3.224527e-02
  5.846657e-01    1.630855e+00   3.191541e-02
  5.868762e-01    1.693152e+00   3.245155e-02
  5.890866e-01    1.693798e+00   3.239042e-02
  5.912971e-01    1.744686e+00   3.280530e-02
  5.935075e-01    1.716923e+00   3.247602e-02
  5.957180e-01    1.663587e+00   3.190200e-02
  5.979284e-01    1.646313e+00   3.167117e-02
  6.001389e-01    1.643435e+00   3.157901e-02
  6.023494e-01    1.693750e+00   3.199369e-02
  6.045598e-01    1.730855e+00   3.227638e-02
  6.067703e-01    1.719399e+00   3.210472e-02
  6.089807e-01    1.660963e+00   3.149099e-02
  6.111912e-01    1.694456e+00   3.174340e-02
  6.134016e-01    1.714231e+00   3.186440e-02
  6.156121e-01    1.715691e+00   3.181462e-02
  6.178226e-01    1.728224e+00   3.186738e-02
  6.200330e-01    1.693843e+00   3.148658e-02
  6.222435e-01    1.721490e+00   3.167962e-02
  6.244539e-01    1.741595e+00   3.180167e-02
  6.266644e-01    1.757030e+00   3.187998e-02
  6.288748e-01    1.695779e+00   3.125843e-02
  6.310853e-01    1.745317e+00   3.165012e-02
  6.332957e-01    1.723315e+00   3.138930e-02
  6.355062e-01    1.724244e+00   3.133674e-02
  6.377167e-01    1.728391e+00   3.131422e-02
  6.399271e-01    1.712940e+00   3.111419e-02
  6.421376e-01    1.752681e+00   3.141299e-02
  6.443480e-01    1.742002e+00   3.125757e-02
  6.465585e-01    1.721897e+00   3.101779e-02
  6.487689e-01    1.748639e+00   3.119870e-02
  6.509794e-01    1.699401e+00   3.069833e-02
  6.531899e-01    1.653527e+00   3.022419e-02
  6.554003e-01    1.660961e+00   3.023511e-02
  6.576108e-01    1.598922e+00   2.960986e-02
  6.598212e-01    1.573776e+00   2.932150e-02
  6.620317e-01    1.613522e+00   2.963442e-02
  6.642421e-01    1.635632e+00   2.978156e-02
  6.664526e-01    1.626435e+00   2.964301e-02
  6.686630e-01    1.627967e+00   2.960213e-02
  6.708735e-01    1.620233e+00   2.947756e-02
  6.730840e-01    1.623001e+00   2.944893e-02
  6.752944e-01    1.673317e+00   2.984756e-02
  6.775049e-01    1.667461e+00   2.974120e-02
  6.797153e-01    1.630265e+00   2.935437e-02
  6.819258e-01    1.617863e+00   2.918974e-02
  6.841362e-01    1.645128e+00   2.938175e-02
  6.863467e-01    1.623612e+00   2.913669e-02
  6.885572e-01    1.636748e+00   2.920190e-02
  6.907676e-01    1.631041e+00   2.909873e-02
  6.929781e-01    1.640419e+00   2.913037e-02
  6.951885e-01    1.636755e+00   2.904630e-02
  6.973990e-01    1.614570e+00   2.879777e-02
  6.996094e-01    1.622099e+00   2.881405e-02
  7.018199e-01    1.630497e+00   2.883783e-02
  7.040303e-01    1.619466e+00   2.868965e-02
  7.062408e-01    1.603717e+00   2.849979e-02
  7.084513e-01    1.632788e+00   2.870692e-02
  7.106617e-01    1.633536e+00   2.866359e-02
  7.128722e-01    1.669508e+00   2.892735e-02
  7.150826e-01    1.628819e+00   2.852343e-02
  7.172931e-01    1.616358e+00   2.836512e-02
  7.195035e-01    1.594841e+00   2.812727e-02
  7.217140e-01    1.566429e+00   2.792491e-02
  7.239245e-01    1.552484e+00   2.802546e-02
  7.261349e-01    1.590851e+00   2.847882e-02
  7.283454e-01    1.579601e+00   2.845046e-02
  7.305558e-01    1.587525e+00   2.857594e-02
  7.327663e-01    1.604499e+00   2.877121e-02
  7.349767e-01    1.636936e+00   2.907726e-02
  7.371872e-01    1.615403e+00   2.887407e-02
  7.393976e-01    1.598466e+00   2.870793e-02
  7.416081e-01    1.628902e+00   2.896350e-02
  7.438186e-01    1.606237e+00   2.861553e-02
  7.460290e-01    1.616667e+00   2.841015e-02
  7.482395e-01    1.599192e+00   2.808368e-02
  7.504499e-01    1.602294e+00   2.797347e-02
  7.526604e-01    1.574397e+00   2.761231e-02
  7.548708e-01    1.574456e+00   2.752343e-02
  7.570813e-01    1.571756e+00   2.744888e-02
  7.592918e-01    1.607554e+00   2.772417e-02
  7.615022e-01    1.620717e+00   2.780315e-02
  7.637127e-01    1.578605e+00   2.740676e-02
  7.659231e-01    1.551343e+00   2.713729e-02
  7.681336e-01    1.570682e+00   2.727435e-02
  7.703440e-01    1.582998e+00   2.734977e-02
  7.725545e-01    1.575583e+00   2.725474e-02
  7.747650e-01    1.644049e+00   2.780159e-02
  7.769754e-01    1.630309e+00   2.763157e-02
  7.791859e-01    1.620155e+00   2.749113e-02
  7.813963e-01    1.637634e+00   2.758548e-02
  7.836068e-01    1.588760e+00   2.711866e-02
  7.858172e-01    1.615662e+00   2.729615e-02
  7.880277e-01    1.636118e+00   2.741616e-02
  7.902381e-01    1.648493e+00   2.746965e-02
  7.924486e-01    1.638984e+00   2.733956e-02
  7.946591e-01    1.648248e+00   2.736771e-02
  7.968695e-01    1.656382e+00   2.738609e-02
  7.990800e-01    1.655866e+00   2.733286e-02
  8.012904e-01    1.672539e+00   2.742261e-02
  8.035009e-01    1.685903e+00   2.748297e-02
  8.057113e-01    1.691505e+00   2.748098e-02
  8.079218e-01    1.686157e+00   2.739016e-02
  8.101323e-01    1.665372e+00   2.717461e-02
  8.123427e-01    1.645059e+00   2.696232e-02
  8.145532e-01    1.684633e+00   2.723800e-02
  8.167636e-01    1.708938e+00   2.738767e-02
  8.189741e-01    1.665682e+00   2.699376e-02
  8.211845e-01    1.648023e+00   2.680528e-02
  8.233950e-01    1.655608e+00   2.682320e-02
  8.256054e-01    1.666151e+00   2.686389e-02
  8.278159e-01    1.674220e+00   2.688441e-02
  8.300264e-01    1.655598e+00   2.669115e-02
  8.322368e-01    1.676834e+00   2.681816e-02
  8.344473e-01    1.668242e+00   2.670562e-02
  8.366577e-01    1.647721e+00   2.649816e-02
  8.388682e-01    1.648669e+00   2.646341e-02
  8.410786e-01    1.664486e+00   2.654766e-02
  8.432891e-01    1.678413e+00   2.661616e-02
  8.454996e-01    1.663367e+00   2.645465e-02
  8.477100e-01    1.656162e+00   2.635540e-02
  8.499205e-01    1.661726e+00   2.635818e-02
  8.521309e-01    1.651469e+00   2.623572e-02
  8.543414e-01    1.667619e+00   2.632257e-02
  8.565518e-01    1.652612e+00   2.616307e-02
  8.587623e-01    1.629781e+00   2.594127e-02
  8.609727e-01    1.616254e+00   2.579332e-02
  8.631832e-01    1.646778e+00   2.599560e-02
  8.653937e-01    1.646594e+00   2.595420e-02
  8.676041e-01    1.657344e+00   2.599951e-02
  8.698146e-01    1.619485e+00   2.566157e-02
  8.720250e-01    1.591389e+00   2.539920e-02
  8.742355e-01    1.620620e+00   2.559239e-02
  8.764459e-01    1.615675e+00   2.551435e-02
  8.786564e-01    1.632308e+00   2.560710e-02
  8.808669e-01    1.596576e+00   2.528690e-02
  8.830773e-01    1.595997e+00   2.524423e-02
  8.852878e-01    1.608216e+00   2.530270e-02
  8.874982e-01    1.603878e+00   2.523186e-02
  8.897087e-01    1.609229e+00   2.523616e-02
  8.919191e-01    1.590226e+00   2.504908e-02
  8.941296e-01    1.621600e+00   2.525742e-02
  8.963401e-01    1.639275e+00   2.535785e-02
  8.985505e-01    1.623183e+00   2.519585e-02
  9.007610e-01    1.597293e+00   2.495738e-02
  9.029714e-01    1.605895e+00   2.498858e-02
  9.051819e-01    1.619389e+00   2.505592e-02
  9.073923e-01    1.601634e+00   2.488158e-02
  9.096028e-01    1.602607e+00   2.485420e-02
  9.118132e-01    1.611417e+00   2.488606e-02
  9.140237e-01    1.609303e+00   2.483301e-02
  9.162342e-01    1.604401e+00   2.476056e-02
  9.184446e-01    1.613714e+00   2.479640e-02
  9.206551e-01    1.610682e+00   2.473739e-02
  9.228655e-01    1.590985e+00   2.455053e-02
  9.250760e-01    1.601650e+00   2.459731e-02
  9.272864e-01    1.634935e+00   2.481699e-02
  9.294969e-01    1.630022e+00   2.474355e-02
  9.317074e-01    1.649472e+00   2.485558e-02
  9.339178e-01    1.643919e+00   2.477980e-02
  9.361283e-01    1.684916e+00   2.504992e-02
  9.383387e-01    1.667983e+00   2.488981e-02
  9.405492e-01    1.692552e+00   2.503745e-02
  9.427596e-01    1.680101e+00   2.490927e-02
  9.449701e-01    1.684151e+00   2.490540e-02
  9.471805e-01    1.678251e+00   2.482651e-02
  9.493910e-01    1.701015e+00   2.496003e-02
  9.516015e-01    1.674872e+00   2.473289e-02
  9.538119e-01    1.697595e+00   2.486599e-02
  9.560224e-01    1.753416e+00   2.523590e-02
  9.582328e-01    1.762207e+00   2.526520e-02
  9.604433e-01    1.753486e+00   2.516687e-02
  9.626537e-01    1.823193e+00   2.562774e-02
  9.648642e-01    1.818700e+00   2.556110e-02
  9.670747e-01    1.815350e+00   2.550233e-02
  9.692851e-01    1.834607e+00   2.560314e-02
  9.714956e-01    1.903800e+00   2.604472e-02
  9.737060e-01    1.912854e+00   2.607229e-02
  9.759165e-01    1.910015e+00   2.601620e-02
  9.781269e-01    1.879436e+00   2.577335e-02
  9.803374e-01    1.922724e+00   2.603238e-02
  9.825478e-01    1.973956e+00   2.634215e-02
  9.847583e-01    1.922885e+00   2.596387e-02
  9.869688e-01    1.808677e+00   2.514732e-02
  9.891792e-01    1.778057e+00   2.490037e-02
  9.913897e-01    1.806695e+00   2.506623e-02
  9.936001e-01    1.756759e+00   2.468505e-02
  9.958106e-01    1.717145e+00   2.437198e-02
  9.980210e-01    1.694728e+00   2.418093e-02
  1.000231e+00    1.703011e+00   2.437275e-02
  1.002442e+00    1.650316e+00   2.412020e-02
  1.004652e+00    1.643093e+00   2.413448e-02
  1.006863e+00    1.617851e+00   2.399809e-02
  1.009073e+00    1.601312e+00   2.391165e-02
  1.011284e+00    1.584139e+00   2.381488e-02
  1.013494e+00    1.612336e+00   2.404971e-02
  1.015705e+00    1.580434e+00   2.383311e-02
  1.017915e+00    1.561200e+00   2.370396e-02
  1.020126e+00    1.553031e+00   2.365784e-02
  1.022336e+00    1.548942e+00   2.363831e-02
  1.024547e+00    1.556639e+00   2.370822e-02
  1.026757e+00    1.540749e+00   2.359525e-02
  1.028967e+00    1.533648e+00   2.354848e-02
  1.031178e+00    1.499632e+00   2.329194e-02
  1.033388e+00    1.513711e+00   2.340605e-02
  1.035599e+00    1.540972e+00   2.361931e-02
  1.037809e+00    1.512820e+00   2.340582e-02
  1.040020e+00    1.502385e+00   2.332622e-02
  1.042230e+00    1.485269e+00   2.319488e-02
  1.044441e+00    1.492725e+00   2.325280e-02
  1.046651e+00    1.501264e+00   2.331939e-02
  1.048862e+00    1.532494e+00   2.355988e-02
  1.051072e+00    1.543846e+00   2.364461e-02
  1.053282e+00    1.516629e+00   2.343431e-02
  1.055493e+00    1.508709e+00   2.336871e-02
  1.057703e+00    1.503676e+00   2.332818e-02
  1.059914e+00    1.521658e+00   2.346294e-02
  1.062124e+00    1.512488e+00   2.338805e-02
  1.064335e+00    1.505883e+00   2.333346e-02
  1.066545e+00    1.539621e+00   2.358728e-02
  1.068756e+00    1.530034e+00   2.350995e-02
  1.070966e+00    1.494837e+00   2.323138e-02
  1.073177e+00    1.529554e+00   2.349342e-02
  1.075387e+00    1.512074e+00   2.335350e-02
  1.077597e+00    1.513444e+00   2.335671e-02
  1.079808e+00    1.498031e+00   2.310321e-02
  1.082018e+00    1.461313e+00   2.262934e-02
  1.084229e+00    1.471096e+00   2.259451e-02
  1.086439e+00    1.481785e+00   2.258823e-02
  1.088650e+00    1.471045e+00   2.243012e-02
  1.090860e+00    1.453349e+00   2.222720e-02
  1.093071e+00    1.437901e+00   2.204683e-02
  1.095281e+00    1.481522e+00   2.232079e-02
  1.097492e+00    1.489901e+00   2.232807e-02
  1.099702e+00    1.491296e+00   2.228623e-02
  1.101912e+00    1.484349e+00   2.218467e-02
  1.104123e+00    1.462111e+00   2.196920e-02
  1.106333e+00    1.455686e+00   2.187609e-02
  1.108544e+00    1.446613e+00   2.176331e-02
  1.110754e+00    1.413493e+00   2.146989e-02
  1.112965e+00    1.451092e+00   2.171263e-02
  1.115175e+00    1.418870e+00   2.142905e-02
  1.117386e+00    1.434188e+00   2.150486e-02
  1.119596e+00    1.453810e+00   2.161308e-02
  1.121807e+00    1.403771e+00   2.119912e-02
  1.124017e+00    1.431257e+00   2.136868e-02
  1.126228e+00    1.498620e+00   2.182882e-02
  1.128438e+00    1.544932e+00   2.212496e-02
  1.130648e+00    1.516832e+00   2.188712e-02
  1.132859e+00    1.442009e+00   2.130554e-02
  1.135069e+00    1.410314e+00   2.103514e-02
  1.137280e+00    1.410434e+00   2.100278e-02
  1.139490e+00    1.404271e+00   2.092359e-02
  1.141701e+00    1.404978e+00   2.089548e-02
  1.143911e+00    1.408543e+00   2.088984e-02
  1.146122e+00    1.383669e+00   2.067252e-02
  1.148332e+00    1.372205e+00   2.055490e-02
  1.150543e+00    1.372688e+00   2.052774e-02
  1.152753e+00    1.394663e+00   2.066035e-02
  1.154963e+00    1.406798e+00   2.071863e-02
  1.157174e+00    1.382415e+00   2.050802e-02
  1.159384e+00    1.386517e+00   2.050844e-02
  1.161595e+00    1.377640e+00   2.041274e-02
  1.163805e+00    1.396928e+00   2.052558e-02
  1.166016e+00    1.392321e+00   2.046201e-02
  1.168226e+00    1.375235e+00   2.030705e-02
  1.170437e+00    1.359793e+00   2.016413e-02
  1.172647e+00    1.342317e+00   2.000551e-02
  1.174858e+00    1.370746e+00   2.018806e-02
  1.177068e+00    1.397914e+00   2.035853e-02
  1.179278e+00    1.419444e+00   2.048554e-02
  1.181489e+00    1.398180e+00   2.030414e-02
  1.183699e+00    1.373296e+00   2.009491e-02
  1.185910e+00    1.389924e+00   2.018810e-02
  1.188120e+00    1.396542e+00   2.020905e-02
  1.190331e+00    1.392621e+00   2.015352e-02
  1.192541e+00    1.345404e+00   1.978166e-02
  1.194752e+00    1.310754e+00   1.949860e-02
  1.196962e+00    1.362402e+00   1.985320e-02
  1.199173e+00    1.356915e+00   1.978662e-02
  1.201383e+00    1.362207e+00   1.979789e-02
  1.203593e+00    1.357490e+00   1.973870e-02
  1.205804e+00    1.356991e+00   1.970909e-02
  1.208014e+00    1.368191e+00   1.976321e-02
  1.210225e+00    1.475546e+00   2.049739e-02
  1.212435e+00    1.777506e+00   2.246872e-02
  1.214646e+00    1.745674e+00   2.223708e-02
  1.216856e+00    1.535858e+00   2.083075e-02
  1.219067e+00    1.447193e+00   2.019519e-02
  1.221277e+00    1.388369e+00   1.975511e-02
  1.223488e+00    1.387548e+00   1.972314e-02
  1.225698e+00    1.396972e+00   1.976266e-02
  1.227909e+00    1.359937e+00   1.946864e-02
  1.230119e+00    1.363852e+00   1.946464e-02
  1.232329e+00    1.346858e+00   1.931231e-02
  1.234540e+00    1.359897e+00   1.937516e-02
  1.236750e+00    1.355918e+00   1.931646e-02
  1.238961e+00    1.385783e+00   1.950071e-02
  1.241171e+00    1.375583e+00   1.940439e-02
  1.243382e+00    1.410994e+00   1.962852e-02
  1.245592e+00    1.409225e+00   1.959162e-02
  1.247803e+00    1.392926e+00   1.945395e-02
  1.250013e+00    1.404942e+00   1.951365e-02
  1.252224e+00    1.418656e+00   1.958484e-02
  1.254434e+00    1.432344e+00   1.965463e-02
  1.256644e+00    1.413718e+00   1.950269e-02
  1.258855e+00    1.416310e+00   1.949671e-02
  1.261065e+00    1.391265e+00   1.929985e-02
  1.263276e+00    1.355571e+00   1.902768e-02
  1.265486e+00    1.334159e+00   1.885404e-02
  1.267697e+00    1.374347e+00   1.911268e-02
  1.269907e+00    1.358732e+00   1.898102e-02
  1.272118e+00    1.352359e+00   1.891387e-02
  1.274328e+00    1.355034e+00   1.890977e-02
  1.276539e+00    1.363202e+00   1.894379e-02
  1.278749e+00    1.372451e+00   1.898546e-02
  1.280959e+00    1.450799e+00   1.949647e-02
  1.283170e+00    1.526317e+00   1.997362e-02
  1.285380e+00    1.535117e+00   2.000721e-02
  1.287591e+00    1.456928e+00   1.946815e-02
  1.289801e+00    1.407086e+00   1.911057e-02
  1.292012e+00    1.378072e+00   1.889523e-02
  1.294222e+00    1.361899e+00   1.876771e-02
  1.296433e+00    1.372198e+00   1.882281e-02
  1.298643e+00    1.380598e+00   1.886368e-02
  1.300854e+00    1.379621e+00   1.884042e-02
  1.303064e+00    1.391773e+00   1.890368e-02
  1.305274e+00    1.387315e+00   1.885167e-02
  1.307485e+00    1.360473e+00   1.864676e-02
  1.309695e+00    1.383124e+00   1.877884e-02
  1.311906e+00    1.374828e+00   1.870053e-02
  1.314116e+00    1.366526e+00   1.862307e-02
  1.316327e+00    1.385957e+00   1.873301e-02
  1.318537e+00    1.418885e+00   1.893182e-02
  1.320748e+00    1.372227e+00   1.859622e-02
  1.322958e+00    1.362271e+00   1.850801e-02
  1.325169e+00    1.393008e+00   1.869429e-02
  1.327379e+00    1.398208e+00   1.870696e-02
  1.329589e+00    1.393064e+00   1.865111e-02
  1.331800e+00    1.377727e+00   1.852725e-02
  1.334010e+00    1.384929e+00   1.855469e-02
  1.336221e+00    1.394297e+00   1.859524e-02
  1.338431e+00    1.396111e+00   1.858610e-02
  1.340642e+00    1.387255e+00   1.859211e-02
  1.342852e+00    1.382679e+00   1.866332e-02
  1.345063e+00    1.366310e+00   1.860228e-02
  1.347273e+00    1.361922e+00   1.860780e-02
  1.349484e+00    1.369413e+00   1.868676e-02
  1.351694e+00    1.366838e+00   1.869204e-02
  1.353905e+00    1.363921e+00   1.869018e-02
  1.356115e+00    1.352492e+00   1.862675e-02
  1.358325e+00    1.362373e+00   1.870806e-02
  1.360536e+00    1.345312e+00   1.860215e-02
  1.362746e+00    1.358360e+00   1.870173e-02
  1.364957e+00    1.342412e+00   1.859928e-02
  1.367167e+00    1.357459e+00   1.871040e-02
  1.369378e+00    1.342600e+00   1.861373e-02
  1.371588e+00    1.320327e+00   1.846377e-02
  1.373799e+00    1.339931e+00   1.860400e-02
  1.376009e+00    1.328960e+00   1.853108e-02
  1.378220e+00    1.323716e+00   1.849699e-02
  1.380430e+00    1.335243e+00   1.858007e-02
  1.382640e+00    1.323179e+00   1.849685e-02
  1.384851e+00    1.322688e+00   1.849430e-02
  1.387061e+00    1.314014e+00   1.843384e-02
  1.389272e+00    1.313225e+00   1.842852e-02
  1.391482e+00    1.302340e+00   1.835132e-02
  1.393693e+00    1.298709e+00   1.832484e-02
  1.395903e+00    1.298604e+00   1.832258e-02
  1.398114e+00    1.298467e+00   1.832025e-02
  1.400324e+00    1.281559e+00   1.819843e-02
  1.402535e+00    1.296373e+00   1.830098e-02
  1.404745e+00    1.277999e+00   1.816847e-02
  1.406955e+00    1.292858e+00   1.827105e-02
  1.409166e+00    1.297860e+00   1.830304e-02
  1.411376e+00    1.259209e+00   1.802534e-02
  1.413587e+00    1.297636e+00   1.829443e-02
  1.415797e+00    1.260845e+00   1.802973e-02
  1.418008e+00    1.262292e+00   1.799830e-02
  1.420218e+00    1.258561e+00   1.782264e-02
  1.422429e+00    1.280322e+00   1.789040e-02
  1.424639e+00    1.264274e+00   1.771338e-02
  1.426850e+00    1.276325e+00   1.774278e-02
  1.429060e+00    1.273174e+00   1.767180e-02
  1.431270e+00    1.278901e+00   1.766704e-02
  1.433481e+00    1.270740e+00   1.756961e-02
  1.435691e+00    1.292637e+00   1.768157e-02
  1.437902e+00    1.282320e+00   1.757422e-02
  1.440112e+00    1.292725e+00   1.760973e-02
  1.442323e+00    1.283607e+00   1.751430e-02
  1.444533e+00    1.253844e+00   1.727771e-02
  1.446744e+00    1.268431e+00   1.734680e-02
  1.448954e+00    1.284919e+00   1.742882e-02
  1.451165e+00    1.284694e+00   1.739737e-02
  1.453375e+00    1.270995e+00   1.727631e-02
  1.455586e+00    1.261343e+00   1.718252e-02
  1.457796e+00    1.255508e+00   1.711538e-02
  1.460006e+00    1.271804e+00   1.719881e-02
  1.462217e+00    1.269922e+00   1.715987e-02
  1.464427e+00    1.269342e+00   1.713034e-02
  1.466638e+00    1.289477e+00   1.724014e-02
  1.468848e+00    1.307672e+00   1.733563e-02
  1.471059e+00    1.301649e+00   1.727027e-02
  1.473269e+00    1.281220e+00   1.710971e-02
  1.475480e+00    1.276745e+00   1.705596e-02
  1.477690e+00    1.284281e+00   1.708223e-02
  1.479901e+00    1.257651e+00   1.688048e-02
  1.482111e+00    1.261995e+00   1.688631e-02
  1.484321e+00    1.256767e+00   1.682829e-02
  1.486532e+00    1.259471e+00   1.682409e-02
  1.488742e+00    1.274736e+00   1.690301e-02
  1.490953e+00    1.279160e+00   1.690959e-02
  1.493163e+00    1.266151e+00   1.680109e-02
  1.495374e+00    1.225510e+00   1.650806e-02
  1.497584e+00    1.252502e+00   1.666729e-02
  1.499795e+00    1.273052e+00   1.678172e-02
  1.502005e+00    1.261174e+00   1.668156e-02
  1.504216e+00    1.256340e+00   1.662852e-02
  1.506426e+00    1.285927e+00   1.680215e-02
  1.508636e+00    1.268550e+00   1.666772e-02
  1.510847e+00    1.267203e+00   1.663695e-02
  1.513057e+00    1.254337e+00   1.652719e-02
  1.515268e+00    1.259757e+00   1.653710e-02
  1.517478e+00    1.279603e+00   1.664144e-02
  1.519689e+00    1.283417e+00   1.664097e-02
  1.521899e+00    1.300507e+00   1.672788e-02
  1.524110e+00    1.284984e+00   1.660716e-02
  1.526320e+00    1.258851e+00   1.641777e-02
  1.528531e+00    1.259440e+00   1.640178e-02
  1.530741e+00    1.271278e+00   1.645938e-02
  1.532951e+00    1.242115e+00   1.624998e-02
  1.535162e+00    1.255504e+00   1.642411e-02
  1.537372e+00    1.240979e+00   1.639553e-02
  1.539583e+00    1.223523e+00   1.631369e-02
  1.541793e+00    1.227005e+00   1.634378e-02
  1.544004e+00    1.228251e+00   1.635234e-02
  1.546214e+00    1.244610e+00   1.645934e-02
  1.548425e+00    1.260237e+00   1.656264e-02
  1.550635e+00    1.248598e+00   1.649566e-02
  1.552846e+00    1.262037e+00   1.659393e-02
  1.555056e+00    1.253485e+00   1.649599e-02
  1.557266e+00    1.236577e+00   1.627426e-02
  1.559477e+00    1.214607e+00   1.607062e-02
  1.561687e+00    1.247403e+00   1.625543e-02
  1.563898e+00    1.262406e+00   1.633561e-02
  1.566108e+00    1.255459e+00   1.627459e-02
  1.568319e+00    1.241072e+00   1.616547e-02
  1.570529e+00    1.238822e+00   1.612572e-02
  1.572740e+00    1.262845e+00   1.625350e-02
  1.574950e+00    1.269790e+00   1.627157e-02
  1.577161e+00    1.251560e+00   1.612879e-02
  1.579371e+00    1.263910e+00   1.618432e-02
  1.581582e+00    1.259517e+00   1.613629e-02
  1.583792e+00    1.263143e+00   1.614133e-02
  1.586002e+00    1.264040e+00   1.612931e-02
  1.588213e+00    1.295560e+00   1.631157e-02
  1.590423e+00    1.313975e+00   1.640645e-02
  1.592634e+00    1.322453e+00   1.643704e-02
  1.594844e+00    1.278829e+00   1.614195e-02
  1.597055e+00    1.258245e+00   1.599088e-02
  1.599265e+00    1.265779e+00   1.601775e-02
  1.601476e+00    1.239650e+00   1.583128e-02
  1.603686e+00    1.247252e+00   1.585992e-02
  1.605897e+00    1.235345e+00   1.576390e-02
  1.608107e+00    1.253051e+00   1.585679e-02
  1.610317e+00    1.235044e+00   1.572316e-02
  1.612528e+00    1.240300e+00   1.573735e-02
  1.614738e+00    1.251101e+00   1.578663e-02
  1.616949e+00    1.238611e+00   1.568858e-02
  1.619159e+00    1.213643e+00   1.551098e-02
  1.621370e+00    1.229308e+00   1.559223e-02
  1.623580e+00    1.231409e+00   1.558709e-02
  1.625791e+00    1.181462e+00   1.524966e-02
  1.628001e+00    1.195105e+00   1.531922e-02
  1.630212e+00    1.184715e+00   1.523482e-02
  1.632422e+00    1.152749e+00   1.501024e-02
  1.634632e+00    1.156280e+00   1.501607e-02
  1.636843e+00    1.180191e+00   1.515299e-02
  1.639053e+00    1.163908e+00   1.503089e-02
  1.641264e+00    1.162511e+00   1.500480e-02
  1.643474e+00    1.168734e+00   1.502749e-02
  1.645685e+00    1.160917e+00   1.496045e-02
  1.647895e+00    1.155926e+00   1.491167e-02
  1.650106e+00    1.136014e+00   1.476580e-02
  1.652316e+00    1.128930e+00   1.470332e-02
  1.654527e+00    1.129556e+00   1.469085e-02
  1.656737e+00    1.122097e+00   1.462578e-02
  1.658947e+00    1.122834e+00   1.461438e-02
  1.661158e+00    1.147026e+00   1.475454e-02
  1.663368e+00    1.183647e+00   1.497180e-02
  1.665579e+00    1.165874e+00   1.484248e-02
  1.667789e+00    1.157618e+00   1.477331e-02
  1.670000e+00    1.125720e+00   1.455278e-02
  1.672210e+00    1.110883e+00   1.444064e-02
  1.674421e+00    1.136566e+00   1.459109e-02
  1.676631e+00    1.134133e+00   1.455935e-02
  1.678842e+00    1.130340e+00   1.451901e-02
  1.681052e+00    1.107135e+00   1.435370e-02
  1.683263e+00    1.102659e+00   1.430945e-02
  1.685473e+00    1.109902e+00   1.434103e-02
  1.687683e+00    1.118382e+00   1.438005e-02
  1.689894e+00    1.101313e+00   1.425397e-02
  1.692104e+00    1.079925e+00   1.409995e-02
  1.694315e+00    1.085106e+00   1.411914e-02
  1.696525e+00    1.066865e+00   1.398482e-02
  1.698736e+00    1.092304e+00   1.413554e-02
  1.700946e+00    1.113236e+00   1.425486e-02
  1.703157e+00    1.081317e+00   1.403421e-02
  1.705367e+00    1.083540e+00   1.403391e-02
  1.707578e+00    1.063667e+00   1.388995e-02
  1.709788e+00    1.071195e+00   1.392472e-02
  1.711998e+00    1.065522e+00   1.387262e-02
  1.714209e+00    1.109636e+00   1.414196e-02
  1.716419e+00    1.075115e+00   1.390571e-02
  1.718630e+00    1.039326e+00   1.365798e-02
  1.720840e+00    1.021650e+00   1.352719e-02
  1.723051e+00    1.007297e+00   1.341809e-02
  1.725261e+00    1.019077e+00   1.348166e-02
  1.727472e+00    1.010782e+00   1.341255e-02
  1.729682e+00    1.017731e+00   1.344511e-02
  1.731893e+00    1.031583e+00   1.352224e-02
  1.734103e+00    1.015301e+00   1.340129e-02
  1.736313e+00    1.012807e+00   1.337074e-02
  1.738524e+00    1.022935e+00   1.342347e-02
  1.740734e+00    1.017245e+00   1.337226e-02
  1.742945e+00    1.011314e+00   1.331968e-02
  1.745155e+00    9.894423e-01   1.316142e-02
  1.747366e+00    9.689437e-01   1.301070e-02
  1.749576e+00    9.732985e-01   1.302632e-02
  1.751787e+00    9.671091e-01   1.297159e-02
  1.753997e+00    9.743005e-01   1.300641e-02
  1.756208e+00    9.530235e-01   1.285053e-02
  1.758418e+00    9.690692e-01   1.294518e-02
  1.760628e+00    9.603857e-01   1.287375e-02
  1.762839e+00    9.584544e-01   1.284762e-02
  1.765049e+00    9.702218e-01   1.291308e-02
  1.767260e+00    9.654115e-01   1.286819e-02
  1.769470e+00    9.702038e-01   1.288698e-02
  1.771681e+00    9.933450e-01   1.302636e-02
  1.773891e+00    9.882519e-01   1.297962e-02
  1.776102e+00    9.692651e-01   1.284129e-02
  1.778312e+00    9.866287e-01   1.294282e-02
  1.780523e+00    9.362627e-01   1.259543e-02
  1.782733e+00    9.460499e-01   1.264834e-02
  1.784944e+00    9.667999e-01   1.277321e-02
  1.787154e+00    9.886318e-01   1.290371e-02
  1.789364e+00    1.051125e+00   1.329202e-02
  1.791575e+00    1.077412e+00   1.344371e-02
  1.793785e+00    1.010325e+00   1.300548e-02
  1.795996e+00    9.818401e-01   1.280789e-02
  1.798206e+00    9.580606e-01   1.263905e-02
  1.800417e+00    9.464276e-01   1.254920e-02
  1.802627e+00    9.195719e-01   1.235791e-02
  1.804838e+00    9.404815e-01   1.248529e-02
  1.807048e+00    9.316935e-01   1.241385e-02
  1.809259e+00    9.104418e-01   1.225782e-02
  1.811469e+00    9.031178e-01   1.219347e-02
  1.813679e+00    8.835427e-01   1.204577e-02
  1.815890e+00    8.797092e-01   1.200501e-02
  1.818100e+00    8.947108e-01   1.209186e-02
  1.820311e+00    8.675843e-01   1.189258e-02
  1.822521e+00    8.753406e-01   1.193092e-02
  1.824732e+00    8.702056e-01   1.188120e-02
  1.826942e+00    8.792035e-01   1.193020e-02
  1.829153e+00    8.763936e-01   1.189949e-02
  1.831363e+00    8.747113e-01   1.187610e-02
  1.833574e+00    8.744720e-01   1.186284e-02
  1.835784e+00    8.748604e-01   1.185406e-02
  1.837994e+00    8.844787e-01   1.190731e-02
  1.840205e+00    8.656623e-01   1.176884e-02
  1.842415e+00    8.642946e-01   1.174784e-02
  1.844626e+00    8.478693e-01   1.162425e-02
  1.846836e+00    8.626620e-01   1.171382e-02
  1.849047e+00    8.824333e-01   1.183558e-02
  1.851257e+00    8.891075e-01   1.187055e-02
  1.853468e+00    8.673859e-01   1.171583e-02
  1.855678e+00    8.695765e-01   1.172168e-02
  1.857889e+00    8.470595e-01   1.156048e-02
  1.860099e+00    8.665713e-01   1.168417e-02
  1.862309e+00    8.654104e-01   1.166782e-02
  1.864520e+00    8.501179e-01   1.155571e-02
  1.866730e+00    8.571606e-01   1.159407e-02
  1.868941e+00    8.639553e-01   1.162892e-02
  1.871151e+00    8.695652e-01   1.165511e-02
  1.873362e+00    8.521309e-01   1.152633e-02
  1.875572e+00    8.420977e-01   1.144739e-02
  1.877783e+00    8.348334e-01   1.138655e-02
  1.879993e+00    8.227697e-01   1.129301e-02
  1.882204e+00    8.260936e-01   1.130498e-02
  1.884414e+00    8.482095e-01   1.144422e-02
  1.886624e+00    8.533715e-01   1.146786e-02
  1.888835e+00    8.362161e-01   1.134107e-02
  1.891045e+00    8.423167e-01   1.137146e-02
  1.893256e+00    8.413009e-01   1.135349e-02
  1.895466e+00    8.290611e-01   1.125950e-02
  1.897677e+00    8.309437e-01   1.126137e-02
  1.899887e+00    8.302379e-01   1.124564e-02
  1.902098e+00    8.354045e-01   1.126970e-02
  1.904308e+00    8.340474e-01   1.124994e-02
  1.906519e+00    8.354686e-01   1.124868e-02
  1.908729e+00    8.283445e-01   1.118997e-02
  1.910940e+00    8.383647e-01   1.124627e-02
  1.913150e+00    8.293119e-01   1.117478e-02
  1.915360e+00    8.202283e-01   1.110280e-02
  1.917571e+00    8.103865e-01   1.102522e-02
  1.919781e+00    8.129805e-01   1.103221e-02
  1.921992e+00    8.251995e-01   1.110415e-02
  1.924202e+00    8.679811e-01   1.137724e-02
  1.926413e+00    8.866994e-01   1.148857e-02
  1.928623e+00    8.514553e-01   1.124717e-02
  1.930834e+00    8.019002e-01   1.090459e-02
  1.933044e+00    8.059655e-01   1.092155e-02
  1.935255e+00    8.277789e-01   1.105792e-02
  1.937465e+00    8.188366e-01   1.098757e-02
  1.939675e+00    8.150236e-01   1.095105e-02
  1.941886e+00    8.233919e-01   1.099674e-02
  1.944096e+00    8.247287e-01   1.099533e-02
  1.946307e+00    8.161867e-01   1.092782e-02
  1.948517e+00    8.111298e-01   1.088340e-02
  1.950728e+00    8.031295e-01   1.081932e-02
  1.952938e+00    7.996686e-01   1.078588e-02
  1.955149e+00    8.008525e-01   1.078360e-02
  1.957359e+00    7.968282e-01   1.074642e-02
  1.959570e+00    8.000639e-01   1.075731e-02
  1.961780e+00    8.074188e-01   1.079664e-02
  1.963990e+00    7.997054e-01   1.073477e-02
  1.966201e+00    7.981129e-01   1.071398e-02
  1.968411e+00    7.948539e-01   1.068188e-02
  1.970622e+00    7.936693e-01   1.066381e-02
  1.972832e+00    7.976773e-01   1.068064e-02
  1.975043e+00    8.121143e-01   1.076666e-02
  1.977253e+00    8.163463e-01   1.078454e-02
  1.979464e+00    8.279302e-01   1.085046e-02
  1.981674e+00    8.153583e-01   1.075731e-02
  1.983885e+00    8.062832e-01   1.068710e-02
  1.986095e+00    8.057034e-01   1.067338e-02
  1.988305e+00    7.868301e-01   1.053771e-02
  1.990516e+00    7.804180e-01   1.048473e-02
  1.992726e+00    7.811389e-01   1.047989e-02
  1.994937e+00    7.995012e-01   1.059208e-02
  1.997147e+00    7.742841e-01   1.041399e-02
  1.999358e+00    7.794119e-01   1.043852e-02
  2.001568e+00    7.870152e-01   1.047840e-02
  2.003779e+00    7.940643e-01   1.051315e-02
  2.005989e+00    7.989448e-01   1.053317e-02
  2.008200e+00    8.081184e-01   1.058167e-02
  2.010410e+00    7.902076e-01   1.045185e-02
  2.012621e+00    7.862967e-01   1.041409e-02
  2.014831e+00    7.816816e-01   1.037193e-02
  2.017041e+00    7.702687e-01   1.028552e-02
  2.019252e+00    7.588289e-01   1.019894e-02
  2.021462e+00    7.948235e-01   1.042832e-02
  2.023673e+00    7.882156e-01   1.037537e-02
  2.025883e+00    8.001240e-01   1.044370e-02
  2.028094e+00    7.755100e-01   1.027209e-02
  2.030304e+00    7.772799e-01   1.027416e-02
  2.032515e+00    7.841312e-01   1.030991e-02
  2.034725e+00    7.796603e-01   1.027090e-02
  2.036936e+00    7.791263e-01   1.025791e-02
  2.039146e+00    7.769064e-01   1.023361e-02
  2.041356e+00    7.761377e-01   1.021877e-02
  2.043567e+00    7.762980e-01   1.021039e-02
  2.045777e+00    7.906725e-01   1.029502e-02
  2.047988e+00    7.681241e-01   1.013773e-02
  2.050198e+00    7.673611e-01   1.012417e-02
  2.052409e+00    7.676234e-01   1.011816e-02
  2.054619e+00    7.679573e-01   1.011292e-02
  2.056830e+00    7.650992e-01   1.008684e-02
  2.059040e+00    7.689140e-01   1.010435e-02
  2.061251e+00    7.546202e-01   1.000273e-02
  2.063461e+00    7.643232e-01   1.005914e-02
  2.065671e+00    7.535660e-01   9.979380e-03
  2.067882e+00    7.597062e-01   1.001087e-02
  2.070092e+00    7.550449e-01   9.970875e-03
  2.072303e+00    7.701607e-01   1.006089e-02
  2.074513e+00    7.764819e-01   1.009261e-02
  2.076724e+00    7.585588e-01   9.965880e-03
  2.078934e+00    7.554026e-01   9.936053e-03
  2.081145e+00    7.413809e-01   9.834344e-03
  2.083355e+00    7.557720e-01   9.920035e-03
  2.085566e+00    7.617039e-01   9.949886e-03
  2.087776e+00    7.539871e-01   9.889755e-03
  2.089986e+00    7.654313e-01   9.955570e-03
  2.092197e+00    8.015118e-01   1.017816e-02
  2.094407e+00    8.069685e-01   1.020312e-02
  2.096618e+00    7.701703e-01   9.958668e-03
  2.098828e+00    7.552446e-01   9.852250e-03
  2.101039e+00    7.495698e-01   9.806080e-03
  2.103249e+00    7.327941e-01   9.687054e-03
  2.105460e+00    7.273275e-01   9.641854e-03
  2.107670e+00    7.398737e-01   9.715831e-03
  2.109881e+00    7.358289e-01   9.680060e-03
  2.112091e+00    7.221556e-01   9.580703e-03
  2.114301e+00    7.288613e-01   9.616293e-03
  2.116512e+00    7.382722e-01   9.669275e-03
  2.118722e+00    7.330423e-01   9.626097e-03
  2.120933e+00    7.104678e-01   9.467904e-03
  2.123143e+00    7.147831e-01   9.487722e-03
  2.125354e+00    7.152027e-01   9.482007e-03
  2.127564e+00    7.210660e-01   9.512015e-03
  2.129775e+00    7.292010e-01   9.556735e-03
  2.131985e+00    7.282765e-01   9.541517e-03
  2.134196e+00    7.108669e-01   9.418219e-03
  2.136406e+00    7.117060e-01   9.415022e-03
  2.138617e+00    7.142116e-01   9.423104e-03
  2.140827e+00    7.162954e-01   9.452989e-03
  2.143037e+00    7.139363e-01   9.483106e-03
  2.145248e+00    7.116132e-01   9.489751e-03
  2.147458e+00    7.159232e-01   9.533706e-03
  2.149669e+00    7.185939e-01   9.563465e-03
  2.151879e+00    7.009974e-01   9.454873e-03
  2.154090e+00    7.031395e-01   9.476594e-03
  2.156300e+00    7.189942e-01   9.589559e-03
  2.158511e+00    7.193241e-01   9.597133e-03
  2.160721e+00    7.110415e-01   9.546581e-03
  2.162932e+00    7.011545e-01   9.483736e-03
  2.165142e+00    6.891623e-01   9.405272e-03
  2.167352e+00    6.853830e-01   9.382335e-03
  2.169563e+00    6.996326e-01   9.481330e-03
  2.171773e+00    7.035956e-01   9.510613e-03
  2.173984e+00    6.973826e-01   9.469942e-03
  2.176194e+00    6.970412e-01   9.468826e-03
  2.178405e+00    6.917444e-01   9.433485e-03
  2.180615e+00    7.012928e-01   9.499043e-03
  2.182826e+00    6.905409e-01   9.426633e-03
  2.185036e+00    7.027398e-01   9.509579e-03
  2.187247e+00    6.987055e-01   9.482198e-03
  2.189457e+00    6.945782e-01   9.453735e-03
  2.191667e+00    6.908190e-01   9.427940e-03
  2.193878e+00    7.137654e-01   9.582666e-03
  2.196088e+00    7.036558e-01   9.513882e-03
  2.198299e+00    6.895316e-01   9.416812e-03
  2.200509e+00    6.888340e-01   9.410986e-03
  2.202720e+00    6.881485e-01   9.405139e-03
  2.204930e+00    6.775000e-01   9.330866e-03
  2.207141e+00    6.854616e-01   9.384386e-03
  2.209351e+00    6.974598e-01   9.464274e-03
  2.211562e+00    6.748297e-01   9.307856e-03
  2.213772e+00    6.675374e-01   9.202315e-03
  2.215982e+00    6.786130e-01   9.234045e-03
  2.218193e+00    6.730603e-01   9.166630e-03
  2.220403e+00    6.722368e-01   9.136464e-03
  2.222614e+00    6.857053e-01   9.206406e-03
  2.224824e+00    6.827740e-01   9.167186e-03
  2.227035e+00    6.773295e-01   9.113083e-03
  2.229245e+00    6.809087e-01   9.120028e-03
  2.231456e+00    6.680259e-01   9.017765e-03
  2.233666e+00    6.637054e-01   8.973549e-03
  2.235877e+00    6.644239e-01   8.964199e-03
  2.238087e+00    6.569621e-01   8.900365e-03
  2.240298e+00    6.657878e-01   8.946230e-03
  2.242508e+00    6.696721e-01   8.957134e-03
  2.244718e+00    6.767194e-01   8.988245e-03
  2.246929e+00    6.735784e-01   8.952899e-03
  2.249139e+00    6.739675e-01   8.943025e-03
  2.251350e+00    6.711413e-01   8.912518e-03
  2.253560e+00    6.690029e-01   8.886726e-03
  2.255771e+00    6.671717e-01   8.863120e-03
  2.257981e+00    6.639400e-01   8.830478e-03
  2.260192e+00    6.713946e-01   8.868721e-03
  2.262402e+00    6.623142e-01   8.797740e-03
  2.264613e+00    6.589255e-01   8.764377e-03
  2.266823e+00    6.694671e-01   8.823770e-03
  2.269033e+00    6.833852e-01   8.904487e-03
  2.271244e+00    6.704568e-01   8.809401e-03
  2.273454e+00    6.689360e-01   8.789092e-03
  2.275665e+00    6.665615e-01   8.763137e-03
  2.277875e+00    6.634623e-01   8.732798e-03
  2.280086e+00    6.470964e-01   8.614479e-03
  2.282296e+00    6.585636e-01   8.681052e-03
  2.284507e+00    6.755979e-01   8.782358e-03
  2.286717e+00    6.604369e-01   8.673783e-03
  2.288928e+00    6.473176e-01   8.577403e-03
  2.291138e+00    6.602998e-01   8.653524e-03
  2.293348e+00    6.548126e-01   8.607982e-03
  2.295559e+00    6.555653e-01   8.603597e-03
  2.297769e+00    6.563223e-01   8.599313e-03
  2.299980e+00    6.528093e-01   8.566940e-03
  2.302190e+00    6.517715e-01   8.550994e-03
  2.304401e+00    6.655944e-01   8.631781e-03
  2.306611e+00    6.735238e-01   8.673714e-03
  2.308822e+00    6.512527e-01   8.520710e-03
  2.311032e+00    6.594395e-01   8.567599e-03
  2.313243e+00    6.517775e-01   8.511413e-03
  2.315453e+00    6.504803e-01   8.495344e-03
  2.317663e+00    6.436840e-01   8.441759e-03
  2.319874e+00    6.441085e-01   8.435817e-03
  2.322084e+00    6.476045e-01   8.449712e-03
  2.324295e+00    6.511916e-01   8.464817e-03
  2.326505e+00    6.294783e-01   8.313551e-03
  2.328716e+00    6.359340e-01   8.347566e-03
  2.330926e+00    6.410321e-01   8.372174e-03
  2.333137e+00    6.447042e-01   8.387730e-03
  2.335347e+00    6.380867e-01   8.335739e-03
  2.337558e+00    6.218045e-01   8.220586e-03
  2.339768e+00    6.277428e-01   8.251232e-03
  2.341979e+00    6.380060e-01   8.310063e-03
  2.344189e+00    6.433524e-01   8.336374e-03
  2.346399e+00    6.540199e-01   8.396599e-03
  2.348610e+00    6.412349e-01   8.305614e-03
  2.350820e+00    6.355925e-01   8.260837e-03
  2.353031e+00    6.260228e-01   8.190148e-03
  2.355241e+00    6.264567e-01   8.184995e-03
  2.357452e+00    6.349760e-01   8.232004e-03
  2.359662e+00    6.367022e-01   8.234954e-03
  2.361873e+00    6.296030e-01   8.180660e-03
  2.364083e+00    6.336868e-01   8.199156e-03
  2.366294e+00    6.198281e-01   8.100947e-03
  2.368504e+00    6.192622e-01   8.089203e-03
  2.370714e+00    6.317932e-01   8.162549e-03
  2.372925e+00    6.281357e-01   8.130813e-03
  2.375135e+00    6.429520e-01   8.217970e-03
  2.377346e+00    6.337894e-01   8.151205e-03
  2.379556e+00    6.295344e-01   8.115851e-03
  2.381767e+00    6.138166e-01   8.006087e-03
  2.383977e+00    6.246318e-01   8.068339e-03
  2.386188e+00    6.233523e-01   8.052141e-03
  2.388398e+00    6.284727e-01   8.077119e-03
  2.390609e+00    6.216672e-01   8.025516e-03
  2.392819e+00    6.143172e-01   7.970179e-03
  2.395029e+00    6.265761e-01   8.041566e-03
  2.397240e+00    6.071332e-01   7.908026e-03
  2.399450e+00    5.925288e-01   7.804620e-03
  2.401661e+00    6.211818e-01   7.983387e-03
  2.403871e+00    6.040077e-01   7.864533e-03
  2.406082e+00    5.976038e-01   7.815379e-03
  2.408292e+00    6.057767e-01   7.860852e-03
  2.410503e+00    6.007957e-01   7.821042e-03
  2.412713e+00    6.066220e-01   7.851073e-03
  2.414924e+00    6.138157e-01   7.889957e-03
  2.417134e+00    5.909822e-01   7.734274e-03
  2.419344e+00    5.961872e-01   7.760884e-03
  2.421555e+00    6.054658e-01   7.813510e-03
  2.423765e+00    6.038660e-01   7.795763e-03
  2.425976e+00    6.012415e-01   7.770992e-03
  2.428186e+00    5.884464e-01   7.680694e-03
  2.430397e+00    5.906941e-01   7.687921e-03
  2.432607e+00    5.859380e-01   7.649672e-03
  2.434818e+00    5.936183e-01   7.692129e-03
  2.437028e+00    5.973648e-01   7.709190e-03
  2.439239e+00    5.971143e-01   7.699886e-03
  2.441449e+00    6.063945e-01   7.752225e-03
  2.443659e+00    5.849405e-01   7.606535e-03
  2.445870e+00    5.966541e-01   7.694637e-03
  2.448080e+00    5.900182e-01   7.686749e-03
  2.450291e+00    5.905313e-01   7.706887e-03
  2.452501e+00    5.719636e-01   7.595877e-03
  2.454712e+00    5.767030e-01   7.635739e-03
  2.456922e+00    5.705730e-01   7.601671e-03
  2.459133e+00    5.707689e-01   7.608410e-03
  2.461343e+00    5.671502e-01   7.588615e-03
  2.463554e+00    5.703594e-01   7.613546e-03
  2.465764e+00    5.683663e-01   7.603384e-03
  2.467975e+00    5.503679e-01   7.484291e-03
  2.470185e+00    5.580871e-01   7.538840e-03
  2.472395e+00    5.519224e-01   7.498319e-03
  2.474606e+00    5.449981e-01   7.452670e-03
  2.476816e+00    5.564097e-01   7.531026e-03
  2.479027e+00    5.494053e-01   7.484349e-03
  2.481237e+00    5.316018e-01   7.362330e-03
  2.483448e+00    5.432609e-01   7.442935e-03
  2.485658e+00    5.339687e-01   7.378879e-03
  2.487869e+00    5.418548e-01   7.433185e-03
  2.490079e+00    5.423066e-01   7.435773e-03
  2.492290e+00    5.379409e-01   7.405368e-03
  2.494500e+00    5.302867e-01   7.351738e-03
  2.496710e+00    5.424164e-01   7.434661e-03
  2.498921e+00    5.393981e-01   7.412944e-03
  2.501131e+00    5.284209e-01   7.336196e-03
  2.503342e+00    5.265095e-01   7.321651e-03
  2.505552e+00    5.292768e-01   7.339729e-03
  2.507763e+00    5.315807e-01   7.354267e-03
  2.509973e+00    5.433117e-01   7.433570e-03
  2.512184e+00    5.350620e-01   7.375286e-03
  2.514394e+00    5.367972e-01   7.377797e-03
  2.516605e+00    5.307806e-01   7.289070e-03
  2.518815e+00    5.204566e-01   7.189674e-03
  2.521025e+00    5.228459e-01   7.185229e-03
  2.523236e+00    5.262631e-01   7.190681e-03
  2.525446e+00    5.190283e-01   7.125583e-03
  2.527657e+00    5.248151e-01   7.150583e-03
  2.529867e+00    5.235099e-01   7.127545e-03
  2.532078e+00    5.297228e-01   7.154586e-03
  2.534288e+00    5.290469e-01   7.136099e-03
  2.536499e+00    5.336477e-01   7.155020e-03
  2.538709e+00    5.327924e-01   7.138186e-03
  2.540920e+00    5.377410e-01   7.160477e-03
  2.543130e+00    5.396852e-01   7.162911e-03
  2.545340e+00    5.286021e-01   7.078863e-03
  2.547551e+00    5.236634e-01   7.035756e-03
  2.549761e+00    5.302478e-01   7.070212e-03
  2.551972e+00    5.220165e-01   7.005757e-03
  2.554182e+00    5.329179e-01   7.069238e-03
  2.556393e+00    5.362712e-01   7.082247e-03
  2.558603e+00    5.255143e-01   7.001716e-03
  2.560814e+00    5.318509e-01   7.035006e-03
  2.563024e+00    5.379928e-01   7.066774e-03
  2.565235e+00    5.305733e-01   7.008276e-03
  2.567445e+00    5.194974e-01   6.925178e-03
  2.569656e+00    5.173607e-01   6.901180e-03
  2.571866e+00    5.238346e-01   6.934806e-03
  2.574076e+00    5.098593e-01   6.832488e-03
  2.576287e+00    5.131726e-01   6.846331e-03
  2.578497e+00    5.158974e-01   6.856650e-03
  2.580708e+00    5.041768e-01   6.770316e-03
  2.582918e+00    5.136495e-01   6.825861e-03
  2.585129e+00    5.111928e-01   6.801801e-03
  2.587339e+00    5.113906e-01   6.795457e-03
  2.589550e+00    5.185393e-01   6.835178e-03
  2.591760e+00    5.469533e-01   7.011971e-03
  2.593971e+00    5.317340e-01   6.906070e-03
  2.596181e+00    5.146077e-01   6.787686e-03
  2.598391e+00    5.088929e-01   6.744712e-03
  2.600602e+00    5.143039e-01   6.774537e-03
  2.602812e+00    5.111489e-01   6.746174e-03
  2.605023e+00    5.098128e-01   6.730181e-03
  2.607233e+00    4.932362e-01   6.612815e-03
  2.609444e+00    5.154818e-01   6.753007e-03
  2.611654e+00    5.153934e-01   6.745051e-03
  2.613865e+00    5.156590e-01   6.739692e-03
  2.616075e+00    5.157739e-01   6.733227e-03
  2.618286e+00    5.084976e-01   6.678562e-03
  2.620496e+00    5.110731e-01   6.688704e-03
  2.622706e+00    5.065755e-01   6.653457e-03
  2.624917e+00    5.036856e-01   6.628606e-03
  2.627127e+00    5.137032e-01   6.688410e-03
  2.629338e+00    5.035355e-01   6.615917e-03
  2.631548e+00    4.928693e-01   6.539355e-03
  2.633759e+00    4.946555e-01   6.544105e-03
  2.635969e+00    4.915113e-01   6.516644e-03
  2.638180e+00    5.057398e-01   6.603290e-03
  2.640390e+00    5.058626e-01   6.597461e-03
  2.642601e+00    4.963888e-01   6.528754e-03
  2.644811e+00    5.087532e-01   6.602428e-03
  2.647021e+00    4.911724e-01   6.480843e-03
  2.649232e+00    5.084674e-01   6.587166e-03
  2.651442e+00    5.028412e-01   6.544109e-03
  2.653653e+00    5.034475e-01   6.541232e-03
  2.655863e+00    5.034671e-01   6.534628e-03
  2.658074e+00    5.055168e-01   6.541270e-03
  2.660284e+00    4.940664e-01   6.460419e-03
  2.662495e+00    4.969765e-01   6.472670e-03
  2.664705e+00    4.965891e-01   6.463576e-03
  2.666916e+00    5.037884e-01   6.503754e-03
  2.669126e+00    4.958427e-01   6.445806e-03
  2.671337e+00    4.942751e-01   6.429035e-03
  2.673547e+00    5.068746e-01   6.503996e-03
  2.675757e+00    4.923480e-01   6.403702e-03
  2.677968e+00    4.902681e-01   6.383662e-03
  2.680178e+00    4.901393e-01   6.376441e-03
  2.682389e+00    4.879802e-01   6.356020e-03
  2.684599e+00    4.950408e-01   6.395629e-03
  2.686810e+00    5.020472e-01   6.434063e-03
  2.689020e+00    4.939974e-01   6.375976e-03
  2.691231e+00    5.082756e-01   6.461035e-03
  2.693441e+00    5.108857e-01   6.471365e-03
  2.695652e+00    5.035787e-01   6.418304e-03
  2.697862e+00    5.076673e-01   6.437850e-03
  2.700072e+00    4.932228e-01   6.339518e-03
  2.702283e+00    4.886349e-01   6.303722e-03
  2.704493e+00    4.949135e-01   6.337774e-03
  2.706704e+00    4.883703e-01   6.289346e-03
  2.708914e+00    4.987423e-01   6.349737e-03
  2.711125e+00    4.929889e-01   6.306733e-03
  2.713335e+00    4.926291e-01   6.298305e-03
  2.715546e+00    4.926729e-01   6.292094e-03
  2.717756e+00    4.775506e-01   6.188948e-03
  2.719967e+00    4.911134e-01   6.269957e-03
  2.722177e+00    4.932438e-01   6.277374e-03
  2.724387e+00    4.932974e-01   6.271562e-03
  2.726598e+00    4.968440e-01   6.287932e-03
  2.728808e+00    4.914882e-01   6.247777e-03
  2.731019e+00    4.767118e-01   6.147060e-03
  2.733229e+00    4.922254e-01   6.240415e-03
  2.735440e+00    4.786717e-01   6.147696e-03
  2.737650e+00    4.781644e-01   6.138423e-03
  2.739861e+00    4.883621e-01   6.197435e-03
  2.742071e+00    5.007818e-01   6.269908e-03
  2.744282e+00    4.733520e-01   6.089601e-03
  2.746492e+00    4.822086e-01   6.140253e-03
  2.748702e+00    4.845996e-01   6.149541e-03
  2.750913e+00    4.832878e-01   6.135414e-03
  2.753123e+00    4.781278e-01   6.096479e-03
  2.755334e+00    4.784381e-01   6.092397e-03
  2.757544e+00    4.733669e-01   6.054323e-03
  2.759755e+00    4.834336e-01   6.112450e-03
  2.761965e+00    4.788556e-01   6.077478e-03
  2.764176e+00    4.972276e-01   6.186867e-03
  2.766386e+00    4.824145e-01   6.088219e-03
  2.768597e+00    4.932053e-01   6.149977e-03
  2.770807e+00    4.987762e-01   6.178604e-03
  2.773017e+00    4.887736e-01   6.110331e-03
  2.775228e+00    4.849485e-01   6.080531e-03
  2.777438e+00    4.768471e-01   6.023759e-03
  2.779649e+00    4.754473e-01   6.009016e-03
  2.781859e+00    4.684196e-01   5.958732e-03
  2.784070e+00    4.712487e-01   5.970881e-03
  2.786280e+00    4.706493e-01   5.961355e-03
  2.788491e+00    4.749959e-01   5.982977e-03
  2.790701e+00    4.839908e-01   6.033689e-03
  2.792912e+00    4.822509e-01   6.016830e-03
  2.795122e+00    4.919209e-01   6.071015e-03
  2.797333e+00    4.755762e-01   5.963767e-03
  2.799543e+00    4.749646e-01   5.954058e-03
  2.801753e+00    4.791946e-01   5.974635e-03
  2.803964e+00    4.749535e-01   5.942486e-03
  2.806174e+00    4.722087e-01   5.919149e-03
  2.808385e+00    4.849751e-01   5.991756e-03
  2.810595e+00    4.874896e-01   6.000337e-03
  2.812806e+00    4.760985e-01   5.923167e-03
  2.815016e+00    4.878204e-01   5.990850e-03
  2.817227e+00    4.725655e-01   5.922311e-03
  2.819437e+00    4.799407e-01   5.979506e-03
  2.821648e+00    4.661407e-01   5.895185e-03
  2.823858e+00    4.827837e-01   6.004879e-03
  2.826068e+00    4.676072e-01   5.914716e-03
  2.828279e+00    4.754926e-01   5.968413e-03
  2.830489e+00    4.796675e-01   5.997926e-03
  2.832700e+00    4.659062e-01   5.913816e-03
  2.834910e+00    4.636011e-01   5.901192e-03
  2.837121e+00    4.708607e-01   5.948936e-03
  2.839331e+00    4.804750e-01   6.010606e-03
  2.841542e+00    4.734181e-01   5.967316e-03
  2.843752e+00    4.852304e-01   6.042104e-03
  2.845963e+00    4.810002e-01   6.016111e-03
  2.848173e+00    4.882925e-01   6.061629e-03
  2.850383e+00    4.772991e-01   5.993315e-03
  2.852594e+00    4.805044e-01   6.013317e-03
  2.854804e+00    4.678551e-01   5.933136e-03
  2.857015e+00    4.575949e-01   5.867289e-03
  2.859225e+00    4.675815e-01   5.930715e-03
  2.861436e+00    4.695051e-01   5.942238e-03
  2.863646e+00    4.675127e-01   5.929663e-03
  2.865857e+00    4.764770e-01   5.986570e-03
  2.868067e+00    4.828587e-01   6.026777e-03
  2.870278e+00    4.602864e-01   5.883862e-03
  2.872488e+00    4.808996e-01   6.012983e-03
  2.874698e+00    4.708753e-01   5.948952e-03
  2.876909e+00    4.585633e-01   5.869315e-03
  2.879119e+00    4.600416e-01   5.877166e-03
  2.881330e+00    4.712761e-01   5.946992e-03
  2.883540e+00    4.758206e-01   5.974203e-03
  2.885751e+00    4.666984e-01   5.915018e-03
  2.887961e+00    4.576093e-01   5.855243e-03
  2.890172e+00    4.700614e-01   5.932752e-03
  2.892382e+00    4.723307e-01   5.945241e-03
  2.894593e+00    4.665000e-01   5.906595e-03
  2.896803e+00    4.705214e-01   5.930003e-03
  2.899014e+00    4.602109e-01   5.862762e-03
  2.901224e+00    4.674592e-01   5.906725e-03
  2.903434e+00    4.730032e-01   5.939706e-03
  2.905645e+00    4.704456e-01   5.921355e-03
  2.907855e+00    4.680749e-01   5.904309e-03
  2.910066e+00    4.637904e-01   5.875126e-03
  2.912276e+00    4.697036e-01   5.910320e-03
  2.914487e+00    4.616691e-01   5.857082e-03
  2.916697e+00    4.722388e-01   5.921497e-03
  2.918908e+00    4.711073e-01   5.912365e-03
  2.921118e+00    4.782974e-01   5.954565e-03
  2.923329e+00    4.658869e-01   5.874472e-03
  2.925539e+00    4.673687e-01   5.881495e-03
  2.927749e+00    4.654826e-01   5.867280e-03
  2.929960e+00    4.692715e-01   5.888307e-03
  2.932170e+00    4.533627e-01   5.785313e-03
  2.934381e+00    4.578958e-01   5.811719e-03
  2.936591e+00    4.594997e-01   5.819285e-03
  2.938802e+00    4.679216e-01   5.869657e-03
  2.941012e+00    4.687590e-01   5.872515e-03
  2.943223e+00    4.638794e-01   5.839168e-03
  2.945433e+00    4.652996e-01   5.844304e-03
  2.947644e+00    4.712832e-01   5.877583e-03
  2.949854e+00    4.527174e-01   5.756368e-03
  2.952064e+00    4.635027e-01   5.820270e-03
  2.954275e+00    4.744963e-01   5.884414e-03
  2.956485e+00    4.599504e-01   5.789291e-03
  2.958696e+00    4.533074e-01   5.742959e-03
  2.960906e+00    4.709900e-01   5.849648e-03
  2.963117e+00    4.625922e-01   5.792746e-03
  2.965327e+00    4.522969e-01   5.724036e-03
  2.967538e+00    4.633742e-01   5.790736e-03
  2.969748e+00    4.567627e-01   5.746481e-03
  2.971959e+00    4.547628e-01   5.730734e-03
  2.974169e+00    4.607286e-01   5.765604e-03
  2.976379e+00    4.689016e-01   5.813554e-03
  2.978590e+00    4.602622e-01   5.756595e-03
  2.980800e+00    4.565868e-01   5.730754e-03
  2.983011e+00    4.601557e-01   5.750287e-03
  2.985221e+00    4.553419e-01   5.716986e-03
  2.987432e+00    4.453187e-01   5.650628e-03
  2.989642e+00    4.484919e-01   5.668107e-03
  2.991853e+00    4.650693e-01   5.768582e-03
  2.994063e+00    4.660479e-01   5.771730e-03
  2.996274e+00    4.572795e-01   5.713949e-03
  2.998484e+00    4.492191e-01   5.660719e-03
  3.000694e+00    4.582110e-01   5.713579e-03
  3.002905e+00    4.620420e-01   5.734483e-03
  3.005115e+00    4.659863e-01   5.755862e-03
  3.007326e+00    4.608829e-01   5.721095e-03
  3.009536e+00    4.520706e-01   5.662872e-03
  3.011747e+00    4.683299e-01   5.760848e-03
  3.013957e+00    4.636347e-01   5.728696e-03
  3.016168e+00    4.608869e-01   5.708391e-03
  3.018378e+00    4.585927e-01   5.691119e-03
  3.020589e+00    4.656458e-01   5.731447e-03
  3.022799e+00    4.637661e-01   5.716661e-03
  3.025010e+00    4.656773e-01   5.725157e-03
  3.027220e+00    4.678758e-01   5.735483e-03
  3.029430e+00    4.569558e-01   5.664906e-03
  3.031641e+00    4.524020e-01   5.633462e-03
  3.033851e+00    4.591106e-01   5.671513e-03
  3.036062e+00    4.692438e-01   5.730950e-03
  3.038272e+00    4.575425e-01   5.655443e-03
  3.040483e+00    4.433398e-01   5.563775e-03
  3.042693e+00    4.613377e-01   5.672284e-03
  3.044904e+00    4.586614e-01   5.651753e-03
  3.047114e+00    4.580237e-01   5.642981e-03
  3.049325e+00    4.574629e-01   5.635102e-03
  3.051535e+00    4.614491e-01   5.655129e-03
  3.053745e+00    4.725218e-01   5.717750e-03
  3.055956e+00    4.552320e-01   5.607555e-03
  3.058166e+00    4.580065e-01   5.620316e-03
  3.060377e+00    4.673594e-01   5.672548e-03
  3.062587e+00    4.585497e-01   5.614172e-03
  3.064798e+00    4.523088e-01   5.571563e-03
  3.067008e+00    4.535733e-01   5.574600e-03
  3.069219e+00    4.461373e-01   5.524227e-03
  3.071429e+00    4.483725e-01   5.534530e-03
  3.073640e+00    4.484670e-01   5.531786e-03
  3.075850e+00    4.427827e-01   5.493069e-03
  3.078060e+00    4.397857e-01   5.471363e-03
  3.080271e+00    4.467155e-01   5.510839e-03
  3.082481e+00    4.407279e-01   5.470358e-03
  3.084692e+00    4.516545e-01   5.534363e-03
  3.086902e+00    4.604315e-01   5.584603e-03
  3.089113e+00    4.632730e-01   5.598179e-03
  3.091323e+00    4.549757e-01   5.544410e-03
  3.093534e+00    4.599114e-01   5.570995e-03
  3.095744e+00    4.478475e-01   5.494062e-03
  3.097955e+00    4.528553e-01   5.521128e-03
  3.100165e+00    4.404511e-01   5.441688e-03
  3.102375e+00    4.379646e-01   5.422904e-03
  3.104586e+00    4.363591e-01   5.409504e-03
  3.106796e+00    4.505061e-01   5.492967e-03
  3.109007e+00    4.525108e-01   5.501931e-03
  3.111217e+00    4.477956e-01   5.469493e-03
  3.113428e+00    4.530971e-01   5.498331e-03
  3.115638e+00    4.602313e-01   5.538161e-03
  3.117849e+00    4.570624e-01   5.515283e-03
  3.120059e+00    4.613807e-01   5.537761e-03
  3.122270e+00    4.507898e-01   5.470553e-03
  3.124480e+00    4.612167e-01   5.529696e-03
  3.126691e+00    4.681555e-01   5.567486e-03
  3.128901e+00    4.470431e-01   5.437378e-03
  3.131111e+00    4.544403e-01   5.478288e-03
  3.133322e+00    4.554250e-01   5.480731e-03
  3.135532e+00    4.527461e-01   5.461147e-03
  3.137743e+00    4.496231e-01   5.438794e-03
  3.139953e+00    4.520929e-01   5.449977e-03
  3.142164e+00    4.612696e-01   5.517277e-03
  3.144374e+00    4.405524e-01   5.420320e-03
  3.146585e+00    4.418542e-01   5.442846e-03
  3.148795e+00    4.562400e-01   5.541708e-03
  3.151006e+00    4.498544e-01   5.511400e-03
  3.153216e+00    4.364581e-01   5.435826e-03
  3.155426e+00    4.481938e-01   5.514758e-03
  3.157637e+00    4.459416e-01   5.506454e-03
  3.159847e+00    4.522342e-01   5.550102e-03
  3.162058e+00    4.568377e-01   5.582807e-03
  3.164268e+00    4.271741e-01   5.402518e-03
  3.166479e+00    4.386846e-01   5.478445e-03
  3.168689e+00    4.382682e-01   5.479223e-03
  3.170900e+00    4.412964e-01   5.501293e-03
  3.173110e+00    4.373878e-01   5.479753e-03
  3.175321e+00    4.423699e-01   5.513360e-03
  3.177531e+00    4.404406e-01   5.504089e-03
  3.179741e+00    4.357096e-01   5.476500e-03
  3.181952e+00    4.473493e-01   5.551309e-03
  3.184162e+00    4.472769e-01   5.553083e-03
  3.186373e+00    4.364145e-01   5.486830e-03
  3.188583e+00    4.388361e-01   5.503829e-03
  3.190794e+00    4.437165e-01   5.536105e-03
  3.193004e+00    4.403764e-01   5.516495e-03
  3.195215e+00    4.199156e-01   5.388299e-03
  3.197425e+00    4.218169e-01   5.401656e-03
  3.199636e+00    4.387356e-01   5.508132e-03
  3.201846e+00    4.450053e-01   5.546762e-03
  3.204056e+00    4.369577e-01   5.497268e-03
  3.206267e+00    4.340973e-01   5.480093e-03
  3.208477e+00    4.258073e-01   5.428416e-03
  3.210688e+00    4.432650e-01   5.539446e-03
  3.212898e+00    4.291815e-01   5.451296e-03
  3.215109e+00    4.426435e-01   5.536907e-03
  3.217319e+00    4.293303e-01   5.453643e-03
  3.219530e+00    4.443633e-01   5.548673e-03
  3.221740e+00    4.420370e-01   5.534722e-03
  3.223951e+00    4.440742e-01   5.547925e-03
  3.226161e+00    4.434458e-01   5.544201e-03
  3.228372e+00    4.329289e-01   5.478596e-03
  3.230582e+00    4.320723e-01   5.473308e-03
  3.232792e+00    4.353025e-01   5.493960e-03
  3.235003e+00    4.286806e-01   5.452249e-03
  3.237213e+00    4.303387e-01   5.462891e-03
  3.239424e+00    4.257518e-01   5.433688e-03
  3.241634e+00    4.272961e-01   5.443681e-03
  3.243845e+00    4.336467e-01   5.484017e-03
  3.246055e+00    4.238442e-01   5.421453e-03
  3.248266e+00    4.236002e-01   5.420074e-03
  3.250476e+00    4.244333e-01   5.425083e-03
  3.252687e+00    4.402237e-01   5.525006e-03
  3.254897e+00    4.473096e-01   5.569171e-03
  3.257107e+00    4.351752e-01   5.492826e-03
  3.259318e+00    4.254433e-01   5.430793e-03
  3.261528e+00    4.160395e-01   5.370316e-03
  3.263739e+00    4.213777e-01   5.404096e-03
  3.265949e+00    4.268574e-01   5.438992e-03
  3.268160e+00    4.251751e-01   5.427861e-03
  3.270370e+00    4.386930e-01   5.512935e-03
  3.272581e+00    4.367049e-01   5.500163e-03
  3.274791e+00    4.302388e-01   5.458766e-03
  3.277002e+00    4.281247e-01   5.444765e-03
  3.279212e+00    4.375250e-01   5.503827e-03
  3.281422e+00    4.231780e-01   5.412277e-03
  3.283633e+00    4.035904e-01   5.284855e-03
  3.285843e+00    4.124852e-01   5.342439e-03
  3.288054e+00    4.229432e-01   5.408806e-03
  3.290264e+00    4.304268e-01   5.456144e-03
  3.292475e+00    4.243859e-01   5.416872e-03
  3.294685e+00    4.297972e-01   5.450659e-03
  3.296896e+00    4.312508e-01   5.459104e-03
  3.299106e+00    4.332939e-01   5.471476e-03
  3.301317e+00    4.302769e-01   5.451336e-03
  3.303527e+00    4.364720e-01   5.490005e-03
  3.305737e+00    4.198148e-01   5.383138e-03
  3.307948e+00    4.273010e-01   5.430277e-03
  3.310158e+00    4.242761e-01   5.410175e-03
  3.312369e+00    4.214117e-01   5.390969e-03
  3.314579e+00    4.189061e-01   5.374054e-03
  3.316790e+00    4.248758e-01   5.411476e-03
  3.319000e+00    4.267518e-01   5.422229e-03
  3.321211e+00    4.139408e-01   5.339616e-03
  3.323421e+00    4.303199e-01   5.443009e-03
  3.325632e+00    4.308068e-01   5.445205e-03
  3.327842e+00    4.305259e-01   5.442486e-03
  3.330052e+00    4.210616e-01   5.381291e-03
  3.332263e+00    4.306774e-01   5.441342e-03
  3.334473e+00    4.364899e-01   5.477001e-03
  3.336684e+00    4.409986e-01   5.503952e-03
  3.338894e+00    4.208925e-01   5.376159e-03
  3.341105e+00    4.343130e-01   5.459985e-03
  3.343315e+00    4.258638e-01   5.405456e-03
  3.345526e+00    4.165704e-01   5.345267e-03
  3.347736e+00    4.232169e-01   5.386312e-03
  3.349947e+00    4.227344e-01   5.382318e-03
  3.352157e+00    4.183135e-01   5.352905e-03
  3.354368e+00    4.313677e-01   5.434507e-03
  3.356578e+00    4.189955e-01   5.354959e-03
  3.358788e+00    4.193206e-01   5.355739e-03
  3.360999e+00    4.261207e-01   5.397690e-03
  3.363209e+00    4.157005e-01   5.330300e-03
  3.365420e+00    4.293578e-01   5.415605e-03
  3.367630e+00    4.218017e-01   5.366727e-03
  3.369841e+00    4.215530e-01   5.363710e-03
  3.372051e+00    4.273080e-01   5.398191e-03
  3.374262e+00    4.196466e-01   5.347140e-03
  3.376472e+00    4.141271e-01   5.309402e-03
  3.378683e+00    4.200420e-01   5.344684e-03
  3.380893e+00    4.085798e-01   5.268946e-03
  3.383103e+00    4.075900e-01   5.259868e-03
  3.385314e+00    4.067167e-01   5.252020e-03
  3.387524e+00    4.125572e-01   5.286881e-03
  3.389735e+00    4.279285e-01   5.381786e-03
  3.391945e+00    4.348873e-01   5.421596e-03
  3.394156e+00    4.169142e-01   5.304166e-03
  3.396366e+00    4.145545e-01   5.285693e-03
  3.398577e+00    4.099761e-01   5.253391e-03
  3.400787e+00    4.208726e-01   5.334792e-03
  3.402998e+00    4.271680e-01   5.413414e-03
  3.405208e+00    4.209626e-01   5.394976e-03
  3.407418e+00    4.087332e-01   5.332002e-03
  3.409629e+00    4.058920e-01   5.327456e-03
  3.411839e+00    4.008159e-01   5.305855e-03
  3.414050e+00    3.967951e-01   5.290159e-03
  3.416260e+00    3.883198e-01   5.242906e-03
  3.418471e+00    3.984799e-01   5.320548e-03
  3.420681e+00    3.870426e-01   5.252064e-03
  3.422892e+00    3.902133e-01   5.281521e-03
  3.425102e+00    3.925592e-01   5.305225e-03
  3.427313e+00    3.917489e-01   5.306953e-03
  3.429523e+00    3.980762e-01   5.356836e-03
  3.431733e+00    3.749785e-01   5.205650e-03
  3.433944e+00    3.909535e-01   5.321900e-03
  3.436154e+00    3.930889e-01   5.342755e-03
  3.438365e+00    4.084246e-01   5.452109e-03
  3.440575e+00    3.904855e-01   5.337052e-03
  3.442786e+00    3.881644e-01   5.326821e-03
  3.444996e+00    3.755914e-01   5.245341e-03
  3.447207e+00    3.641010e-01   5.169699e-03
  3.449417e+00    3.693760e-01   5.247694e-03
  3.451628e+00    3.681506e-01   5.268394e-03
  3.453838e+00    3.716768e-01   5.314833e-03
  3.456049e+00    3.713706e-01   5.336737e-03
  3.458259e+00    3.541051e-01   5.232709e-03
  3.460469e+00    3.778743e-01   5.425584e-03
  3.462680e+00    3.872068e-01   5.511781e-03
  3.464890e+00    3.747406e-01   5.440353e-03
  3.467101e+00    3.814788e-01   5.506797e-03
  3.469311e+00    3.958632e-01   5.626782e-03
  3.471522e+00    3.980795e-01   5.659430e-03
  3.473732e+00    3.930443e-01   5.639737e-03
  3.475943e+00    4.145054e-01   5.808035e-03
  3.478153e+00    4.049390e-01   5.756390e-03
  3.480364e+00    4.291496e-01   5.941785e-03
  3.482574e+00    4.226177e-01   5.912113e-03
  3.484784e+00    4.164520e-01   5.883794e-03
  3.486995e+00    4.201862e-01   5.925288e-03
  3.489205e+00    4.291737e-01   6.003081e-03
  3.491416e+00    4.364517e-01   6.068843e-03
  3.493626e+00    4.440388e-01   6.136129e-03
  3.495837e+00    4.472152e-01   6.172883e-03
  3.498047e+00    4.569530e-01   6.254415e-03
  3.500258e+00    4.683873e-01   6.347043e-03
  3.502468e+00    4.638159e-01   6.330568e-03
  3.504679e+00    4.677491e-01   6.371958e-03
  3.506889e+00    4.792172e-01   6.464188e-03
  3.509099e+00    4.919397e-01   6.564163e-03
  3.511310e+00    4.896153e-01   6.563296e-03
  3.513520e+00    4.903379e-01   6.582673e-03
  3.515731e+00    4.905655e-01   6.598643e-03
  3.517941e+00    5.012318e-01   6.684510e-03
  3.520152e+00    5.145962e-01   6.787649e-03
  3.522362e+00    5.181301e-01   6.825646e-03
  3.524573e+00    5.187925e-01   6.844448e-03
  3.526783e+00    5.283800e-01   6.921021e-03
  3.528994e+00    5.310386e-01   6.950803e-03
  3.531204e+00    5.321391e-01   6.970569e-03
  3.533414e+00    5.387827e-01   7.026206e-03
  3.535625e+00    5.388670e-01   7.039221e-03
  3.537835e+00    5.529972e-01   7.143281e-03
  3.540046e+00    5.680227e-01   7.248887e-03
  3.542256e+00    5.355548e-01   7.046207e-03
  3.544467e+00    5.434550e-01   7.105627e-03
  3.546677e+00    5.376669e-01   7.075286e-03
  3.548888e+00    5.638777e-01   7.253374e-03
  3.551098e+00    5.708327e-01   7.305501e-03
  3.553309e+00    5.358983e-01   7.086619e-03
  3.555519e+00    5.358880e-01   7.097812e-03
  3.557729e+00    5.334685e-01   7.093477e-03
  3.559940e+00    5.245534e-01   7.045396e-03
  3.562150e+00    5.308495e-01   7.099162e-03
  3.564361e+00    5.165266e-01   7.015841e-03
  3.566571e+00    5.278931e-01   7.106329e-03
  3.568782e+00    5.537555e-01   7.292672e-03
  3.570992e+00    5.469946e-01   7.261895e-03
  3.573203e+00    5.517410e-01   7.307719e-03
  3.575413e+00    5.323773e-01   7.192073e-03
  3.577624e+00    5.300851e-01   7.190567e-03
  3.579834e+00    5.563458e-01   7.380703e-03
  3.582045e+00    5.509758e-01   7.359241e-03
  3.584255e+00    5.525404e-01   7.383912e-03
  3.586465e+00    5.498127e-01   7.379808e-03
  3.588676e+00    5.398318e-01   7.326752e-03
  3.590886e+00    5.384310e-01   7.331006e-03
  3.593097e+00    5.353330e-01   7.324326e-03
  3.595307e+00    5.452077e-01   7.405644e-03
  3.597518e+00    5.617890e-01   7.531966e-03
  3.599728e+00    5.428726e-01   7.418287e-03
  3.601939e+00    5.227482e-01   7.293379e-03
  3.604149e+00    5.309099e-01   7.364412e-03
  3.606360e+00    5.526257e-01   7.527912e-03
  3.608570e+00    5.504743e-01   7.527584e-03
  3.610780e+00    5.477137e-01   7.519912e-03
  3.612991e+00    5.450808e-01   7.511897e-03
  3.615201e+00    5.414926e-01   7.496988e-03
  3.617412e+00    5.505035e-01   7.566488e-03
  3.619622e+00    5.513821e-01   7.578584e-03
  3.621833e+00    5.594864e-01   7.640906e-03
  3.624043e+00    5.572117e-01   7.635127e-03
  3.626254e+00    5.414555e-01   7.536131e-03
  3.628464e+00    5.595512e-01   7.672277e-03
  3.630675e+00    5.482887e-01   7.608970e-03
  3.632885e+00    5.367876e-01   7.543233e-03
  3.635095e+00    5.350372e-01   7.545329e-03
  3.637306e+00    5.380762e-01   7.581193e-03
  3.639516e+00    5.165451e-01   7.442220e-03
  3.641727e+00    5.259809e-01   7.524388e-03
  3.643937e+00    5.580457e-01   7.765184e-03
  3.646148e+00    5.408951e-01   7.659672e-03
  3.648358e+00    5.527311e-01   7.758176e-03
  3.650569e+00    5.411128e-01   7.691023e-03
  3.652779e+00    5.336805e-01   7.652804e-03
  3.654990e+00    5.378870e-01   7.697883e-03
  3.657200e+00    5.310981e-01   7.664020e-03
  3.659410e+00    5.421245e-01   7.758269e-03
  3.661621e+00    5.510799e-01   7.837481e-03
  3.663831e+00    5.355174e-01   7.741180e-03
  3.666042e+00    5.343093e-01   7.747654e-03
  3.668252e+00    5.422137e-01   7.820143e-03
  3.670463e+00    5.365390e-01   7.794411e-03
  3.672673e+00    5.527467e-01   7.927017e-03
  3.674884e+00    5.425121e-01   7.868847e-03
  3.677094e+00    5.400603e-01   7.866717e-03
  3.679305e+00    5.299503e-01   7.808240e-03
  3.681515e+00    5.528408e-01   7.991091e-03
  3.683726e+00    5.574988e-01   8.040852e-03
  3.685936e+00    5.363482e-01   7.902697e-03
  3.688146e+00    5.397633e-01   7.943763e-03
  3.690357e+00    5.341348e-01   7.918269e-03
  3.692567e+00    5.277795e-01   7.887149e-03
  3.694778e+00    5.459583e-01   8.038186e-03
  3.696988e+00    5.204614e-01   7.864174e-03
  3.699199e+00    5.402420e-01   8.028593e-03
  3.701409e+00    5.500259e-01   8.117821e-03
  3.703620e+00    5.487837e-01   8.125301e-03
  3.705830e+00    5.155383e-01   7.891601e-03
  3.708041e+00    5.313724e-01   8.028563e-03
  3.710251e+00    5.393037e-01   8.105226e-03
  3.712461e+00    5.374195e-01   8.108041e-03
  3.714672e+00    5.328146e-01   8.090177e-03
  3.716882e+00    5.297701e-01   8.083807e-03
  3.719093e+00    5.306630e-01   8.107979e-03
  3.721303e+00    5.355850e-01   8.162665e-03
  3.723514e+00    5.275845e-01   8.118900e-03
  3.725724e+00    5.293134e-01   8.149529e-03
  3.727935e+00    5.385455e-01   8.238105e-03
  3.730145e+00    5.233498e-01   8.138466e-03
  3.732356e+00    5.337025e-01   8.236394e-03
  3.734566e+00    5.214658e-01   8.159091e-03
  3.736776e+00    5.448602e-01   8.358344e-03
  3.738987e+00    5.343157e-01   8.295150e-03
  3.741197e+00    5.268722e-01   8.255464e-03
  3.743408e+00    5.338854e-01   8.328570e-03
  3.745618e+00    5.129022e-01   8.181615e-03
  3.747829e+00    5.095829e-01   8.173179e-03
  3.750039e+00    5.167358e-01   8.248745e-03
  3.752250e+00    4.953991e-01   8.094890e-03
  3.754460e+00    5.240906e-01   8.344745e-03
  3.756671e+00    5.330824e-01   8.435309e-03
  3.758881e+00    4.942081e-01   8.140274e-03
  3.761091e+00    5.010259e-01   8.215211e-03
  3.763302e+00    5.118831e-01   8.322926e-03
  3.765512e+00    4.868836e-01   8.135985e-03
  3.767723e+00    5.102991e-01   8.348727e-03
  3.769933e+00    5.083937e-01   8.352477e-03
  3.772144e+00    5.112484e-01   8.395660e-03
  3.774354e+00    4.993025e-01   8.316636e-03
  3.776565e+00    4.819331e-01   8.190152e-03
  3.778775e+00    4.958305e-01   8.327097e-03
  3.780986e+00    4.992293e-01   8.375845e-03
  3.783196e+00    5.306474e-01   8.656115e-03
  3.785407e+00    5.255527e-01   8.635427e-03
  3.787617e+00    5.050524e-01   8.486101e-03
  3.789827e+00    4.968494e-01   8.437348e-03
  3.792038e+00    4.968676e-01   8.458151e-03
  3.794248e+00    4.859826e-01   8.385930e-03
  3.796459e+00    4.836146e-01   8.386360e-03
  3.798669e+00    5.057970e-01   8.598042e-03
  3.800880e+00    5.098765e-01   8.654295e-03
  3.803090e+00    5.108887e-01   8.684918e-03
  3.805301e+00    4.968068e-01   8.586481e-03
  3.807511e+00    4.845075e-01   8.501118e-03
  3.809722e+00    4.785736e-01   8.470689e-03
  3.811932e+00    5.064082e-01   8.735872e-03
  3.814142e+00    5.121994e-01   8.808869e-03
  3.816353e+00    5.147045e-01   8.853631e-03
  3.818563e+00    4.993817e-01   8.743914e-03
  3.820774e+00    5.008081e-01   8.779622e-03
  3.822984e+00    5.009856e-01   8.804634e-03
  3.825195e+00    5.458464e-01   9.215191e-03
  3.827405e+00    5.295008e-01   9.100861e-03
  3.829616e+00    5.131499e-01   8.983665e-03
  3.831826e+00    4.991696e-01   8.884621e-03
  3.834037e+00    5.258873e-01   9.144518e-03
  3.836247e+00    5.241349e-01   9.154691e-03
  3.838457e+00    4.835193e-01   8.817459e-03
  3.840668e+00    4.789331e-01   8.800354e-03
  3.842878e+00    4.861731e-01   8.891819e-03
  3.845089e+00    5.029004e-01   9.069297e-03
  3.847299e+00    4.629947e-01   8.726949e-03
  3.849510e+00    4.881173e-01   8.986248e-03
  3.851720e+00    4.906186e-01   9.030518e-03
  3.853931e+00    4.974272e-01   9.112083e-03
  3.856141e+00    4.908162e-01   9.070224e-03
  3.858352e+00    5.071268e-01   9.239215e-03
  3.860562e+00    5.117096e-01   9.300548e-03
  3.862772e+00    5.083283e-01   9.289547e-03
  3.864983e+00    4.929132e-01   9.167392e-03
  3.867193e+00    5.157044e-01   9.397025e-03
  3.869404e+00    5.089705e-01   9.355642e-03
  3.871614e+00    5.027149e-01   9.318190e-03
  3.873825e+00    5.109186e-01   9.414515e-03
  3.876035e+00    5.028914e-01   9.361096e-03
  3.878246e+00    4.765200e-01   9.137695e-03
  3.880456e+00    4.754891e-01   9.156260e-03
  3.882667e+00    4.948777e-01   9.370469e-03
  3.884877e+00    4.857595e-01   9.313320e-03
  3.887087e+00    5.162053e-01   9.631440e-03
  3.889298e+00    5.247703e-01   9.742382e-03
  3.891508e+00    5.304489e-01   9.826768e-03
  3.893719e+00    4.948763e-01   9.522619e-03
  3.895929e+00    5.006871e-01   9.610113e-03
  3.898140e+00    4.986238e-01   9.622268e-03
  3.900350e+00    5.299748e-01   9.953490e-03
  3.902561e+00    5.323755e-01   1.000982e-02
  3.904771e+00    5.121596e-01   9.851419e-03
  3.906982e+00    5.037297e-01   9.803700e-03
  3.909192e+00    5.018025e-01   9.818841e-03
  3.911403e+00    4.961202e-01   9.797323e-03
  3.913613e+00    5.008101e-01   9.878244e-03
  3.915823e+00    5.114012e-01   1.001766e-02
  3.918034e+00    5.352474e-01   1.028554e-02
  3.920244e+00    5.118014e-01   1.009434e-02
  3.922455e+00    4.926282e-01   9.939733e-03
  3.924665e+00    4.998758e-01   1.004939e-02
  3.926876e+00    4.924559e-01   1.001186e-02
  3.929086e+00    5.064860e-01   1.019149e-02
  3.931297e+00    4.592883e-01   9.738839e-03
  3.933507e+00    4.687609e-01   9.867147e-03
  3.935718e+00    5.013913e-01   1.023388e-02
  3.937928e+00    4.870011e-01   1.011548e-02
  3.940138e+00    4.732010e-01   9.999968e-03
  3.942349e+00    4.885167e-01   1.019044e-02
  3.944559e+00    4.694394e-01   1.001891e-02
  3.946770e+00    5.295081e-01   1.067210e-02
  3.948980e+00    5.061252e-01   1.046517e-02
  3.951191e+00    4.953865e-01   1.038466e-02
  3.953401e+00    4.903568e-01   1.036334e-02
  3.955612e+00    5.090907e-01   1.059174e-02
  3.957822e+00    4.930828e-01   1.045592e-02
  3.960033e+00    4.934801e-01   1.049284e-02
  3.962243e+00    5.001240e-01   1.059665e-02
  3.964453e+00    4.988270e-01   1.061651e-02
  3.966664e+00    4.852410e-01   1.050420e-02
  3.968874e+00    5.103790e-01   1.080207e-02
  3.971085e+00    5.345918e-01   1.107824e-02
  3.973295e+00    4.903845e-01   1.063201e-02
  3.975506e+00    4.844809e-01   1.058936e-02
  3.977716e+00    4.804486e-01   1.056708e-02
  3.979927e+00    4.806840e-01   1.059158e-02
  3.982137e+00    5.029110e-01   1.085655e-02
  3.984348e+00    4.601636e-01   1.040681e-02
  3.986558e+00    4.790544e-01   1.064038e-02
  3.988768e+00    5.023794e-01   1.091982e-02
  3.990979e+00    4.581093e-01   1.044974e-02
  3.993189e+00    4.711154e-01   1.061971e-02
  3.995400e+00    4.844099e-01   1.079212e-02
  3.997610e+00    4.971000e-01   1.096256e-02
  3.999821e+00    5.170338e-01   1.121912e-02
  4.002031e+00    4.879388e-01   1.093741e-02
  4.004242e+00    4.879779e-01   1.097641e-02
  4.006452e+00    4.679077e-01   1.078696e-02
  4.008663e+00    5.085728e-01   1.128695e-02
  4.010873e+00    4.880448e-01   1.109695e-02
  4.013084e+00    4.844347e-01   1.109681e-02
  4.015294e+00    4.623745e-01   1.088114e-02
  4.017504e+00    4.924302e-01   1.127137e-02
  4.019715e+00    5.043635e-01   1.145061e-02
  4.021925e+00    4.809719e-01   1.122484e-02
  4.024136e+00    4.591095e-01   1.100915e-02
  4.026346e+00    5.163823e-01   1.172128e-02
  4.028557e+00    5.277035e-01   1.189553e-02
  4.030767e+00    4.777851e-01   1.136409e-02
  4.032978e+00    4.987177e-01   1.165756e-02
  4.035188e+00    4.724352e-01   1.139169e-02
  4.037399e+00    4.840528e-01   1.157862e-02
  4.039609e+00    4.818051e-01   1.159928e-02
  4.041819e+00    4.924441e-01   1.177594e-02
  4.044030e+00    4.712847e-01   1.156934e-02
  4.046240e+00    5.010752e-01   1.198032e-02
  4.048451e+00    4.727964e-01   1.168760e-02
  4.050661e+00    5.077640e-01   1.216497e-02
  4.052872e+00    4.994997e-01   1.211913e-02
  4.055082e+00    4.828811e-01   1.196944e-02
  4.057293e+00    4.648945e-01   1.179713e-02
  4.059503e+00    4.757185e-01   1.198786e-02
  4.061714e+00    4.775953e-01   1.206779e-02
  4.063924e+00    4.557692e-01   1.184397e-02
  4.066134e+00    4.624099e-01   1.198608e-02
  4.068345e+00    4.917936e-01   1.242059e-02
  4.070555e+00    5.045981e-01   1.264202e-02
  4.072766e+00    5.226684e-01   1.292968e-02
  4.074976e+00    4.811406e-01   1.246728e-02
  4.077187e+00    5.119455e-01   1.292414e-02
  4.079397e+00    4.769208e-01   1.253794e-02
  4.081608e+00    4.842652e-01   1.269983e-02
  4.083818e+00    4.791223e-01   1.269779e-02
  4.086029e+00    4.609025e-01   1.251970e-02
  4.088239e+00    4.714811e-01   1.273078e-02
  4.090449e+00    5.047874e-01   1.324421e-02
  4.092660e+00    5.033760e-01   1.329847e-02
  4.094870e+00    5.131607e-01   1.350174e-02
  4.097081e+00    4.895456e-01   1.325969e-02
  4.099291e+00    4.820559e-01   1.321237e-02
  4.101502e+00    4.829558e-01   1.327382e-02
  4.103712e+00    4.978988e-01   1.352801e-02
  4.105923e+00    5.130785e-01   1.378578e-02
  4.108133e+00    4.986297e-01   1.364276e-02
  4.110344e+00    4.829960e-01   1.347851e-02
  4.112554e+00    4.738238e-01   1.340257e-02
  4.114764e+00    5.280784e-01   1.420600e-02
  4.116975e+00    5.063367e-01   1.396539e-02
  4.119185e+00    4.563686e-01   1.331217e-02
  4.121396e+00    4.480134e-01   1.324436e-02
  4.123606e+00    4.703901e-01   1.362656e-02
  4.125817e+00    4.765660e-01   1.377323e-02
  4.128027e+00    5.112193e-01   1.432540e-02
  4.130238e+00    4.384697e-01   1.332397e-02
  4.132448e+00    4.781923e-01   1.397463e-02
  4.134659e+00    4.986813e-01   1.433229e-02
  4.136869e+00    4.866326e-01   1.422125e-02
  4.139080e+00    4.520715e-01   1.376880e-02
  4.141290e+00    4.678619e-01   1.406915e-02
  4.143500e+00    4.724287e-01   1.420288e-02
  4.145711e+00    4.464484e-01   1.387142e-02
  4.147921e+00    5.289049e-01   1.516708e-02
  4.150132e+00    5.433484e-01   1.544637e-02
  4.152342e+00    5.358578e-01   1.541399e-02
  4.154553e+00    4.658517e-01   1.444015e-02
  4.156763e+00    5.099563e-01   1.518287e-02
  4.158974e+00    5.183570e-01   1.538460e-02
  4.161184e+00    4.699230e-01   1.472077e-02
  4.163395e+00    4.952699e-01   1.518959e-02
  4.165605e+00    5.290792e-01   1.578125e-02
  4.167815e+00    5.541236e-01   1.623485e-02
  4.170026e+00    5.018491e-01   1.553148e-02
  4.172236e+00    4.969357e-01   1.553869e-02
  4.174447e+00    5.225456e-01   1.602061e-02
  4.176657e+00    5.445996e-01   1.644498e-02
  4.178868e+00    5.228536e-01   1.620426e-02
  4.181078e+00    4.944915e-01   1.584761e-02
  4.183289e+00    4.554252e-01   1.529571e-02
  4.185499e+00    5.006129e-01   1.613084e-02
  4.187710e+00    5.200656e-01   1.653813e-02
  4.189920e+00    4.528645e-01   1.552531e-02
  4.192130e+00    4.839406e-01   1.614717e-02
  4.194341e+00    4.884695e-01   1.632221e-02
  4.196551e+00    4.780686e-01   1.624966e-02
  4.198762e+00    5.315172e-01   1.724287e-02
  4.200972e+00    4.818168e-01   1.652321e-02
  4.203183e+00    4.732863e-01   1.648407e-02
  4.205393e+00    4.485714e-01   1.615495e-02
  4.207604e+00    4.919365e-01   1.703281e-02
  4.209814e+00    4.562866e-01   1.651703e-02
  4.212025e+00    4.518185e-01   1.655185e-02
  4.214235e+00    5.454224e-01   1.831510e-02
  4.216445e+00    5.115706e-01   1.786592e-02
  4.218656e+00    5.077749e-01   1.793264e-02
  4.220866e+00    4.810286e-01   1.758363e-02
  4.223077e+00    4.864250e-01   1.781762e-02
  4.225287e+00    4.884272e-01   1.799488e-02
  4.227498e+00    4.939550e-01   1.823818e-02
  4.229708e+00    5.507777e-01   1.941526e-02
  4.231919e+00    5.576445e-01   1.969777e-02
  4.234129e+00    5.053008e-01   1.890772e-02
  4.236340e+00    4.630155e-01   1.825426e-02
  4.238550e+00    4.952261e-01   1.904494e-02
  4.240761e+00    4.611542e-01   1.854073e-02
  4.242971e+00    5.368468e-01   2.018739e-02
  4.245181e+00    4.939257e-01   1.954577e-02
  4.247392e+00    4.786083e-01   1.942029e-02
  4.249602e+00    5.200675e-01   2.044432e-02
  4.251813e+00    5.552952e-01   2.133447e-02
  4.254023e+00    3.996393e-01   1.828118e-02
  4.256234e+00    5.031363e-01   2.073075e-02
  4.258444e+00    5.102820e-01   2.109679e-02
  4.260655e+00    4.873622e-01   2.084375e-02
  4.262865e+00    4.882293e-01   2.109907e-02
  4.265076e+00    3.767678e-01   1.874610e-02
  4.267286e+00    4.766698e-01   2.133453e-02
  4.269496e+00    4.853873e-01   2.179182e-02
  4.271707e+00    5.065039e-01   2.253566e-02
  4.273917e+00    5.541613e-01   2.387681e-02
  4.276128e+00    4.761231e-01   2.242609e-02
  4.278338e+00    5.160816e-01   2.365960e-02
  4.280549e+00    4.341570e-01   2.201238e-02
  4.282759e+00    4.295276e-01   2.220867e-02
  4.284970e+00    4.954409e-01   2.420557e-02
  4.287180e+00    4.538456e-01   2.344471e-02
  4.289391e+00    4.672057e-01   2.396547e-02
  4.291601e+00    4.975376e-01   2.492856e-02
  4.293811e+00    5.678923e-01   2.684182e-02
  4.296022e+00    5.284691e-01   2.610071e-02
  4.298232e+00    4.660884e-01   2.471791e-02
  4.300443e+00    4.658991e-01   2.491629e-02
  4.302653e+00    5.585855e-01   2.751901e-02
  4.304864e+00    5.250074e-01   2.690964e-02
  4.307074e+00    5.439726e-01   2.763822e-02
  4.309285e+00    4.573564e-01   2.557198e-02
  4.311495e+00    4.379344e-01   2.525749e-02
  4.313706e+00    4.332804e-01   2.535927e-02
  4.315916e+00    4.890949e-01   2.720782e-02
  4.318126e+00    4.539847e-01   2.647288e-02
  4.320337e+00    4.680048e-01   2.714940e-02
  4.322547e+00    5.320775e-01   2.925634e-02
  4.324758e+00    5.686567e-01   3.055950e-02
  4.326968e+00    4.639525e-01   2.791435e-02
  4.329179e+00    5.280769e-01   3.010867e-02
  4.331389e+00    4.315680e-01   2.753311e-02
  4.333600e+00    4.566754e-01   2.865889e-02
  4.335810e+00    6.377562e-01   3.427265e-02
  4.338021e+00    4.402233e-01   2.883898e-02
  4.340231e+00    4.771833e-01   3.040106e-02
  4.342442e+00    4.267091e-01   2.913499e-02
  4.344652e+00    2.946341e-01   2.453730e-02
  4.346862e+00    4.214763e-01   2.975896e-02
  4.349073e+00    4.627307e-01   3.163693e-02
  4.351283e+00    4.425154e-01   3.139791e-02
  4.353494e+00    4.743479e-01   3.301105e-02
  4.355704e+00    4.733061e-01   3.350564e-02
  4.357915e+00    3.931071e-01   3.104406e-02
  4.360125e+00    5.414723e-01   3.705495e-02
  4.362336e+00    4.050230e-01   3.263229e-02
  4.364546e+00    5.898442e-01   4.009655e-02
  4.366757e+00    4.564657e-01   3.597619e-02
  4.368967e+00    4.788324e-01   3.758125e-02
  4.371177e+00    4.635584e-01   3.776326e-02
  4.373388e+00    6.401747e-01   4.536891e-02
  4.375598e+00    5.325263e-01   4.232398e-02
  4.377809e+00    5.124856e-01   4.257024e-02
  4.380019e+00    3.965091e-01   3.838785e-02
  4.382230e+00    4.283770e-01   4.101150e-02
  4.384440e+00    3.456037e-01   3.790043e-02
  4.386651e+00    4.378718e-01   4.397171e-02
  4.388861e+00    3.928809e-01   4.305150e-02
  4.391072e+00    4.577365e-01   4.810058e-02
  4.393282e+00    3.319148e-01   4.254675e-02
  4.395492e+00    3.365652e-01   4.461806e-02
  4.397703e+00    3.727956e-01   4.910982e-02
  4.399913e+00    1.885740e-01   3.669764e-02
  4.402124e+00    2.795114e-01   4.720463e-02
  4.404334e+00    4.082504e-01   6.064464e-02
  4.406545e+00    3.141974e-01   5.716467e-02
  4.408755e+00    5.665810e-01   8.325039e-02
  4.410966e+00    2.489093e-01   6.107693e-02
  4.413176e+00    3.019659e-01   7.613613e-02
  4.415387e+00   -6.450636e-01            nan
  4.417597e+00   -1.864350e+00            nan
  4.419807e+00   -1.939845e-01            nan
