# == pyFAI calibration ==
# Distance Sample to Detector: 0.216 m
# PONI: 1.166e-01, 1.308e-01 m
# Rotations: 0.000000 0.000000 0.000000 rad
# 
# == Fit2d calibration ==
# Distance Sample-beamCenter: 216.000 mm
# Center: x=1744.293, y=1555.000 pix
# Tilt: 0.000 deg  TiltPlanRot: 0.000 deg
# 
# Detector Eiger 9M	 PixelSize= 7.500e-05, 7.500e-05 m
#    Detector has a mask: True 
#    Detector has a dark current: False 
#    detector has a flat field: False 
# 
# Wavelength: 9.8e-11 m
# Mask applied: from detector
# Dark current applied: False
# Flat field applied: False
# Polarization factor: None
# Normalization factor: 1.0
# 
# Headers of the input frame:
# {
# "_array_data.header_convention": "SLS_1.0",
# "_array_data.header_contents": "# Detector: Dectris Eiger 9M, S/N E-18-0102\r\n# Pixel_size 75e-6 m x 75e-6 m\r\n# Silicon sensor, thickness 0.000450 m\r\n# Exposure_time 0.024997 s\r\n# Exposure_period 0.025000 s\r\n# Count_cutoff 62318 counts\r\n# Wavelength 0.980106 A\r\n# Detector_distance 0.215992 m\r\n# Beam_xy (1555, 1744) pixels\r\n# Start_angle 0.000000 deg.\r\n# Angle_increment 0.000000 deg.",
# "Content-Type": "application/octet-stream;",
# "conversions": "x-CBF_BYTE_OFFSET",
# "Content-Transfer-Encoding": "BINARY",
# "X-Binary-Size": "10166630",
# "X-Binary-ID": "1",
# "X-Binary-Element-Type": "signed 32-bit integer",
# "X-Binary-Element-Byte-Order": "LITTLE_ENDIAN",
# "Content-MD5": "EdpE+HeZIjeV5wXqN2yjFg==",
# "X-Binary-Number-of-Elements": "10166590",
# "X-Binary-Size-Fastest-Dimension": "3110",
# "X-Binary-Size-Second-Dimension": "3269",
# "X-Binary-Size-Padding": "4095"
# }
# --> H:/Proxima2a_2019-04-05/RAW_DATA/C5_gel17_position5/C5_mesh_1_data.cbf/C5_mesh_1_data.cbf000197.dat
#        q_A^-1              I           sigma 
  1.105228e-03    1.086306e+00   5.639791e-01
  3.315685e-03    1.678849e+00   4.262370e-01
  5.526141e-03    1.591831e+00   3.209376e-01
  7.736597e-03    1.129483e+00   2.283810e-01
  9.947054e-03    1.450518e+00   2.281592e-01
  1.215751e-02    1.772600e+00   2.280731e-01
  1.436797e-02    1.402616e+00   1.866144e-01
  1.657842e-02    1.471637e+00   1.779281e-01
  1.878888e-02    1.416185e+00   1.639546e-01
  2.099934e-02    1.275357e+00   1.472035e-01
  2.320979e-02    1.297821e+00   1.412343e-01
  2.542025e-02    1.353314e+00   1.378189e-01
  2.763070e-02    1.377485e+00   1.333625e-01
  2.984116e-02    1.488366e+00   1.333925e-01
  3.205162e-02    1.485852e+00   1.286098e-01
  3.426207e-02    1.387310e+00   1.201881e-01
  3.647253e-02    1.319345e+00   1.135975e-01
  3.868299e-02    1.418877e+00   1.143979e-01
  4.089344e-02    1.266054e+00   1.051010e-01
  4.310390e-02    1.307085e+00   1.040101e-01
  4.531436e-02    1.333620e+00   1.024665e-01
  4.752481e-02    1.290444e+00   9.842119e-02
  4.973527e-02    1.359424e+00   9.874822e-02
  5.194572e-02    1.441567e+00   9.949935e-02
  5.415618e-02    1.469156e+00   9.837228e-02
  5.636664e-02    1.513486e+00   9.787107e-02
  5.857709e-02    1.500105e+00   9.558184e-02
  6.078755e-02    1.450710e+00   9.226725e-02
  6.299801e-02    1.557081e+00   9.389707e-02
  6.520846e-02    1.558264e+00   9.232754e-02
  6.741892e-02    1.480512e+00   8.850256e-02
  6.962938e-02    1.369113e+00   8.375023e-02
  7.183983e-02    1.431557e+00   8.430947e-02
  7.405029e-02    1.372178e+00   8.129924e-02
  7.626074e-02    1.502957e+00   8.384237e-02
  7.847120e-02    1.483943e+00   8.212638e-02
  8.068166e-02    1.524869e+00   8.210213e-02
  8.289211e-02    1.505761e+00   8.049054e-02
  8.510257e-02    1.473923e+00   7.859351e-02
  8.731303e-02    1.478833e+00   7.771850e-02
  8.952348e-02    1.433241e+00   7.556266e-02
  9.173394e-02    1.496618e+00   7.627625e-02
  9.394439e-02    1.549819e+00   7.669902e-02
  9.615485e-02    1.598319e+00   7.698772e-02
  9.836531e-02    1.471571e+00   7.303536e-02
  1.005758e-01    1.424309e+00   7.105941e-02
  1.027862e-01    1.473686e+00   7.149742e-02
  1.049967e-01    1.592656e+00   7.353953e-02
  1.072071e-01    1.527387e+00   7.126979e-02
  1.094176e-01    1.527000e+00   7.053616e-02
  1.116280e-01    1.520337e+00   6.968024e-02
  1.138385e-01    1.516806e+00   6.891890e-02
  1.160490e-01    1.508086e+00   6.806207e-02
  1.182594e-01    1.516882e+00   6.761782e-02
  1.204699e-01    1.589661e+00   6.858244e-02
  1.226803e-01    1.554814e+00   6.720994e-02
  1.248908e-01    1.579897e+00   6.714690e-02
  1.271012e-01    1.563797e+00   6.621911e-02
  1.293117e-01    1.605104e+00   6.651130e-02
  1.315222e-01    1.599467e+00   6.583257e-02
  1.337326e-01    1.609154e+00   6.548239e-02
  1.359431e-01    1.573426e+00   6.478924e-02
  1.381535e-01    1.642125e+00   6.707700e-02
  1.403640e-01    1.661971e+00   6.777250e-02
  1.425744e-01    1.600316e+00   6.660976e-02
  1.447849e-01    1.564757e+00   6.588072e-02
  1.469953e-01    1.581438e+00   6.618948e-02
  1.492058e-01    1.650038e+00   6.753124e-02
  1.514163e-01    1.713840e+00   6.871022e-02
  1.536267e-01    1.678922e+00   6.787387e-02
  1.558372e-01    1.578337e+00   6.566402e-02
  1.580476e-01    1.660096e+00   6.717984e-02
  1.602581e-01    1.585544e+00   6.548733e-02
  1.624685e-01    1.510970e+00   6.375366e-02
  1.646790e-01    1.632264e+00   6.607293e-02
  1.668895e-01    1.644894e+00   6.613653e-02
  1.690999e-01    1.628163e+00   6.560171e-02
  1.713104e-01    1.776628e+00   6.831478e-02
  1.735208e-01    1.720992e+00   6.702755e-02
  1.757313e-01    1.780188e+00   6.795686e-02
  1.779417e-01    1.846306e+00   6.898168e-02
  1.801522e-01    1.827714e+00   6.841490e-02
  1.823626e-01    1.887511e+00   6.929356e-02
  1.845731e-01    1.981766e+00   7.077265e-02
  1.867836e-01    1.952079e+00   7.000351e-02
  1.889940e-01    1.937602e+00   6.951553e-02
  1.912045e-01    2.009301e+00   7.055362e-02
  1.934149e-01    1.924792e+00   6.882291e-02
  1.956254e-01    1.897183e+00   6.810211e-02
  1.978358e-01    2.099931e+00   7.140322e-02
  2.000463e-01    2.061811e+00   7.051770e-02
  2.022568e-01    1.992810e+00   6.910014e-02
  2.044672e-01    1.988202e+00   6.878374e-02
  2.066777e-01    1.977603e+00   6.837248e-02
  2.088881e-01    1.996240e+00   6.846914e-02
  2.110986e-01    1.994763e+00   6.820910e-02
  2.133090e-01    2.039467e+00   6.874495e-02
  2.155195e-01    1.969249e+00   6.732712e-02
  2.177300e-01    1.899098e+00   6.559758e-02
  2.199404e-01    1.954647e+00   6.479648e-02
  2.221509e-01    1.938265e+00   6.346484e-02
  2.243613e-01    2.045087e+00   6.436377e-02
  2.265718e-01    2.149909e+00   6.526532e-02
  2.287822e-01    2.120589e+00   6.417717e-02
  2.309927e-01    2.113819e+00   6.349096e-02
  2.332031e-01    2.121175e+00   6.305698e-02
  2.354136e-01    2.153176e+00   6.301592e-02
  2.376241e-01    2.163318e+00   6.267392e-02
  2.398345e-01    2.090581e+00   6.115529e-02
  2.420450e-01    2.017806e+00   5.965202e-02
  2.442554e-01    2.096085e+00   6.037925e-02
  2.464659e-01    2.154125e+00   6.079854e-02
  2.486763e-01    2.155899e+00   6.042376e-02
  2.508868e-01    2.115412e+00   5.947613e-02
  2.530973e-01    2.144123e+00   5.950715e-02
  2.553077e-01    2.100029e+00   5.853485e-02
  2.575182e-01    2.155722e+00   5.895507e-02
  2.597286e-01    2.144275e+00   5.845653e-02
  2.619391e-01    2.108703e+00   5.763589e-02
  2.641495e-01    1.992580e+00   5.571639e-02
  2.663600e-01    2.068527e+00   5.645603e-02
  2.685704e-01    2.131564e+00   5.699920e-02
  2.707809e-01    2.098531e+00   5.625561e-02
  2.729914e-01    2.006789e+00   5.472551e-02
  2.752018e-01    2.004802e+00   5.441371e-02
  2.774123e-01    1.999084e+00   5.405850e-02
  2.796227e-01    2.037906e+00   5.431090e-02
  2.818332e-01    2.047381e+00   5.416545e-02
  2.840436e-01    2.057555e+00   5.403664e-02
  2.862541e-01    2.030941e+00   5.342796e-02
  2.884646e-01    1.990215e+00   5.263856e-02
  2.906750e-01    1.990252e+00   5.238945e-02
  2.928855e-01    1.969587e+00   5.187527e-02
  2.950959e-01    1.925887e+00   5.106093e-02
  2.973064e-01    1.921934e+00   5.077925e-02
  2.995168e-01    1.961706e+00   5.106961e-02
  3.017273e-01    1.946153e+00   5.064250e-02
  3.039377e-01    1.912290e+00   4.998016e-02
  3.061482e-01    1.989958e+00   5.076447e-02
  3.083587e-01    1.954566e+00   5.009327e-02
  3.105691e-01    1.918571e+00   4.941786e-02
  3.127796e-01    1.965287e+00   4.980563e-02
  3.149900e-01    1.917481e+00   4.899115e-02
  3.172005e-01    1.858414e+00   4.803346e-02
  3.194109e-01    1.843520e+00   4.764309e-02
  3.216214e-01    1.890936e+00   4.805501e-02
  3.238319e-01    1.903177e+00   4.801931e-02
  3.260423e-01    1.908025e+00   4.788892e-02
  3.282528e-01    1.866490e+00   4.717626e-02
  3.304632e-01    1.869687e+00   4.703372e-02
  3.326737e-01    1.880608e+00   4.698684e-02
  3.348841e-01    1.869042e+00   4.666049e-02
  3.370946e-01    1.801073e+00   4.563187e-02
  3.393050e-01    1.854643e+00   4.613010e-02
  3.415155e-01    1.889072e+00   4.638128e-02
  3.437260e-01    1.780622e+00   4.486335e-02
  3.459364e-01    1.799034e+00   4.492787e-02
  3.481469e-01    1.804096e+00   4.482682e-02
  3.503573e-01    1.774510e+00   4.429578e-02
  3.525678e-01    1.800449e+00   4.445933e-02
  3.547782e-01    1.885610e+00   4.533421e-02
  3.569887e-01    1.847582e+00   4.471574e-02
  3.591992e-01    1.842670e+00   4.449825e-02
  3.614096e-01    1.798956e+00   4.381483e-02
  3.636201e-01    1.773103e+00   4.334599e-02
  3.658305e-01    1.787761e+00   4.337630e-02
  3.680410e-01    1.820354e+00   4.361939e-02
  3.702514e-01    1.752346e+00   4.265290e-02
  3.724619e-01    1.738745e+00   4.234237e-02
  3.746724e-01    1.812981e+00   4.309256e-02
  3.768828e-01    1.804470e+00   4.284665e-02
  3.790933e-01    1.775387e+00   4.236146e-02
  3.813037e-01    1.823960e+00   4.279655e-02
  3.835142e-01    1.774461e+00   4.207322e-02
  3.857246e-01    1.811754e+00   4.237544e-02
  3.879351e-01    1.831215e+00   4.246453e-02
  3.901455e-01    1.788158e+00   4.182875e-02
  3.923560e-01    1.786995e+00   4.168224e-02
  3.945665e-01    1.778183e+00   4.144750e-02
  3.967769e-01    1.756325e+00   4.106295e-02
  3.989874e-01    1.794388e+00   4.137592e-02
  4.011978e-01    1.846187e+00   4.183981e-02
  4.034083e-01    1.805041e+00   4.124394e-02
  4.056187e-01    1.773409e+00   4.075503e-02
  4.078292e-01    1.801946e+00   4.095728e-02
  4.100397e-01    1.829389e+00   4.114201e-02
  4.122501e-01    1.790741e+00   4.058332e-02
  4.144606e-01    1.749118e+00   3.998996e-02
  4.166710e-01    1.798482e+00   4.042974e-02
  4.188815e-01    1.869815e+00   4.110197e-02
  4.210919e-01    1.858856e+00   4.086124e-02
  4.233024e-01    1.840180e+00   4.053587e-02
  4.255128e-01    1.803007e+00   4.000839e-02
  4.277233e-01    1.791349e+00   3.976422e-02
  4.299338e-01    1.831159e+00   4.008798e-02
  4.321442e-01    1.787358e+00   3.949231e-02
  4.343547e-01    1.745669e+00   3.891865e-02
  4.365651e-01    1.734086e+00   3.867912e-02
  4.387756e-01    1.720637e+00   3.842095e-02
  4.409860e-01    1.748544e+00   3.862395e-02
  4.431965e-01    1.777989e+00   3.884012e-02
  4.454070e-01    1.774331e+00   3.869219e-02
  4.476174e-01    1.778073e+00   3.862663e-02
  4.498279e-01    1.747811e+00   3.819232e-02
  4.520383e-01    1.749851e+00   3.810972e-02
  4.542488e-01    1.741166e+00   3.791252e-02
  4.564592e-01    1.759757e+00   3.801213e-02
  4.586697e-01    1.777163e+00   3.809828e-02
  4.608801e-01    1.772081e+00   3.794186e-02
  4.630906e-01    1.787222e+00   3.800273e-02
  4.653011e-01    1.751094e+00   3.751772e-02
  4.675115e-01    1.783821e+00   3.776698e-02
  4.697220e-01    1.700340e+00   3.677614e-02
  4.719324e-01    1.722624e+00   3.692056e-02
  4.741429e-01    1.695688e+00   3.653640e-02
  4.763533e-01    1.726825e+00   3.677578e-02
  4.785638e-01    1.710043e+00   3.650213e-02
  4.807743e-01    1.668810e+00   3.596766e-02
  4.829847e-01    1.696216e+00   3.617018e-02
  4.851952e-01    1.699736e+00   3.611607e-02
  4.874056e-01    1.659608e+00   3.559723e-02
  4.896161e-01    1.659441e+00   3.550715e-02
  4.918265e-01    1.706981e+00   3.592274e-02
  4.940370e-01    1.706288e+00   3.582678e-02
  4.962475e-01    1.706048e+00   3.573579e-02
  4.984579e-01    1.673492e+00   3.530595e-02
  5.006684e-01    1.666390e+00   3.514507e-02
  5.028788e-01    1.642206e+00   3.480456e-02
  5.050893e-01    1.689049e+00   3.521160e-02
  5.072997e-01    1.674893e+00   3.497908e-02
  5.095102e-01    1.669152e+00   3.483542e-02
  5.117206e-01    1.677442e+00   3.483879e-02
  5.139311e-01    1.647197e+00   3.444158e-02
  5.161416e-01    1.639572e+00   3.428056e-02
  5.183520e-01    1.653186e+00   3.434080e-02
  5.205625e-01    1.611650e+00   3.382721e-02
  5.227729e-01    1.681208e+00   3.446889e-02
  5.249834e-01    1.680749e+00   3.438419e-02
  5.271938e-01    1.723666e+00   3.473917e-02
  5.294043e-01    1.716004e+00   3.458188e-02
  5.316148e-01    1.769400e+00   3.503535e-02
  5.338252e-01    1.790223e+00   3.516039e-02
  5.360357e-01    1.785408e+00   3.503313e-02
  5.382461e-01    1.744981e+00   3.455593e-02
  5.404566e-01    1.741349e+00   3.444139e-02
  5.426670e-01    1.749581e+00   3.444493e-02
  5.448775e-01    1.750947e+00   3.438136e-02
  5.470879e-01    1.780726e+00   3.459521e-02
  5.492984e-01    1.769393e+00   3.440824e-02
  5.515089e-01    1.738426e+00   3.403019e-02
  5.537193e-01    1.744832e+00   3.401771e-02
  5.559298e-01    1.780363e+00   3.428696e-02
  5.581402e-01    1.763249e+00   3.404720e-02
  5.603507e-01    1.808525e+00   3.440652e-02
  5.625611e-01    1.816517e+00   3.440763e-02
  5.647716e-01    1.809127e+00   3.426302e-02
  5.669821e-01    1.837325e+00   3.445455e-02
  5.691925e-01    1.797501e+00   3.400598e-02
  5.714030e-01    1.782780e+00   3.379422e-02
  5.736134e-01    1.725956e+00   3.318059e-02
  5.758239e-01    1.705821e+00   3.291604e-02
  5.780343e-01    1.730397e+00   3.308218e-02
  5.802448e-01    1.704402e+00   3.276402e-02
  5.824552e-01    1.671904e+00   3.238208e-02
  5.846657e-01    1.608517e+00   3.169609e-02
  5.868762e-01    1.629022e+00   3.183104e-02
  5.890866e-01    1.685352e+00   3.230955e-02
  5.912971e-01    1.664948e+00   3.204690e-02
  5.935075e-01    1.644599e+00   3.178463e-02
  5.957180e-01    1.624804e+00   3.152795e-02
  5.979284e-01    1.619994e+00   3.141697e-02
  6.001389e-01    1.656203e+00   3.170145e-02
  6.023494e-01    1.671320e+00   3.178115e-02
  6.045598e-01    1.617088e+00   3.119762e-02
  6.067703e-01    1.638857e+00   3.134374e-02
  6.089807e-01    1.641514e+00   3.130609e-02
  6.111912e-01    1.660551e+00   3.142420e-02
  6.134016e-01    1.715829e+00   3.187926e-02
  6.156121e-01    1.684255e+00   3.152180e-02
  6.178226e-01    1.676139e+00   3.138350e-02
  6.200330e-01    1.692383e+00   3.147300e-02
  6.222435e-01    1.744911e+00   3.189438e-02
  6.244539e-01    1.722748e+00   3.162915e-02
  6.266644e-01    1.722839e+00   3.156827e-02
  6.288748e-01    1.744205e+00   3.170159e-02
  6.310853e-01    1.754520e+00   3.173348e-02
  6.332957e-01    1.745452e+00   3.159025e-02
  6.355062e-01    1.718493e+00   3.128446e-02
  6.377167e-01    1.667877e+00   3.076114e-02
  6.399271e-01    1.701407e+00   3.100928e-02
  6.421376e-01    1.707734e+00   3.100757e-02
  6.443480e-01    1.672083e+00   3.062386e-02
  6.465585e-01    1.647212e+00   3.033765e-02
  6.487689e-01    1.663411e+00   3.042890e-02
  6.509794e-01    1.664658e+00   3.038288e-02
  6.531899e-01    1.638524e+00   3.008678e-02
  6.554003e-01    1.648246e+00   3.011915e-02
  6.576108e-01    1.600548e+00   2.962490e-02
  6.598212e-01    1.611174e+00   2.966784e-02
  6.620317e-01    1.631760e+00   2.980144e-02
  6.642421e-01    1.560237e+00   2.908711e-02
  6.664526e-01    1.555116e+00   2.898579e-02
  6.686630e-01    1.574064e+00   2.910794e-02
  6.708735e-01    1.580289e+00   2.911193e-02
  6.730840e-01    1.598572e+00   2.922647e-02
  6.752944e-01    1.558855e+00   2.880863e-02
  6.775049e-01    1.609502e+00   2.921972e-02
  6.797153e-01    1.618854e+00   2.925145e-02
  6.819258e-01    1.614316e+00   2.915772e-02
  6.841362e-01    1.606323e+00   2.903317e-02
  6.863467e-01    1.575004e+00   2.869723e-02
  6.885572e-01    1.590129e+00   2.878303e-02
  6.907676e-01    1.647514e+00   2.924529e-02
  6.929781e-01    1.609548e+00   2.885499e-02
  6.951885e-01    1.582439e+00   2.856028e-02
  6.973990e-01    1.593825e+00   2.861216e-02
  6.996094e-01    1.594698e+00   2.856965e-02
  7.018199e-01    1.603220e+00   2.859560e-02
  7.040303e-01    1.631251e+00   2.879383e-02
  7.062408e-01    1.598901e+00   2.845699e-02
  7.084513e-01    1.563777e+00   2.809371e-02
  7.106617e-01    1.591491e+00   2.829231e-02
  7.128722e-01    1.589931e+00   2.822952e-02
  7.150826e-01    1.577749e+00   2.807270e-02
  7.172931e-01    1.580114e+00   2.804529e-02
  7.195035e-01    1.606416e+00   2.822912e-02
  7.217140e-01    1.608110e+00   2.829401e-02
  7.239245e-01    1.580583e+00   2.827795e-02
  7.261349e-01    1.561755e+00   2.821719e-02
  7.283454e-01    1.594457e+00   2.858392e-02
  7.305558e-01    1.611699e+00   2.879270e-02
  7.327663e-01    1.605124e+00   2.877680e-02
  7.349767e-01    1.575274e+00   2.852438e-02
  7.371872e-01    1.536042e+00   2.815585e-02
  7.393976e-01    1.527833e+00   2.806649e-02
  7.416081e-01    1.590242e+00   2.861772e-02
  7.438186e-01    1.624152e+00   2.877467e-02
  7.460290e-01    1.581807e+00   2.810219e-02
  7.482395e-01    1.560750e+00   2.774408e-02
  7.504499e-01    1.579700e+00   2.777552e-02
  7.526604e-01    1.588848e+00   2.773874e-02
  7.548708e-01    1.575751e+00   2.753475e-02
  7.570813e-01    1.568257e+00   2.741831e-02
  7.592918e-01    1.598454e+00   2.764559e-02
  7.615022e-01    1.608970e+00   2.770221e-02
  7.637127e-01    1.582386e+00   2.743956e-02
  7.659231e-01    1.565398e+00   2.725995e-02
  7.681336e-01    1.576357e+00   2.732358e-02
  7.703440e-01    1.569813e+00   2.723564e-02
  7.725545e-01    1.581851e+00   2.730889e-02
  7.747650e-01    1.669864e+00   2.801902e-02
  7.769754e-01    1.607525e+00   2.743782e-02
  7.791859e-01    1.573164e+00   2.708953e-02
  7.813963e-01    1.587814e+00   2.716262e-02
  7.836068e-01    1.586869e+00   2.710252e-02
  7.858172e-01    1.586898e+00   2.705208e-02
  7.880277e-01    1.596432e+00   2.708162e-02
  7.902381e-01    1.610500e+00   2.715124e-02
  7.924486e-01    1.627397e+00   2.724276e-02
  7.946591e-01    1.634796e+00   2.725580e-02
  7.968695e-01    1.659573e+00   2.741244e-02
  7.990800e-01    1.666188e+00   2.741794e-02
  8.012904e-01    1.631177e+00   2.708142e-02
  8.035009e-01    1.627067e+00   2.699914e-02
  8.057113e-01    1.640620e+00   2.706448e-02
  8.079218e-01    1.675032e+00   2.729964e-02
  8.101323e-01    1.655680e+00   2.709542e-02
  8.123427e-01    1.650988e+00   2.701086e-02
  8.145532e-01    1.661097e+00   2.704707e-02
  8.167636e-01    1.632204e+00   2.676574e-02
  8.189741e-01    1.628905e+00   2.669408e-02
  8.211845e-01    1.686929e+00   2.711985e-02
  8.233950e-01    1.615829e+00   2.649903e-02
  8.256054e-01    1.623159e+00   2.651502e-02
  8.278159e-01    1.647532e+00   2.666927e-02
  8.300264e-01    1.664389e+00   2.676191e-02
  8.322368e-01    1.659115e+00   2.667612e-02
  8.344473e-01    1.637006e+00   2.645440e-02
  8.366577e-01    1.660036e+00   2.659700e-02
  8.388682e-01    1.635116e+00   2.635442e-02
  8.410786e-01    1.620331e+00   2.619317e-02
  8.432891e-01    1.665395e+00   2.651273e-02
  8.454996e-01    1.630154e+00   2.618922e-02
  8.477100e-01    1.649209e+00   2.630000e-02
  8.499205e-01    1.704620e+00   2.669619e-02
  8.521309e-01    1.702173e+00   2.663544e-02
  8.543414e-01    1.676671e+00   2.639392e-02
  8.565518e-01    1.671716e+00   2.631387e-02
  8.587623e-01    1.633736e+00   2.597272e-02
  8.609727e-01    1.618454e+00   2.581087e-02
  8.631832e-01    1.607098e+00   2.568050e-02
  8.653937e-01    1.626769e+00   2.579749e-02
  8.676041e-01    1.621259e+00   2.571491e-02
  8.698146e-01    1.623662e+00   2.569462e-02
  8.720250e-01    1.611499e+00   2.555919e-02
  8.742355e-01    1.582579e+00   2.529025e-02
  8.764459e-01    1.591130e+00   2.531979e-02
  8.786564e-01    1.568378e+00   2.510066e-02
  8.808669e-01    1.566604e+00   2.504839e-02
  8.830773e-01    1.602955e+00   2.529921e-02
  8.852878e-01    1.582375e+00   2.509859e-02
  8.874982e-01    1.580317e+00   2.504585e-02
  8.897087e-01    1.569850e+00   2.492547e-02
  8.919191e-01    1.582174e+00   2.498556e-02
  8.941296e-01    1.582066e+00   2.494765e-02
  8.963401e-01    1.588404e+00   2.496128e-02
  8.985505e-01    1.582894e+00   2.488119e-02
  9.007610e-01    1.559716e+00   2.466207e-02
  9.029714e-01    1.591160e+00   2.487367e-02
  9.051819e-01    1.583654e+00   2.477792e-02
  9.073923e-01    1.573647e+00   2.466323e-02
  9.096028e-01    1.615090e+00   2.495080e-02
  9.118132e-01    1.626368e+00   2.500125e-02
  9.140237e-01    1.593634e+00   2.471185e-02
  9.162342e-01    1.569716e+00   2.449143e-02
  9.184446e-01    1.609002e+00   2.476018e-02
  9.206551e-01    1.606077e+00   2.470200e-02
  9.228655e-01    1.595759e+00   2.458734e-02
  9.250760e-01    1.613871e+00   2.469097e-02
  9.272864e-01    1.597066e+00   2.452791e-02
  9.294969e-01    1.583702e+00   2.438945e-02
  9.317074e-01    1.630248e+00   2.471030e-02
  9.339178e-01    1.617931e+00   2.458317e-02
  9.361283e-01    1.590810e+00   2.434032e-02
  9.383387e-01    1.637491e+00   2.466127e-02
  9.405492e-01    1.628663e+00   2.456036e-02
  9.427596e-01    1.641349e+00   2.462033e-02
  9.449701e-01    1.636277e+00   2.454886e-02
  9.471805e-01    1.642123e+00   2.455784e-02
  9.493910e-01    1.659805e+00   2.465582e-02
  9.516015e-01    1.643869e+00   2.450291e-02
  9.538119e-01    1.693703e+00   2.483745e-02
  9.560224e-01    1.744625e+00   2.517259e-02
  9.582328e-01    1.771386e+00   2.533088e-02
  9.604433e-01    1.766243e+00   2.525829e-02
  9.626537e-01    1.739394e+00   2.503185e-02
  9.648642e-01    1.776655e+00   2.526389e-02
  9.670747e-01    1.785496e+00   2.529176e-02
  9.692851e-01    1.853360e+00   2.573366e-02
  9.714956e-01    1.877656e+00   2.586527e-02
  9.737060e-01    1.848581e+00   2.563053e-02
  9.759165e-01    1.836422e+00   2.551007e-02
  9.781269e-01    1.827044e+00   2.541156e-02
  9.803374e-01    1.826526e+00   2.537283e-02
  9.825478e-01    1.833117e+00   2.538502e-02
  9.847583e-01    1.853996e+00   2.549452e-02
  9.869688e-01    1.840405e+00   2.536691e-02
  9.891792e-01    1.773919e+00   2.487139e-02
  9.913897e-01    1.768691e+00   2.480120e-02
  9.936001e-01    1.734642e+00   2.452917e-02
  9.958106e-01    1.729468e+00   2.445927e-02
  9.980210e-01    1.703685e+00   2.424475e-02
  1.000231e+00    1.685490e+00   2.424705e-02
  1.002442e+00    1.659917e+00   2.419026e-02
  1.004652e+00    1.618717e+00   2.395480e-02
  1.006863e+00    1.575364e+00   2.368088e-02
  1.009073e+00    1.580066e+00   2.375248e-02
  1.011284e+00    1.611633e+00   2.402065e-02
  1.013494e+00    1.614071e+00   2.406265e-02
  1.015705e+00    1.612724e+00   2.407534e-02
  1.017915e+00    1.596606e+00   2.397124e-02
  1.020126e+00    1.593004e+00   2.396038e-02
  1.022336e+00    1.556278e+00   2.369422e-02
  1.024547e+00    1.523679e+00   2.345588e-02
  1.026757e+00    1.542226e+00   2.360654e-02
  1.028967e+00    1.550887e+00   2.368045e-02
  1.031178e+00    1.541701e+00   2.361638e-02
  1.033388e+00    1.525312e+00   2.349558e-02
  1.035599e+00    1.510980e+00   2.338833e-02
  1.037809e+00    1.531964e+00   2.355344e-02
  1.040020e+00    1.510520e+00   2.338930e-02
  1.042230e+00    1.534467e+00   2.357588e-02
  1.044441e+00    1.530710e+00   2.354683e-02
  1.046651e+00    1.537067e+00   2.359578e-02
  1.048862e+00    1.687015e+00   2.471911e-02
  1.051072e+00    1.741179e+00   2.511028e-02
  1.053282e+00    1.709599e+00   2.488054e-02
  1.055493e+00    1.624182e+00   2.424653e-02
  1.057703e+00    1.558344e+00   2.374848e-02
  1.059914e+00    1.480797e+00   2.314579e-02
  1.062124e+00    1.463705e+00   2.300779e-02
  1.064335e+00    1.468360e+00   2.304091e-02
  1.066545e+00    1.473941e+00   2.307869e-02
  1.068756e+00    1.450972e+00   2.289447e-02
  1.070966e+00    1.434532e+00   2.275795e-02
  1.073177e+00    1.411797e+00   2.257097e-02
  1.075387e+00    1.441046e+00   2.279839e-02
  1.077597e+00    1.433642e+00   2.273259e-02
  1.079808e+00    1.431821e+00   2.258688e-02
  1.082018e+00    1.436055e+00   2.243291e-02
  1.084229e+00    1.443604e+00   2.238240e-02
  1.086439e+00    1.444279e+00   2.230051e-02
  1.088650e+00    1.497187e+00   2.262853e-02
  1.090860e+00    1.463235e+00   2.230267e-02
  1.093071e+00    1.435802e+00   2.203074e-02
  1.095281e+00    1.416171e+00   2.182296e-02
  1.097492e+00    1.378919e+00   2.148039e-02
  1.099702e+00    1.394309e+00   2.154935e-02
  1.101912e+00    1.431121e+00   2.178325e-02
  1.104123e+00    1.423061e+00   2.167383e-02
  1.106333e+00    1.411160e+00   2.153892e-02
  1.108544e+00    1.409555e+00   2.148273e-02
  1.110754e+00    1.398954e+00   2.135919e-02
  1.112965e+00    1.414328e+00   2.143581e-02
  1.115175e+00    1.385467e+00   2.117531e-02
  1.117386e+00    1.384094e+00   2.112597e-02
  1.119596e+00    1.382610e+00   2.107718e-02
  1.121807e+00    1.393036e+00   2.111790e-02
  1.124017e+00    1.406595e+00   2.118379e-02
  1.126228e+00    1.410122e+00   2.117450e-02
  1.128438e+00    1.396539e+00   2.103558e-02
  1.130648e+00    1.407737e+00   2.108532e-02
  1.132859e+00    1.396652e+00   2.096778e-02
  1.135069e+00    1.407519e+00   2.101428e-02
  1.137280e+00    1.424598e+00   2.110797e-02
  1.139490e+00    1.412941e+00   2.098808e-02
  1.141701e+00    1.379343e+00   2.070399e-02
  1.143911e+00    1.372505e+00   2.062087e-02
  1.146122e+00    1.378908e+00   2.063691e-02
  1.148332e+00    1.391833e+00   2.070139e-02
  1.150543e+00    1.387128e+00   2.063543e-02
  1.152753e+00    1.388123e+00   2.061184e-02
  1.154963e+00    1.383641e+00   2.054740e-02
  1.157174e+00    1.383922e+00   2.051920e-02
  1.159384e+00    1.361631e+00   2.032355e-02
  1.161595e+00    1.342112e+00   2.014782e-02
  1.163805e+00    1.356760e+00   2.022832e-02
  1.166016e+00    1.371924e+00   2.031158e-02
  1.168226e+00    1.378848e+00   2.033369e-02
  1.170437e+00    1.386641e+00   2.036223e-02
  1.172647e+00    1.369324e+00   2.020575e-02
  1.174858e+00    1.371369e+00   2.019266e-02
  1.177068e+00    1.352589e+00   2.002578e-02
  1.179278e+00    1.353085e+00   2.000095e-02
  1.181489e+00    1.355756e+00   1.999372e-02
  1.183699e+00    1.350658e+00   1.992860e-02
  1.185910e+00    1.344830e+00   1.985792e-02
  1.188120e+00    1.370227e+00   2.001771e-02
  1.190331e+00    1.363121e+00   1.993893e-02
  1.192541e+00    1.369400e+00   1.995725e-02
  1.194752e+00    1.379768e+00   2.000535e-02
  1.196962e+00    1.354864e+00   1.979823e-02
  1.199173e+00    1.348429e+00   1.972465e-02
  1.201383e+00    1.331607e+00   1.957428e-02
  1.203593e+00    1.329565e+00   1.953460e-02
  1.205804e+00    1.353447e+00   1.968333e-02
  1.208014e+00    1.328301e+00   1.947299e-02
  1.210225e+00    1.349548e+00   1.960277e-02
  1.212435e+00    1.417390e+00   2.006404e-02
  1.214646e+00    1.460436e+00   2.033931e-02
  1.216856e+00    1.437845e+00   2.015510e-02
  1.219067e+00    1.383887e+00   1.974853e-02
  1.221277e+00    1.369218e+00   1.961838e-02
  1.223488e+00    1.375516e+00   1.963744e-02
  1.225698e+00    1.368454e+00   1.955990e-02
  1.227909e+00    1.348565e+00   1.938707e-02
  1.230119e+00    1.390823e+00   1.965615e-02
  1.232329e+00    1.360339e+00   1.940872e-02
  1.234540e+00    1.382732e+00   1.953716e-02
  1.236750e+00    1.369802e+00   1.941511e-02
  1.238961e+00    1.384785e+00   1.949369e-02
  1.241171e+00    1.352254e+00   1.923916e-02
  1.243382e+00    1.349839e+00   1.919845e-02
  1.245592e+00    1.372068e+00   1.933158e-02
  1.247803e+00    1.364732e+00   1.925607e-02
  1.250013e+00    1.369692e+00   1.926731e-02
  1.252224e+00    1.366465e+00   1.922120e-02
  1.254434e+00    1.374486e+00   1.925359e-02
  1.256644e+00    1.352434e+00   1.907527e-02
  1.258855e+00    1.359558e+00   1.910210e-02
  1.261065e+00    1.343576e+00   1.896619e-02
  1.263276e+00    1.359669e+00   1.905639e-02
  1.265486e+00    1.369038e+00   1.909892e-02
  1.267697e+00    1.359925e+00   1.901212e-02
  1.269907e+00    1.367980e+00   1.904551e-02
  1.272118e+00    1.350212e+00   1.889884e-02
  1.274328e+00    1.349658e+00   1.887222e-02
  1.276539e+00    1.364372e+00   1.895192e-02
  1.278749e+00    1.364864e+00   1.893292e-02
  1.280959e+00    1.378980e+00   1.900780e-02
  1.283170e+00    1.383620e+00   1.901705e-02
  1.285380e+00    1.379172e+00   1.896377e-02
  1.287591e+00    1.386446e+00   1.899138e-02
  1.289801e+00    1.372886e+00   1.887688e-02
  1.292012e+00    1.383586e+00   1.893300e-02
  1.294222e+00    1.376613e+00   1.886882e-02
  1.296433e+00    1.372261e+00   1.882325e-02
  1.298643e+00    1.349375e+00   1.864915e-02
  1.300854e+00    1.367385e+00   1.875667e-02
  1.303064e+00    1.365681e+00   1.872566e-02
  1.305274e+00    1.361902e+00   1.867819e-02
  1.307485e+00    1.372333e+00   1.872786e-02
  1.309695e+00    1.346034e+00   1.852535e-02
  1.311906e+00    1.358956e+00   1.859226e-02
  1.314116e+00    1.366214e+00   1.862094e-02
  1.316327e+00    1.365639e+00   1.859521e-02
  1.318537e+00    1.366798e+00   1.858107e-02
  1.320748e+00    1.363163e+00   1.853470e-02
  1.322958e+00    1.360488e+00   1.849589e-02
  1.325169e+00    1.387226e+00   1.865546e-02
  1.327379e+00    1.380601e+00   1.858880e-02
  1.329589e+00    1.387704e+00   1.861520e-02
  1.331800e+00    1.380455e+00   1.854559e-02
  1.334010e+00    1.393269e+00   1.861047e-02
  1.336221e+00    1.385082e+00   1.853370e-02
  1.338431e+00    1.380747e+00   1.848355e-02
  1.340642e+00    1.391788e+00   1.862246e-02
  1.342852e+00    1.379604e+00   1.864256e-02
  1.345063e+00    1.358494e+00   1.854900e-02
  1.347273e+00    1.404508e+00   1.889647e-02
  1.349484e+00    1.406620e+00   1.893893e-02
  1.351694e+00    1.389080e+00   1.884351e-02
  1.353905e+00    1.438189e+00   1.919226e-02
  1.356115e+00    1.498122e+00   1.960394e-02
  1.358325e+00    1.432377e+00   1.918273e-02
  1.360536e+00    1.352157e+00   1.864942e-02
  1.362746e+00    1.361357e+00   1.872234e-02
  1.364957e+00    1.393612e+00   1.895065e-02
  1.367167e+00    1.376793e+00   1.884318e-02
  1.369378e+00    1.368713e+00   1.879386e-02
  1.371588e+00    1.374077e+00   1.883586e-02
  1.373799e+00    1.409088e+00   1.907804e-02
  1.376009e+00    1.403143e+00   1.904129e-02
  1.378220e+00    1.357930e+00   1.873452e-02
  1.380430e+00    1.355964e+00   1.872369e-02
  1.382640e+00    1.371735e+00   1.883317e-02
  1.384851e+00    1.343081e+00   1.863634e-02
  1.387061e+00    1.303209e+00   1.835791e-02
  1.389272e+00    1.305387e+00   1.837343e-02
  1.391482e+00    1.316076e+00   1.844783e-02
  1.393693e+00    1.320724e+00   1.847951e-02
  1.395903e+00    1.288441e+00   1.825075e-02
  1.398114e+00    1.282153e+00   1.820479e-02
  1.400324e+00    1.267017e+00   1.809489e-02
  1.402535e+00    1.285337e+00   1.822292e-02
  1.404745e+00    1.356737e+00   1.871971e-02
  1.406955e+00    1.561733e+00   2.008124e-02
  1.409166e+00    1.550371e+00   2.000452e-02
  1.411376e+00    1.354696e+00   1.869634e-02
  1.413587e+00    1.275998e+00   1.814127e-02
  1.415797e+00    1.283709e+00   1.819246e-02
  1.418008e+00    1.272841e+00   1.807336e-02
  1.420218e+00    1.264134e+00   1.786206e-02
  1.422429e+00    1.250231e+00   1.767892e-02
  1.424639e+00    1.258492e+00   1.767282e-02
  1.426850e+00    1.290127e+00   1.783844e-02
  1.429060e+00    1.296219e+00   1.783102e-02
  1.431270e+00    1.291747e+00   1.775555e-02
  1.433481e+00    1.290819e+00   1.770787e-02
  1.435691e+00    1.291132e+00   1.767129e-02
  1.437902e+00    1.260906e+00   1.742688e-02
  1.440112e+00    1.247051e+00   1.729585e-02
  1.442323e+00    1.257776e+00   1.733717e-02
  1.444533e+00    1.271631e+00   1.739982e-02
  1.446744e+00    1.254369e+00   1.725041e-02
  1.448954e+00    1.257979e+00   1.724513e-02
  1.451165e+00    1.287468e+00   1.741614e-02
  1.453375e+00    1.280671e+00   1.734194e-02
  1.455586e+00    1.282463e+00   1.732578e-02
  1.457796e+00    1.275730e+00   1.725265e-02
  1.460006e+00    1.282968e+00   1.727414e-02
  1.462217e+00    1.252189e+00   1.703965e-02
  1.464427e+00    1.254009e+00   1.702657e-02
  1.466638e+00    1.258572e+00   1.703228e-02
  1.468848e+00    1.285535e+00   1.718829e-02
  1.471059e+00    1.246283e+00   1.689899e-02
  1.473269e+00    1.229717e+00   1.676228e-02
  1.475480e+00    1.250780e+00   1.688163e-02
  1.477690e+00    1.273837e+00   1.701263e-02
  1.479901e+00    1.287091e+00   1.707689e-02
  1.482111e+00    1.277867e+00   1.699218e-02
  1.484321e+00    1.282866e+00   1.700211e-02
  1.486532e+00    1.337311e+00   1.733619e-02
  1.488742e+00    1.339409e+00   1.732650e-02
  1.490953e+00    1.329918e+00   1.724183e-02
  1.493163e+00    1.280040e+00   1.689297e-02
  1.495374e+00    1.301623e+00   1.701298e-02
  1.497584e+00    1.284772e+00   1.688066e-02
  1.499795e+00    1.250148e+00   1.663007e-02
  1.502005e+00    1.262076e+00   1.668751e-02
  1.504216e+00    1.251796e+00   1.659845e-02
  1.506426e+00    1.241051e+00   1.650637e-02
  1.508636e+00    1.247952e+00   1.653183e-02
  1.510847e+00    1.273791e+00   1.668012e-02
  1.513057e+00    1.245815e+00   1.647097e-02
  1.515268e+00    1.263277e+00   1.656017e-02
  1.517478e+00    1.266297e+00   1.655471e-02
  1.519689e+00    1.235487e+00   1.632728e-02
  1.521899e+00    1.262117e+00   1.647913e-02
  1.524110e+00    1.261127e+00   1.645226e-02
  1.526320e+00    1.272419e+00   1.650600e-02
  1.528531e+00    1.295995e+00   1.663811e-02
  1.530741e+00    1.273463e+00   1.647352e-02
  1.532951e+00    1.250202e+00   1.630277e-02
  1.535162e+00    1.268527e+00   1.650908e-02
  1.537372e+00    1.269415e+00   1.658231e-02
  1.539583e+00    1.272162e+00   1.663479e-02
  1.541793e+00    1.271608e+00   1.663819e-02
  1.544004e+00    1.268931e+00   1.662092e-02
  1.546214e+00    1.244994e+00   1.646192e-02
  1.548425e+00    1.238791e+00   1.642109e-02
  1.550635e+00    1.252457e+00   1.652115e-02
  1.552846e+00    1.259766e+00   1.657898e-02
  1.555056e+00    1.267307e+00   1.658669e-02
  1.557266e+00    1.240270e+00   1.629854e-02
  1.559477e+00    1.217640e+00   1.609067e-02
  1.561687e+00    1.251397e+00   1.628143e-02
  1.563898e+00    1.245987e+00   1.622905e-02
  1.566108e+00    1.239063e+00   1.616796e-02
  1.568319e+00    1.241555e+00   1.616861e-02
  1.570529e+00    1.269856e+00   1.632646e-02
  1.572740e+00    1.240624e+00   1.610988e-02
  1.574950e+00    1.262253e+00   1.622321e-02
  1.577161e+00    1.258593e+00   1.617403e-02
  1.579371e+00    1.259970e+00   1.615909e-02
  1.581582e+00    1.236263e+00   1.598662e-02
  1.583792e+00    1.274834e+00   1.621586e-02
  1.586002e+00    1.278409e+00   1.622073e-02
  1.588213e+00    1.263032e+00   1.610552e-02
  1.590423e+00    1.239689e+00   1.593595e-02
  1.592634e+00    1.247913e+00   1.596705e-02
  1.594844e+00    1.247781e+00   1.594479e-02
  1.597055e+00    1.247240e+00   1.592078e-02
  1.599265e+00    1.246670e+00   1.589640e-02
  1.601476e+00    1.245117e+00   1.586614e-02
  1.603686e+00    1.242187e+00   1.582769e-02
  1.605897e+00    1.250009e+00   1.585718e-02
  1.608107e+00    1.262282e+00   1.591510e-02
  1.610317e+00    1.257803e+00   1.586736e-02
  1.612528e+00    1.237363e+00   1.571872e-02
  1.614738e+00    1.217132e+00   1.557085e-02
  1.616949e+00    1.195094e+00   1.541051e-02
  1.619159e+00    1.195304e+00   1.539333e-02
  1.621370e+00    1.186535e+00   1.531859e-02
  1.623580e+00    1.207877e+00   1.543742e-02
  1.625791e+00    1.211602e+00   1.544294e-02
  1.628001e+00    1.205451e+00   1.538541e-02
  1.630212e+00    1.184932e+00   1.523621e-02
  1.632422e+00    1.185078e+00   1.521926e-02
  1.634632e+00    1.320699e+00   1.604813e-02
  1.636843e+00    1.645557e+00   1.789284e-02
  1.639053e+00    1.332659e+00   1.608371e-02
  1.641264e+00    1.167534e+00   1.503721e-02
  1.643474e+00    1.176780e+00   1.507910e-02
  1.645685e+00    1.174352e+00   1.504679e-02
  1.647895e+00    1.151654e+00   1.488409e-02
  1.650106e+00    1.179364e+00   1.504487e-02
  1.652316e+00    1.199514e+00   1.515601e-02
  1.654527e+00    1.175024e+00   1.498359e-02
  1.656737e+00    1.251572e+00   1.544651e-02
  1.658947e+00    1.332609e+00   1.592117e-02
  1.661158e+00    1.178712e+00   1.495700e-02
  1.663368e+00    1.119149e+00   1.455818e-02
  1.665579e+00    1.141949e+00   1.468937e-02
  1.667789e+00    1.177506e+00   1.489968e-02
  1.670000e+00    1.186500e+00   1.494045e-02
  1.672210e+00    1.197043e+00   1.499021e-02
  1.674421e+00    1.193115e+00   1.494967e-02
  1.676631e+00    1.178104e+00   1.483892e-02
  1.678842e+00    1.143325e+00   1.460217e-02
  1.681052e+00    1.105160e+00   1.434090e-02
  1.683263e+00    1.073803e+00   1.412097e-02
  1.685473e+00    1.068728e+00   1.407252e-02
  1.687683e+00    1.073519e+00   1.408867e-02
  1.689894e+00    1.065157e+00   1.401804e-02
  1.692104e+00    1.083903e+00   1.412587e-02
  1.694315e+00    1.087633e+00   1.413556e-02
  1.696525e+00    1.080283e+00   1.407250e-02
  1.698736e+00    1.070577e+00   1.399427e-02
  1.700946e+00    1.054797e+00   1.387566e-02
  1.703157e+00    1.048647e+00   1.382056e-02
  1.705367e+00    1.038201e+00   1.373717e-02
  1.707578e+00    1.021324e+00   1.361067e-02
  1.709788e+00    1.008834e+00   1.351332e-02
  1.711998e+00    1.017019e+00   1.355321e-02
  1.714209e+00    1.004824e+00   1.345751e-02
  1.716419e+00    1.002610e+00   1.342863e-02
  1.718630e+00    9.984335e-01   1.338659e-02
  1.720840e+00    9.998658e-01   1.338219e-02
  1.723051e+00    9.951146e-01   1.333670e-02
  1.725261e+00    1.002725e+00   1.337305e-02
  1.727472e+00    1.023298e+00   1.349534e-02
  1.729682e+00    1.000974e+00   1.333397e-02
  1.731893e+00    9.847388e-01   1.321166e-02
  1.734103e+00    9.635700e-01   1.305542e-02
  1.736313e+00    9.778343e-01   1.313787e-02
  1.738524e+00    9.814327e-01   1.314834e-02
  1.740734e+00    9.738739e-01   1.308408e-02
  1.742945e+00    9.683579e-01   1.303372e-02
  1.745155e+00    9.682205e-01   1.301950e-02
  1.747366e+00    9.773608e-01   1.306709e-02
  1.749576e+00    9.755281e-01   1.304122e-02
  1.751787e+00    9.664083e-01   1.296691e-02
  1.753997e+00    9.552633e-01   1.287869e-02
  1.756208e+00    9.650042e-01   1.293106e-02
  1.758418e+00    9.526486e-01   1.283503e-02
  1.760628e+00    9.524278e-01   1.282030e-02
  1.762839e+00    9.353008e-01   1.269151e-02
  1.765049e+00    9.424458e-01   1.272689e-02
  1.767260e+00    9.556756e-01   1.280313e-02
  1.769470e+00    9.632524e-01   1.284075e-02
  1.771681e+00    9.497900e-01   1.273758e-02
  1.773891e+00    9.324446e-01   1.260781e-02
  1.776102e+00    9.301742e-01   1.257970e-02
  1.778312e+00    9.163067e-01   1.247302e-02
  1.780523e+00    9.177866e-01   1.247052e-02
  1.782733e+00    9.152947e-01   1.244106e-02
  1.784944e+00    9.093816e-01   1.238811e-02
  1.787154e+00    8.963770e-01   1.228692e-02
  1.789364e+00    8.956809e-01   1.226989e-02
  1.791575e+00    9.151350e-01   1.238998e-02
  1.793785e+00    9.047308e-01   1.230707e-02
  1.795996e+00    9.120023e-01   1.234396e-02
  1.798206e+00    9.017574e-01   1.226205e-02
  1.800417e+00    8.952925e-01   1.220547e-02
  1.802627e+00    8.897925e-01   1.215614e-02
  1.804838e+00    9.125622e-01   1.229858e-02
  1.807048e+00    9.237781e-01   1.236099e-02
  1.809259e+00    9.122837e-01   1.227021e-02
  1.811469e+00    9.081473e-01   1.222738e-02
  1.813679e+00    8.993008e-01   1.215271e-02
  1.815890e+00    9.177415e-01   1.226177e-02
  1.818100e+00    8.839628e-01   1.201902e-02
  1.820311e+00    8.734072e-01   1.193242e-02
  1.822521e+00    8.799846e-01   1.196252e-02
  1.824732e+00    8.541003e-01   1.177076e-02
  1.826942e+00    8.654435e-01   1.183648e-02
  1.829153e+00    8.485298e-01   1.170880e-02
  1.831363e+00    8.555013e-01   1.174495e-02
  1.833574e+00    8.691208e-01   1.182649e-02
  1.835784e+00    8.625473e-01   1.177035e-02
  1.837994e+00    8.879617e-01   1.193071e-02
  1.840205e+00    8.720743e-01   1.181236e-02
  1.842415e+00    8.646634e-01   1.175033e-02
  1.844626e+00    8.453711e-01   1.160713e-02
  1.846836e+00    8.446860e-01   1.159113e-02
  1.849047e+00    8.658102e-01   1.172357e-02
  1.851257e+00    8.631660e-01   1.169609e-02
  1.853468e+00    8.806866e-01   1.180531e-02
  1.855678e+00    8.723855e-01   1.174059e-02
  1.857889e+00    8.845015e-01   1.181321e-02
  1.860099e+00    9.010364e-01   1.191426e-02
  1.862309e+00    9.122999e-01   1.197973e-02
  1.864520e+00    8.977817e-01   1.187526e-02
  1.866730e+00    8.666880e-01   1.165835e-02
  1.868941e+00    8.601362e-01   1.160319e-02
  1.871151e+00    8.793162e-01   1.172027e-02
  1.873362e+00    8.818971e-01   1.172592e-02
  1.875572e+00    8.787900e-01   1.169410e-02
  1.877783e+00    8.824487e-01   1.170678e-02
  1.879993e+00    8.611216e-01   1.155319e-02
  1.882204e+00    8.684556e-01   1.159123e-02
  1.884414e+00    8.545976e-01   1.148724e-02
  1.886624e+00    8.440964e-01   1.140538e-02
  1.888835e+00    8.381578e-01   1.135422e-02
  1.891045e+00    8.429899e-01   1.137601e-02
  1.893256e+00    8.300211e-01   1.127712e-02
  1.895466e+00    8.473678e-01   1.138313e-02
  1.897677e+00    8.174328e-01   1.116945e-02
  1.899887e+00    8.196768e-01   1.117388e-02
  1.902098e+00    8.093835e-01   1.109281e-02
  1.904308e+00    8.208737e-01   1.116074e-02
  1.906519e+00    8.302375e-01   1.121337e-02
  1.908729e+00    8.296013e-01   1.119848e-02
  1.910940e+00    8.317158e-01   1.120158e-02
  1.913150e+00    8.371050e-01   1.122716e-02
  1.915360e+00    8.190187e-01   1.109463e-02
  1.917571e+00    8.173193e-01   1.107227e-02
  1.919781e+00    8.274829e-01   1.113016e-02
  1.921992e+00    8.200764e-01   1.106965e-02
  1.924202e+00    8.011060e-01   1.093020e-02
  1.926413e+00    7.967960e-01   1.089056e-02
  1.928623e+00    8.063076e-01   1.094490e-02
  1.930834e+00    8.025784e-01   1.090919e-02
  1.933044e+00    7.966111e-01   1.085800e-02
  1.935255e+00    7.922996e-01   1.081834e-02
  1.937465e+00    8.039778e-01   1.088743e-02
  1.939675e+00    7.983998e-01   1.083879e-02
  1.941886e+00    8.096418e-01   1.090453e-02
  1.944096e+00    7.894370e-01   1.075752e-02
  1.946307e+00    7.905478e-01   1.075480e-02
  1.948517e+00    8.024959e-01   1.082532e-02
  1.950728e+00    7.928468e-01   1.074983e-02
  1.952938e+00    7.796583e-01   1.065008e-02
  1.955149e+00    7.912216e-01   1.071854e-02
  1.957359e+00    7.925097e-01   1.071727e-02
  1.959570e+00    7.823606e-01   1.063763e-02
  1.961780e+00    7.944597e-01   1.070964e-02
  1.963990e+00    7.875292e-01   1.065275e-02
  1.966201e+00    7.935998e-01   1.068362e-02
  1.968411e+00    7.996634e-01   1.071417e-02
  1.970622e+00    7.872400e-01   1.062051e-02
  1.972832e+00    7.922074e-01   1.064398e-02
  1.975043e+00    7.889876e-01   1.061225e-02
  1.977253e+00    7.986264e-01   1.066685e-02
  1.979464e+00    7.975525e-01   1.064955e-02
  1.981674e+00    8.028089e-01   1.067419e-02
  1.983885e+00    7.878077e-01   1.056394e-02
  1.986095e+00    7.767424e-01   1.047980e-02
  1.988305e+00    8.003362e-01   1.062775e-02
  1.990516e+00    7.846219e-01   1.051294e-02
  1.992726e+00    7.990770e-01   1.059953e-02
  1.994937e+00    7.844054e-01   1.049162e-02
  1.997147e+00    7.714602e-01   1.039496e-02
  1.999358e+00    7.694468e-01   1.037159e-02
  2.001568e+00    7.631782e-01   1.031849e-02
  2.003779e+00    7.975491e-01   1.053618e-02
  2.005989e+00    7.914611e-01   1.048374e-02
  2.008200e+00    7.851385e-01   1.043013e-02
  2.010410e+00    7.706628e-01   1.032178e-02
  2.012621e+00    7.801397e-01   1.037325e-02
  2.014831e+00    7.777961e-01   1.034611e-02
  2.017041e+00    7.700126e-01   1.028382e-02
  2.019252e+00    7.658861e-01   1.024625e-02
  2.021462e+00    7.711492e-01   1.027186e-02
  2.023673e+00    7.493461e-01   1.011631e-02
  2.025883e+00    7.505378e-01   1.011491e-02
  2.028094e+00    7.534468e-01   1.012490e-02
  2.030304e+00    7.853521e-01   1.032737e-02
  2.032515e+00    7.818421e-01   1.029484e-02
  2.034725e+00    7.866023e-01   1.031652e-02
  2.036936e+00    7.790784e-01   1.025761e-02
  2.039146e+00    7.683829e-01   1.017732e-02
  2.041356e+00    7.685596e-01   1.016875e-02
  2.043567e+00    7.539235e-01   1.006219e-02
  2.045777e+00    7.738572e-01   1.018494e-02
  2.047988e+00    7.934852e-01   1.030373e-02
  2.050198e+00    7.694395e-01   1.013787e-02
  2.052409e+00    7.734460e-01   1.015648e-02
  2.054619e+00    7.610484e-01   1.006733e-02
  2.056830e+00    7.725148e-01   1.013560e-02
  2.059040e+00    7.400231e-01   9.912712e-03
  2.061251e+00    7.575058e-01   1.002183e-02
  2.063461e+00    7.610788e-01   1.003779e-02
  2.065671e+00    7.413285e-01   9.898015e-03
  2.067882e+00    7.599313e-01   1.001234e-02
  2.070092e+00    7.655339e-01   1.003991e-02
  2.072303e+00    7.500717e-01   9.928821e-03
  2.074513e+00    7.471567e-01   9.900174e-03
  2.076724e+00    7.572867e-01   9.957517e-03
  2.078934e+00    7.396871e-01   9.832162e-03
  2.081145e+00    7.416859e-01   9.836343e-03
  2.083355e+00    7.557600e-01   9.919979e-03
  2.085566e+00    7.405723e-01   9.810904e-03
  2.087776e+00    7.502035e-01   9.864897e-03
  2.089986e+00    7.448482e-01   9.820823e-03
  2.092197e+00    7.421170e-01   9.793809e-03
  2.094407e+00    7.340991e-01   9.731539e-03
  2.096618e+00    7.508578e-01   9.832993e-03
  2.098828e+00    7.430000e-01   9.772066e-03
  2.101039e+00    7.319513e-01   9.690144e-03
  2.103249e+00    7.450742e-01   9.767877e-03
  2.105460e+00    7.374513e-01   9.708721e-03
  2.107670e+00    7.267307e-01   9.629175e-03
  2.109881e+00    7.112093e-01   9.516731e-03
  2.112091e+00    7.076096e-01   9.483724e-03
  2.114301e+00    7.254463e-01   9.593735e-03
  2.116512e+00    7.165061e-01   9.525674e-03
  2.118722e+00    7.054028e-01   9.442873e-03
  2.120933e+00    7.326440e-01   9.614514e-03
  2.123143e+00    7.314507e-01   9.597715e-03
  2.125354e+00    7.192804e-01   9.509000e-03
  2.127564e+00    7.131302e-01   9.459538e-03
  2.129775e+00    7.023055e-01   9.378837e-03
  2.131985e+00    7.005305e-01   9.357989e-03
  2.134196e+00    7.196600e-01   9.476282e-03
  2.136406e+00    7.198349e-01   9.468641e-03
  2.138617e+00    7.089335e-01   9.388224e-03
  2.140827e+00    7.068172e-01   9.390244e-03
  2.143037e+00    7.083148e-01   9.445685e-03
  2.145248e+00    7.015663e-01   9.422532e-03
  2.147458e+00    6.958972e-01   9.399435e-03
  2.149669e+00    7.047994e-01   9.471205e-03
  2.151879e+00    6.933814e-01   9.403368e-03
  2.154090e+00    7.035345e-01   9.479274e-03
  2.156300e+00    7.019504e-01   9.475213e-03
  2.158511e+00    6.959876e-01   9.440171e-03
  2.160721e+00    6.981312e-01   9.459511e-03
  2.162932e+00    6.918102e-01   9.420319e-03
  2.165142e+00    6.928785e-01   9.430600e-03
  2.167352e+00    6.850344e-01   9.379956e-03
  2.169563e+00    6.948664e-01   9.448972e-03
  2.171773e+00    6.947989e-01   9.450978e-03
  2.173984e+00    6.940221e-01   9.447092e-03
  2.176194e+00    6.974078e-01   9.471321e-03
  2.178405e+00    6.898611e-01   9.420636e-03
  2.180615e+00    6.804774e-01   9.357016e-03
  2.182826e+00    6.937991e-01   9.448838e-03
  2.185036e+00    6.874582e-01   9.405626e-03
  2.187247e+00    6.890940e-01   9.416739e-03
  2.189457e+00    6.998181e-01   9.489339e-03
  2.191667e+00    6.868184e-01   9.400603e-03
  2.193878e+00    7.003204e-01   9.491990e-03
  2.196088e+00    6.756355e-01   9.322536e-03
  2.198299e+00    6.672739e-01   9.263567e-03
  2.200509e+00    6.803980e-01   9.353179e-03
  2.202720e+00    6.802243e-01   9.350833e-03
  2.204930e+00    6.881083e-01   9.403622e-03
  2.207141e+00    6.974000e-01   9.465762e-03
  2.209351e+00    6.904231e-01   9.416413e-03
  2.211562e+00    6.976542e-01   9.463945e-03
  2.213772e+00    6.840725e-01   9.315599e-03
  2.215982e+00    6.791106e-01   9.237437e-03
  2.218193e+00    6.687120e-01   9.136959e-03
  2.220403e+00    6.861700e-01   9.230673e-03
  2.222614e+00    6.831058e-01   9.188935e-03
  2.224824e+00    6.654147e-01   9.049918e-03
  2.227035e+00    6.497427e-01   8.925568e-03
  2.229245e+00    6.612601e-01   8.987462e-03
  2.231456e+00    6.867995e-01   9.143589e-03
  2.233666e+00    6.922597e-01   9.164555e-03
  2.235877e+00    6.653638e-01   8.970544e-03
  2.238087e+00    6.543669e-01   8.882780e-03
  2.240298e+00    6.639431e-01   8.933808e-03
  2.242508e+00    6.764651e-01   9.002466e-03
  2.244718e+00    6.591339e-01   8.870702e-03
  2.246929e+00    6.504983e-01   8.798163e-03
  2.249139e+00    6.739056e-01   8.942610e-03
  2.251350e+00    6.681184e-01   8.892437e-03
  2.253560e+00    6.565593e-01   8.803685e-03
  2.255771e+00    6.525590e-01   8.765531e-03
  2.257981e+00    6.612785e-01   8.812744e-03
  2.260192e+00    6.578909e-01   8.779112e-03
  2.262402e+00    6.377631e-01   8.633113e-03
  2.264613e+00    6.499030e-01   8.704177e-03
  2.266823e+00    6.704170e-01   8.830021e-03
  2.269033e+00    6.681646e-01   8.804766e-03
  2.271244e+00    6.580384e-01   8.727441e-03
  2.273454e+00    6.554851e-01   8.700270e-03
  2.275665e+00    6.489050e-01   8.646305e-03
  2.277875e+00    6.588300e-01   8.702238e-03
  2.280086e+00    6.609531e-01   8.706225e-03
  2.282296e+00    6.492230e-01   8.619287e-03
  2.284507e+00    6.585503e-01   8.670849e-03
  2.286717e+00    6.448523e-01   8.570828e-03
  2.288928e+00    6.564554e-01   8.637718e-03
  2.291138e+00    6.649976e-01   8.684267e-03
  2.293348e+00    6.631827e-01   8.662819e-03
  2.295559e+00    6.521645e-01   8.581256e-03
  2.297769e+00    6.519174e-01   8.570404e-03
  2.299980e+00    6.639093e-01   8.639457e-03
  2.302190e+00    6.489982e-01   8.532804e-03
  2.304401e+00    6.385027e-01   8.454297e-03
  2.306611e+00    6.400172e-01   8.455203e-03
  2.308822e+00    6.540722e-01   8.539124e-03
  2.311032e+00    6.397383e-01   8.438665e-03
  2.313243e+00    6.486835e-01   8.491173e-03
  2.315453e+00    6.490868e-01   8.486236e-03
  2.317663e+00    6.492748e-01   8.478337e-03
  2.319874e+00    6.421224e-01   8.422813e-03
  2.322084e+00    6.371531e-01   8.381243e-03
  2.324295e+00    6.576647e-01   8.506782e-03
  2.326505e+00    6.479278e-01   8.434501e-03
  2.328716e+00    6.402479e-01   8.375845e-03
  2.330926e+00    6.322210e-01   8.314433e-03
  2.333137e+00    6.454013e-01   8.392264e-03
  2.335347e+00    6.425717e-01   8.364977e-03
  2.337558e+00    6.387544e-01   8.331870e-03
  2.339768e+00    6.336751e-01   8.290153e-03
  2.341979e+00    6.384510e-01   8.312942e-03
  2.344189e+00    6.358767e-01   8.287814e-03
  2.346399e+00    6.426039e-01   8.322984e-03
  2.348610e+00    6.365399e-01   8.275164e-03
  2.350820e+00    6.530881e-01   8.373729e-03
  2.353031e+00    6.325970e-01   8.233069e-03
  2.355241e+00    6.299920e-01   8.208049e-03
  2.357452e+00    6.272758e-01   8.181946e-03
  2.359662e+00    6.307439e-01   8.196319e-03
  2.361873e+00    6.354960e-01   8.218876e-03
  2.364083e+00    6.282154e-01   8.163678e-03
  2.366294e+00    6.310817e-01   8.174140e-03
  2.368504e+00    6.329027e-01   8.177821e-03
  2.370714e+00    6.202542e-01   8.087674e-03
  2.372925e+00    6.327239e-01   8.160441e-03
  2.375135e+00    6.310396e-01   8.141496e-03
  2.377346e+00    6.290502e-01   8.120665e-03
  2.379556e+00    6.295909e-01   8.116217e-03
  2.381767e+00    6.209344e-01   8.052366e-03
  2.383977e+00    6.218150e-01   8.050136e-03
  2.386188e+00    6.148086e-01   7.996771e-03
  2.388398e+00    6.126320e-01   7.974676e-03
  2.390609e+00    6.217835e-01   8.026266e-03
  2.392819e+00    6.128339e-01   7.960542e-03
  2.395029e+00    6.127750e-01   7.952531e-03
  2.397240e+00    6.126364e-01   7.943750e-03
  2.399450e+00    6.206415e-01   7.987640e-03
  2.401661e+00    6.128282e-01   7.929523e-03
  2.403871e+00    6.059110e-01   7.876921e-03
  2.406082e+00    5.985148e-01   7.821315e-03
  2.408292e+00    6.128987e-01   7.906945e-03
  2.410503e+00    5.951592e-01   7.784259e-03
  2.412713e+00    6.052260e-01   7.842036e-03
  2.414924e+00    6.011737e-01   7.808287e-03
  2.417134e+00    6.094305e-01   7.854057e-03
  2.419344e+00    5.983761e-01   7.775126e-03
  2.421555e+00    5.973197e-01   7.760772e-03
  2.423765e+00    5.975173e-01   7.754674e-03
  2.425976e+00    5.925601e-01   7.714677e-03
  2.428186e+00    5.939078e-01   7.716259e-03
  2.430397e+00    5.960409e-01   7.722632e-03
  2.432607e+00    5.829140e-01   7.629918e-03
  2.434818e+00    5.910186e-01   7.675256e-03
  2.437028e+00    5.886826e-01   7.652961e-03
  2.439239e+00    5.999278e-01   7.718018e-03
  2.441449e+00    5.993028e-01   7.706753e-03
  2.443659e+00    5.856403e-01   7.611082e-03
  2.445870e+00    5.848080e-01   7.617883e-03
  2.448080e+00    5.762163e-01   7.596307e-03
  2.450291e+00    5.804768e-01   7.640987e-03
  2.452501e+00    5.823665e-01   7.664656e-03
  2.454712e+00    5.528257e-01   7.475993e-03
  2.456922e+00    5.598182e-01   7.529694e-03
  2.459133e+00    5.440738e-01   7.428359e-03
  2.461343e+00    5.540467e-01   7.500427e-03
  2.463554e+00    5.671954e-01   7.592405e-03
  2.465764e+00    5.425037e-01   7.428374e-03
  2.467975e+00    5.539141e-01   7.508358e-03
  2.470185e+00    5.577074e-01   7.536278e-03
  2.472395e+00    5.439045e-01   7.443657e-03
  2.474606e+00    5.483092e-01   7.475270e-03
  2.476816e+00    5.497285e-01   7.485682e-03
  2.479027e+00    5.546271e-01   7.519814e-03
  2.481237e+00    5.495303e-01   7.485454e-03
  2.483448e+00    5.479820e-01   7.475210e-03
  2.485658e+00    5.413747e-01   7.429866e-03
  2.487869e+00    5.501527e-01   7.489897e-03
  2.490079e+00    5.377052e-01   7.404168e-03
  2.492290e+00    5.352325e-01   7.386683e-03
  2.494500e+00    5.221464e-01   7.295111e-03
  2.496710e+00    5.260547e-01   7.321666e-03
  2.498921e+00    5.297120e-01   7.346083e-03
  2.501131e+00    5.282744e-01   7.335167e-03
  2.503342e+00    5.337431e-01   7.371772e-03
  2.505552e+00    5.382050e-01   7.401377e-03
  2.507763e+00    5.367993e-01   7.390286e-03
  2.509973e+00    5.353497e-01   7.378902e-03
  2.512184e+00    5.200588e-01   7.271161e-03
  2.514394e+00    5.173075e-01   7.242619e-03
  2.516605e+00    5.145009e-01   7.176415e-03
  2.518815e+00    5.174293e-01   7.168730e-03
  2.521025e+00    5.083705e-01   7.085080e-03
  2.523236e+00    5.102838e-01   7.080659e-03
  2.525446e+00    5.185112e-01   7.122032e-03
  2.527657e+00    5.235236e-01   7.141789e-03
  2.529867e+00    5.223584e-01   7.119691e-03
  2.532078e+00    5.336304e-01   7.180933e-03
  2.534288e+00    5.218959e-01   7.087708e-03
  2.536499e+00    5.325754e-01   7.147817e-03
  2.538709e+00    5.197152e-01   7.050051e-03
  2.540920e+00    5.251424e-01   7.076106e-03
  2.543130e+00    5.242597e-01   7.059798e-03
  2.545340e+00    5.167638e-01   6.999146e-03
  2.547551e+00    5.103373e-01   6.945661e-03
  2.549761e+00    5.095993e-01   6.931181e-03
  2.551972e+00    5.163999e-01   6.967962e-03
  2.554182e+00    5.142455e-01   6.944295e-03
  2.556393e+00    5.223081e-01   6.989427e-03
  2.558603e+00    5.190875e-01   6.958770e-03
  2.560814e+00    5.168762e-01   6.935265e-03
  2.563024e+00    5.113211e-01   6.889382e-03
  2.565235e+00    5.167975e-01   6.916684e-03
  2.567445e+00    5.156718e-01   6.899631e-03
  2.569656e+00    5.004456e-01   6.787434e-03
  2.571866e+00    5.088642e-01   6.834990e-03
  2.574076e+00    5.178799e-01   6.886011e-03
  2.576287e+00    5.121763e-01   6.839674e-03
  2.578497e+00    5.311705e-01   6.957405e-03
  2.580708e+00    5.049713e-01   6.775668e-03
  2.582918e+00    4.965165e-01   6.711046e-03
  2.585129e+00    5.195464e-01   6.857153e-03
  2.587339e+00    5.173823e-01   6.835136e-03
  2.589550e+00    5.248076e-01   6.876393e-03
  2.591760e+00    5.161765e-01   6.811836e-03
  2.593971e+00    5.045834e-01   6.727435e-03
  2.596181e+00    5.027178e-01   6.708815e-03
  2.598391e+00    5.082701e-01   6.740580e-03
  2.600602e+00    5.110430e-01   6.753018e-03
  2.602812e+00    5.082634e-01   6.727111e-03
  2.605023e+00    5.163062e-01   6.772898e-03
  2.607233e+00    5.142198e-01   6.752021e-03
  2.609444e+00    5.163663e-01   6.758797e-03
  2.611654e+00    5.163638e-01   6.751401e-03
  2.613865e+00    5.153940e-01   6.737954e-03
  2.616075e+00    5.057496e-01   6.667483e-03
  2.618286e+00    5.168552e-01   6.733207e-03
  2.620496e+00    5.206344e-01   6.750983e-03
  2.622706e+00    5.013951e-01   6.619362e-03
  2.624917e+00    5.047705e-01   6.635739e-03
  2.627127e+00    5.127067e-01   6.681906e-03
  2.629338e+00    5.220572e-01   6.736487e-03
  2.631548e+00    5.021593e-01   6.600718e-03
  2.633759e+00    4.889361e-01   6.506163e-03
  2.635969e+00    4.913936e-01   6.515862e-03
  2.638180e+00    4.963239e-01   6.541529e-03
  2.640390e+00    5.072412e-01   6.606445e-03
  2.642601e+00    4.977204e-01   6.537498e-03
  2.644811e+00    5.014949e-01   6.555164e-03
  2.647021e+00    5.115260e-01   6.613749e-03
  2.649232e+00    5.080174e-01   6.584274e-03
  2.651442e+00    4.985597e-01   6.516183e-03
  2.653653e+00    4.964894e-01   6.495867e-03
  2.655863e+00    4.969209e-01   6.492015e-03
  2.658074e+00    4.930279e-01   6.459965e-03
  2.660284e+00    4.895360e-01   6.430721e-03
  2.662495e+00    5.032229e-01   6.513213e-03
  2.664705e+00    5.051036e-01   6.518765e-03
  2.666916e+00    4.970163e-01   6.459886e-03
  2.669126e+00    5.014125e-01   6.481912e-03
  2.671337e+00    4.874278e-01   6.384349e-03
  2.673547e+00    4.982065e-01   6.448143e-03
  2.675757e+00    4.963256e-01   6.429510e-03
  2.677968e+00    4.893536e-01   6.377704e-03
  2.680178e+00    4.889867e-01   6.368936e-03
  2.682389e+00    4.986203e-01   6.424940e-03
  2.684599e+00    4.881183e-01   6.350770e-03
  2.686810e+00    4.809303e-01   6.297295e-03
  2.689020e+00    5.037706e-01   6.438720e-03
  2.691231e+00    4.953809e-01   6.378584e-03
  2.693441e+00    4.852288e-01   6.306765e-03
  2.695652e+00    4.842619e-01   6.293998e-03
  2.697862e+00    4.913227e-01   6.333369e-03
  2.700072e+00    4.763426e-01   6.230083e-03
  2.702283e+00    4.760286e-01   6.221885e-03
  2.704493e+00    4.849048e-01   6.273354e-03
  2.706704e+00    4.937998e-01   6.324213e-03
  2.708914e+00    4.823437e-01   6.244485e-03
  2.711125e+00    4.777642e-01   6.208586e-03
  2.713335e+00    4.889997e-01   6.275051e-03
  2.715546e+00    4.954707e-01   6.309931e-03
  2.717756e+00    4.942728e-01   6.296370e-03
  2.719967e+00    4.763998e-01   6.175334e-03
  2.722177e+00    4.810771e-01   6.199463e-03
  2.724387e+00    4.732330e-01   6.142707e-03
  2.726598e+00    4.774130e-01   6.163730e-03
  2.728808e+00    4.881523e-01   6.226539e-03
  2.731019e+00    4.825681e-01   6.184692e-03
  2.733229e+00    4.777978e-01   6.148299e-03
  2.735440e+00    4.886926e-01   6.211687e-03
  2.737650e+00    4.820897e-01   6.163575e-03
  2.739861e+00    4.863796e-01   6.184856e-03
  2.742071e+00    4.823613e-01   6.153514e-03
  2.744282e+00    4.830485e-01   6.151638e-03
  2.746492e+00    4.841705e-01   6.152748e-03
  2.748702e+00    4.789061e-01   6.113308e-03
  2.750913e+00    4.787681e-01   6.106657e-03
  2.753123e+00    4.823849e-01   6.123558e-03
  2.755334e+00    4.820247e-01   6.115184e-03
  2.757544e+00    4.844445e-01   6.124754e-03
  2.759755e+00    4.779335e-01   6.077602e-03
  2.761965e+00    4.687062e-01   6.012714e-03
  2.764176e+00    4.674973e-01   5.999059e-03
  2.766386e+00    4.772943e-01   6.055809e-03
  2.768597e+00    4.806727e-01   6.071342e-03
  2.770807e+00    4.830218e-01   6.080258e-03
  2.773017e+00    4.759553e-01   6.029666e-03
  2.775228e+00    4.854349e-01   6.083574e-03
  2.777438e+00    4.858494e-01   6.080352e-03
  2.779649e+00    4.837542e-01   6.061287e-03
  2.781859e+00    4.743848e-01   5.996553e-03
  2.784070e+00    4.791446e-01   6.020694e-03
  2.786280e+00    4.706127e-01   5.961126e-03
  2.788491e+00    4.648626e-01   5.918828e-03
  2.790701e+00    4.748602e-01   5.976493e-03
  2.792912e+00    4.827909e-01   6.020202e-03
  2.795122e+00    4.698178e-01   5.933065e-03
  2.797333e+00    4.695373e-01   5.925778e-03
  2.799543e+00    4.651511e-01   5.892225e-03
  2.801753e+00    4.727888e-01   5.934565e-03
  2.803964e+00    4.750742e-01   5.943233e-03
  2.806174e+00    4.767973e-01   5.947846e-03
  2.808385e+00    4.738777e-01   5.922812e-03
  2.810595e+00    4.767871e-01   5.934090e-03
  2.812806e+00    4.756618e-01   5.920467e-03
  2.815016e+00    4.636554e-01   5.840580e-03
  2.817227e+00    4.627112e-01   5.860240e-03
  2.819437e+00    4.792251e-01   5.975039e-03
  2.821648e+00    4.787763e-01   5.974546e-03
  2.823858e+00    4.732986e-01   5.945611e-03
  2.826068e+00    4.843606e-01   6.019734e-03
  2.828279e+00    4.593670e-01   5.866342e-03
  2.830489e+00    4.663392e-01   5.914006e-03
  2.832700e+00    4.867997e-01   6.044937e-03
  2.834910e+00    4.814477e-01   6.013725e-03
  2.837121e+00    4.694048e-01   5.939740e-03
  2.839331e+00    4.749041e-01   5.975646e-03
  2.841542e+00    4.777687e-01   5.994692e-03
  2.843752e+00    4.631133e-01   5.902792e-03
  2.845963e+00    4.654028e-01   5.917774e-03
  2.848173e+00    4.641945e-01   5.910156e-03
  2.850383e+00    4.776077e-01   5.995244e-03
  2.852594e+00    4.742615e-01   5.974127e-03
  2.854804e+00    4.646746e-01   5.912927e-03
  2.857015e+00    4.702425e-01   5.947815e-03
  2.859225e+00    4.749538e-01   5.977292e-03
  2.861436e+00    4.661677e-01   5.921077e-03
  2.863646e+00    4.736014e-01   5.968160e-03
  2.865857e+00    4.788816e-01   6.001660e-03
  2.868067e+00    4.766631e-01   5.987980e-03
  2.870278e+00    4.661243e-01   5.921069e-03
  2.872488e+00    4.581400e-01   5.868975e-03
  2.874698e+00    4.538669e-01   5.840512e-03
  2.876909e+00    4.590684e-01   5.872544e-03
  2.879119e+00    4.755964e-01   5.975693e-03
  2.881330e+00    4.552854e-01   5.845254e-03
  2.883540e+00    4.589038e-01   5.867039e-03
  2.885751e+00    4.577668e-01   5.858126e-03
  2.887961e+00    4.704536e-01   5.936847e-03
  2.890172e+00    4.679678e-01   5.919529e-03
  2.892382e+00    4.760418e-01   5.968547e-03
  2.894593e+00    4.636339e-01   5.888432e-03
  2.896803e+00    4.558702e-01   5.836955e-03
  2.899014e+00    4.478865e-01   5.783714e-03
  2.901224e+00    4.602488e-01   5.861010e-03
  2.903434e+00    4.630379e-01   5.876786e-03
  2.905645e+00    4.635037e-01   5.877513e-03
  2.907855e+00    4.564315e-01   5.830412e-03
  2.910066e+00    4.491250e-01   5.781494e-03
  2.912276e+00    4.620081e-01   5.861697e-03
  2.914487e+00    4.559565e-01   5.820746e-03
  2.916697e+00    4.563884e-01   5.821268e-03
  2.918908e+00    4.645218e-01   5.870896e-03
  2.921118e+00    4.665053e-01   5.880707e-03
  2.923329e+00    4.537289e-01   5.797308e-03
  2.925539e+00    4.691818e-01   5.892884e-03
  2.927749e+00    4.645496e-01   5.861407e-03
  2.929960e+00    4.692059e-01   5.887888e-03
  2.932170e+00    4.515488e-01   5.773731e-03
  2.934381e+00    4.532064e-01   5.781887e-03
  2.936591e+00    4.520698e-01   5.772053e-03
  2.938802e+00    4.624171e-01   5.835011e-03
  2.941012e+00    4.604358e-01   5.820154e-03
  2.943223e+00    4.718101e-01   5.888868e-03
  2.945433e+00    4.546988e-01   5.777364e-03
  2.947644e+00    4.534587e-01   5.765350e-03
  2.949854e+00    4.468531e-01   5.718976e-03
  2.952064e+00    4.491671e-01   5.729564e-03
  2.954275e+00    4.577228e-01   5.779455e-03
  2.956485e+00    4.524990e-01   5.742196e-03
  2.958696e+00    4.643589e-01   5.812550e-03
  2.960906e+00    4.670722e-01   5.825271e-03
  2.963117e+00    4.552808e-01   5.746781e-03
  2.965327e+00    4.439721e-01   5.671114e-03
  2.967538e+00    4.354338e-01   5.613463e-03
  2.969748e+00    4.303959e-01   5.578142e-03
  2.971959e+00    4.585038e-01   5.754238e-03
  2.974169e+00    4.572554e-01   5.743849e-03
  2.976379e+00    4.504972e-01   5.698312e-03
  2.978590e+00    4.754796e-01   5.850960e-03
  2.980800e+00    4.813741e-01   5.884262e-03
  2.983011e+00    4.668074e-01   5.791716e-03
  2.985221e+00    4.541791e-01   5.709677e-03
  2.987432e+00    4.461283e-01   5.655751e-03
  2.989642e+00    4.599494e-01   5.740055e-03
  2.991853e+00    4.612351e-01   5.744776e-03
  2.994063e+00    4.470936e-01   5.653126e-03
  2.996274e+00    4.648114e-01   5.760825e-03
  2.998484e+00    4.536052e-01   5.688265e-03
  3.000694e+00    4.502518e-01   5.663774e-03
  3.002905e+00    4.505266e-01   5.662553e-03
  3.005115e+00    4.439373e-01   5.618058e-03
  3.007326e+00    4.443375e-01   5.617450e-03
  3.009536e+00    4.541711e-01   5.676007e-03
  3.011747e+00    4.558746e-01   5.683747e-03
  3.013957e+00    4.491253e-01   5.638323e-03
  3.016168e+00    4.482882e-01   5.629854e-03
  3.018378e+00    4.411557e-01   5.581855e-03
  3.020589e+00    4.504447e-01   5.637115e-03
  3.022799e+00    4.506003e-01   5.634949e-03
  3.025010e+00    4.428230e-01   5.582896e-03
  3.027220e+00    4.543888e-01   5.652207e-03
  3.029430e+00    4.597129e-01   5.681975e-03
  3.031641e+00    4.492826e-01   5.613986e-03
  3.033851e+00    4.495229e-01   5.612008e-03
  3.036062e+00    4.549963e-01   5.643262e-03
  3.038272e+00    4.554635e-01   5.642578e-03
  3.040483e+00    4.625360e-01   5.682941e-03
  3.042693e+00    4.612154e-01   5.671546e-03
  3.044904e+00    4.488984e-01   5.591285e-03
  3.047114e+00    4.479015e-01   5.580282e-03
  3.049325e+00    4.343236e-01   5.490731e-03
  3.051535e+00    4.408145e-01   5.527245e-03
  3.053745e+00    4.514913e-01   5.589051e-03
  3.055956e+00    4.522044e-01   5.588869e-03
  3.058166e+00    4.539706e-01   5.595521e-03
  3.060377e+00    4.407169e-01   5.508488e-03
  3.062587e+00    4.355174e-01   5.471356e-03
  3.064798e+00    4.464865e-01   5.535579e-03
  3.067008e+00    4.539121e-01   5.576679e-03
  3.069219e+00    4.450550e-01   5.517523e-03
  3.071429e+00    4.415224e-01   5.492086e-03
  3.073640e+00    4.465400e-01   5.519893e-03
  3.075850e+00    4.595998e-01   5.596388e-03
  3.078060e+00    4.577463e-01   5.581990e-03
  3.080271e+00    4.452782e-01   5.501966e-03
  3.082481e+00    4.358261e-01   5.439857e-03
  3.084692e+00    4.456773e-01   5.497627e-03
  3.086902e+00    4.373081e-01   5.442558e-03
  3.089113e+00    4.456050e-01   5.490389e-03
  3.091323e+00    4.456417e-01   5.487246e-03
  3.093534e+00    4.504534e-01   5.513404e-03
  3.095744e+00    4.467012e-01   5.487029e-03
  3.097955e+00    4.598837e-01   5.563799e-03
  3.100165e+00    4.586807e-01   5.553148e-03
  3.102375e+00    4.448484e-01   5.465376e-03
  3.104586e+00    4.468901e-01   5.474394e-03
  3.106796e+00    4.378172e-01   5.415057e-03
  3.109007e+00    4.570423e-01   5.529406e-03
  3.111217e+00    4.480848e-01   5.471273e-03
  3.113428e+00    4.396972e-01   5.416410e-03
  3.115638e+00    4.457409e-01   5.450279e-03
  3.117849e+00    4.488704e-01   5.465649e-03
  3.120059e+00    4.403579e-01   5.410120e-03
  3.122270e+00    4.451006e-01   5.435913e-03
  3.124480e+00    4.539703e-01   5.486106e-03
  3.126691e+00    4.371024e-01   5.379672e-03
  3.128901e+00    4.344555e-01   5.360271e-03
  3.131111e+00    4.446879e-01   5.419185e-03
  3.133322e+00    4.549481e-01   5.477847e-03
  3.135532e+00    4.506207e-01   5.448335e-03
  3.137743e+00    4.552575e-01   5.472763e-03
  3.139953e+00    4.417254e-01   5.387120e-03
  3.142164e+00    4.412411e-01   5.396188e-03
  3.144374e+00    4.247403e-01   5.322130e-03
  3.146585e+00    4.476265e-01   5.478293e-03
  3.148795e+00    4.429240e-01   5.460238e-03
  3.151006e+00    4.248118e-01   5.355801e-03
  3.153216e+00    4.352748e-01   5.428427e-03
  3.155426e+00    4.550368e-01   5.556713e-03
  3.157637e+00    4.306130e-01   5.411004e-03
  3.159847e+00    4.323187e-01   5.426521e-03
  3.162058e+00    4.416082e-01   5.488948e-03
  3.164268e+00    4.400044e-01   5.483034e-03
  3.166479e+00    4.445584e-01   5.515020e-03
  3.168689e+00    4.325648e-01   5.443445e-03
  3.170900e+00    4.339122e-01   5.455083e-03
  3.173110e+00    4.405132e-01   5.499285e-03
  3.175321e+00    4.365988e-01   5.477291e-03
  3.177531e+00    4.326087e-01   5.454924e-03
  3.179741e+00    4.405507e-01   5.506849e-03
  3.181952e+00    4.399279e-01   5.505068e-03
  3.184162e+00    4.393626e-01   5.503733e-03
  3.186373e+00    4.428409e-01   5.527081e-03
  3.188583e+00    4.500969e-01   5.573981e-03
  3.190794e+00    4.547614e-01   5.604595e-03
  3.193004e+00    4.450203e-01   5.545508e-03
  3.195215e+00    4.305268e-01   5.455946e-03
  3.197425e+00    4.189260e-01   5.383126e-03
  3.199636e+00    4.210093e-01   5.395715e-03
  3.201846e+00    4.307930e-01   5.457467e-03
  3.204056e+00    4.226148e-01   5.406294e-03
  3.206267e+00    4.341646e-01   5.480512e-03
  3.208477e+00    4.241799e-01   5.418033e-03
  3.210688e+00    4.329122e-01   5.474379e-03
  3.212898e+00    4.261946e-01   5.432305e-03
  3.215109e+00    4.300356e-01   5.457474e-03
  3.217319e+00    4.350534e-01   5.489869e-03
  3.219530e+00    4.289110e-01   5.451358e-03
  3.221740e+00    4.434820e-01   5.543749e-03
  3.223951e+00    4.284090e-01   5.449207e-03
  3.226161e+00    4.296187e-01   5.457072e-03
  3.228372e+00    4.219415e-01   5.408626e-03
  3.230582e+00    4.442755e-01   5.550050e-03
  3.232792e+00    4.412837e-01   5.531581e-03
  3.235003e+00    4.205444e-01   5.400254e-03
  3.237213e+00    4.409880e-01   5.530073e-03
  3.239424e+00    4.317251e-01   5.471681e-03
  3.241634e+00    4.245947e-01   5.426436e-03
  3.243845e+00    4.349273e-01   5.492116e-03
  3.246055e+00    4.383999e-01   5.513743e-03
  3.248266e+00    4.195510e-01   5.394118e-03
  3.250476e+00    4.209808e-01   5.402972e-03
  3.252687e+00    4.204813e-01   5.399711e-03
  3.254897e+00    4.302197e-01   5.461734e-03
  3.257107e+00    4.241292e-01   5.422657e-03
  3.259318e+00    4.246093e-01   5.425473e-03
  3.261528e+00    4.209389e-01   5.401849e-03
  3.263739e+00    4.206292e-01   5.399282e-03
  3.265949e+00    4.338864e-01   5.483597e-03
  3.268160e+00    4.310516e-01   5.465245e-03
  3.270370e+00    4.159634e-01   5.368235e-03
  3.272581e+00    4.231873e-01   5.414352e-03
  3.274791e+00    4.205248e-01   5.396794e-03
  3.277002e+00    4.306936e-01   5.461068e-03
  3.279212e+00    4.393017e-01   5.514998e-03
  3.281422e+00    4.293641e-01   5.451674e-03
  3.283633e+00    4.346605e-01   5.484512e-03
  3.285843e+00    4.306683e-01   5.458931e-03
  3.288054e+00    4.247077e-01   5.420082e-03
  3.290264e+00    4.157014e-01   5.362003e-03
  3.292475e+00    4.237655e-01   5.412903e-03
  3.294685e+00    4.227379e-01   5.405721e-03
  3.296896e+00    4.210135e-01   5.393930e-03
  3.299106e+00    4.320438e-01   5.463558e-03
  3.301317e+00    4.249924e-01   5.417770e-03
  3.303527e+00    4.335469e-01   5.471556e-03
  3.305737e+00    4.276667e-01   5.433259e-03
  3.307948e+00    4.260806e-01   5.422528e-03
  3.310158e+00    4.267341e-01   5.425798e-03
  3.312369e+00    4.303122e-01   5.447636e-03
  3.314579e+00    4.229356e-01   5.399815e-03
  3.316790e+00    4.266085e-01   5.422501e-03
  3.319000e+00    4.239044e-01   5.404113e-03
  3.321211e+00    4.242066e-01   5.405413e-03
  3.323421e+00    4.174248e-01   5.360848e-03
  3.325632e+00    4.219140e-01   5.388696e-03
  3.327842e+00    4.183391e-01   5.364927e-03
  3.330052e+00    4.178830e-01   5.360919e-03
  3.332263e+00    4.181521e-01   5.361639e-03
  3.334473e+00    4.346015e-01   5.465153e-03
  3.336684e+00    4.227693e-01   5.388991e-03
  3.338894e+00    4.115326e-01   5.316050e-03
  3.341105e+00    4.280968e-01   5.420754e-03
  3.343315e+00    4.304443e-01   5.434453e-03
  3.345526e+00    4.291368e-01   5.425280e-03
  3.347736e+00    4.280797e-01   5.417183e-03
  3.349947e+00    4.336081e-01   5.451080e-03
  3.352157e+00    4.304798e-01   5.430219e-03
  3.354368e+00    4.132955e-01   5.319437e-03
  3.356578e+00    4.259139e-01   5.398987e-03
  3.358788e+00    4.294897e-01   5.420275e-03
  3.360999e+00    4.287513e-01   5.414343e-03
  3.363209e+00    4.265092e-01   5.399149e-03
  3.365420e+00    4.171006e-01   5.337759e-03
  3.367630e+00    4.148903e-01   5.322570e-03
  3.369841e+00    4.236588e-01   5.377074e-03
  3.372051e+00    4.277259e-01   5.400833e-03
  3.374262e+00    4.175626e-01   5.333839e-03
  3.376472e+00    4.210134e-01   5.353380e-03
  3.378683e+00    4.134486e-01   5.302574e-03
  3.380893e+00    4.045063e-01   5.242605e-03
  3.383103e+00    4.268503e-01   5.382685e-03
  3.385314e+00    4.220614e-01   5.350210e-03
  3.387524e+00    4.060919e-01   5.245280e-03
  3.389735e+00    4.208977e-01   5.337396e-03
  3.391945e+00    4.161704e-01   5.303649e-03
  3.394156e+00    4.109596e-01   5.266152e-03
  3.396366e+00    4.077349e-01   5.242029e-03
  3.398577e+00    3.962324e-01   5.164593e-03
  3.400787e+00    4.054833e-01   5.236361e-03
  3.402998e+00    4.044682e-01   5.267588e-03
  3.405208e+00    4.193769e-01   5.384824e-03
  3.407418e+00    3.864359e-01   5.184514e-03
  3.409629e+00    4.016199e-01   5.299350e-03
  3.411839e+00    3.856897e-01   5.204771e-03
  3.414050e+00    3.927672e-01   5.263222e-03
  3.416260e+00    4.106584e-01   5.391619e-03
  3.418471e+00    4.043250e-01   5.359426e-03
  3.420681e+00    3.895991e-01   5.269387e-03
  3.422892e+00    3.836419e-01   5.236876e-03
  3.425102e+00    3.758337e-01   5.190975e-03
  3.427313e+00    3.809755e-01   5.233472e-03
  3.429523e+00    3.839126e-01   5.260657e-03
  3.431733e+00    3.787862e-01   5.232005e-03
  3.433944e+00    3.857179e-01   5.286168e-03
  3.436154e+00    3.774326e-01   5.235283e-03
  3.438365e+00    3.763296e-01   5.233501e-03
  3.440575e+00    3.763611e-01   5.239628e-03
  3.442786e+00    3.765502e-01   5.246527e-03
  3.444996e+00    3.775865e-01   5.259242e-03
  3.447207e+00    3.751410e-01   5.247490e-03
  3.449417e+00    3.598087e-01   5.179292e-03
  3.451628e+00    3.738472e-01   5.308994e-03
  3.453838e+00    3.635657e-01   5.256548e-03
  3.456049e+00    3.595128e-01   5.250805e-03
  3.458259e+00    3.709027e-01   5.355381e-03
  3.460469e+00    3.808000e-01   5.446593e-03
  3.462680e+00    3.682370e-01   5.375042e-03
  3.464890e+00    3.753814e-01   5.444992e-03
  3.467101e+00    3.630331e-01   5.372034e-03
  3.469311e+00    3.968469e-01   5.633778e-03
  3.471522e+00    3.806529e-01   5.534148e-03
  3.473732e+00    3.955749e-01   5.657876e-03
  3.475943e+00    3.854207e-01   5.600571e-03
  3.478153e+00    3.942156e-01   5.679642e-03
  3.480364e+00    4.214503e-01   5.888241e-03
  3.482574e+00    4.285518e-01   5.953463e-03
  3.484784e+00    4.170359e-01   5.887926e-03
  3.486995e+00    4.183387e-01   5.912246e-03
  3.489205e+00    4.251430e-01   5.974813e-03
  3.491416e+00    4.455057e-01   6.131480e-03
  3.493626e+00    4.462162e-01   6.151158e-03
  3.495837e+00    4.322394e-01   6.068658e-03
  3.498047e+00    4.430421e-01   6.158484e-03
  3.500258e+00    4.603235e-01   6.292159e-03
  3.502468e+00    4.759431e-01   6.412767e-03
  3.504679e+00    4.907361e-01   6.526658e-03
  3.506889e+00    4.636110e-01   6.358127e-03
  3.509099e+00    4.655654e-01   6.385742e-03
  3.511310e+00    4.702112e-01   6.431906e-03
  3.513520e+00    4.770859e-01   6.493129e-03
  3.515731e+00    4.903262e-01   6.597017e-03
  3.517941e+00    4.924725e-01   6.625862e-03
  3.520152e+00    5.064570e-01   6.733745e-03
  3.522362e+00    5.005109e-01   6.708603e-03
  3.524573e+00    5.121647e-01   6.800585e-03
  3.526783e+00    5.269899e-01   6.911897e-03
  3.528994e+00    5.288991e-01   6.936776e-03
  3.531204e+00    5.292771e-01   6.951832e-03
  3.533414e+00    5.298982e-01   6.968020e-03
  3.535625e+00    5.425672e-01   7.063344e-03
  3.537835e+00    5.358399e-01   7.031614e-03
  3.540046e+00    5.408369e-01   7.073281e-03
  3.542256e+00    5.351632e-01   7.043612e-03
  3.544467e+00    5.241712e-01   6.978440e-03
  3.546677e+00    5.277496e-01   7.009737e-03
  3.548888e+00    5.247370e-01   6.997121e-03
  3.551098e+00    5.465280e-01   7.148252e-03
  3.553309e+00    5.506882e-01   7.183737e-03
  3.555519e+00    5.315939e-01   7.069326e-03
  3.557729e+00    5.242060e-01   7.031624e-03
  3.559940e+00    5.236508e-01   7.039312e-03
  3.562150e+00    5.273006e-01   7.075411e-03
  3.564361e+00    5.394933e-01   7.170097e-03
  3.566571e+00    5.640225e-01   7.345477e-03
  3.568782e+00    5.584665e-01   7.323649e-03
  3.570992e+00    5.338163e-01   7.173926e-03
  3.573203e+00    5.441113e-01   7.256981e-03
  3.575413e+00    5.361965e-01   7.217820e-03
  3.577624e+00    5.373641e-01   7.239797e-03
  3.579834e+00    5.348368e-01   7.236619e-03
  3.582045e+00    5.331904e-01   7.239470e-03
  3.584255e+00    5.348018e-01   7.264439e-03
  3.586465e+00    5.500093e-01   7.381122e-03
  3.588676e+00    5.336193e-01   7.284490e-03
  3.590886e+00    5.347140e-01   7.305603e-03
  3.593097e+00    5.370507e-01   7.336094e-03
  3.595307e+00    5.471473e-01   7.418804e-03
  3.597518e+00    5.353754e-01   7.352769e-03
  3.599728e+00    5.519191e-01   7.479824e-03
  3.601939e+00    5.433051e-01   7.435409e-03
  3.604149e+00    5.393469e-01   7.422710e-03
  3.606360e+00    5.241884e-01   7.331681e-03
  3.608570e+00    5.327234e-01   7.405230e-03
  3.610780e+00    5.391364e-01   7.460772e-03
  3.612991e+00    5.368069e-01   7.454652e-03
  3.615201e+00    5.635516e-01   7.648163e-03
  3.617412e+00    5.645090e-01   7.662161e-03
  3.619622e+00    5.372699e-01   7.480973e-03
  3.621833e+00    5.312024e-01   7.445292e-03
  3.624043e+00    5.260492e-01   7.418527e-03
  3.626254e+00    5.156239e-01   7.354192e-03
  3.628464e+00    5.439913e-01   7.564808e-03
  3.630675e+00    5.505613e-01   7.624741e-03
  3.632885e+00    5.170284e-01   7.403112e-03
  3.635095e+00    5.292705e-01   7.504549e-03
  3.637306e+00    5.439047e-01   7.622094e-03
  3.639516e+00    5.459020e-01   7.650817e-03
  3.641727e+00    5.285867e-01   7.543007e-03
  3.643937e+00    5.344967e-01   7.599558e-03
  3.646148e+00    5.386971e-01   7.644115e-03
  3.648358e+00    5.242929e-01   7.555963e-03
  3.650569e+00    5.262661e-01   7.584762e-03
  3.652779e+00    5.408381e-01   7.703945e-03
  3.654990e+00    5.391721e-01   7.707087e-03
  3.657200e+00    5.434196e-01   7.752393e-03
  3.659410e+00    5.529376e-01   7.835297e-03
  3.661621e+00    5.375646e-01   7.740747e-03
  3.663831e+00    5.234381e-01   7.653407e-03
  3.666042e+00    5.309943e-01   7.723563e-03
  3.668252e+00    5.288652e-01   7.723283e-03
  3.670463e+00    5.359969e-01   7.790496e-03
  3.672673e+00    5.187129e-01   7.679093e-03
  3.674884e+00    5.228168e-01   7.724685e-03
  3.677094e+00    5.362749e-01   7.839081e-03
  3.679305e+00    5.344260e-01   7.841160e-03
  3.681515e+00    5.405560e-01   7.901787e-03
  3.683726e+00    5.303834e-01   7.842917e-03
  3.685936e+00    5.252703e-01   7.820643e-03
  3.688146e+00    5.229035e-01   7.818709e-03
  3.690357e+00    5.271720e-01   7.866492e-03
  3.692567e+00    5.293820e-01   7.899097e-03
  3.694778e+00    5.140890e-01   7.800090e-03
  3.696988e+00    5.325402e-01   7.954843e-03
  3.699199e+00    5.087867e-01   7.791436e-03
  3.701409e+00    5.311145e-01   7.976986e-03
  3.703620e+00    5.101956e-01   7.834444e-03
  3.705830e+00    5.087106e-01   7.839168e-03
  3.708041e+00    5.153790e-01   7.906838e-03
  3.710251e+00    5.089568e-01   7.873881e-03
  3.712461e+00    5.210803e-01   7.983809e-03
  3.714672e+00    5.342312e-01   8.100906e-03
  3.716882e+00    5.166181e-01   7.982857e-03
  3.719093e+00    5.112514e-01   7.958303e-03
  3.721303e+00    5.145454e-01   8.000745e-03
  3.723514e+00    5.078455e-01   7.965582e-03
  3.725724e+00    5.185865e-01   8.066512e-03
  3.727935e+00    5.228508e-01   8.117134e-03
  3.730145e+00    5.339847e-01   8.220772e-03
  3.732356e+00    5.242200e-01   8.162925e-03
  3.734566e+00    5.193933e-01   8.142809e-03
  3.736776e+00    5.219032e-01   8.180385e-03
  3.738987e+00    5.294383e-01   8.257199e-03
  3.741197e+00    5.091214e-01   8.115205e-03
  3.743408e+00    4.843793e-01   7.933078e-03
  3.745618e+00    4.958912e-01   8.044758e-03
  3.747829e+00    5.083378e-01   8.163166e-03
  3.750039e+00    5.021607e-01   8.131619e-03
  3.752250e+00    5.046590e-01   8.170156e-03
  3.754460e+00    5.113869e-01   8.243013e-03
  3.756671e+00    5.125520e-01   8.271235e-03
  3.758881e+00    5.370697e-01   8.485922e-03
  3.761091e+00    5.160918e-01   8.337853e-03
  3.763302e+00    4.923823e-01   8.162824e-03
  3.765512e+00    5.113590e-01   8.337984e-03
  3.767723e+00    5.136870e-01   8.376367e-03
  3.769933e+00    5.171348e-01   8.424056e-03
  3.772144e+00    4.806806e-01   8.140715e-03
  3.774354e+00    5.060865e-01   8.372970e-03
  3.776565e+00    5.149394e-01   8.465916e-03
  3.778775e+00    5.199062e-01   8.526917e-03
  3.780986e+00    5.032950e-01   8.409869e-03
  3.783196e+00    5.248379e-01   8.608639e-03
  3.785407e+00    5.245484e-01   8.627128e-03
  3.787617e+00    5.060805e-01   8.494750e-03
  3.789827e+00    4.987826e-01   8.453737e-03
  3.792038e+00    4.827148e-01   8.336846e-03
  3.794248e+00    4.992578e-01   8.499645e-03
  3.796459e+00    4.919443e-01   8.458285e-03
  3.798669e+00    4.981512e-01   8.532831e-03
  3.800880e+00    5.004039e-01   8.573528e-03
  3.803090e+00    5.019339e-01   8.608473e-03
  3.805301e+00    5.236681e-01   8.815507e-03
  3.807511e+00    5.034360e-01   8.665571e-03
  3.809722e+00    5.308411e-01   8.921279e-03
  3.811932e+00    5.056835e-01   8.729672e-03
  3.814142e+00    5.220367e-01   8.893059e-03
  3.816353e+00    5.058979e-01   8.777541e-03
  3.818563e+00    4.917306e-01   8.676687e-03
  3.820774e+00    4.830267e-01   8.622359e-03
  3.822984e+00    4.856870e-01   8.669169e-03
  3.825195e+00    4.865978e-01   8.700717e-03
  3.827405e+00    5.050446e-01   8.888180e-03
  3.829616e+00    4.883538e-01   8.763924e-03
  3.831826e+00    4.734351e-01   8.652624e-03
  3.834037e+00    4.819054e-01   8.753739e-03
  3.836247e+00    5.045117e-01   8.981623e-03
  3.838457e+00    5.044334e-01   9.006169e-03
  3.840668e+00    5.221715e-01   9.188980e-03
  3.842878e+00    4.833654e-01   8.866169e-03
  3.845089e+00    4.952215e-01   8.999762e-03
  3.847299e+00    4.992741e-01   9.062381e-03
  3.849510e+00    4.876000e-01   8.981486e-03
  3.851720e+00    4.786333e-01   8.919599e-03
  3.853931e+00    4.925791e-01   9.067505e-03
  3.856141e+00    5.192220e-01   9.328991e-03
  3.858352e+00    5.051522e-01   9.221218e-03
  3.860562e+00    4.976646e-01   9.172016e-03
  3.862772e+00    5.045828e-01   9.255281e-03
  3.864983e+00    5.058623e-01   9.286984e-03
  3.867193e+00    4.893700e-01   9.154024e-03
  3.869404e+00    4.725703e-01   9.014883e-03
  3.871614e+00    5.018346e-01   9.309964e-03
  3.873825e+00    5.149595e-01   9.451720e-03
  3.876035e+00    4.816568e-01   9.161270e-03
  3.878246e+00    5.100879e-01   9.454065e-03
  3.880456e+00    4.945735e-01   9.338223e-03
  3.882667e+00    4.716254e-01   9.147703e-03
  3.884877e+00    4.854924e-01   9.310796e-03
  3.887087e+00    4.827543e-01   9.314190e-03
  3.889298e+00    4.691659e-01   9.211770e-03
  3.891508e+00    5.074791e-01   9.611569e-03
  3.893719e+00    4.896230e-01   9.471912e-03
  3.895929e+00    5.137821e-01   9.734966e-03
  3.898140e+00    5.218036e-01   9.843410e-03
  3.900350e+00    5.039881e-01   9.706417e-03
  3.902561e+00    5.124761e-01   9.820941e-03
  3.904771e+00    4.960665e-01   9.695431e-03
  3.906982e+00    5.107815e-01   9.872098e-03
  3.909192e+00    4.882022e-01   9.684804e-03
  3.911403e+00    4.880113e-01   9.716948e-03
  3.913613e+00    4.864771e-01   9.735803e-03
  3.915823e+00    5.321751e-01   1.021916e-02
  3.918034e+00    4.991007e-01   9.932203e-03
  3.920244e+00    4.734313e-01   9.708591e-03
  3.922455e+00    4.820925e-01   9.832803e-03
  3.924665e+00    4.986991e-01   1.003753e-02
  3.926876e+00    5.057679e-01   1.014628e-02
  3.929086e+00    5.023099e-01   1.014937e-02
  3.931297e+00    4.994237e-01   1.015545e-02
  3.933507e+00    4.887058e-01   1.007487e-02
  3.935718e+00    4.920232e-01   1.013785e-02
  3.937928e+00    5.001295e-01   1.025088e-02
  3.940138e+00    5.139716e-01   1.042188e-02
  3.942349e+00    5.019158e-01   1.032923e-02
  3.944559e+00    5.105771e-01   1.044870e-02
  3.946770e+00    4.830464e-01   1.019320e-02
  3.948980e+00    4.857741e-01   1.025258e-02
  3.951191e+00    4.739349e-01   1.015738e-02
  3.953401e+00    5.109681e-01   1.057877e-02
  3.955612e+00    5.161040e-01   1.066450e-02
  3.957822e+00    5.121822e-01   1.065646e-02
  3.960033e+00    4.903176e-01   1.045922e-02
  3.962243e+00    5.003448e-01   1.059898e-02
  3.964453e+00    5.099690e-01   1.073437e-02
  3.966664e+00    5.371614e-01   1.105196e-02
  3.968874e+00    5.204076e-01   1.090764e-02
  3.971085e+00    4.925445e-01   1.063376e-02
  3.973295e+00    5.164796e-01   1.091113e-02
  3.975506e+00    5.020979e-01   1.078013e-02
  3.977716e+00    5.049288e-01   1.083295e-02
  3.979927e+00    5.077884e-01   1.088619e-02
  3.982137e+00    4.813858e-01   1.062157e-02
  3.984348e+00    5.247476e-01   1.111306e-02
  3.986558e+00    5.032167e-01   1.090552e-02
  3.988768e+00    4.980709e-01   1.087291e-02
  3.990979e+00    4.733318e-01   1.062191e-02
  3.993189e+00    4.492679e-01   1.037055e-02
  3.995400e+00    4.728959e-01   1.066300e-02
  3.997610e+00    4.836979e-01   1.081388e-02
  3.999821e+00    4.859449e-01   1.087660e-02
  4.002031e+00    4.651869e-01   1.067928e-02
  4.004242e+00    4.732095e-01   1.080906e-02
  4.006452e+00    4.436898e-01   1.050416e-02
  4.008663e+00    4.804428e-01   1.097032e-02
  4.010873e+00    4.744702e-01   1.094153e-02
  4.013084e+00    4.884665e-01   1.114270e-02
  4.015294e+00    5.032984e-01   1.135253e-02
  4.017504e+00    5.313568e-01   1.170847e-02
  4.019715e+00    5.049061e-01   1.145688e-02
  4.021925e+00    4.721697e-01   1.112151e-02
  4.024136e+00    4.584138e-01   1.100099e-02
  4.026346e+00    4.601367e-01   1.106449e-02
  4.028557e+00    4.884784e-01   1.144476e-02
  4.030767e+00    4.945629e-01   1.156200e-02
  4.032978e+00    4.718557e-01   1.133913e-02
  4.035188e+00    5.162696e-01   1.190849e-02
  4.037399e+00    5.209658e-01   1.201195e-02
  4.039609e+00    5.024950e-01   1.184585e-02
  4.041819e+00    4.759731e-01   1.157717e-02
  4.044030e+00    4.947005e-01   1.185344e-02
  4.046240e+00    4.768628e-01   1.168718e-02
  4.048451e+00    4.459574e-01   1.135113e-02
  4.050661e+00    5.147918e-01   1.224872e-02
  4.052872e+00    4.804125e-01   1.188547e-02
  4.055082e+00    4.991714e-01   1.216955e-02
  4.057293e+00    4.566465e-01   1.169201e-02
  4.059503e+00    4.699504e-01   1.191497e-02
  4.061714e+00    4.764654e-01   1.205339e-02
  4.063924e+00    5.105500e-01   1.253557e-02
  4.066134e+00    4.833868e-01   1.225507e-02
  4.068345e+00    4.595858e-01   1.200695e-02
  4.070555e+00    4.909050e-01   1.246929e-02
  4.072766e+00    4.453875e-01   1.193568e-02
  4.074976e+00    4.569841e-01   1.215024e-02
  4.077187e+00    4.814680e-01   1.253362e-02
  4.079397e+00    4.473277e-01   1.214257e-02
  4.081608e+00    4.998728e-01   1.290281e-02
  4.083818e+00    4.982847e-01   1.294932e-02
  4.086029e+00    4.956519e-01   1.298316e-02
  4.088239e+00    4.869243e-01   1.293749e-02
  4.090449e+00    5.065836e-01   1.326781e-02
  4.092660e+00    4.974461e-01   1.321998e-02
  4.094870e+00    4.520343e-01   1.267213e-02
  4.097081e+00    4.680857e-01   1.296569e-02
  4.099291e+00    4.638315e-01   1.296023e-02
  4.101502e+00    4.723858e-01   1.312782e-02
  4.103712e+00    5.150863e-01   1.375948e-02
  4.105923e+00    4.521149e-01   1.294098e-02
  4.108133e+00    4.689038e-01   1.322977e-02
  4.110344e+00    4.960310e-01   1.365918e-02
  4.112554e+00    4.782817e-01   1.346553e-02
  4.114764e+00    4.631494e-01   1.330403e-02
  4.116975e+00    4.812630e-01   1.361528e-02
  4.119185e+00    4.514972e-01   1.324080e-02
  4.121396e+00    4.593052e-01   1.341026e-02
  4.123606e+00    4.710706e-01   1.363631e-02
  4.125817e+00    5.137792e-01   1.430095e-02
  4.128027e+00    4.784044e-01   1.385805e-02
  4.130238e+00    4.550762e-01   1.357385e-02
  4.132448e+00    4.879712e-01   1.411654e-02
  4.134659e+00    5.260189e-01   1.472011e-02
  4.136869e+00    4.708294e-01   1.398853e-02
  4.139080e+00    4.659481e-01   1.397842e-02
  4.141290e+00    4.706896e-01   1.411157e-02
  4.143500e+00    4.568664e-01   1.396707e-02
  4.145711e+00    5.000558e-01   1.468049e-02
  4.147921e+00    4.344159e-01   1.374578e-02
  4.150132e+00    5.207101e-01   1.512129e-02
  4.152342e+00    4.852740e-01   1.466826e-02
  4.154553e+00    5.183494e-01   1.523196e-02
  4.156763e+00    5.145761e-01   1.525170e-02
  4.158974e+00    4.850461e-01   1.488184e-02
  4.161184e+00    5.285917e-01   1.561282e-02
  4.163395e+00    4.912835e-01   1.512854e-02
  4.165605e+00    4.510074e-01   1.457039e-02
  4.167815e+00    5.144107e-01   1.564205e-02
  4.170026e+00    4.854484e-01   1.527556e-02
  4.172236e+00    4.748867e-01   1.519012e-02
  4.174447e+00    4.806028e-01   1.536433e-02
  4.176657e+00    4.573090e-01   1.506944e-02
  4.178868e+00    4.862332e-01   1.562649e-02
  4.181078e+00    4.613478e-01   1.530722e-02
  4.183289e+00    4.643062e-01   1.544400e-02
  4.185499e+00    5.023535e-01   1.615915e-02
  4.187710e+00    5.041649e-01   1.628311e-02
  4.189920e+00    5.070975e-01   1.642879e-02
  4.192130e+00    5.017182e-01   1.644121e-02
  4.194341e+00    5.024834e-01   1.655462e-02
  4.196551e+00    4.931485e-01   1.650396e-02
  4.198762e+00    4.945726e-01   1.663298e-02
  4.200972e+00    4.546442e-01   1.605022e-02
  4.203183e+00    4.655076e-01   1.634814e-02
  4.205393e+00    4.733913e-01   1.659556e-02
  4.207604e+00    5.466970e-01   1.795617e-02
  4.209814e+00    5.423903e-01   1.800777e-02
  4.212025e+00    5.229271e-01   1.780694e-02
  4.214235e+00    5.473952e-01   1.834828e-02
  4.216445e+00    5.304592e-01   1.819265e-02
  4.218656e+00    4.286553e-01   1.647662e-02
  4.220866e+00    5.405133e-01   1.863883e-02
  4.223077e+00    4.926589e-01   1.793158e-02
  4.225287e+00    4.206851e-01   1.670045e-02
  4.227498e+00    5.158042e-01   1.863710e-02
  4.229708e+00    5.087754e-01   1.866031e-02
  4.231919e+00    5.172651e-01   1.897093e-02
  4.234129e+00    5.504306e-01   1.973412e-02
  4.236340e+00    4.734656e-01   1.845890e-02
  4.238550e+00    4.615885e-01   1.838694e-02
  4.240761e+00    5.151558e-01   1.959599e-02
  4.242971e+00    5.011321e-01   1.950451e-02
  4.245181e+00    4.577543e-01   1.881639e-02
  4.247392e+00    4.995952e-01   1.984154e-02
  4.249602e+00    4.547398e-01   1.911741e-02
  4.251813e+00    5.027642e-01   2.030025e-02
  4.254023e+00    4.378602e-01   1.913505e-02
  4.256234e+00    4.515417e-01   1.963956e-02
  4.258444e+00    4.871721e-01   2.061323e-02
  4.260655e+00    4.459064e-01   1.993796e-02
  4.262865e+00    4.022286e-01   1.915055e-02
  4.265076e+00    4.232502e-01   1.986807e-02
  4.267286e+00    4.548231e-01   2.084044e-02
  4.269496e+00    4.448925e-01   2.086301e-02
  4.271707e+00    4.601969e-01   2.148094e-02
  4.273917e+00    4.462935e-01   2.142737e-02
  4.276128e+00    4.060591e-01   2.071061e-02
  4.278338e+00    4.020835e-01   2.088355e-02
  4.280549e+00    4.711855e-01   2.293155e-02
  4.282759e+00    4.670838e-01   2.315975e-02
  4.284970e+00    4.791687e-01   2.380437e-02
  4.287180e+00    5.025411e-01   2.467005e-02
  4.289391e+00    4.865642e-01   2.445765e-02
  4.291601e+00    5.429752e-01   2.604244e-02
  4.293811e+00    4.316332e-01   2.340038e-02
  4.296022e+00    5.073146e-01   2.557406e-02
  4.298232e+00    4.157604e-01   2.334438e-02
  4.300443e+00    5.503842e-01   2.708194e-02
  4.302653e+00    4.179610e-01   2.380415e-02
  4.304864e+00    4.825386e-01   2.579850e-02
  4.307074e+00    4.034109e-01   2.380074e-02
  4.309285e+00    5.179932e-01   2.721515e-02
  4.311495e+00    4.350876e-01   2.517542e-02
  4.313706e+00    4.434674e-01   2.565505e-02
  4.315916e+00    5.429294e-01   2.866569e-02
  4.318126e+00    5.161257e-01   2.822700e-02
  4.320337e+00    5.460898e-01   2.932756e-02
  4.322547e+00    5.047833e-01   2.849535e-02
  4.324758e+00    5.024023e-01   2.872519e-02
  4.326968e+00    4.537516e-01   2.760486e-02
  4.329179e+00    4.669234e-01   2.831206e-02
  4.331389e+00    4.140584e-01   2.696829e-02
  4.333600e+00    3.919778e-01   2.655219e-02
  4.335810e+00    4.873022e-01   2.995724e-02
  4.338021e+00    5.888072e-01   3.335286e-02
  4.340231e+00    4.723674e-01   3.024751e-02
  4.342442e+00    5.553560e-01   3.323761e-02
  4.344652e+00    4.342301e-01   2.978891e-02
  4.346862e+00    3.762817e-01   2.811922e-02
  4.349073e+00    4.984386e-01   3.283246e-02
  4.351283e+00    4.340735e-01   3.109911e-02
  4.353494e+00    4.339862e-01   3.157499e-02
  4.355704e+00    4.900400e-01   3.409320e-02
  4.357915e+00    3.372067e-01   2.875236e-02
  4.360125e+00    5.371584e-01   3.690706e-02
  4.362336e+00    4.849111e-01   3.570604e-02
  4.364546e+00    4.506401e-01   3.504831e-02
  4.366757e+00    4.565455e-01   3.597819e-02
  4.368967e+00    4.093288e-01   3.474727e-02
  4.371177e+00    4.990897e-01   3.918339e-02
  4.373388e+00    5.690395e-01   4.277507e-02
  4.375598e+00    4.022121e-01   3.678249e-02
  4.377809e+00    4.261581e-01   3.881935e-02
  4.380019e+00    5.029551e-01   4.323424e-02
  4.382230e+00    3.719974e-01   3.821896e-02
  4.384440e+00    3.206768e-01   3.650597e-02
  4.386651e+00    4.172134e-01   4.292395e-02
  4.388861e+00    4.695234e-01   4.706307e-02
  4.391072e+00    4.279712e-01   4.651132e-02
  4.393282e+00    4.635717e-01   5.027710e-02
  4.395492e+00    4.608311e-01   5.221460e-02
  4.397703e+00    4.124584e-01   5.165355e-02
  4.399913e+00    5.487856e-01   6.259749e-02
  4.402124e+00    5.229318e-01   6.457096e-02
  4.404334e+00    5.210108e-01   6.851444e-02
  4.406545e+00    2.812515e-01   5.408474e-02
  4.408755e+00    2.351911e-01   5.363090e-02
  4.410966e+00    4.555894e-01   8.262388e-02
  4.413176e+00    1.030464e-01   4.449829e-02
  4.415387e+00   -8.244875e-01            nan
  4.417597e+00   -2.044852e+00            nan
  4.419807e+00   -3.766224e-01            nan
