# == pyFAI calibration ==
# Distance Sample to Detector: 0.216 m
# PONI: 1.166e-01, 1.308e-01 m
# Rotations: 0.000000 0.000000 0.000000 rad
# 
# == Fit2d calibration ==
# Distance Sample-beamCenter: 216.000 mm
# Center: x=1744.293, y=1555.000 pix
# Tilt: 0.000 deg  TiltPlanRot: 0.000 deg
# 
# Detector Eiger 9M	 PixelSize= 7.500e-05, 7.500e-05 m
#    Detector has a mask: True 
#    Detector has a dark current: False 
#    detector has a flat field: False 
# 
# Wavelength: 9.8e-11 m
# Mask applied: from detector
# Dark current applied: False
# Flat field applied: False
# Polarization factor: None
# Normalization factor: 1.0
# 
# Headers of the input frame:
# {
# "_array_data.header_convention": "SLS_1.0",
# "_array_data.header_contents": "# Detector: Dectris Eiger 9M, S/N E-18-0102\r\n# Pixel_size 75e-6 m x 75e-6 m\r\n# Silicon sensor, thickness 0.000450 m\r\n# Exposure_time 0.024997 s\r\n# Exposure_period 0.025000 s\r\n# Count_cutoff 62318 counts\r\n# Wavelength 0.980106 A\r\n# Detector_distance 0.215992 m\r\n# Beam_xy (1555, 1744) pixels\r\n# Start_angle 0.000000 deg.\r\n# Angle_increment 0.000000 deg.",
# "Content-Type": "application/octet-stream;",
# "conversions": "x-CBF_BYTE_OFFSET",
# "Content-Transfer-Encoding": "BINARY",
# "X-Binary-Size": "10166610",
# "X-Binary-ID": "1",
# "X-Binary-Element-Type": "signed 32-bit integer",
# "X-Binary-Element-Byte-Order": "LITTLE_ENDIAN",
# "Content-MD5": "lIy7CFhgTlK/jAKTKO1isA==",
# "X-Binary-Number-of-Elements": "10166590",
# "X-Binary-Size-Fastest-Dimension": "3110",
# "X-Binary-Size-Second-Dimension": "3269",
# "X-Binary-Size-Padding": "4095"
# }
# --> H:/Proxima2a_2019-04-05/RAW_DATA/C5_gel17_position5/C5_mesh_1_data.cbf/C5_mesh_1_data.cbf000131.dat
#        q_A^-1              I           sigma 
  1.105228e-03    1.722560e+00   7.101893e-01
  3.315685e-03    1.396332e+00   3.887225e-01
  5.526141e-03    1.248072e+00   2.841789e-01
  7.736597e-03    1.207270e+00   2.361144e-01
  9.947054e-03    1.409906e+00   2.249425e-01
  1.215751e-02    1.536778e+00   2.123607e-01
  1.436797e-02    1.484337e+00   1.919739e-01
  1.657842e-02    1.289017e+00   1.665228e-01
  1.878888e-02    1.354240e+00   1.603287e-01
  2.099934e-02    1.341002e+00   1.509443e-01
  2.320979e-02    1.212785e+00   1.365289e-01
  2.542025e-02    1.204997e+00   1.300476e-01
  2.763070e-02    1.669970e+00   1.468401e-01
  2.984116e-02    1.728562e+00   1.437537e-01
  3.205162e-02    1.473920e+00   1.280923e-01
  3.426207e-02    1.597504e+00   1.289721e-01
  3.647253e-02    1.326672e+00   1.139126e-01
  3.868299e-02    1.396604e+00   1.134964e-01
  4.089344e-02    1.378007e+00   1.096495e-01
  4.310390e-02    1.396446e+00   1.075068e-01
  4.531436e-02    1.484124e+00   1.080938e-01
  4.752481e-02    1.402273e+00   1.025971e-01
  4.973527e-02    1.423388e+00   1.010447e-01
  5.194572e-02    1.509709e+00   1.018239e-01
  5.415618e-02    1.447404e+00   9.764133e-02
  5.636664e-02    1.377123e+00   9.335802e-02
  5.857709e-02    1.287411e+00   8.854685e-02
  6.078755e-02    1.362984e+00   8.943402e-02
  6.299801e-02    1.405477e+00   8.920892e-02
  6.520846e-02    1.381948e+00   8.694739e-02
  6.741892e-02    1.413635e+00   8.648056e-02
  6.962938e-02    1.513458e+00   8.805449e-02
  7.183983e-02    1.565547e+00   8.816680e-02
  7.405029e-02    1.453121e+00   8.366276e-02
  7.626074e-02    1.467560e+00   8.284918e-02
  7.847120e-02    1.501581e+00   8.261298e-02
  8.068166e-02    1.485135e+00   8.102542e-02
  8.289211e-02    1.417488e+00   7.809555e-02
  8.510257e-02    1.515804e+00   7.970232e-02
  8.731303e-02    1.471597e+00   7.752810e-02
  8.952348e-02    1.429704e+00   7.546937e-02
  9.173394e-02    1.540962e+00   7.739801e-02
  9.394439e-02    1.470981e+00   7.472277e-02
  9.615485e-02    1.523090e+00   7.515406e-02
  9.836531e-02    1.601757e+00   7.619753e-02
  1.005758e-01    1.524885e+00   7.352548e-02
  1.027862e-01    1.537670e+00   7.303306e-02
  1.049967e-01    1.537825e+00   7.226256e-02
  1.072071e-01    1.610612e+00   7.318570e-02
  1.094176e-01    1.606712e+00   7.235382e-02
  1.116280e-01    1.610949e+00   7.172666e-02
  1.138385e-01    1.654425e+00   7.197752e-02
  1.160490e-01    1.612449e+00   7.037769e-02
  1.182594e-01    1.594718e+00   6.933098e-02
  1.204699e-01    1.554070e+00   6.781034e-02
  1.226803e-01    1.568456e+00   6.750416e-02
  1.248908e-01    1.561486e+00   6.675451e-02
  1.271012e-01    1.626996e+00   6.754396e-02
  1.293117e-01    1.638085e+00   6.719115e-02
  1.315222e-01    1.637179e+00   6.660414e-02
  1.337326e-01    1.531934e+00   6.389190e-02
  1.359431e-01    1.576533e+00   6.485318e-02
  1.381535e-01    1.527878e+00   6.470159e-02
  1.403640e-01    1.521434e+00   6.484376e-02
  1.425744e-01    1.611913e+00   6.685065e-02
  1.447849e-01    1.614936e+00   6.692873e-02
  1.469953e-01    1.581542e+00   6.619167e-02
  1.492058e-01    1.556626e+00   6.559186e-02
  1.514163e-01    1.635545e+00   6.712239e-02
  1.536267e-01    1.608800e+00   6.644134e-02
  1.558372e-01    1.673917e+00   6.762301e-02
  1.580476e-01    1.624846e+00   6.646277e-02
  1.602581e-01    1.713646e+00   6.808142e-02
  1.624685e-01    1.661868e+00   6.686142e-02
  1.646790e-01    1.747771e+00   6.837081e-02
  1.668895e-01    1.826087e+00   6.968398e-02
  1.690999e-01    1.872785e+00   7.035749e-02
  1.713104e-01    1.756711e+00   6.793077e-02
  1.735208e-01    1.825566e+00   6.903392e-02
  1.757313e-01    1.881066e+00   6.985582e-02
  1.779417e-01    1.896312e+00   6.990957e-02
  1.801522e-01    1.921643e+00   7.015084e-02
  1.823626e-01    1.855967e+00   6.871213e-02
  1.845731e-01    1.957827e+00   7.034387e-02
  1.867836e-01    2.001679e+00   7.088727e-02
  1.889940e-01    2.035217e+00   7.124509e-02
  1.912045e-01    1.941715e+00   6.935690e-02
  1.934149e-01    1.968776e+00   6.960477e-02
  1.956254e-01    1.989239e+00   6.973480e-02
  1.978358e-01    2.034130e+00   7.027563e-02
  2.000463e-01    2.057794e+00   7.044895e-02
  2.022568e-01    2.062017e+00   7.028976e-02
  2.044672e-01    2.091036e+00   7.054012e-02
  2.066777e-01    2.085405e+00   7.021129e-02
  2.088881e-01    2.028821e+00   6.902563e-02
  2.110986e-01    1.990749e+00   6.814044e-02
  2.133090e-01    2.001995e+00   6.811050e-02
  2.155195e-01    1.962218e+00   6.720679e-02
  2.177300e-01    1.988169e+00   6.711829e-02
  2.199404e-01    1.995301e+00   6.546684e-02
  2.221509e-01    1.985898e+00   6.423994e-02
  2.243613e-01    1.994815e+00   6.356779e-02
  2.265718e-01    2.032076e+00   6.345157e-02
  2.287822e-01    2.002271e+00   6.236110e-02
  2.309927e-01    2.046505e+00   6.247186e-02
  2.332031e-01    2.043745e+00   6.189537e-02
  2.354136e-01    2.110030e+00   6.238135e-02
  2.376241e-01    2.207689e+00   6.331339e-02
  2.398345e-01    2.191367e+00   6.261206e-02
  2.420450e-01    2.249213e+00   6.297972e-02
  2.442554e-01    2.181051e+00   6.159088e-02
  2.464659e-01    2.143224e+00   6.064447e-02
  2.486763e-01    2.226722e+00   6.140823e-02
  2.508868e-01    2.132915e+00   5.972167e-02
  2.530973e-01    2.168137e+00   5.983943e-02
  2.553077e-01    2.178061e+00   5.961245e-02
  2.575182e-01    2.082426e+00   5.794414e-02
  2.597286e-01    2.072881e+00   5.747512e-02
  2.619391e-01    2.076607e+00   5.719557e-02
  2.641495e-01    2.147204e+00   5.783777e-02
  2.663600e-01    2.074322e+00   5.653511e-02
  2.685704e-01    2.152588e+00   5.727957e-02
  2.707809e-01    2.121032e+00   5.655641e-02
  2.729914e-01    2.044325e+00   5.523493e-02
  2.752018e-01    2.051906e+00   5.504925e-02
  2.774123e-01    1.979644e+00   5.379502e-02
  2.796227e-01    1.990368e+00   5.367370e-02
  2.818332e-01    2.035408e+00   5.400682e-02
  2.840436e-01    2.088900e+00   5.444669e-02
  2.862541e-01    1.963458e+00   5.253284e-02
  2.884646e-01    2.000665e+00   5.277656e-02
  2.906750e-01    2.007823e+00   5.262021e-02
  2.928855e-01    1.936071e+00   5.143202e-02
  2.950959e-01    1.969001e+00   5.162929e-02
  2.973064e-01    1.972113e+00   5.143787e-02
  2.995168e-01    1.949525e+00   5.091081e-02
  3.017273e-01    1.976362e+00   5.103401e-02
  3.039377e-01    1.992018e+00   5.101142e-02
  3.061482e-01    1.931510e+00   5.001342e-02
  3.083587e-01    1.912100e+00   4.954608e-02
  3.105691e-01    1.939292e+00   4.968401e-02
  3.127796e-01    1.917446e+00   4.919569e-02
  3.149900e-01    1.913371e+00   4.893862e-02
  3.172005e-01    1.907642e+00   4.866549e-02
  3.194109e-01    1.921031e+00   4.863436e-02
  3.216214e-01    1.905239e+00   4.823643e-02
  3.238319e-01    1.856866e+00   4.743148e-02
  3.260423e-01    1.866175e+00   4.736080e-02
  3.282528e-01    1.904905e+00   4.765925e-02
  3.304632e-01    1.914238e+00   4.759078e-02
  3.326737e-01    1.912637e+00   4.738526e-02
  3.348841e-01    1.850361e+00   4.642672e-02
  3.370946e-01    1.844523e+00   4.617902e-02
  3.393050e-01    1.828025e+00   4.579788e-02
  3.415155e-01    1.816238e+00   4.547837e-02
  3.437260e-01    1.848849e+00   4.571475e-02
  3.459364e-01    1.811253e+00   4.508020e-02
  3.481469e-01    1.829885e+00   4.514606e-02
  3.503573e-01    1.867876e+00   4.544615e-02
  3.525678e-01    1.873761e+00   4.535548e-02
  3.547782e-01    1.868870e+00   4.513252e-02
  3.569887e-01    1.882327e+00   4.513423e-02
  3.591992e-01    1.824707e+00   4.428084e-02
  3.614096e-01    1.786537e+00   4.366330e-02
  3.636201e-01    1.840194e+00   4.415842e-02
  3.658305e-01    1.874016e+00   4.441040e-02
  3.680410e-01    1.830623e+00   4.374225e-02
  3.702514e-01    1.779910e+00   4.298705e-02
  3.724619e-01    1.777031e+00   4.280602e-02
  3.746724e-01    1.752337e+00   4.236572e-02
  3.768828e-01    1.802964e+00   4.282875e-02
  3.790933e-01    1.781465e+00   4.243391e-02
  3.813037e-01    1.821875e+00   4.277208e-02
  3.835142e-01    1.822636e+00   4.264052e-02
  3.857246e-01    1.790686e+00   4.212834e-02
  3.879351e-01    1.795744e+00   4.205125e-02
  3.901455e-01    1.760890e+00   4.150861e-02
  3.923560e-01    1.771510e+00   4.150123e-02
  3.945665e-01    1.842983e+00   4.219593e-02
  3.967769e-01    1.866902e+00   4.233587e-02
  3.989874e-01    1.799114e+00   4.143039e-02
  4.011978e-01    1.782593e+00   4.111288e-02
  4.034083e-01    1.829839e+00   4.152628e-02
  4.056187e-01    1.839499e+00   4.150748e-02
  4.078292e-01    1.779948e+00   4.070655e-02
  4.100397e-01    1.788797e+00   4.068298e-02
  4.122501e-01    1.819343e+00   4.090613e-02
  4.144606e-01    1.765174e+00   4.017308e-02
  4.166710e-01    1.777816e+00   4.019680e-02
  4.188815e-01    1.808146e+00   4.041848e-02
  4.210919e-01    1.792771e+00   4.012834e-02
  4.233024e-01    1.847504e+00   4.061645e-02
  4.255128e-01    1.872238e+00   4.076925e-02
  4.277233e-01    1.805786e+00   3.992417e-02
  4.299338e-01    1.799438e+00   3.973924e-02
  4.321442e-01    1.794743e+00   3.957380e-02
  4.343547e-01    1.791382e+00   3.942493e-02
  4.365651e-01    1.797069e+00   3.937528e-02
  4.387756e-01    1.736686e+00   3.859971e-02
  4.409860e-01    1.749048e+00   3.862952e-02
  4.431965e-01    1.737776e+00   3.839838e-02
  4.454070e-01    1.741406e+00   3.833152e-02
  4.476174e-01    1.745926e+00   3.827585e-02
  4.498279e-01    1.746478e+00   3.817775e-02
  4.520383e-01    1.777460e+00   3.840919e-02
  4.542488e-01    1.762747e+00   3.814675e-02
  4.564592e-01    1.779511e+00   3.822488e-02
  4.586697e-01    1.782837e+00   3.815907e-02
  4.608801e-01    1.722363e+00   3.740581e-02
  4.630906e-01    1.707899e+00   3.714980e-02
  4.653011e-01    1.709633e+00   3.707092e-02
  4.675115e-01    1.728835e+00   3.718032e-02
  4.697220e-01    1.775576e+00   3.758094e-02
  4.719324e-01    1.743212e+00   3.714055e-02
  4.741429e-01    1.743515e+00   3.704805e-02
  4.763533e-01    1.729755e+00   3.680699e-02
  4.785638e-01    1.746490e+00   3.688906e-02
  4.807743e-01    1.707760e+00   3.638498e-02
  4.829847e-01    1.669796e+00   3.588739e-02
  4.851952e-01    1.713497e+00   3.626197e-02
  4.874056e-01    1.712512e+00   3.616015e-02
  4.896161e-01    1.688842e+00   3.582031e-02
  4.918265e-01    1.707814e+00   3.593151e-02
  4.940370e-01    1.719020e+00   3.596020e-02
  4.962475e-01    1.702068e+00   3.569409e-02
  4.984579e-01    1.673801e+00   3.530923e-02
  5.006684e-01    1.675465e+00   3.524061e-02
  5.028788e-01    1.682418e+00   3.522811e-02
  5.050893e-01    1.673496e+00   3.504913e-02
  5.072997e-01    1.616011e+00   3.435871e-02
  5.095102e-01    1.661090e+00   3.475119e-02
  5.117206e-01    1.689277e+00   3.496147e-02
  5.139311e-01    1.695287e+00   3.494072e-02
  5.161416e-01    1.697803e+00   3.488401e-02
  5.183520e-01    1.714756e+00   3.497444e-02
  5.205625e-01    1.684510e+00   3.458339e-02
  5.227729e-01    1.688154e+00   3.454003e-02
  5.249834e-01    1.720951e+00   3.479297e-02
  5.271938e-01    1.721437e+00   3.471670e-02
  5.294043e-01    1.773588e+00   3.515732e-02
  5.316148e-01    1.815811e+00   3.549187e-02
  5.338252e-01    1.806058e+00   3.531555e-02
  5.360357e-01    1.762820e+00   3.481080e-02
  5.382461e-01    1.738337e+00   3.449009e-02
  5.404566e-01    1.729545e+00   3.432446e-02
  5.426670e-01    1.749409e+00   3.444322e-02
  5.448775e-01    1.759883e+00   3.446901e-02
  5.470879e-01    1.755434e+00   3.434863e-02
  5.492984e-01    1.818822e+00   3.488554e-02
  5.515089e-01    1.815192e+00   3.477342e-02
  5.537193e-01    1.823597e+00   3.477705e-02
  5.559298e-01    1.819050e+00   3.465747e-02
  5.581402e-01    1.808785e+00   3.448405e-02
  5.603507e-01    1.792212e+00   3.425099e-02
  5.625611e-01    1.828472e+00   3.452066e-02
  5.647716e-01    1.800792e+00   3.418401e-02
  5.669821e-01    1.797411e+00   3.407825e-02
  5.691925e-01    1.826532e+00   3.427948e-02
  5.714030e-01    1.758583e+00   3.356411e-02
  5.736134e-01    1.750112e+00   3.341196e-02
  5.758239e-01    1.762496e+00   3.345838e-02
  5.780343e-01    1.796485e+00   3.370801e-02
  5.802448e-01    1.721091e+00   3.292405e-02
  5.824552e-01    1.723091e+00   3.287404e-02
  5.846657e-01    1.643865e+00   3.204248e-02
  5.868762e-01    1.677915e+00   3.230519e-02
  5.890866e-01    1.654293e+00   3.201048e-02
  5.912971e-01    1.662282e+00   3.202121e-02
  5.935075e-01    1.654873e+00   3.188377e-02
  5.957180e-01    1.649947e+00   3.177094e-02
  5.979284e-01    1.637090e+00   3.158232e-02
  6.001389e-01    1.610948e+00   3.126534e-02
  6.023494e-01    1.666021e+00   3.173071e-02
  6.045598e-01    1.686973e+00   3.186461e-02
  6.067703e-01    1.732360e+00   3.222550e-02
  6.089807e-01    1.645517e+00   3.134423e-02
  6.111912e-01    1.660496e+00   3.142368e-02
  6.134016e-01    1.703767e+00   3.176701e-02
  6.156121e-01    1.712254e+00   3.178272e-02
  6.178226e-01    1.702868e+00   3.163275e-02
  6.200330e-01    1.699260e+00   3.153689e-02
  6.222435e-01    1.699997e+00   3.148124e-02
  6.244539e-01    1.699010e+00   3.141047e-02
  6.266644e-01    1.718734e+00   3.153064e-02
  6.288748e-01    1.707755e+00   3.136861e-02
  6.310853e-01    1.719262e+00   3.141299e-02
  6.332957e-01    1.735385e+00   3.149901e-02
  6.355062e-01    1.719444e+00   3.129312e-02
  6.377167e-01    1.689199e+00   3.095713e-02
  6.399271e-01    1.745051e+00   3.140448e-02
  6.421376e-01    1.772918e+00   3.159381e-02
  6.443480e-01    1.763716e+00   3.145178e-02
  6.465585e-01    1.689331e+00   3.072308e-02
  6.487689e-01    1.689775e+00   3.066909e-02
  6.509794e-01    1.687778e+00   3.059316e-02
  6.531899e-01    1.650408e+00   3.019568e-02
  6.554003e-01    1.621752e+00   2.987612e-02
  6.576108e-01    1.639190e+00   2.998037e-02
  6.598212e-01    1.616473e+00   2.971659e-02
  6.620317e-01    1.623672e+00   2.972749e-02
  6.642421e-01    1.619671e+00   2.963590e-02
  6.664526e-01    1.643837e+00   2.980116e-02
  6.686630e-01    1.635095e+00   2.966687e-02
  6.708735e-01    1.598043e+00   2.927502e-02
  6.730840e-01    1.612049e+00   2.934941e-02
  6.752944e-01    1.622636e+00   2.939208e-02
  6.775049e-01    1.664570e+00   2.971540e-02
  6.797153e-01    1.633729e+00   2.938553e-02
  6.819258e-01    1.620283e+00   2.921157e-02
  6.841362e-01    1.626192e+00   2.921216e-02
  6.863467e-01    1.618876e+00   2.909417e-02
  6.885572e-01    1.605412e+00   2.892102e-02
  6.907676e-01    1.647173e+00   2.924226e-02
  6.929781e-01    1.622443e+00   2.897034e-02
  6.951885e-01    1.637274e+00   2.905091e-02
  6.973990e-01    1.630292e+00   2.893764e-02
  6.996094e-01    1.637523e+00   2.895072e-02
  7.018199e-01    1.645861e+00   2.897338e-02
  7.040303e-01    1.628035e+00   2.876545e-02
  7.062408e-01    1.611876e+00   2.857220e-02
  7.084513e-01    1.621198e+00   2.860486e-02
  7.106617e-01    1.598063e+00   2.835066e-02
  7.128722e-01    1.604099e+00   2.835503e-02
  7.150826e-01    1.595126e+00   2.822685e-02
  7.172931e-01    1.587551e+00   2.811123e-02
  7.195035e-01    1.585449e+00   2.804430e-02
  7.217140e-01    1.592487e+00   2.815622e-02
  7.239245e-01    1.568937e+00   2.817357e-02
  7.261349e-01    1.573725e+00   2.832512e-02
  7.283454e-01    1.524108e+00   2.794625e-02
  7.305558e-01    1.543758e+00   2.817926e-02
  7.327663e-01    1.624232e+00   2.894759e-02
  7.349767e-01    1.608659e+00   2.882504e-02
  7.371872e-01    1.600437e+00   2.873999e-02
  7.393976e-01    1.601279e+00   2.873318e-02
  7.416081e-01    1.599860e+00   2.870414e-02
  7.438186e-01    1.594347e+00   2.850943e-02
  7.460290e-01    1.559451e+00   2.790288e-02
  7.482395e-01    1.555586e+00   2.769816e-02
  7.504499e-01    1.586363e+00   2.783402e-02
  7.526604e-01    1.583218e+00   2.768957e-02
  7.548708e-01    1.566710e+00   2.745563e-02
  7.570813e-01    1.607814e+00   2.776195e-02
  7.592918e-01    1.633895e+00   2.795040e-02
  7.615022e-01    1.610932e+00   2.771909e-02
  7.637127e-01    1.593274e+00   2.753379e-02
  7.659231e-01    1.616944e+00   2.770511e-02
  7.681336e-01    1.618790e+00   2.768891e-02
  7.703440e-01    1.603206e+00   2.752379e-02
  7.725545e-01    1.618493e+00   2.762338e-02
  7.747650e-01    1.643036e+00   2.779303e-02
  7.769754e-01    1.630460e+00   2.763283e-02
  7.791859e-01    1.624643e+00   2.752919e-02
  7.813963e-01    1.569934e+00   2.700927e-02
  7.836068e-01    1.566593e+00   2.692880e-02
  7.858172e-01    1.573370e+00   2.693653e-02
  7.880277e-01    1.600067e+00   2.711242e-02
  7.902381e-01    1.601716e+00   2.707712e-02
  7.924486e-01    1.601071e+00   2.702150e-02
  7.946591e-01    1.616269e+00   2.710092e-02
  7.968695e-01    1.630371e+00   2.717020e-02
  7.990800e-01    1.606389e+00   2.692143e-02
  8.012904e-01    1.654412e+00   2.727359e-02
  8.035009e-01    1.694191e+00   2.755045e-02
  8.057113e-01    1.674881e+00   2.734562e-02
  8.079218e-01    1.640022e+00   2.701285e-02
  8.101323e-01    1.629833e+00   2.688310e-02
  8.123427e-01    1.624699e+00   2.679494e-02
  8.145532e-01    1.656358e+00   2.700846e-02
  8.167636e-01    1.657921e+00   2.697577e-02
  8.189741e-01    1.641418e+00   2.679643e-02
  8.211845e-01    1.611798e+00   2.650905e-02
  8.233950e-01    1.632499e+00   2.663535e-02
  8.256054e-01    1.642813e+00   2.667507e-02
  8.278159e-01    1.662552e+00   2.679056e-02
  8.300264e-01    1.644920e+00   2.660495e-02
  8.322368e-01    1.670823e+00   2.677005e-02
  8.344473e-01    1.645711e+00   2.652466e-02
  8.366577e-01    1.624478e+00   2.631061e-02
  8.388682e-01    1.623572e+00   2.626120e-02
  8.410786e-01    1.678361e+00   2.665807e-02
  8.432891e-01    1.654473e+00   2.642567e-02
  8.454996e-01    1.647940e+00   2.633169e-02
  8.477100e-01    1.611465e+00   2.599733e-02
  8.499205e-01    1.594452e+00   2.581911e-02
  8.521309e-01    1.639754e+00   2.614249e-02
  8.543414e-01    1.664271e+00   2.629613e-02
  8.565518e-01    1.689861e+00   2.645627e-02
  8.587623e-01    1.671182e+00   2.626867e-02
  8.609727e-01    1.689218e+00   2.636912e-02
  8.631832e-01    1.680445e+00   2.625998e-02
  8.653937e-01    1.652865e+00   2.600359e-02
  8.676041e-01    1.659627e+00   2.601741e-02
  8.698146e-01    1.643661e+00   2.585238e-02
  8.720250e-01    1.648723e+00   2.585269e-02
  8.742355e-01    1.613561e+00   2.553662e-02
  8.764459e-01    1.582945e+00   2.525458e-02
  8.786564e-01    1.601133e+00   2.536139e-02
  8.808669e-01    1.633614e+00   2.557851e-02
  8.830773e-01    1.605278e+00   2.531753e-02
  8.852878e-01    1.599876e+00   2.523700e-02
  8.874982e-01    1.596709e+00   2.517543e-02
  8.897087e-01    1.596952e+00   2.513969e-02
  8.919191e-01    1.606232e+00   2.517483e-02
  8.941296e-01    1.630602e+00   2.532743e-02
  8.963401e-01    1.635818e+00   2.533109e-02
  8.985505e-01    1.636336e+00   2.529772e-02
  9.007610e-01    1.629852e+00   2.521046e-02
  9.029714e-01    1.610662e+00   2.502566e-02
  9.051819e-01    1.595249e+00   2.486846e-02
  9.073923e-01    1.597776e+00   2.485158e-02
  9.096028e-01    1.601146e+00   2.484288e-02
  9.118132e-01    1.592487e+00   2.473946e-02
  9.140237e-01    1.591857e+00   2.469805e-02
  9.162342e-01    1.592420e+00   2.466792e-02
  9.184446e-01    1.604542e+00   2.472584e-02
  9.206551e-01    1.591841e+00   2.459226e-02
  9.228655e-01    1.624657e+00   2.480896e-02
  9.250760e-01    1.627540e+00   2.479531e-02
  9.272864e-01    1.634494e+00   2.481366e-02
  9.294969e-01    1.616799e+00   2.464299e-02
  9.317074e-01    1.595832e+00   2.444809e-02
  9.339178e-01    1.597322e+00   2.442608e-02
  9.361283e-01    1.624076e+00   2.459350e-02
  9.383387e-01    1.617993e+00   2.451400e-02
  9.405492e-01    1.630605e+00   2.457499e-02
  9.427596e-01    1.633863e+00   2.456412e-02
  9.449701e-01    1.654402e+00   2.468444e-02
  9.471805e-01    1.657404e+00   2.467184e-02
  9.493910e-01    1.704605e+00   2.498633e-02
  9.516015e-01    1.733228e+00   2.516008e-02
  9.538119e-01    1.756487e+00   2.529363e-02
  9.560224e-01    1.746816e+00   2.518839e-02
  9.582328e-01    1.769635e+00   2.531837e-02
  9.604433e-01    1.742468e+00   2.508771e-02
  9.626537e-01    1.785454e+00   2.536110e-02
  9.648642e-01    1.807767e+00   2.548415e-02
  9.670747e-01    1.792780e+00   2.534329e-02
  9.692851e-01    1.864369e+00   2.580997e-02
  9.714956e-01    1.880088e+00   2.588203e-02
  9.737060e-01    1.892078e+00   2.593029e-02
  9.759165e-01    1.939341e+00   2.621515e-02
  9.781269e-01    1.959379e+00   2.631578e-02
  9.803374e-01    1.879419e+00   2.573761e-02
  9.825478e-01    1.792522e+00   2.510237e-02
  9.847583e-01    1.838966e+00   2.539097e-02
  9.869688e-01    1.798066e+00   2.507343e-02
  9.891792e-01    1.820289e+00   2.519435e-02
  9.913897e-01    1.787322e+00   2.493150e-02
  9.936001e-01    1.753585e+00   2.466272e-02
  9.958106e-01    1.759979e+00   2.467410e-02
  9.980210e-01    1.672421e+00   2.402126e-02
  1.000231e+00    1.684959e+00   2.424322e-02
  1.002442e+00    1.671500e+00   2.427450e-02
  1.004652e+00    1.666066e+00   2.430262e-02
  1.006863e+00    1.658229e+00   2.429572e-02
  1.009073e+00    1.637085e+00   2.417726e-02
  1.011284e+00    1.649359e+00   2.430017e-02
  1.013494e+00    1.594012e+00   2.391267e-02
  1.015705e+00    1.588793e+00   2.389604e-02
  1.017915e+00    1.633591e+00   2.424729e-02
  1.020126e+00    1.654909e+00   2.442146e-02
  1.022336e+00    1.791786e+00   2.542385e-02
  1.024547e+00    1.870389e+00   2.598789e-02
  1.026757e+00    1.757594e+00   2.520104e-02
  1.028967e+00    1.651064e+00   2.443331e-02
  1.031178e+00    1.561501e+00   2.376756e-02
  1.033388e+00    1.535639e+00   2.357497e-02
  1.035599e+00    1.569897e+00   2.383995e-02
  1.037809e+00    1.591552e+00   2.400713e-02
  1.040020e+00    1.692146e+00   2.475551e-02
  1.042230e+00    1.836477e+00   2.579181e-02
  1.044441e+00    1.955158e+00   2.661191e-02
  1.046651e+00    1.983174e+00   2.680212e-02
  1.048862e+00    1.875112e+00   2.606084e-02
  1.051072e+00    1.693324e+00   2.476285e-02
  1.053282e+00    1.597416e+00   2.405037e-02
  1.055493e+00    1.545732e+00   2.365370e-02
  1.057703e+00    1.552176e+00   2.370140e-02
  1.059914e+00    1.633710e+00   2.431145e-02
  1.062124e+00    1.787997e+00   2.542906e-02
  1.064335e+00    2.015745e+00   2.699609e-02
  1.066545e+00    1.914801e+00   2.630476e-02
  1.068756e+00    1.616108e+00   2.416224e-02
  1.070966e+00    1.515079e+00   2.338815e-02
  1.073177e+00    1.499943e+00   2.326491e-02
  1.075387e+00    1.481905e+00   2.311935e-02
  1.077597e+00    1.467734e+00   2.300129e-02
  1.079808e+00    1.456175e+00   2.277817e-02
  1.082018e+00    1.434324e+00   2.241941e-02
  1.084229e+00    1.436593e+00   2.232797e-02
  1.086439e+00    1.475232e+00   2.253822e-02
  1.088650e+00    1.470341e+00   2.242475e-02
  1.090860e+00    1.451849e+00   2.221573e-02
  1.093071e+00    1.424026e+00   2.194021e-02
  1.095281e+00    1.427292e+00   2.190847e-02
  1.097492e+00    1.438497e+00   2.193951e-02
  1.099702e+00    1.459104e+00   2.204437e-02
  1.101912e+00    1.451500e+00   2.193782e-02
  1.104123e+00    1.416563e+00   2.162429e-02
  1.106333e+00    1.398657e+00   2.144328e-02
  1.108544e+00    1.443361e+00   2.173882e-02
  1.110754e+00    1.408844e+00   2.143457e-02
  1.112965e+00    1.381602e+00   2.118636e-02
  1.115175e+00    1.407021e+00   2.133938e-02
  1.117386e+00    1.413631e+00   2.135020e-02
  1.119596e+00    1.405110e+00   2.124798e-02
  1.121807e+00    1.416977e+00   2.129860e-02
  1.124017e+00    1.382530e+00   2.100179e-02
  1.126228e+00    1.411401e+00   2.118410e-02
  1.128438e+00    1.419752e+00   2.120968e-02
  1.130648e+00    1.408249e+00   2.108915e-02
  1.132859e+00    1.410495e+00   2.107143e-02
  1.135069e+00    1.378983e+00   2.080018e-02
  1.137280e+00    1.361970e+00   2.063878e-02
  1.139490e+00    1.407157e+00   2.094507e-02
  1.141701e+00    1.417931e+00   2.099158e-02
  1.143911e+00    1.425836e+00   2.101768e-02
  1.146122e+00    1.400167e+00   2.079539e-02
  1.148332e+00    1.391131e+00   2.069618e-02
  1.150543e+00    1.389700e+00   2.065454e-02
  1.152753e+00    1.422024e+00   2.086203e-02
  1.154963e+00    1.392599e+00   2.061381e-02
  1.157174e+00    1.373318e+00   2.044044e-02
  1.159384e+00    1.363801e+00   2.033973e-02
  1.161595e+00    1.355085e+00   2.024496e-02
  1.163805e+00    1.357919e+00   2.023696e-02
  1.166016e+00    1.387938e+00   2.042978e-02
  1.168226e+00    1.374601e+00   2.030236e-02
  1.170437e+00    1.363581e+00   2.019219e-02
  1.172647e+00    1.396169e+00   2.040285e-02
  1.174858e+00    1.402707e+00   2.042207e-02
  1.177068e+00    1.365923e+00   2.012426e-02
  1.179278e+00    1.357356e+00   2.003250e-02
  1.181489e+00    1.368959e+00   2.009082e-02
  1.183699e+00    1.373716e+00   2.009799e-02
  1.185910e+00    1.382279e+00   2.013251e-02
  1.188120e+00    1.358257e+00   1.993010e-02
  1.190331e+00    1.372759e+00   2.000929e-02
  1.192541e+00    1.398782e+00   2.017021e-02
  1.194752e+00    1.401403e+00   2.016160e-02
  1.196962e+00    1.351805e+00   1.977586e-02
  1.199173e+00    1.342713e+00   1.968281e-02
  1.201383e+00    1.380950e+00   1.993362e-02
  1.203593e+00    1.381597e+00   1.991320e-02
  1.205804e+00    1.363698e+00   1.975773e-02
  1.208014e+00    1.354305e+00   1.966269e-02
  1.210225e+00    1.333214e+00   1.948380e-02
  1.212435e+00    1.336202e+00   1.948096e-02
  1.214646e+00    1.330182e+00   1.941110e-02
  1.216856e+00    1.359523e+00   1.959846e-02
  1.219067e+00    1.352934e+00   1.952642e-02
  1.221277e+00    1.319268e+00   1.925721e-02
  1.223488e+00    1.338124e+00   1.936869e-02
  1.225698e+00    1.345449e+00   1.939479e-02
  1.227909e+00    1.353569e+00   1.942302e-02
  1.230119e+00    1.359873e+00   1.943621e-02
  1.232329e+00    1.356466e+00   1.938107e-02
  1.234540e+00    1.338156e+00   1.921966e-02
  1.236750e+00    1.328712e+00   1.912169e-02
  1.238961e+00    1.347002e+00   1.922591e-02
  1.241171e+00    1.343147e+00   1.917427e-02
  1.243382e+00    1.335558e+00   1.909662e-02
  1.245592e+00    1.350201e+00   1.917692e-02
  1.247803e+00    1.317954e+00   1.892320e-02
  1.250013e+00    1.294811e+00   1.873322e-02
  1.252224e+00    1.311141e+00   1.882807e-02
  1.254434e+00    1.356031e+00   1.912387e-02
  1.256644e+00    1.352416e+00   1.907516e-02
  1.258855e+00    1.332801e+00   1.891320e-02
  1.261065e+00    1.352470e+00   1.902883e-02
  1.263276e+00    1.357145e+00   1.903871e-02
  1.265486e+00    1.355048e+00   1.900107e-02
  1.267697e+00    1.350848e+00   1.894858e-02
  1.269907e+00    1.363626e+00   1.901518e-02
  1.272118e+00    1.341534e+00   1.883801e-02
  1.274328e+00    1.365196e+00   1.898054e-02
  1.276539e+00    1.373390e+00   1.901446e-02
  1.278749e+00    1.354055e+00   1.885781e-02
  1.280959e+00    1.349966e+00   1.880678e-02
  1.283170e+00    1.348882e+00   1.877681e-02
  1.285380e+00    1.365328e+00   1.886835e-02
  1.287591e+00    1.377317e+00   1.892875e-02
  1.289801e+00    1.363894e+00   1.881496e-02
  1.292012e+00    1.364019e+00   1.879864e-02
  1.294222e+00    1.368430e+00   1.881265e-02
  1.296433e+00    1.375682e+00   1.884669e-02
  1.298643e+00    1.384431e+00   1.888986e-02
  1.300854e+00    1.356309e+00   1.868056e-02
  1.303064e+00    1.360708e+00   1.869153e-02
  1.305274e+00    1.341178e+00   1.853554e-02
  1.307485e+00    1.376401e+00   1.875560e-02
  1.309695e+00    1.352457e+00   1.856950e-02
  1.311906e+00    1.351158e+00   1.853886e-02
  1.314116e+00    1.364521e+00   1.860938e-02
  1.316327e+00    1.377470e+00   1.867559e-02
  1.318537e+00    1.357846e+00   1.852013e-02
  1.320748e+00    1.363415e+00   1.853641e-02
  1.322958e+00    1.350425e+00   1.842736e-02
  1.325169e+00    1.371856e+00   1.855182e-02
  1.327379e+00    1.337057e+00   1.829331e-02
  1.329589e+00    1.336666e+00   1.826967e-02
  1.331800e+00    1.337662e+00   1.825586e-02
  1.334010e+00    1.383556e+00   1.854548e-02
  1.336221e+00    1.384065e+00   1.852690e-02
  1.338431e+00    1.359638e+00   1.834173e-02
  1.340642e+00    1.386069e+00   1.858415e-02
  1.342852e+00    1.356595e+00   1.848644e-02
  1.345063e+00    1.367930e+00   1.861330e-02
  1.347273e+00    1.385880e+00   1.877075e-02
  1.349484e+00    1.339729e+00   1.848315e-02
  1.351694e+00    1.315482e+00   1.833753e-02
  1.353905e+00    1.319052e+00   1.838016e-02
  1.356115e+00    1.345099e+00   1.857578e-02
  1.358325e+00    1.354123e+00   1.865134e-02
  1.360536e+00    1.355005e+00   1.866903e-02
  1.362746e+00    1.335985e+00   1.854710e-02
  1.364957e+00    1.307506e+00   1.835586e-02
  1.367167e+00    1.326632e+00   1.849673e-02
  1.369378e+00    1.328902e+00   1.851853e-02
  1.371588e+00    1.304314e+00   1.835147e-02
  1.373799e+00    1.301634e+00   1.833622e-02
  1.376009e+00    1.324421e+00   1.849940e-02
  1.378220e+00    1.325620e+00   1.851029e-02
  1.380430e+00    1.321956e+00   1.848741e-02
  1.382640e+00    1.324101e+00   1.850328e-02
  1.384851e+00    1.321979e+00   1.848936e-02
  1.387061e+00    1.299069e+00   1.832872e-02
  1.389272e+00    1.280090e+00   1.819456e-02
  1.391482e+00    1.273652e+00   1.814805e-02
  1.393693e+00    1.282111e+00   1.820737e-02
  1.395903e+00    1.258221e+00   1.803545e-02
  1.398114e+00    1.273786e+00   1.814529e-02
  1.400324e+00    1.279165e+00   1.818143e-02
  1.402535e+00    1.297427e+00   1.830842e-02
  1.404745e+00    1.268093e+00   1.809793e-02
  1.406955e+00    1.268944e+00   1.810128e-02
  1.409166e+00    1.274132e+00   1.813494e-02
  1.411376e+00    1.291958e+00   1.825823e-02
  1.413587e+00    1.266859e+00   1.807620e-02
  1.415797e+00    1.265386e+00   1.806215e-02
  1.418008e+00    1.267536e+00   1.803566e-02
  1.420218e+00    1.254135e+00   1.779128e-02
  1.422429e+00    1.264959e+00   1.778273e-02
  1.424639e+00    1.288092e+00   1.787944e-02
  1.426850e+00    1.307064e+00   1.795516e-02
  1.429060e+00    1.276996e+00   1.769832e-02
  1.431270e+00    1.262927e+00   1.755635e-02
  1.433481e+00    1.273708e+00   1.759012e-02
  1.435691e+00    1.269719e+00   1.752413e-02
  1.437902e+00    1.273762e+00   1.751548e-02
  1.440112e+00    1.286333e+00   1.756614e-02
  1.442323e+00    1.292724e+00   1.757639e-02
  1.444533e+00    1.290336e+00   1.752732e-02
  1.446744e+00    1.299164e+00   1.755571e-02
  1.448954e+00    1.325130e+00   1.769942e-02
  1.451165e+00    1.290440e+00   1.743625e-02
  1.453375e+00    1.261679e+00   1.721288e-02
  1.455586e+00    1.273320e+00   1.726389e-02
  1.457796e+00    1.295786e+00   1.738774e-02
  1.460006e+00    1.288815e+00   1.731345e-02
  1.462217e+00    1.267883e+00   1.714610e-02
  1.464427e+00    1.284792e+00   1.723426e-02
  1.466638e+00    1.284134e+00   1.720441e-02
  1.468848e+00    1.248803e+00   1.694095e-02
  1.471059e+00    1.244868e+00   1.688937e-02
  1.473269e+00    1.240419e+00   1.683507e-02
  1.475480e+00    1.246567e+00   1.685318e-02
  1.477690e+00    1.242406e+00   1.680144e-02
  1.479901e+00    1.249215e+00   1.682375e-02
  1.482111e+00    1.255642e+00   1.684375e-02
  1.484321e+00    1.262679e+00   1.686783e-02
  1.486532e+00    1.268104e+00   1.688166e-02
  1.488742e+00    1.266870e+00   1.685079e-02
  1.490953e+00    1.255508e+00   1.675252e-02
  1.493163e+00    1.260717e+00   1.676498e-02
  1.495374e+00    1.269840e+00   1.680399e-02
  1.497584e+00    1.252921e+00   1.667008e-02
  1.499795e+00    1.273409e+00   1.678408e-02
  1.502005e+00    1.268985e+00   1.673313e-02
  1.504216e+00    1.266066e+00   1.669278e-02
  1.506426e+00    1.255912e+00   1.660490e-02
  1.508636e+00    1.263370e+00   1.663364e-02
  1.510847e+00    1.252446e+00   1.653979e-02
  1.513057e+00    1.254402e+00   1.652762e-02
  1.515268e+00    1.245223e+00   1.644143e-02
  1.517478e+00    1.236708e+00   1.636014e-02
  1.519689e+00    1.268306e+00   1.654271e-02
  1.521899e+00    1.238944e+00   1.632714e-02
  1.524110e+00    1.263970e+00   1.647079e-02
  1.526320e+00    1.262796e+00   1.644348e-02
  1.528531e+00    1.244329e+00   1.630308e-02
  1.530741e+00    1.240275e+00   1.625744e-02
  1.532951e+00    1.241258e+00   1.624436e-02
  1.535162e+00    1.248650e+00   1.637922e-02
  1.537372e+00    1.250452e+00   1.645799e-02
  1.539583e+00    1.236514e+00   1.640007e-02
  1.541793e+00    1.239017e+00   1.642357e-02
  1.544004e+00    1.257956e+00   1.654889e-02
  1.546214e+00    1.281318e+00   1.670031e-02
  1.548425e+00    1.275482e+00   1.666253e-02
  1.550635e+00    1.271745e+00   1.664785e-02
  1.552846e+00    1.270546e+00   1.664979e-02
  1.555056e+00    1.248279e+00   1.646170e-02
  1.557266e+00    1.261180e+00   1.643533e-02
  1.559477e+00    1.257585e+00   1.635250e-02
  1.561687e+00    1.250253e+00   1.627398e-02
  1.563898e+00    1.273183e+00   1.640521e-02
  1.566108e+00    1.254661e+00   1.626940e-02
  1.568319e+00    1.262036e+00   1.630143e-02
  1.570529e+00    1.247800e+00   1.618406e-02
  1.572740e+00    1.240796e+00   1.611100e-02
  1.574950e+00    1.248175e+00   1.613247e-02
  1.577161e+00    1.260288e+00   1.618493e-02
  1.579371e+00    1.251228e+00   1.610292e-02
  1.581582e+00    1.235351e+00   1.598074e-02
  1.583792e+00    1.252684e+00   1.607437e-02
  1.586002e+00    1.251099e+00   1.604653e-02
  1.588213e+00    1.273492e+00   1.617206e-02
  1.590423e+00    1.265415e+00   1.610046e-02
  1.592634e+00    1.248926e+00   1.597355e-02
  1.594844e+00    1.230907e+00   1.583660e-02
  1.597055e+00    1.228435e+00   1.580031e-02
  1.599265e+00    1.227807e+00   1.577568e-02
  1.601476e+00    1.229023e+00   1.576326e-02
  1.603686e+00    1.233455e+00   1.577196e-02
  1.605897e+00    1.236624e+00   1.577207e-02
  1.608107e+00    1.234977e+00   1.574202e-02
  1.610317e+00    1.249817e+00   1.581691e-02
  1.612528e+00    1.230677e+00   1.567620e-02
  1.614738e+00    1.217488e+00   1.557313e-02
  1.616949e+00    1.193937e+00   1.540305e-02
  1.619159e+00    1.191511e+00   1.536890e-02
  1.621370e+00    1.184881e+00   1.530789e-02
  1.623580e+00    1.187670e+00   1.530776e-02
  1.625791e+00    1.189902e+00   1.530402e-02
  1.628001e+00    1.190923e+00   1.529242e-02
  1.630212e+00    1.185061e+00   1.523703e-02
  1.632422e+00    1.172695e+00   1.513954e-02
  1.634632e+00    1.171862e+00   1.511692e-02
  1.636843e+00    1.177445e+00   1.513536e-02
  1.639053e+00    1.142321e+00   1.489084e-02
  1.641264e+00    1.147623e+00   1.490843e-02
  1.643474e+00    1.131536e+00   1.478640e-02
  1.645685e+00    1.158063e+00   1.494205e-02
  1.647895e+00    1.131878e+00   1.475575e-02
  1.650106e+00    1.138960e+00   1.478491e-02
  1.652316e+00    1.141713e+00   1.478634e-02
  1.654527e+00    1.114477e+00   1.459246e-02
  1.656737e+00    1.110726e+00   1.455149e-02
  1.658947e+00    1.116245e+00   1.457142e-02
  1.661158e+00    1.151035e+00   1.478033e-02
  1.663368e+00    1.143788e+00   1.471754e-02
  1.665579e+00    1.174094e+00   1.489470e-02
  1.667789e+00    1.152099e+00   1.473806e-02
  1.670000e+00    1.116167e+00   1.449090e-02
  1.672210e+00    1.091271e+00   1.431262e-02
  1.674421e+00    1.096278e+00   1.433014e-02
  1.676631e+00    1.094105e+00   1.430012e-02
  1.678842e+00    1.103400e+00   1.434492e-02
  1.681052e+00    1.114299e+00   1.440008e-02
  1.683263e+00    1.079631e+00   1.415924e-02
  1.685473e+00    1.079511e+00   1.414334e-02
  1.687683e+00    1.067142e+00   1.404676e-02
  1.689894e+00    1.079196e+00   1.411011e-02
  1.692104e+00    1.055843e+00   1.394185e-02
  1.694315e+00    1.044159e+00   1.385017e-02
  1.696525e+00    1.032743e+00   1.375936e-02
  1.698736e+00    1.065844e+00   1.396329e-02
  1.700946e+00    1.069340e+00   1.397099e-02
  1.703157e+00    1.044695e+00   1.379450e-02
  1.705367e+00    1.023633e+00   1.364044e-02
  1.707578e+00    1.038240e+00   1.372291e-02
  1.709788e+00    1.035218e+00   1.368889e-02
  1.711998e+00    1.018488e+00   1.356299e-02
  1.714209e+00    1.018702e+00   1.355011e-02
  1.716419e+00    1.028317e+00   1.359968e-02
  1.718630e+00    1.035441e+00   1.363242e-02
  1.720840e+00    1.043981e+00   1.367423e-02
  1.723051e+00    1.021116e+00   1.350982e-02
  1.725261e+00    1.011889e+00   1.343403e-02
  1.727472e+00    1.000491e+00   1.334411e-02
  1.729682e+00    9.984966e-01   1.331746e-02
  1.731893e+00    9.934721e-01   1.327012e-02
  1.734103e+00    9.986422e-01   1.329087e-02
  1.736313e+00    1.009961e+00   1.335196e-02
  1.738524e+00    9.931422e-01   1.322656e-02
  1.740734e+00    9.702803e-01   1.305992e-02
  1.742945e+00    9.825623e-01   1.312896e-02
  1.745155e+00    9.691349e-01   1.302566e-02
  1.747366e+00    9.608058e-01   1.295596e-02
  1.749576e+00    9.689769e-01   1.299735e-02
  1.751787e+00    9.567426e-01   1.290189e-02
  1.753997e+00    9.574173e-01   1.289321e-02
  1.756208e+00    9.661038e-01   1.293841e-02
  1.758418e+00    9.559309e-01   1.285713e-02
  1.760628e+00    9.420130e-01   1.275001e-02
  1.762839e+00    9.602924e-01   1.285993e-02
  1.765049e+00    9.444029e-01   1.274013e-02
  1.767260e+00    9.418838e-01   1.271039e-02
  1.769470e+00    9.504038e-01   1.275483e-02
  1.771681e+00    9.410504e-01   1.267884e-02
  1.773891e+00    9.398481e-01   1.265776e-02
  1.776102e+00    9.128053e-01   1.246169e-02
  1.778312e+00    9.325584e-01   1.258315e-02
  1.780523e+00    9.239020e-01   1.251200e-02
  1.782733e+00    9.308881e-01   1.254658e-02
  1.784944e+00    9.487681e-01   1.265353e-02
  1.787154e+00    9.352254e-01   1.255035e-02
  1.789364e+00    9.238870e-01   1.246161e-02
  1.791575e+00    9.118682e-01   1.236784e-02
  1.793785e+00    9.093698e-01   1.233859e-02
  1.795996e+00    9.094416e-01   1.232662e-02
  1.798206e+00    9.230545e-01   1.240599e-02
  1.800417e+00    9.342194e-01   1.246799e-02
  1.802627e+00    9.238600e-01   1.238668e-02
  1.804838e+00    9.172580e-01   1.233019e-02
  1.807048e+00    9.215951e-01   1.234639e-02
  1.809259e+00    9.172022e-01   1.230325e-02
  1.811469e+00    9.077590e-01   1.222475e-02
  1.813679e+00    9.162466e-01   1.226668e-02
  1.815890e+00    8.934738e-01   1.209858e-02
  1.818100e+00    9.086887e-01   1.218593e-02
  1.820311e+00    9.039294e-01   1.213914e-02
  1.822521e+00    9.029527e-01   1.211762e-02
  1.824732e+00    8.969951e-01   1.206272e-02
  1.826942e+00    8.933023e-01   1.202547e-02
  1.829153e+00    9.034224e-01   1.208160e-02
  1.831363e+00    8.848728e-01   1.194488e-02
  1.833574e+00    8.740742e-01   1.186014e-02
  1.835784e+00    8.733929e-01   1.184412e-02
  1.837994e+00    8.784554e-01   1.186669e-02
  1.840205e+00    8.905997e-01   1.193715e-02
  1.842415e+00    8.781071e-01   1.184134e-02
  1.844626e+00    8.947050e-01   1.194098e-02
  1.846836e+00    9.009049e-01   1.197068e-02
  1.849047e+00    8.763609e-01   1.179479e-02
  1.851257e+00    8.663203e-01   1.171745e-02
  1.853468e+00    8.836944e-01   1.182543e-02
  1.855678e+00    8.635699e-01   1.168115e-02
  1.857889e+00    8.690456e-01   1.170954e-02
  1.860099e+00    8.726338e-01   1.172500e-02
  1.862309e+00    8.677095e-01   1.168329e-02
  1.864520e+00    8.808303e-01   1.176259e-02
  1.866730e+00    8.695043e-01   1.167727e-02
  1.868941e+00    8.490914e-01   1.152847e-02
  1.871151e+00    8.560132e-01   1.156393e-02
  1.873362e+00    8.483273e-01   1.150057e-02
  1.875572e+00    8.479506e-01   1.148708e-02
  1.877783e+00    8.532215e-01   1.151127e-02
  1.879993e+00    8.441944e-01   1.143908e-02
  1.882204e+00    8.554657e-01   1.150421e-02
  1.884414e+00    8.525637e-01   1.147356e-02
  1.886624e+00    8.521365e-01   1.145956e-02
  1.888835e+00    8.544134e-01   1.146380e-02
  1.891045e+00    8.522652e-01   1.143842e-02
  1.893256e+00    8.469478e-01   1.139154e-02
  1.895466e+00    8.591953e-01   1.146229e-02
  1.897677e+00    8.515604e-01   1.140023e-02
  1.899887e+00    8.416308e-01   1.132253e-02
  1.902098e+00    8.454476e-01   1.133725e-02
  1.904308e+00    8.352957e-01   1.125837e-02
  1.906519e+00    8.116876e-01   1.108742e-02
  1.908729e+00    8.183295e-01   1.112213e-02
  1.910940e+00    8.115773e-01   1.106514e-02
  1.913150e+00    8.117877e-01   1.105607e-02
  1.915360e+00    8.250496e-01   1.113540e-02
  1.917571e+00    8.092806e-01   1.101768e-02
  1.919781e+00    8.150319e-01   1.104612e-02
  1.921992e+00    8.191221e-01   1.106320e-02
  1.924202e+00    8.069363e-01   1.096990e-02
  1.926413e+00    8.206232e-01   1.105221e-02
  1.928623e+00    8.236752e-01   1.106213e-02
  1.930834e+00    8.279471e-01   1.108027e-02
  1.933044e+00    8.059818e-01   1.092167e-02
  1.935255e+00    8.037435e-01   1.089620e-02
  1.937465e+00    8.137389e-01   1.095331e-02
  1.939675e+00    8.219078e-01   1.099721e-02
  1.941886e+00    8.115587e-01   1.091744e-02
  1.944096e+00    7.967672e-01   1.080734e-02
  1.946307e+00    7.961502e-01   1.079283e-02
  1.948517e+00    8.191500e-01   1.093708e-02
  1.950728e+00    7.972193e-01   1.077943e-02
  1.952938e+00    7.929546e-01   1.074051e-02
  1.955149e+00    7.801548e-01   1.064334e-02
  1.957359e+00    7.902188e-01   1.070174e-02
  1.959570e+00    7.930741e-01   1.071022e-02
  1.961780e+00    7.916769e-01   1.069087e-02
  1.963990e+00    7.954112e-01   1.070592e-02
  1.966201e+00    7.800491e-01   1.059205e-02
  1.968411e+00    7.957157e-01   1.068767e-02
  1.970622e+00    7.886350e-01   1.062993e-02
  1.972832e+00    7.785822e-01   1.055204e-02
  1.975043e+00    7.986446e-01   1.067700e-02
  1.977253e+00    7.823620e-01   1.055767e-02
  1.979464e+00    7.913517e-01   1.060807e-02
  1.981674e+00    7.956102e-01   1.062623e-02
  1.983885e+00    7.895682e-01   1.057573e-02
  1.986095e+00    7.879122e-01   1.055491e-02
  1.988305e+00    7.755539e-01   1.046191e-02
  1.990516e+00    7.987216e-01   1.060697e-02
  1.992726e+00    7.855710e-01   1.050960e-02
  1.994937e+00    7.617710e-01   1.033913e-02
  1.997147e+00    7.802662e-01   1.045412e-02
  1.999358e+00    7.741994e-01   1.040357e-02
  2.001568e+00    7.668216e-01   1.034310e-02
  2.003779e+00    7.754433e-01   1.038916e-02
  2.005989e+00    7.781699e-01   1.039532e-02
  2.008200e+00    7.767176e-01   1.037405e-02
  2.010410e+00    7.818159e-01   1.039619e-02
  2.012621e+00    7.779746e-01   1.035886e-02
  2.014831e+00    7.622612e-01   1.024227e-02
  2.017041e+00    7.605438e-01   1.022038e-02
  2.019252e+00    7.680455e-01   1.026069e-02
  2.021462e+00    7.632223e-01   1.021893e-02
  2.023673e+00    7.584673e-01   1.017769e-02
  2.025883e+00    7.777570e-01   1.029668e-02
  2.028094e+00    7.733068e-01   1.025750e-02
  2.030304e+00    7.722667e-01   1.024097e-02
  2.032515e+00    7.761871e-01   1.025755e-02
  2.034725e+00    7.592887e-01   1.013584e-02
  2.036936e+00    7.425281e-01   1.001410e-02
  2.039146e+00    7.540464e-01   1.008190e-02
  2.041356e+00    7.599231e-01   1.011146e-02
  2.043567e+00    7.629260e-01   1.012207e-02
  2.045777e+00    7.318763e-01   9.904869e-03
  2.047988e+00    7.487626e-01   1.000912e-02
  2.050198e+00    7.645634e-01   1.010569e-02
  2.052409e+00    7.708157e-01   1.013919e-02
  2.054619e+00    7.499489e-01   9.993656e-03
  2.056830e+00    7.585214e-01   1.004337e-02
  2.059040e+00    7.722038e-01   1.012595e-02
  2.061251e+00    7.667868e-01   1.008304e-02
  2.063461e+00    7.714180e-01   1.010573e-02
  2.065671e+00    7.659150e-01   1.006081e-02
  2.067882e+00    7.685949e-01   1.006926e-02
  2.070092e+00    7.700083e-01   1.006918e-02
  2.072303e+00    7.899036e-01   1.018904e-02
  2.074513e+00    8.119160e-01   1.032029e-02
  2.076724e+00    8.056822e-01   1.027078e-02
  2.078934e+00    7.787490e-01   1.008843e-02
  2.081145e+00    7.766357e-01   1.006544e-02
  2.083355e+00    7.518579e-01   9.894344e-03
  2.085566e+00    7.486163e-01   9.864034e-03
  2.087776e+00    7.458174e-01   9.836019e-03
  2.089986e+00    7.645443e-01   9.949813e-03
  2.092197e+00    7.381515e-01   9.767612e-03
  2.094407e+00    7.428011e-01   9.789048e-03
  2.096618e+00    7.343814e-01   9.724520e-03
  2.098828e+00    7.302930e-01   9.688132e-03
  2.101039e+00    7.450404e-01   9.776397e-03
  2.103249e+00    7.405222e-01   9.738006e-03
  2.105460e+00    7.224225e-01   9.609287e-03
  2.107670e+00    7.107623e-01   9.522788e-03
  2.109881e+00    7.270296e-01   9.621974e-03
  2.112091e+00    7.362517e-01   9.673770e-03
  2.114301e+00    7.223162e-01   9.573022e-03
  2.116512e+00    7.010450e-01   9.422353e-03
  2.118722e+00    7.003720e-01   9.409125e-03
  2.120933e+00    7.138174e-01   9.490189e-03
  2.123143e+00    7.187251e-01   9.513853e-03
  2.125354e+00    7.177233e-01   9.498700e-03
  2.127564e+00    7.034130e-01   9.394871e-03
  2.129775e+00    7.063162e-01   9.405572e-03
  2.131985e+00    7.112616e-01   9.429386e-03
  2.134196e+00    7.231830e-01   9.499462e-03
  2.136406e+00    6.950425e-01   9.304157e-03
  2.138617e+00    7.013633e-01   9.337951e-03
  2.140827e+00    7.106771e-01   9.415848e-03
  2.143037e+00    7.168611e-01   9.502498e-03
  2.145248e+00    7.061561e-01   9.453314e-03
  2.147458e+00    6.948087e-01   9.392065e-03
  2.149669e+00    7.095907e-01   9.503365e-03
  2.151879e+00    7.033955e-01   9.471009e-03
  2.154090e+00    7.135735e-01   9.546670e-03
  2.156300e+00    7.143249e-01   9.558358e-03
  2.158511e+00    7.177317e-01   9.586508e-03
  2.160721e+00    7.068719e-01   9.518548e-03
  2.162932e+00    7.040665e-01   9.503400e-03
  2.165142e+00    6.886809e-01   9.401989e-03
  2.167352e+00    7.178409e-01   9.601921e-03
  2.169563e+00    7.058852e-01   9.523615e-03
  2.171773e+00    6.961638e-01   9.460256e-03
  2.173984e+00    6.954199e-01   9.456594e-03
  2.176194e+00    6.982056e-01   9.476745e-03
  2.178405e+00    6.973822e-01   9.471831e-03
  2.180615e+00    6.936076e-01   9.446871e-03
  2.182826e+00    6.885774e-01   9.413220e-03
  2.185036e+00    7.015011e-01   9.501181e-03
  2.187247e+00    6.989587e-01   9.483929e-03
  2.189457e+00    6.796526e-01   9.351616e-03
  2.191667e+00    6.949507e-01   9.456087e-03
  2.193878e+00    6.891653e-01   9.416101e-03
  2.196088e+00    6.844833e-01   9.383358e-03
  2.198299e+00    6.772687e-01   9.332701e-03
  2.200509e+00    6.883594e-01   9.407740e-03
  2.202720e+00    6.709757e-01   9.287059e-03
  2.204930e+00    6.703739e-01   9.281647e-03
  2.207141e+00    6.836118e-01   9.371723e-03
  2.209351e+00    6.842101e-01   9.373937e-03
  2.211562e+00    6.899733e-01   9.411701e-03
  2.213772e+00    6.779376e-01   9.273740e-03
  2.215982e+00    6.719968e-01   9.188923e-03
  2.218193e+00    6.755159e-01   9.183327e-03
  2.220403e+00    6.745220e-01   9.151990e-03
  2.222614e+00    6.754831e-01   9.137521e-03
  2.224824e+00    6.851298e-01   9.182989e-03
  2.227035e+00    6.659650e-01   9.036302e-03
  2.229245e+00    6.711548e-01   9.054475e-03
  2.231456e+00    6.595764e-01   8.960554e-03
  2.233666e+00    6.682854e-01   9.004443e-03
  2.235877e+00    6.676952e-01   8.986246e-03
  2.238087e+00    6.791292e-01   9.049273e-03
  2.240298e+00    6.799542e-01   9.040902e-03
  2.242508e+00    6.703364e-01   8.961585e-03
  2.244718e+00    6.797464e-01   9.008337e-03
  2.246929e+00    6.588568e-01   8.854512e-03
  2.249139e+00    6.721088e-01   8.930690e-03
  2.251350e+00    6.676748e-01   8.889471e-03
  2.253560e+00    6.562754e-01   8.801786e-03
  2.255771e+00    6.577049e-01   8.800028e-03
  2.257981e+00    6.532726e-01   8.759242e-03
  2.260192e+00    6.500399e-01   8.726547e-03
  2.262402e+00    6.636907e-01   8.806861e-03
  2.264613e+00    6.608593e-01   8.777237e-03
  2.266823e+00    6.592245e-01   8.756023e-03
  2.269033e+00    6.509158e-01   8.690362e-03
  2.271244e+00    6.615043e-01   8.750382e-03
  2.273454e+00    6.748418e-01   8.827806e-03
  2.275665e+00    6.557603e-01   8.691845e-03
  2.277875e+00    6.642052e-01   8.737676e-03
  2.280086e+00    6.678172e-01   8.751321e-03
  2.282296e+00    6.468717e-01   8.603661e-03
  2.284507e+00    6.656604e-01   8.717524e-03
  2.286717e+00    6.557671e-01   8.643051e-03
  2.288928e+00    6.825225e-01   8.807554e-03
  2.291138e+00    6.651598e-01   8.685337e-03
  2.293348e+00    6.539389e-01   8.602220e-03
  2.295559e+00    6.732202e-01   8.718673e-03
  2.297769e+00    6.798996e-01   8.752411e-03
  2.299980e+00    6.586476e-01   8.605166e-03
  2.302190e+00    6.575206e-01   8.588632e-03
  2.304401e+00    6.589456e-01   8.588569e-03
  2.306611e+00    6.572642e-01   8.568371e-03
  2.308822e+00    6.406269e-01   8.450920e-03
  2.311032e+00    6.456317e-01   8.477424e-03
  2.313243e+00    6.507071e-01   8.504421e-03
  2.315453e+00    6.381330e-01   8.414331e-03
  2.317663e+00    6.414923e-01   8.427359e-03
  2.319874e+00    6.414660e-01   8.418504e-03
  2.322084e+00    6.548843e-01   8.497061e-03
  2.324295e+00    6.509315e-01   8.463125e-03
  2.326505e+00    6.532485e-01   8.469064e-03
  2.328716e+00    6.543865e-01   8.467809e-03
  2.330926e+00    6.463402e-01   8.406764e-03
  2.333137e+00    6.593935e-01   8.482762e-03
  2.335347e+00    6.382056e-01   8.336506e-03
  2.337558e+00    6.400806e-01   8.340518e-03
  2.339768e+00    6.473930e-01   8.379381e-03
  2.341979e+00    6.503077e-01   8.389806e-03
  2.344189e+00    6.345429e-01   8.279113e-03
  2.346399e+00    6.278753e-01   8.227050e-03
  2.348610e+00    6.345897e-01   8.262472e-03
  2.350820e+00    6.436302e-01   8.312883e-03
  2.353031e+00    6.460437e-01   8.320095e-03
  2.355241e+00    6.412008e-01   8.280749e-03
  2.357452e+00    6.421890e-01   8.278629e-03
  2.359662e+00    6.487136e-01   8.312259e-03
  2.361873e+00    6.532552e-01   8.332921e-03
  2.364083e+00    6.287665e-01   8.167264e-03
  2.366294e+00    6.243919e-01   8.130706e-03
  2.368504e+00    6.347519e-01   8.189753e-03
  2.370714e+00    6.311539e-01   8.158416e-03
  2.372925e+00    6.279178e-01   8.129410e-03
  2.375135e+00    6.319030e-01   8.147055e-03
  2.377346e+00    6.297783e-01   8.125367e-03
  2.379556e+00    6.253139e-01   8.088605e-03
  2.381767e+00    6.218175e-01   8.058091e-03
  2.383977e+00    6.091826e-01   7.967948e-03
  2.386188e+00    6.233672e-01   8.052225e-03
  2.388398e+00    6.256817e-01   8.059174e-03
  2.390609e+00    6.314141e-01   8.088180e-03
  2.392819e+00    6.249533e-01   8.038882e-03
  2.395029e+00    6.120251e-01   7.947648e-03
  2.397240e+00    6.162218e-01   7.966973e-03
  2.399450e+00    6.245590e-01   8.012806e-03
  2.401661e+00    6.324898e-01   8.055709e-03
  2.403871e+00    6.198754e-01   7.967182e-03
  2.406082e+00    6.223209e-01   7.975350e-03
  2.408292e+00    6.133594e-01   7.909915e-03
  2.410503e+00    6.165670e-01   7.923027e-03
  2.412713e+00    6.061118e-01   7.847769e-03
  2.414924e+00    6.080241e-01   7.852650e-03
  2.417134e+00    6.056926e-01   7.829935e-03
  2.419344e+00    6.106641e-01   7.854539e-03
  2.421555e+00    6.041903e-01   7.805290e-03
  2.423765e+00    6.081308e-01   7.823235e-03
  2.425976e+00    5.980330e-01   7.750224e-03
  2.428186e+00    5.965788e-01   7.733596e-03
  2.430397e+00    5.884920e-01   7.673575e-03
  2.432607e+00    5.920659e-01   7.689572e-03
  2.434818e+00    5.909395e-01   7.674752e-03
  2.437028e+00    5.906340e-01   7.665635e-03
  2.439239e+00    5.931607e-01   7.674365e-03
  2.441449e+00    5.859620e-01   7.620494e-03
  2.443659e+00    5.806311e-01   7.578461e-03
  2.445870e+00    5.768574e-01   7.565906e-03
  2.448080e+00    5.900227e-01   7.686777e-03
  2.450291e+00    5.813010e-01   7.646420e-03
  2.452501e+00    5.712717e-01   7.591282e-03
  2.454712e+00    5.647656e-01   7.556297e-03
  2.456922e+00    5.692441e-01   7.592806e-03
  2.459133e+00    5.612376e-01   7.544626e-03
  2.461343e+00    5.694159e-01   7.603748e-03
  2.463554e+00    5.759645e-01   7.650866e-03
  2.465764e+00    5.781395e-01   7.668465e-03
  2.467975e+00    5.707645e-01   7.621725e-03
  2.470185e+00    5.507348e-01   7.489017e-03
  2.472395e+00    5.456259e-01   7.455428e-03
  2.474606e+00    5.461080e-01   7.460247e-03
  2.476816e+00    5.633554e-01   7.577893e-03
  2.479027e+00    5.506063e-01   7.492519e-03
  2.481237e+00    5.386885e-01   7.411241e-03
  2.483448e+00    5.617291e-01   7.568394e-03
  2.485658e+00    5.463446e-01   7.463885e-03
  2.487869e+00    5.468861e-01   7.467642e-03
  2.490079e+00    5.291132e-01   7.344763e-03
  2.492290e+00    5.396488e-01   7.417101e-03
  2.494500e+00    5.460261e-01   7.460041e-03
  2.496710e+00    5.354654e-01   7.386877e-03
  2.498921e+00    5.406357e-01   7.421443e-03
  2.501131e+00    5.367859e-01   7.394024e-03
  2.503342e+00    5.320150e-01   7.359840e-03
  2.505552e+00    5.339823e-01   7.372282e-03
  2.507763e+00    5.191145e-01   7.267541e-03
  2.509973e+00    5.138404e-01   7.229145e-03
  2.512184e+00    5.318049e-01   7.352794e-03
  2.514394e+00    5.253981e-01   7.299055e-03
  2.516605e+00    5.060405e-01   7.117161e-03
  2.518815e+00    5.267765e-01   7.233167e-03
  2.521025e+00    5.410787e-01   7.309453e-03
  2.523236e+00    5.338808e-01   7.242541e-03
  2.525446e+00    5.369549e-01   7.247584e-03
  2.527657e+00    5.395542e-01   7.250309e-03
  2.529867e+00    5.285748e-01   7.161933e-03
  2.532078e+00    5.294605e-01   7.152837e-03
  2.534288e+00    5.188461e-01   7.066961e-03
  2.536499e+00    5.267190e-01   7.108412e-03
  2.538709e+00    5.357516e-01   7.157979e-03
  2.540920e+00    5.389466e-01   7.168516e-03
  2.543130e+00    5.356281e-01   7.135919e-03
  2.545340e+00    5.400846e-01   7.155339e-03
  2.547551e+00    5.305554e-01   7.081903e-03
  2.549761e+00    5.280752e-01   7.055721e-03
  2.551972e+00    5.166765e-01   6.969824e-03
  2.554182e+00    5.198922e-01   6.982331e-03
  2.556393e+00    5.120632e-01   6.920537e-03
  2.558603e+00    5.151457e-01   6.932299e-03
  2.560814e+00    5.169336e-01   6.935647e-03
  2.563024e+00    5.130588e-01   6.901078e-03
  2.565235e+00    5.263056e-01   6.980014e-03
  2.567445e+00    5.276207e-01   6.979118e-03
  2.569656e+00    5.324835e-01   7.001293e-03
  2.571866e+00    5.252992e-01   6.944527e-03
  2.574076e+00    5.067015e-01   6.811289e-03
  2.576287e+00    4.985027e-01   6.747764e-03
  2.578497e+00    5.109627e-01   6.823771e-03
  2.580708e+00    5.139695e-01   6.835749e-03
  2.582918e+00    5.106145e-01   6.805674e-03
  2.585129e+00    5.124387e-01   6.810075e-03
  2.587339e+00    5.199028e-01   6.851781e-03
  2.589550e+00    5.274742e-01   6.893819e-03
  2.591760e+00    5.316878e-01   6.913435e-03
  2.593971e+00    4.983742e-01   6.685922e-03
  2.596181e+00    4.978893e-01   6.676515e-03
  2.598391e+00    5.050375e-01   6.719108e-03
  2.600602e+00    5.103295e-01   6.748307e-03
  2.602812e+00    5.194037e-01   6.800424e-03
  2.605023e+00    5.128431e-01   6.750147e-03
  2.607233e+00    5.165229e-01   6.767131e-03
  2.609444e+00    5.087333e-01   6.708659e-03
  2.611654e+00    5.220626e-01   6.788554e-03
  2.613865e+00    5.064177e-01   6.679022e-03
  2.616075e+00    5.017015e-01   6.640747e-03
  2.618286e+00    5.026360e-01   6.639943e-03
  2.620496e+00    5.039924e-01   6.642214e-03
  2.622706e+00    5.020976e-01   6.623989e-03
  2.624917e+00    4.962447e-01   6.579468e-03
  2.627127e+00    4.954004e-01   6.568173e-03
  2.629338e+00    4.960769e-01   6.566721e-03
  2.631548e+00    4.947893e-01   6.552087e-03
  2.633759e+00    4.886879e-01   6.504514e-03
  2.635969e+00    4.894181e-01   6.502757e-03
  2.638180e+00    4.917428e-01   6.511278e-03
  2.640390e+00    5.058536e-01   6.597382e-03
  2.642601e+00    5.012810e-01   6.560860e-03
  2.644811e+00    5.013811e-01   6.554403e-03
  2.647021e+00    5.137969e-01   6.628430e-03
  2.649232e+00    4.953535e-01   6.501687e-03
  2.651442e+00    5.075400e-01   6.574589e-03
  2.653653e+00    4.974914e-01   6.502434e-03
  2.655863e+00    5.037432e-01   6.536424e-03
  2.658074e+00    4.944906e-01   6.469537e-03
  2.660284e+00    4.972912e-01   6.481461e-03
  2.662495e+00    4.956835e-01   6.464256e-03
  2.664705e+00    4.927668e-01   6.438652e-03
  2.666916e+00    4.962661e-01   6.455011e-03
  2.669126e+00    4.960878e-01   6.447400e-03
  2.671337e+00    4.864898e-01   6.378210e-03
  2.673547e+00    4.952993e-01   6.429291e-03
  2.675757e+00    4.947568e-01   6.419352e-03
  2.677968e+00    4.853956e-01   6.351859e-03
  2.680178e+00    4.978938e-01   6.426665e-03
  2.682389e+00    5.104955e-01   6.500997e-03
  2.684599e+00    5.022336e-01   6.441939e-03
  2.686810e+00    4.944929e-01   6.385481e-03
  2.689020e+00    4.914169e-01   6.359290e-03
  2.691231e+00    4.996466e-01   6.405977e-03
  2.693441e+00    4.948467e-01   6.368957e-03
  2.695652e+00    5.060639e-01   6.434119e-03
  2.697862e+00    4.945402e-01   6.354093e-03
  2.700072e+00    4.767504e-01   6.232726e-03
  2.702283e+00    4.835914e-01   6.271124e-03
  2.704493e+00    4.877022e-01   6.291424e-03
  2.706704e+00    4.949995e-01   6.331881e-03
  2.708914e+00    4.889925e-01   6.287377e-03
  2.711125e+00    4.796881e-01   6.221073e-03
  2.713335e+00    4.902451e-01   6.283056e-03
  2.715546e+00    4.685975e-01   6.136419e-03
  2.717756e+00    4.943103e-01   6.296600e-03
  2.719967e+00    4.844564e-01   6.227330e-03
  2.722177e+00    4.786304e-01   6.183682e-03
  2.724387e+00    4.903198e-01   6.252606e-03
  2.726598e+00    4.964525e-01   6.285456e-03
  2.728808e+00    4.971509e-01   6.283656e-03
  2.731019e+00    4.919398e-01   6.244470e-03
  2.733229e+00    4.823697e-01   6.177636e-03
  2.735440e+00    4.807591e-01   6.161070e-03
  2.737650e+00    4.879211e-01   6.200740e-03
  2.739861e+00    4.819063e-01   6.156352e-03
  2.742071e+00    4.797823e-01   6.137033e-03
  2.744282e+00    4.771677e-01   6.114093e-03
  2.746492e+00    4.813162e-01   6.134563e-03
  2.748702e+00    4.924218e-01   6.198974e-03
  2.750913e+00    4.918642e-01   6.189608e-03
  2.753123e+00    5.012644e-01   6.242241e-03
  2.755334e+00    4.838039e-01   6.126462e-03
  2.757544e+00    4.880151e-01   6.147291e-03
  2.759755e+00    4.833388e-01   6.111850e-03
  2.761965e+00    4.827622e-01   6.102219e-03
  2.764176e+00    4.870289e-01   6.123085e-03
  2.766386e+00    4.838638e-01   6.097352e-03
  2.768597e+00    4.852646e-01   6.100265e-03
  2.770807e+00    4.917512e-01   6.134961e-03
  2.773017e+00    4.708675e-01   5.997358e-03
  2.775228e+00    4.780807e-01   6.037320e-03
  2.777438e+00    4.735537e-01   6.002912e-03
  2.779649e+00    4.807229e-01   6.042258e-03
  2.781859e+00    4.777294e-01   6.017662e-03
  2.784070e+00    4.827826e-01   6.043494e-03
  2.786280e+00    4.902387e-01   6.084158e-03
  2.788491e+00    4.896684e-01   6.074691e-03
  2.790701e+00    4.796799e-01   6.006760e-03
  2.792912e+00    4.826400e-01   6.019249e-03
  2.795122e+00    4.816196e-01   6.007129e-03
  2.797333e+00    4.762833e-01   5.968192e-03
  2.799543e+00    4.703960e-01   5.925352e-03
  2.801753e+00    4.706077e-01   5.920867e-03
  2.803964e+00    4.679025e-01   5.898197e-03
  2.806174e+00    4.826344e-01   5.984137e-03
  2.808385e+00    4.805053e-01   5.964090e-03
  2.810595e+00    4.703749e-01   5.894059e-03
  2.812806e+00    4.677044e-01   5.870724e-03
  2.815016e+00    4.712536e-01   5.888240e-03
  2.817227e+00    4.788933e-01   5.961828e-03
  2.819437e+00    4.785007e-01   5.970524e-03
  2.821648e+00    4.897521e-01   6.042637e-03
  2.823858e+00    4.766647e-01   5.966733e-03
  2.826068e+00    4.648721e-01   5.897382e-03
  2.828279e+00    4.691149e-01   5.928254e-03
  2.830489e+00    4.664913e-01   5.914974e-03
  2.832700e+00    4.665282e-01   5.917742e-03
  2.834910e+00    4.744563e-01   5.969894e-03
  2.837121e+00    4.734855e-01   5.965493e-03
  2.839331e+00    4.774014e-01   5.991347e-03
  2.841542e+00    4.604301e-01   5.884914e-03
  2.843752e+00    4.585877e-01   5.873875e-03
  2.845963e+00    4.720628e-01   5.959953e-03
  2.848173e+00    4.739400e-01   5.971883e-03
  2.850383e+00    4.644335e-01   5.911989e-03
  2.852594e+00    4.812866e-01   6.018186e-03
  2.854804e+00    4.739202e-01   5.971483e-03
  2.857015e+00    4.688292e-01   5.938868e-03
  2.859225e+00    4.630254e-01   5.901760e-03
  2.861436e+00    4.618551e-01   5.893633e-03
  2.863646e+00    4.574043e-01   5.865208e-03
  2.865857e+00    4.558351e-01   5.855467e-03
  2.868067e+00    4.701796e-01   5.947104e-03
  2.870278e+00    4.605888e-01   5.885814e-03
  2.872488e+00    4.585845e-01   5.871814e-03
  2.874698e+00    4.626990e-01   5.897057e-03
  2.876909e+00    4.628356e-01   5.896600e-03
  2.879119e+00    4.618458e-01   5.888675e-03
  2.881330e+00    4.648976e-01   5.906631e-03
  2.883540e+00    4.594267e-01   5.870388e-03
  2.885751e+00    4.570146e-01   5.853306e-03
  2.887961e+00    4.638249e-01   5.894877e-03
  2.890172e+00    4.675397e-01   5.916825e-03
  2.892382e+00    4.574161e-01   5.850623e-03
  2.894593e+00    4.579244e-01   5.852049e-03
  2.896803e+00    4.579508e-01   5.850256e-03
  2.899014e+00    4.615410e-01   5.871222e-03
  2.901224e+00    4.538042e-01   5.819831e-03
  2.903434e+00    4.551088e-01   5.826262e-03
  2.905645e+00    4.640050e-01   5.880683e-03
  2.907855e+00    4.591641e-01   5.847830e-03
  2.910066e+00    4.697750e-01   5.912909e-03
  2.912276e+00    4.627603e-01   5.866480e-03
  2.914487e+00    4.680290e-01   5.897292e-03
  2.916697e+00    4.575692e-01   5.828802e-03
  2.918908e+00    4.565400e-01   5.820244e-03
  2.921118e+00    4.446902e-01   5.741554e-03
  2.923329e+00    4.512726e-01   5.781597e-03
  2.925539e+00    4.505635e-01   5.774789e-03
  2.927749e+00    4.473756e-01   5.752027e-03
  2.929960e+00    4.576506e-01   5.814918e-03
  2.932170e+00    4.678420e-01   5.876982e-03
  2.934381e+00    4.490626e-01   5.755395e-03
  2.936591e+00    4.505496e-01   5.762340e-03
  2.938802e+00    4.583191e-01   5.809110e-03
  2.941012e+00    4.620675e-01   5.830450e-03
  2.943223e+00    4.677040e-01   5.863178e-03
  2.945433e+00    4.777810e-01   5.922188e-03
  2.947644e+00    4.502728e-01   5.745064e-03
  2.949854e+00    4.574606e-01   5.786451e-03
  2.952064e+00    4.570157e-01   5.779407e-03
  2.954275e+00    4.566273e-01   5.772536e-03
  2.956485e+00    4.622160e-01   5.803523e-03
  2.958696e+00    4.766376e-01   5.888897e-03
  2.960906e+00    4.676589e-01   5.828935e-03
  2.963117e+00    4.451801e-01   5.682686e-03
  2.965327e+00    4.524586e-01   5.725036e-03
  2.967538e+00    4.564111e-01   5.747090e-03
  2.969748e+00    4.466809e-01   5.682702e-03
  2.971959e+00    4.474955e-01   5.684765e-03
  2.974169e+00    4.465617e-01   5.676265e-03
  2.976379e+00    4.471494e-01   5.677110e-03
  2.978590e+00    4.544304e-01   5.719992e-03
  2.980800e+00    4.564413e-01   5.729849e-03
  2.983011e+00    4.662000e-01   5.787924e-03
  2.985221e+00    4.453000e-01   5.653603e-03
  2.987432e+00    4.419915e-01   5.629463e-03
  2.989642e+00    4.595079e-01   5.737297e-03
  2.991853e+00    4.479821e-01   5.661646e-03
  2.994063e+00    4.498523e-01   5.670531e-03
  2.996274e+00    4.543095e-01   5.695390e-03
  2.998484e+00    4.491346e-01   5.660149e-03
  3.000694e+00    4.575382e-01   5.709423e-03
  3.002905e+00    4.268350e-01   5.511661e-03
  3.005115e+00    4.484430e-01   5.646477e-03
  3.007326e+00    4.506678e-01   5.657324e-03
  3.009536e+00    4.563800e-01   5.689810e-03
  3.011747e+00    4.490245e-01   5.640867e-03
  3.013957e+00    4.498326e-01   5.642768e-03
  3.016168e+00    4.617667e-01   5.713838e-03
  3.018378e+00    4.606269e-01   5.703726e-03
  3.020589e+00    4.630811e-01   5.715630e-03
  3.022799e+00    4.576123e-01   5.678626e-03
  3.025010e+00    4.553645e-01   5.661406e-03
  3.027220e+00    4.459483e-01   5.599469e-03
  3.029430e+00    4.542660e-01   5.648200e-03
  3.031641e+00    4.640107e-01   5.705274e-03
  3.033851e+00    4.609175e-01   5.682684e-03
  3.036062e+00    4.611862e-01   5.681528e-03
  3.038272e+00    4.531547e-01   5.628262e-03
  3.040483e+00    4.461026e-01   5.581086e-03
  3.042693e+00    4.449487e-01   5.570626e-03
  3.044904e+00    4.528502e-01   5.615820e-03
  3.047114e+00    4.622444e-01   5.668932e-03
  3.049325e+00    4.549365e-01   5.619506e-03
  3.051535e+00    4.593531e-01   5.642296e-03
  3.053745e+00    4.547057e-01   5.608907e-03
  3.055956e+00    4.562487e-01   5.613819e-03
  3.058166e+00    4.414280e-01   5.517663e-03
  3.060377e+00    4.516540e-01   5.576415e-03
  3.062587e+00    4.547856e-01   5.591089e-03
  3.064798e+00    4.427235e-01   5.512208e-03
  3.067008e+00    4.451420e-01   5.522539e-03
  3.069219e+00    4.447996e-01   5.515945e-03
  3.071429e+00    4.431983e-01   5.502489e-03
  3.073640e+00    4.559788e-01   5.577921e-03
  3.075850e+00    4.451158e-01   5.507534e-03
  3.078060e+00    4.432550e-01   5.492887e-03
  3.080271e+00    4.476898e-01   5.516850e-03
  3.082481e+00    4.482464e-01   5.516825e-03
  3.084692e+00    4.577550e-01   5.571624e-03
  3.086902e+00    4.511415e-01   5.527973e-03
  3.089113e+00    4.588345e-01   5.571289e-03
  3.091323e+00    4.472965e-01   5.497438e-03
  3.093534e+00    4.525473e-01   5.526192e-03
  3.095744e+00    4.540714e-01   5.532120e-03
  3.097955e+00    4.468221e-01   5.484227e-03
  3.100165e+00    4.387050e-01   5.430882e-03
  3.102375e+00    4.541923e-01   5.522452e-03
  3.104586e+00    4.454597e-01   5.465650e-03
  3.106796e+00    4.317579e-01   5.377443e-03
  3.109007e+00    4.426295e-01   5.441531e-03
  3.111217e+00    4.520800e-01   5.495590e-03
  3.113428e+00    4.414041e-01   5.426927e-03
  3.115638e+00    4.355018e-01   5.387325e-03
  3.117849e+00    4.483070e-01   5.462197e-03
  3.120059e+00    4.549037e-01   5.498752e-03
  3.122270e+00    4.552296e-01   5.497421e-03
  3.124480e+00    4.571740e-01   5.505414e-03
  3.126691e+00    4.524116e-01   5.473079e-03
  3.128901e+00    4.394152e-01   5.390789e-03
  3.131111e+00    4.390091e-01   5.384464e-03
  3.133322e+00    4.516969e-01   5.458249e-03
  3.135532e+00    4.492707e-01   5.440159e-03
  3.137743e+00    4.531274e-01   5.459931e-03
  3.139953e+00    4.541177e-01   5.462171e-03
  3.142164e+00    4.487689e-01   5.442020e-03
  3.144374e+00    4.347971e-01   5.384784e-03
  3.146585e+00    4.433708e-01   5.452191e-03
  3.148795e+00    4.465412e-01   5.482472e-03
  3.151006e+00    4.568780e-01   5.554260e-03
  3.153216e+00    4.454858e-01   5.491738e-03
  3.155426e+00    4.463274e-01   5.503292e-03
  3.157637e+00    4.380171e-01   5.457291e-03
  3.159847e+00    4.524335e-01   5.551333e-03
  3.162058e+00    4.426815e-01   5.495625e-03
  3.164268e+00    4.419372e-01   5.495063e-03
  3.166479e+00    4.399168e-01   5.486143e-03
  3.168689e+00    4.456314e-01   5.525063e-03
  3.170900e+00    4.417290e-01   5.503993e-03
  3.173110e+00    4.266460e-01   5.412037e-03
  3.175321e+00    4.373549e-01   5.482025e-03
  3.177531e+00    4.480195e-01   5.551227e-03
  3.179741e+00    4.454199e-01   5.537206e-03
  3.181952e+00    4.374882e-01   5.489797e-03
  3.184162e+00    4.343868e-01   5.472463e-03
  3.186373e+00    4.445825e-01   5.537943e-03
  3.188583e+00    4.305360e-01   5.451535e-03
  3.190794e+00    4.426209e-01   5.529268e-03
  3.193004e+00    4.273158e-01   5.434077e-03
  3.195215e+00    4.386010e-01   5.506858e-03
  3.197425e+00    4.349149e-01   5.484880e-03
  3.199636e+00    4.315077e-01   5.462590e-03
  3.201846e+00    4.371447e-01   5.497545e-03
  3.204056e+00    4.446624e-01   5.545510e-03
  3.206267e+00    4.416613e-01   5.527647e-03
  3.208477e+00    4.154236e-01   5.361838e-03
  3.210688e+00    4.153700e-01   5.362288e-03
  3.212898e+00    4.331320e-01   5.476342e-03
  3.215109e+00    4.378910e-01   5.507083e-03
  3.217319e+00    4.458698e-01   5.557699e-03
  3.219530e+00    4.311722e-01   5.465721e-03
  3.221740e+00    4.170800e-01   5.376203e-03
  3.223951e+00    4.271861e-01   5.441413e-03
  3.226161e+00    4.276383e-01   5.444478e-03
  3.228372e+00    4.348476e-01   5.490719e-03
  3.230582e+00    4.184652e-01   5.386442e-03
  3.232792e+00    4.387705e-01   5.515789e-03
  3.235003e+00    4.317074e-01   5.471470e-03
  3.237213e+00    4.218926e-01   5.409017e-03
  3.239424e+00    4.243896e-01   5.424975e-03
  3.241634e+00    4.441396e-01   5.549943e-03
  3.243845e+00    4.271680e-01   5.442912e-03
  3.246055e+00    4.252304e-01   5.430282e-03
  3.248266e+00    4.377095e-01   5.509611e-03
  3.250476e+00    4.336926e-01   5.483950e-03
  3.252687e+00    4.174918e-01   5.380478e-03
  3.254897e+00    4.212556e-01   5.404545e-03
  3.257107e+00    4.274861e-01   5.444060e-03
  3.259318e+00    4.188175e-01   5.388357e-03
  3.261528e+00    4.180451e-01   5.383232e-03
  3.263739e+00    4.293545e-01   5.455006e-03
  3.265949e+00    4.297918e-01   5.457662e-03
  3.268160e+00    4.354741e-01   5.493194e-03
  3.270370e+00    4.303139e-01   5.460060e-03
  3.272581e+00    4.138357e-01   5.354205e-03
  3.274791e+00    4.230611e-01   5.413030e-03
  3.277002e+00    4.332562e-01   5.477292e-03
  3.279212e+00    4.420500e-01   5.532211e-03
  3.281422e+00    4.447814e-01   5.548701e-03
  3.283633e+00    4.317636e-01   5.466203e-03
  3.285843e+00    4.331135e-01   5.474404e-03
  3.288054e+00    4.370945e-01   5.498549e-03
  3.290264e+00    4.233430e-01   5.411068e-03
  3.292475e+00    4.184913e-01   5.379118e-03
  3.294685e+00    4.293545e-01   5.447851e-03
  3.296896e+00    4.297998e-01   5.449925e-03
  3.299106e+00    4.167611e-01   5.366067e-03
  3.301317e+00    4.241808e-01   5.412594e-03
  3.303527e+00    4.272379e-01   5.431590e-03
  3.305737e+00    4.240340e-01   5.410144e-03
  3.307948e+00    4.161915e-01   5.359217e-03
  3.310158e+00    4.192980e-01   5.378336e-03
  3.312369e+00    4.197598e-01   5.380418e-03
  3.314579e+00    4.207665e-01   5.385942e-03
  3.316790e+00    4.313638e-01   5.452648e-03
  3.319000e+00    4.197132e-01   5.377320e-03
  3.321211e+00    4.341354e-01   5.468304e-03
  3.323421e+00    4.502442e-01   5.567606e-03
  3.325632e+00    4.288947e-01   5.433110e-03
  3.327842e+00    4.201140e-01   5.376285e-03
  3.330052e+00    4.331599e-01   5.458033e-03
  3.332263e+00    4.158868e-01   5.347101e-03
  3.334473e+00    4.315186e-01   5.445737e-03
  3.336684e+00    4.291452e-01   5.429463e-03
  3.338894e+00    4.126050e-01   5.323003e-03
  3.341105e+00    4.107703e-01   5.309890e-03
  3.343315e+00    4.267731e-01   5.411228e-03
  3.345526e+00    4.234443e-01   5.389194e-03
  3.347736e+00    4.120222e-01   5.314599e-03
  3.349947e+00    4.198273e-01   5.363771e-03
  3.352157e+00    4.219413e-01   5.376079e-03
  3.354368e+00    4.098234e-01   5.297060e-03
  3.356578e+00    4.117017e-01   5.308154e-03
  3.358788e+00    4.220188e-01   5.372918e-03
  3.360999e+00    4.258072e-01   5.395706e-03
  3.363209e+00    4.375222e-01   5.468405e-03
  3.365420e+00    4.328516e-01   5.437613e-03
  3.367630e+00    4.245992e-01   5.384482e-03
  3.369841e+00    4.314698e-01   5.426440e-03
  3.372051e+00    4.045954e-01   5.252782e-03
  3.374262e+00    4.054830e-01   5.256129e-03
  3.376472e+00    4.073808e-01   5.265983e-03
  3.378683e+00    4.058635e-01   5.253707e-03
  3.380893e+00    4.042445e-01   5.240892e-03
  3.383103e+00    4.223383e-01   5.354177e-03
  3.385314e+00    4.289239e-01   5.393508e-03
  3.387524e+00    4.216453e-01   5.344789e-03
  3.389735e+00    4.069677e-01   5.248353e-03
  3.391945e+00    3.982788e-01   5.188389e-03
  3.394156e+00    4.218092e-01   5.335190e-03
  3.396366e+00    4.185559e-01   5.311135e-03
  3.398577e+00    4.134921e-01   5.275890e-03
  3.400787e+00    4.077966e-01   5.251254e-03
  3.402998e+00    4.112785e-01   5.311770e-03
  3.405208e+00    4.120222e-01   5.337389e-03
  3.407418e+00    4.049399e-01   5.307192e-03
  3.409629e+00    3.913198e-01   5.230965e-03
  3.411839e+00    3.973962e-01   5.283160e-03
  3.414050e+00    3.912031e-01   5.252734e-03
  3.416260e+00    4.005374e-01   5.324776e-03
  3.418471e+00    3.855239e-01   5.233319e-03
  3.420681e+00    3.907271e-01   5.277010e-03
  3.422892e+00    3.853460e-01   5.248476e-03
  3.425102e+00    3.866762e-01   5.265327e-03
  3.427313e+00    3.790587e-01   5.220299e-03
  3.429523e+00    3.937429e-01   5.327575e-03
  3.431733e+00    3.900295e-01   5.309084e-03
  3.433944e+00    3.929707e-01   5.335644e-03
  3.436154e+00    3.766682e-01   5.229978e-03
  3.438365e+00    3.784514e-01   5.248229e-03
  3.440575e+00    3.749199e-01   5.229590e-03
  3.442786e+00    3.805140e-01   5.274062e-03
  3.444996e+00    3.856939e-01   5.315411e-03
  3.447207e+00    3.674568e-01   5.193467e-03
  3.449417e+00    3.717941e-01   5.264834e-03
  3.451628e+00    3.862219e-01   5.396151e-03
  3.453838e+00    3.760501e-01   5.346029e-03
  3.456049e+00    3.677987e-01   5.310980e-03
  3.458259e+00    3.589686e-01   5.268553e-03
  3.460469e+00    3.694062e-01   5.364446e-03
  3.462680e+00    3.715231e-01   5.399020e-03
  3.464890e+00    3.634515e-01   5.357761e-03
  3.467101e+00    3.667966e-01   5.399789e-03
  3.469311e+00    3.835972e-01   5.538922e-03
  3.471522e+00    3.747415e-01   5.491039e-03
  3.473732e+00    3.946930e-01   5.651555e-03
  3.475943e+00    4.031903e-01   5.728190e-03
  3.478153e+00    4.081370e-01   5.779099e-03
  3.480364e+00    4.015570e-01   5.747585e-03
  3.482574e+00    4.167596e-01   5.870987e-03
  3.484784e+00    4.162194e-01   5.882136e-03
  3.486995e+00    4.330800e-01   6.015519e-03
  3.489205e+00    4.377476e-01   6.062741e-03
  3.491416e+00    4.320751e-01   6.038361e-03
  3.493626e+00    4.498991e-01   6.176483e-03
  3.495837e+00    4.476621e-01   6.175976e-03
  3.498047e+00    4.386415e-01   6.127824e-03
  3.500258e+00    4.743227e-01   6.387101e-03
  3.502468e+00    4.976384e-01   6.557331e-03
  3.504679e+00    4.931588e-01   6.542719e-03
  3.506889e+00    4.695716e-01   6.398885e-03
  3.509099e+00    4.745168e-01   6.446844e-03
  3.511310e+00    4.816186e-01   6.509452e-03
  3.513520e+00    4.896238e-01   6.577897e-03
  3.515731e+00    4.829553e-01   6.547239e-03
  3.517941e+00    5.129384e-01   6.762130e-03
  3.520152e+00    5.083134e-01   6.746089e-03
  3.522362e+00    5.148854e-01   6.804240e-03
  3.524573e+00    5.101821e-01   6.787410e-03
  3.526783e+00    5.241477e-01   6.893250e-03
  3.528994e+00    5.193927e-01   6.874150e-03
  3.531204e+00    5.440544e-01   7.048193e-03
  3.533414e+00    5.268465e-01   6.947955e-03
  3.535625e+00    5.272507e-01   6.962947e-03
  3.537835e+00    5.379623e-01   7.045495e-03
  3.540046e+00    5.435568e-01   7.091036e-03
  3.542256e+00    5.482326e-01   7.129109e-03
  3.544467e+00    5.436770e-01   7.107079e-03
  3.546677e+00    5.436100e-01   7.114292e-03
  3.548888e+00    5.399010e-01   7.097492e-03
  3.551098e+00    5.465072e-01   7.148161e-03
  3.553309e+00    5.532187e-01   7.200198e-03
  3.555519e+00    5.402543e-01   7.126669e-03
  3.557729e+00    5.502804e-01   7.204384e-03
  3.559940e+00    5.307929e-01   7.087154e-03
  3.562150e+00    5.433187e-01   7.182067e-03
  3.564361e+00    5.522365e-01   7.254295e-03
  3.566571e+00    5.509395e-01   7.259809e-03
  3.568782e+00    5.452667e-01   7.236553e-03
  3.570992e+00    5.422913e-01   7.230643e-03
  3.573203e+00    5.302538e-01   7.163987e-03
  3.575413e+00    5.469124e-01   7.289572e-03
  3.577624e+00    5.415424e-01   7.267907e-03
  3.579834e+00    5.323806e-01   7.219974e-03
  3.582045e+00    5.391853e-01   7.280041e-03
  3.584255e+00    5.563655e-01   7.409456e-03
  3.586465e+00    5.409470e-01   7.320067e-03
  3.588676e+00    5.512858e-01   7.404046e-03
  3.590886e+00    5.562904e-01   7.451612e-03
  3.593097e+00    5.358278e-01   7.327706e-03
  3.595307e+00    5.494016e-01   7.434080e-03
  3.597518e+00    5.346942e-01   7.348112e-03
  3.599728e+00    5.564569e-01   7.510479e-03
  3.601939e+00    5.502970e-01   7.483102e-03
  3.604149e+00    5.566983e-01   7.541151e-03
  3.606360e+00    5.499554e-01   7.509713e-03
  3.608570e+00    5.523191e-01   7.540204e-03
  3.610780e+00    5.476623e-01   7.519531e-03
  3.612991e+00    5.444248e-01   7.507382e-03
  3.615201e+00    5.515857e-01   7.566541e-03
  3.617412e+00    5.474673e-01   7.545609e-03
  3.619622e+00    5.537176e-01   7.594611e-03
  3.621833e+00    5.394269e-01   7.502711e-03
  3.624043e+00    5.471116e-01   7.565571e-03
  3.626254e+00    5.322214e-01   7.471613e-03
  3.628464e+00    5.315296e-01   7.477696e-03
  3.630675e+00    5.290183e-01   7.474058e-03
  3.632885e+00    5.449713e-01   7.600506e-03
  3.635095e+00    5.330684e-01   7.531435e-03
  3.637306e+00    5.472156e-01   7.645287e-03
  3.639516e+00    5.407928e-01   7.614926e-03
  3.641727e+00    5.446979e-01   7.657067e-03
  3.643937e+00    5.353706e-01   7.605812e-03
  3.646148e+00    5.425969e-01   7.671715e-03
  3.648358e+00    5.336583e-01   7.623146e-03
  3.650569e+00    5.271395e-01   7.591066e-03
  3.652779e+00    5.500495e-01   7.769273e-03
  3.654990e+00    5.604233e-01   7.857492e-03
  3.657200e+00    5.391116e-01   7.721617e-03
  3.659410e+00    5.386096e-01   7.733099e-03
  3.661621e+00    5.281175e-01   7.672452e-03
  3.663831e+00    5.503963e-01   7.847988e-03
  3.666042e+00    5.300210e-01   7.716503e-03
  3.668252e+00    5.370598e-01   7.782881e-03
  3.670463e+00    5.406279e-01   7.824080e-03
  3.672673e+00    5.280519e-01   7.747909e-03
  3.674884e+00    5.235574e-01   7.730167e-03
  3.677094e+00    5.373454e-01   7.846874e-03
  3.679305e+00    5.344889e-01   7.841664e-03
  3.681515e+00    5.280216e-01   7.809617e-03
  3.683726e+00    5.433751e-01   7.938379e-03
  3.685936e+00    5.191941e-01   7.775289e-03
  3.688146e+00    5.280062e-01   7.856763e-03
  3.690357e+00    5.338982e-01   7.916508e-03
  3.692567e+00    5.431091e-01   8.000879e-03
  3.694778e+00    5.292805e-01   7.914471e-03
  3.696988e+00    5.447497e-01   8.045536e-03
  3.699199e+00    5.361891e-01   7.998467e-03
  3.701409e+00    5.487504e-01   8.108375e-03
  3.703620e+00    5.401675e-01   8.061268e-03
  3.705830e+00    5.338779e-01   8.030736e-03
  3.708041e+00    5.154747e-01   7.907580e-03
  3.710251e+00    4.991196e-01   7.797418e-03
  3.712461e+00    5.184022e-01   7.963287e-03
  3.714672e+00    5.036440e-01   7.865569e-03
  3.716882e+00    5.025670e-01   7.873537e-03
  3.719093e+00    5.045221e-01   7.905790e-03
  3.721303e+00    4.867876e-01   7.781919e-03
  3.723514e+00    5.179704e-01   8.044585e-03
  3.725724e+00    5.106803e-01   8.004801e-03
  3.727935e+00    5.188124e-01   8.085727e-03
  3.730145e+00    5.434899e-01   8.293605e-03
  3.732356e+00    5.182723e-01   8.116475e-03
  3.734566e+00    5.234833e-01   8.174838e-03
  3.736776e+00    5.112912e-01   8.096793e-03
  3.738987e+00    5.260701e-01   8.230895e-03
  3.741197e+00    5.054417e-01   8.085818e-03
  3.743408e+00    5.241716e-01   8.252461e-03
  3.745618e+00    5.127085e-01   8.180065e-03
  3.747829e+00    5.113979e-01   8.187682e-03
  3.750039e+00    5.186351e-01   8.263925e-03
  3.752250e+00    5.244389e-01   8.328753e-03
  3.754460e+00    5.215533e-01   8.324503e-03
  3.756671e+00    5.137853e-01   8.281237e-03
  3.758881e+00    5.256420e-01   8.395154e-03
  3.761091e+00    5.112245e-01   8.298439e-03
  3.763302e+00    5.057089e-01   8.272564e-03
  3.765512e+00    5.018413e-01   8.260025e-03
  3.767723e+00    5.223937e-01   8.447077e-03
  3.769933e+00    5.187258e-01   8.436958e-03
  3.772144e+00    5.056919e-01   8.349862e-03
  3.774354e+00    5.181643e-01   8.472255e-03
  3.776565e+00    5.231436e-01   8.533130e-03
  3.778775e+00    5.127249e-01   8.467794e-03
  3.780986e+00    5.077875e-01   8.447370e-03
  3.783196e+00    4.965223e-01   8.373192e-03
  3.785407e+00    5.073491e-01   8.484505e-03
  3.787617e+00    5.164390e-01   8.581229e-03
  3.789827e+00    5.022926e-01   8.483388e-03
  3.792038e+00    5.143966e-01   8.606112e-03
  3.794248e+00    5.025015e-01   8.527217e-03
  3.796459e+00    4.979223e-01   8.509518e-03
  3.798669e+00    5.274363e-01   8.780066e-03
  3.800880e+00    5.118951e-01   8.671448e-03
  3.803090e+00    4.870019e-01   8.479442e-03
  3.805301e+00    5.036156e-01   8.645061e-03
  3.807511e+00    5.152124e-01   8.766351e-03
  3.809722e+00    5.221581e-01   8.848022e-03
  3.811932e+00    5.285063e-01   8.924443e-03
  3.814142e+00    5.153582e-01   8.836044e-03
  3.816353e+00    4.985357e-01   8.713419e-03
  3.818563e+00    4.915848e-01   8.675407e-03
  3.820774e+00    5.012979e-01   8.783886e-03
  3.822984e+00    5.087886e-01   8.872936e-03
  3.825195e+00    5.241194e-01   9.029920e-03
  3.827405e+00    5.268282e-01   9.077857e-03
  3.829616e+00    4.978211e-01   8.848492e-03
  3.831826e+00    5.108746e-01   8.988206e-03
  3.834037e+00    5.111491e-01   9.015444e-03
  3.836247e+00    5.091681e-01   9.023035e-03
  3.838457e+00    5.002862e-01   8.969049e-03
  3.840668e+00    4.976101e-01   8.970276e-03
  3.842878e+00    4.900708e-01   8.927444e-03
  3.845089e+00    4.754812e-01   8.818543e-03
  3.847299e+00    5.054383e-01   9.118164e-03
  3.849510e+00    5.082265e-01   9.169487e-03
  3.851720e+00    4.960966e-01   9.080861e-03
  3.853931e+00    4.853695e-01   9.000913e-03
  3.856141e+00    5.233487e-01   9.366025e-03
  3.858352e+00    4.942289e-01   9.120958e-03
  3.860562e+00    4.908618e-01   9.109113e-03
  3.862772e+00    5.017037e-01   9.228816e-03
  3.864983e+00    5.072241e-01   9.299478e-03
  3.867193e+00    4.963075e-01   9.218690e-03
  3.869404e+00    4.883383e-01   9.164022e-03
  3.871614e+00    4.886598e-01   9.186994e-03
  3.873825e+00    4.890335e-01   9.210679e-03
  3.876035e+00    5.014369e-01   9.347551e-03
  3.878246e+00    4.757469e-01   9.130259e-03
  3.880456e+00    4.869923e-01   9.266355e-03
  3.882667e+00    4.975094e-01   9.395354e-03
  3.884877e+00    5.029724e-01   9.476930e-03
  3.887087e+00    5.200448e-01   9.667186e-03
  3.889298e+00    4.861320e-01   9.376889e-03
  3.891508e+00    5.061181e-01   9.598684e-03
  3.893719e+00    5.069840e-01   9.638403e-03
  3.895929e+00    4.998559e-01   9.602156e-03
  3.898140e+00    4.661999e-01   9.304170e-03
  3.900350e+00    5.155234e-01   9.816846e-03
  3.902561e+00    5.052793e-01   9.751750e-03
  3.904771e+00    4.606628e-01   9.343079e-03
  3.906982e+00    5.088691e-01   9.853478e-03
  3.909192e+00    5.132704e-01   9.930415e-03
  3.911403e+00    5.186878e-01   1.001764e-02
  3.913613e+00    5.059140e-01   9.928503e-03
  3.915823e+00    4.985219e-01   9.890742e-03
  3.918034e+00    4.796432e-01   9.736690e-03
  3.920244e+00    4.723565e-01   9.697506e-03
  3.922455e+00    4.904048e-01   9.917266e-03
  3.924665e+00    4.839519e-01   9.888002e-03
  3.926876e+00    4.860874e-01   9.946896e-03
  3.929086e+00    4.976983e-01   1.010269e-02
  3.931297e+00    4.932503e-01   1.009249e-02
  3.933507e+00    5.174186e-01   1.036657e-02
  3.935718e+00    5.230777e-01   1.045289e-02
  3.937928e+00    5.308824e-01   1.056136e-02
  3.940138e+00    5.065358e-01   1.034622e-02
  3.942349e+00    5.099339e-01   1.041143e-02
  3.944559e+00    5.018768e-01   1.035935e-02
  3.946770e+00    4.792933e-01   1.015345e-02
  3.948980e+00    5.099577e-01   1.050471e-02
  3.951191e+00    4.954416e-01   1.038519e-02
  3.953401e+00    5.212328e-01   1.068461e-02
  3.955612e+00    5.050834e-01   1.055006e-02
  3.957822e+00    5.022336e-01   1.055238e-02
  3.960033e+00    4.965144e-01   1.052512e-02
  3.962243e+00    4.888828e-01   1.047688e-02
  3.964453e+00    4.983028e-01   1.061091e-02
  3.966664e+00    5.004393e-01   1.066748e-02
  3.968874e+00    4.840015e-01   1.051918e-02
  3.971085e+00    4.829863e-01   1.053008e-02
  3.973295e+00    4.739658e-01   1.045245e-02
  3.975506e+00    4.690506e-01   1.041928e-02
  3.977716e+00    5.231629e-01   1.102676e-02
  3.979927e+00    4.833315e-01   1.062085e-02
  3.982137e+00    4.879214e-01   1.069343e-02
  3.984348e+00    4.964533e-01   1.080936e-02
  3.986558e+00    5.045389e-01   1.091982e-02
  3.988768e+00    4.784102e-01   1.065613e-02
  3.990979e+00    5.178791e-01   1.111040e-02
  3.993189e+00    4.939025e-01   1.087360e-02
  3.995400e+00    4.867536e-01   1.081807e-02
  3.997610e+00    5.071389e-01   1.107282e-02
  3.999821e+00    5.014227e-01   1.104839e-02
  4.002031e+00    5.029423e-01   1.110428e-02
  4.004242e+00    4.735153e-01   1.081253e-02
  4.006452e+00    4.690608e-01   1.080027e-02
  4.008663e+00    4.747245e-01   1.090483e-02
  4.010873e+00    5.005010e-01   1.123766e-02
  4.013084e+00    5.049196e-01   1.132894e-02
  4.015294e+00    4.770665e-01   1.105268e-02
  4.017504e+00    4.799353e-01   1.112758e-02
  4.019715e+00    4.769532e-01   1.113508e-02
  4.021925e+00    5.118398e-01   1.157933e-02
  4.024136e+00    4.743235e-01   1.119020e-02
  4.026346e+00    4.416618e-01   1.084013e-02
  4.028557e+00    4.940097e-01   1.150937e-02
  4.030767e+00    5.029582e-01   1.165967e-02
  4.032978e+00    4.679236e-01   1.129182e-02
  4.035188e+00    4.801530e-01   1.148443e-02
  4.037399e+00    4.968507e-01   1.173069e-02
  4.039609e+00    4.847278e-01   1.163447e-02
  4.041819e+00    4.969658e-01   1.182972e-02
  4.044030e+00    5.353352e-01   1.233055e-02
  4.046240e+00    5.264739e-01   1.228020e-02
  4.048451e+00    4.777705e-01   1.174897e-02
  4.050661e+00    4.961052e-01   1.202444e-02
  4.052872e+00    4.840958e-01   1.193085e-02
  4.055082e+00    4.816962e-01   1.195472e-02
  4.057293e+00    4.868506e-01   1.207242e-02
  4.059503e+00    4.833564e-01   1.208376e-02
  4.061714e+00    4.773981e-01   1.206522e-02
  4.063924e+00    5.092147e-01   1.251909e-02
  4.066134e+00    5.022284e-01   1.249161e-02
  4.068345e+00    4.904777e-01   1.240395e-02
  4.070555e+00    5.245060e-01   1.288901e-02
  4.072766e+00    4.990400e-01   1.263403e-02
  4.074976e+00    4.801568e-01   1.245457e-02
  4.077187e+00    5.166046e-01   1.298283e-02
  4.079397e+00    4.895103e-01   1.270228e-02
  4.081608e+00    5.109400e-01   1.304482e-02
  4.083818e+00    5.158084e-01   1.317502e-02
  4.086029e+00    5.410042e-01   1.356413e-02
  4.088239e+00    5.129076e-01   1.327844e-02
  4.090449e+00    4.709934e-01   1.279307e-02
  4.092660e+00    4.956815e-01   1.319651e-02
  4.094870e+00    4.819806e-01   1.308519e-02
  4.097081e+00    4.792597e-01   1.311955e-02
  4.099291e+00    4.882626e-01   1.329707e-02
  4.101502e+00    5.180329e-01   1.374764e-02
  4.103712e+00    4.701241e-01   1.314520e-02
  4.105923e+00    4.910510e-01   1.348669e-02
  4.108133e+00    4.742090e-01   1.330439e-02
  4.110344e+00    4.615971e-01   1.317659e-02
  4.112554e+00    4.694090e-01   1.333993e-02
  4.114764e+00    5.229406e-01   1.413677e-02
  4.116975e+00    5.024099e-01   1.391115e-02
  4.119185e+00    4.985784e-01   1.391402e-02
  4.121396e+00    5.400895e-01   1.454186e-02
  4.123606e+00    5.052233e-01   1.412223e-02
  4.125817e+00    4.782974e-01   1.379818e-02
  4.128027e+00    4.940771e-01   1.408317e-02
  4.130238e+00    4.417997e-01   1.337437e-02
  4.132448e+00    4.853867e-01   1.407937e-02
  4.134659e+00    5.197088e-01   1.463123e-02
  4.136869e+00    4.862878e-01   1.421635e-02
  4.139080e+00    4.544452e-01   1.380476e-02
  4.141290e+00    5.233889e-01   1.488065e-02
  4.143500e+00    4.919293e-01   1.449315e-02
  4.145711e+00    4.899377e-01   1.453121e-02
  4.147921e+00    4.977753e-01   1.471405e-02
  4.150132e+00    5.020191e-01   1.484742e-02
  4.152342e+00    4.918075e-01   1.476670e-02
  4.154553e+00    4.756121e-01   1.459057e-02
  4.156763e+00    5.022826e-01   1.506818e-02
  4.158974e+00    5.249935e-01   1.548278e-02
  4.161184e+00    4.553115e-01   1.449010e-02
  4.163395e+00    4.912249e-01   1.512748e-02
  4.165605e+00    5.325504e-01   1.583301e-02
  4.167815e+00    5.470404e-01   1.613056e-02
  4.170026e+00    5.320258e-01   1.599163e-02
  4.172236e+00    5.154893e-01   1.582631e-02
  4.174447e+00    4.606354e-01   1.504172e-02
  4.176657e+00    5.275254e-01   1.618480e-02
  4.178868e+00    5.532299e-01   1.666844e-02
  4.181078e+00    5.140758e-01   1.615830e-02
  4.183289e+00    4.931829e-01   1.591700e-02
  4.185499e+00    4.890870e-01   1.594441e-02
  4.187710e+00    4.606439e-01   1.556446e-02
  4.189920e+00    4.571943e-01   1.559950e-02
  4.192130e+00    4.852015e-01   1.616822e-02
  4.194341e+00    5.450205e-01   1.724104e-02
  4.196551e+00    5.301022e-01   1.711126e-02
  4.198762e+00    5.509092e-01   1.755447e-02
  4.200972e+00    4.985148e-01   1.680732e-02
  4.203183e+00    4.135928e-01   1.540970e-02
  4.205393e+00    4.418179e-01   1.603242e-02
  4.207604e+00    4.898153e-01   1.699644e-02
  4.209814e+00    5.238930e-01   1.769803e-02
  4.212025e+00    4.968027e-01   1.735666e-02
  4.214235e+00    4.730986e-01   1.705763e-02
  4.216445e+00    4.961359e-01   1.759410e-02
  4.218656e+00    4.426323e-01   1.674327e-02
  4.220866e+00    4.919749e-01   1.778233e-02
  4.223077e+00    4.930072e-01   1.793781e-02
  4.225287e+00    4.852917e-01   1.793697e-02
  4.227498e+00    5.020947e-01   1.838797e-02
  4.229708e+00    4.960615e-01   1.842571e-02
  4.231919e+00    4.546448e-01   1.778568e-02
  4.234129e+00    5.507173e-01   1.973906e-02
  4.236340e+00    5.497937e-01   1.989127e-02
  4.238550e+00    4.537527e-01   1.823021e-02
  4.240761e+00    5.130224e-01   1.955539e-02
  4.242971e+00    4.571795e-01   1.862952e-02
  4.245181e+00    4.720647e-01   1.910827e-02
  4.247392e+00    5.159140e-01   2.016260e-02
  4.249602e+00    5.303735e-01   2.064670e-02
  4.251813e+00    4.964398e-01   2.017199e-02
  4.254023e+00    4.055350e-01   1.841527e-02
  4.256234e+00    4.769857e-01   2.018529e-02
  4.258444e+00    4.388401e-01   1.956387e-02
  4.260655e+00    4.789259e-01   2.066296e-02
  4.262865e+00    4.615272e-01   2.051378e-02
  4.265076e+00    4.252262e-01   1.991446e-02
  4.267286e+00    5.336864e-01   2.257490e-02
  4.269496e+00    4.522254e-01   2.103437e-02
  4.271707e+00    5.193849e-01   2.282024e-02
  4.273917e+00    5.181096e-01   2.308756e-02
  4.276128e+00    5.225492e-01   2.349376e-02
  4.278338e+00    4.988808e-01   2.326267e-02
  4.280549e+00    3.429635e-01   1.956390e-02
  4.282759e+00    4.767041e-01   2.339674e-02
  4.284970e+00    4.721826e-01   2.363031e-02
  4.287180e+00    4.795469e-01   2.409911e-02
  4.289391e+00    4.951672e-01   2.467237e-02
  4.291601e+00    5.661492e-01   2.659248e-02
  4.293811e+00    4.190882e-01   2.305814e-02
  4.296022e+00    4.007003e-01   2.272760e-02
  4.298232e+00    4.806847e-01   2.510178e-02
  4.300443e+00    4.658965e-01   2.491622e-02
  4.302653e+00    4.662727e-01   2.514266e-02
  4.304864e+00    4.709323e-01   2.548568e-02
  4.307074e+00    5.681268e-01   2.824493e-02
  4.309285e+00    5.053702e-01   2.688099e-02
  4.311495e+00    4.689768e-01   2.613738e-02
  4.313706e+00    4.885629e-01   2.692882e-02
  4.315916e+00    4.270973e-01   2.542474e-02
  4.318126e+00    4.600459e-01   2.664916e-02
  4.320337e+00    4.571886e-01   2.683469e-02
  4.322547e+00    4.950981e-01   2.822077e-02
  4.324758e+00    4.824838e-01   2.814867e-02
  4.326968e+00    4.644574e-01   2.792957e-02
  4.329179e+00    5.012681e-01   2.933422e-02
  4.331389e+00    5.215244e-01   3.026640e-02
  4.333600e+00    4.677902e-01   2.900704e-02
  4.335810e+00    5.381460e-01   3.148235e-02
  4.338021e+00    4.238848e-01   2.829771e-02
  4.340231e+00    4.172399e-01   2.842891e-02
  4.342442e+00    4.415148e-01   2.963505e-02
  4.344652e+00    3.777342e-01   2.778460e-02
  4.346862e+00    3.911290e-01   2.866758e-02
  4.349073e+00    4.168041e-01   3.002487e-02
  4.351283e+00    3.819319e-01   2.917058e-02
  4.353494e+00    3.361706e-01   2.779013e-02
  4.355704e+00    3.627035e-01   2.933094e-02
  4.357915e+00    3.791729e-01   3.048762e-02
  4.360125e+00    5.309682e-01   3.669431e-02
  4.362336e+00    6.519369e-01   4.140140e-02
  4.364546e+00    3.859536e-01   3.243583e-02
  4.366757e+00    5.263855e-01   3.863112e-02
  4.368967e+00    4.441701e-01   3.619603e-02
  4.371177e+00    5.420954e-01   4.083782e-02
  4.373388e+00    4.355882e-01   3.742351e-02
  4.375598e+00    3.801404e-01   3.576012e-02
  4.377809e+00    4.212102e-01   3.859267e-02
  4.380019e+00    4.839630e-01   4.240958e-02
  4.382230e+00    3.289507e-01   3.594063e-02
  4.384440e+00    3.576998e-01   3.855599e-02
  4.386651e+00    3.859637e-01   4.128435e-02
  4.388861e+00    3.133470e-01   3.844824e-02
  4.391072e+00    5.515487e-01   5.280131e-02
  4.393282e+00    2.748560e-01   3.871562e-02
  4.395492e+00    4.356083e-01   5.076263e-02
  4.397703e+00    5.263484e-01   5.835163e-02
  4.399913e+00    3.587300e-01   5.061276e-02
  4.402124e+00    3.337834e-01   5.158721e-02
  4.404334e+00    2.880241e-01   5.093636e-02
  4.406545e+00    4.595576e-01   6.912789e-02
  4.408755e+00    4.104454e-01   7.086152e-02
  4.410966e+00    3.576236e-01   7.319505e-02
  4.413176e+00    2.345362e-01   6.711282e-02
  4.415387e+00   -6.649290e-01            nan
  4.417597e+00   -1.894323e+00            nan
  4.419807e+00   -3.766224e-01            nan
