# == pyFAI calibration ==
# Distance Sample to Detector: 0.216 m
# PONI: 1.166e-01, 1.308e-01 m
# Rotations: 0.000000 0.000000 0.000000 rad
# 
# == Fit2d calibration ==
# Distance Sample-beamCenter: 216.000 mm
# Center: x=1744.293, y=1555.000 pix
# Tilt: 0.000 deg  TiltPlanRot: 0.000 deg
# 
# Detector Eiger 9M	 PixelSize= 7.500e-05, 7.500e-05 m
#    Detector has a mask: True 
#    Detector has a dark current: False 
#    detector has a flat field: False 
# 
# Wavelength: 9.8e-11 m
# Mask applied: from detector
# Dark current applied: False
# Flat field applied: False
# Polarization factor: None
# Normalization factor: 1.0
# 
# Headers of the input frame:
# {
# "_array_data.header_convention": "SLS_1.0",
# "_array_data.header_contents": "# Detector: Dectris Eiger 9M, S/N E-18-0102\r\n# Pixel_size 75e-6 m x 75e-6 m\r\n# Silicon sensor, thickness 0.000450 m\r\n# Exposure_time 0.024997 s\r\n# Exposure_period 0.025000 s\r\n# Count_cutoff 62318 counts\r\n# Wavelength 0.980106 A\r\n# Detector_distance 0.215992 m\r\n# Beam_xy (1555, 1744) pixels\r\n# Start_angle 0.000000 deg.\r\n# Angle_increment 0.000000 deg.",
# "Content-Type": "application/octet-stream;",
# "conversions": "x-CBF_BYTE_OFFSET",
# "Content-Transfer-Encoding": "BINARY",
# "X-Binary-Size": "10166630",
# "X-Binary-ID": "1",
# "X-Binary-Element-Type": "signed 32-bit integer",
# "X-Binary-Element-Byte-Order": "LITTLE_ENDIAN",
# "Content-MD5": "eSCPYSqd5JcBymhsmLGWug==",
# "X-Binary-Number-of-Elements": "10166590",
# "X-Binary-Size-Fastest-Dimension": "3110",
# "X-Binary-Size-Second-Dimension": "3269",
# "X-Binary-Size-Padding": "4095"
# }
# --> H:/Proxima2a_2019-04-05/RAW_DATA/C5_gel17_position5/C5_mesh_1_data.cbf/C5_mesh_1_data.cbf000162.dat
#        q_A^-1              I           sigma 
  1.105228e-03    1.057407e+00   5.564268e-01
  3.315685e-03    1.088229e+00   3.431671e-01
  5.526141e-03    1.466773e+00   3.080730e-01
  7.736597e-03    1.312958e+00   2.462327e-01
  9.947054e-03    1.772553e+00   2.522180e-01
  1.215751e-02    1.269979e+00   1.930487e-01
  1.436797e-02    1.177789e+00   1.710053e-01
  1.657842e-02    1.363191e+00   1.712469e-01
  1.878888e-02    1.257102e+00   1.544716e-01
  2.099934e-02    1.380276e+00   1.531387e-01
  2.320979e-02    1.233316e+00   1.376797e-01
  2.542025e-02    1.407942e+00   1.405730e-01
  2.763070e-02    1.442236e+00   1.364610e-01
  2.984116e-02    1.441399e+00   1.312710e-01
  3.205162e-02    1.350241e+00   1.226004e-01
  3.426207e-02    1.510732e+00   1.254205e-01
  3.647253e-02    1.390679e+00   1.166281e-01
  3.868299e-02    1.419533e+00   1.144243e-01
  4.089344e-02    1.507094e+00   1.146703e-01
  4.310390e-02    1.551472e+00   1.133172e-01
  4.531436e-02    1.628227e+00   1.132200e-01
  4.752481e-02    1.624129e+00   1.104153e-01
  4.973527e-02    1.478354e+00   1.029772e-01
  5.194572e-02    1.553038e+00   1.032747e-01
  5.415618e-02    1.478843e+00   9.869608e-02
  5.636664e-02    1.458820e+00   9.608731e-02
  5.857709e-02    1.438249e+00   9.359046e-02
  6.078755e-02    1.494871e+00   9.366108e-02
  6.299801e-02    1.377403e+00   8.831348e-02
  6.520846e-02    1.516824e+00   9.109159e-02
  6.741892e-02    1.379550e+00   8.543161e-02
  6.962938e-02    1.418448e+00   8.524579e-02
  7.183983e-02    1.461902e+00   8.519834e-02
  7.405029e-02    1.437391e+00   8.320870e-02
  7.626074e-02    1.385599e+00   8.050246e-02
  7.847120e-02    1.429123e+00   8.059511e-02
  8.068166e-02    1.504271e+00   8.154576e-02
  8.289211e-02    1.518882e+00   8.084045e-02
  8.510257e-02    1.518171e+00   7.976453e-02
  8.731303e-02    1.562564e+00   7.988840e-02
  8.952348e-02    1.511248e+00   7.759174e-02
  9.173394e-02    1.546240e+00   7.753047e-02
  9.394439e-02    1.527423e+00   7.614283e-02
  9.615485e-02    1.465330e+00   7.371525e-02
  9.836531e-02    1.485053e+00   7.336915e-02
  1.005758e-01    1.475629e+00   7.232824e-02
  1.027862e-01    1.513248e+00   7.245076e-02
  1.049967e-01    1.493888e+00   7.122278e-02
  1.072071e-01    1.552526e+00   7.185388e-02
  1.094176e-01    1.559120e+00   7.127417e-02
  1.116280e-01    1.484845e+00   6.886210e-02
  1.138385e-01    1.521799e+00   6.903222e-02
  1.160490e-01    1.542021e+00   6.882358e-02
  1.182594e-01    1.535243e+00   6.802583e-02
  1.204699e-01    1.657385e+00   7.002809e-02
  1.226803e-01    1.609834e+00   6.838882e-02
  1.248908e-01    1.520790e+00   6.587887e-02
  1.271012e-01    1.600058e+00   6.698247e-02
  1.293117e-01    1.561380e+00   6.559914e-02
  1.315222e-01    1.541307e+00   6.462459e-02
  1.337326e-01    1.580616e+00   6.489910e-02
  1.359431e-01    1.650493e+00   6.635698e-02
  1.381535e-01    1.646125e+00   6.715866e-02
  1.403640e-01    1.631366e+00   6.714557e-02
  1.425744e-01    1.613010e+00   6.687343e-02
  1.447849e-01    1.519106e+00   6.491259e-02
  1.469953e-01    1.579232e+00   6.614330e-02
  1.492058e-01    1.528254e+00   6.499135e-02
  1.514163e-01    1.579837e+00   6.596936e-02
  1.536267e-01    1.693855e+00   6.817504e-02
  1.558372e-01    1.690661e+00   6.796040e-02
  1.580476e-01    1.678906e+00   6.755937e-02
  1.602581e-01    1.658093e+00   6.696881e-02
  1.624685e-01    1.613146e+00   6.587401e-02
  1.646790e-01    1.636034e+00   6.614920e-02
  1.668895e-01    1.697548e+00   6.718673e-02
  1.690999e-01    1.712270e+00   6.727476e-02
  1.713104e-01    1.816314e+00   6.907357e-02
  1.735208e-01    1.791902e+00   6.839447e-02
  1.757313e-01    1.805757e+00   6.844318e-02
  1.779417e-01    1.822957e+00   6.854410e-02
  1.801522e-01    1.899570e+00   6.974676e-02
  1.823626e-01    1.855790e+00   6.870887e-02
  1.845731e-01    1.896339e+00   6.923046e-02
  1.867836e-01    1.942474e+00   6.983105e-02
  1.889940e-01    1.881539e+00   6.850248e-02
  1.912045e-01    1.952376e+00   6.954701e-02
  1.934149e-01    2.037011e+00   7.080069e-02
  1.956254e-01    2.080622e+00   7.131860e-02
  1.978358e-01    2.116861e+00   7.169046e-02
  2.000463e-01    2.022724e+00   6.984611e-02
  2.022568e-01    1.992568e+00   6.909593e-02
  2.044672e-01    2.008320e+00   6.913088e-02
  2.066777e-01    2.024459e+00   6.917772e-02
  2.088881e-01    2.063366e+00   6.961078e-02
  2.110986e-01    2.079718e+00   6.964646e-02
  2.133090e-01    1.959203e+00   6.737865e-02
  2.155195e-01    1.940136e+00   6.682757e-02
  2.177300e-01    1.958132e+00   6.660935e-02
  2.199404e-01    1.977661e+00   6.517682e-02
  2.221509e-01    2.054917e+00   6.534671e-02
  2.243613e-01    2.056853e+00   6.454869e-02
  2.265718e-01    2.020009e+00   6.326291e-02
  2.287822e-01    2.032319e+00   6.282727e-02
  2.309927e-01    2.104748e+00   6.335457e-02
  2.332031e-01    2.125448e+00   6.312045e-02
  2.354136e-01    2.171757e+00   6.328724e-02
  2.376241e-01    2.172443e+00   6.280595e-02
  2.398345e-01    2.145987e+00   6.196037e-02
  2.420450e-01    2.193197e+00   6.219054e-02
  2.442554e-01    2.218809e+00   6.212168e-02
  2.464659e-01    2.262696e+00   6.231184e-02
  2.486763e-01    2.301419e+00   6.242972e-02
  2.508868e-01    2.302271e+00   6.204735e-02
  2.530973e-01    2.233346e+00   6.073267e-02
  2.553077e-01    2.082196e+00   5.828579e-02
  2.575182e-01    2.087125e+00   5.800949e-02
  2.597286e-01    2.082186e+00   5.760396e-02
  2.619391e-01    2.152435e+00   5.823049e-02
  2.641495e-01    2.048393e+00   5.649130e-02
  2.663600e-01    2.087373e+00   5.671266e-02
  2.685704e-01    2.024199e+00   5.554515e-02
  2.707809e-01    2.028864e+00   5.531394e-02
  2.729914e-01    1.976237e+00   5.430732e-02
  2.752018e-01    2.039042e+00   5.487641e-02
  2.774123e-01    2.000597e+00   5.407894e-02
  2.796227e-01    2.022438e+00   5.410439e-02
  2.818332e-01    1.990036e+00   5.340149e-02
  2.840436e-01    1.967771e+00   5.284451e-02
  2.862541e-01    1.926842e+00   5.204068e-02
  2.884646e-01    1.971027e+00   5.238420e-02
  2.906750e-01    1.940303e+00   5.172787e-02
  2.928855e-01    1.937949e+00   5.145695e-02
  2.950959e-01    1.914593e+00   5.091098e-02
  2.973064e-01    1.968187e+00   5.138664e-02
  2.995168e-01    1.970015e+00   5.117765e-02
  3.017273e-01    1.982016e+00   5.110697e-02
  3.039377e-01    1.985834e+00   5.093217e-02
  3.061482e-01    1.965400e+00   5.045028e-02
  3.083587e-01    1.980095e+00   5.041933e-02
  3.105691e-01    1.929407e+00   4.955724e-02
  3.127796e-01    1.957151e+00   4.970242e-02
  3.149900e-01    1.973579e+00   4.970263e-02
  3.172005e-01    1.925310e+00   4.889034e-02
  3.194109e-01    1.917061e+00   4.858409e-02
  3.216214e-01    1.946090e+00   4.875081e-02
  3.238319e-01    1.916891e+00   4.819201e-02
  3.260423e-01    1.920001e+00   4.803896e-02
  3.282528e-01    1.923029e+00   4.788545e-02
  3.304632e-01    1.858984e+00   4.689891e-02
  3.326737e-01    1.890515e+00   4.711042e-02
  3.348841e-01    1.969231e+00   4.789478e-02
  3.370946e-01    1.858555e+00   4.635434e-02
  3.393050e-01    1.871546e+00   4.633985e-02
  3.415155e-01    1.845660e+00   4.584523e-02
  3.437260e-01    1.865276e+00   4.591739e-02
  3.459364e-01    1.839956e+00   4.543600e-02
  3.481469e-01    1.803337e+00   4.481737e-02
  3.503573e-01    1.816844e+00   4.482106e-02
  3.525678e-01    1.756990e+00   4.391948e-02
  3.547782e-01    1.799593e+00   4.428812e-02
  3.569887e-01    1.825403e+00   4.444653e-02
  3.591992e-01    1.857422e+00   4.467601e-02
  3.614096e-01    1.825590e+00   4.413797e-02
  3.636201e-01    1.899415e+00   4.486335e-02
  3.658305e-01    1.835072e+00   4.394653e-02
  3.680410e-01    1.812557e+00   4.352586e-02
  3.702514e-01    1.837400e+00   4.367575e-02
  3.724619e-01    1.826065e+00   4.339257e-02
  3.746724e-01    1.823851e+00   4.322156e-02
  3.768828e-01    1.811201e+00   4.292649e-02
  3.790933e-01    1.831198e+00   4.302214e-02
  3.813037e-01    1.789937e+00   4.239554e-02
  3.835142e-01    1.795212e+00   4.231850e-02
  3.857246e-01    1.812470e+00   4.238381e-02
  3.879351e-01    1.860954e+00   4.280797e-02
  3.901455e-01    1.791316e+00   4.186567e-02
  3.923560e-01    1.821488e+00   4.208260e-02
  3.945665e-01    1.808395e+00   4.179811e-02
  3.967769e-01    1.823142e+00   4.183675e-02
  3.989874e-01    1.823345e+00   4.170845e-02
  4.011978e-01    1.750190e+00   4.073752e-02
  4.034083e-01    1.780069e+00   4.095763e-02
  4.056187e-01    1.849204e+00   4.161683e-02
  4.078292e-01    1.864386e+00   4.166086e-02
  4.100397e-01    1.850162e+00   4.137493e-02
  4.122501e-01    1.824540e+00   4.096453e-02
  4.144606e-01    1.767279e+00   4.019703e-02
  4.166710e-01    1.780639e+00   4.022871e-02
  4.188815e-01    1.791505e+00   4.023205e-02
  4.210919e-01    1.819442e+00   4.042572e-02
  4.233024e-01    1.794149e+00   4.002567e-02
  4.255128e-01    1.818731e+00   4.018246e-02
  4.277233e-01    1.792074e+00   3.977227e-02
  4.299338e-01    1.875320e+00   4.056849e-02
  4.321442e-01    1.818581e+00   3.983575e-02
  4.343547e-01    1.793803e+00   3.945157e-02
  4.365651e-01    1.803662e+00   3.944744e-02
  4.387756e-01    1.790813e+00   3.919661e-02
  4.409860e-01    1.810573e+00   3.930308e-02
  4.431965e-01    1.775561e+00   3.881360e-02
  4.454070e-01    1.689482e+00   3.775573e-02
  4.476174e-01    1.764736e+00   3.848148e-02
  4.498279e-01    1.740718e+00   3.811474e-02
  4.520383e-01    1.766933e+00   3.829528e-02
  4.542488e-01    1.792413e+00   3.846642e-02
  4.564592e-01    1.752471e+00   3.793337e-02
  4.586697e-01    1.711396e+00   3.738669e-02
  4.608801e-01    1.729338e+00   3.748148e-02
  4.630906e-01    1.763378e+00   3.774836e-02
  4.653011e-01    1.705586e+00   3.702703e-02
  4.675115e-01    1.706070e+00   3.693472e-02
  4.697220e-01    1.729090e+00   3.708573e-02
  4.719324e-01    1.748926e+00   3.720136e-02
  4.741429e-01    1.765561e+00   3.728155e-02
  4.763533e-01    1.753704e+00   3.706091e-02
  4.785638e-01    1.739203e+00   3.681203e-02
  4.807743e-01    1.715159e+00   3.646372e-02
  4.829847e-01    1.707307e+00   3.628824e-02
  4.851952e-01    1.682002e+00   3.592717e-02
  4.874056e-01    1.735176e+00   3.639863e-02
  4.896161e-01    1.737541e+00   3.633311e-02
  4.918265e-01    1.714324e+00   3.599994e-02
  4.940370e-01    1.689278e+00   3.564775e-02
  4.962475e-01    1.690783e+00   3.557556e-02
  4.984579e-01    1.675588e+00   3.532806e-02
  5.006684e-01    1.641920e+00   3.488606e-02
  5.028788e-01    1.659150e+00   3.498365e-02
  5.050893e-01    1.684450e+00   3.516363e-02
  5.072997e-01    1.688867e+00   3.512469e-02
  5.095102e-01    1.634879e+00   3.447593e-02
  5.117206e-01    1.654472e+00   3.459942e-02
  5.139311e-01    1.725468e+00   3.525037e-02
  5.161416e-01    1.726470e+00   3.517729e-02
  5.183520e-01    1.691017e+00   3.473150e-02
  5.205625e-01    1.639877e+00   3.412217e-02
  5.227729e-01    1.650662e+00   3.415433e-02
  5.249834e-01    1.693071e+00   3.451000e-02
  5.271938e-01    1.719598e+00   3.469813e-02
  5.294043e-01    1.785446e+00   3.527465e-02
  5.316148e-01    1.795574e+00   3.529355e-02
  5.338252e-01    1.761800e+00   3.488014e-02
  5.360357e-01    1.790008e+00   3.507821e-02
  5.382461e-01    1.756408e+00   3.466891e-02
  5.404566e-01    1.693359e+00   3.396349e-02
  5.426670e-01    1.725389e+00   3.420594e-02
  5.448775e-01    1.720187e+00   3.407805e-02
  5.470879e-01    1.772107e+00   3.451136e-02
  5.492984e-01    1.760550e+00   3.432216e-02
  5.515089e-01    1.803685e+00   3.466303e-02
  5.537193e-01    1.790177e+00   3.445691e-02
  5.559298e-01    1.770065e+00   3.418764e-02
  5.581402e-01    1.804622e+00   3.444432e-02
  5.603507e-01    1.817092e+00   3.448792e-02
  5.625611e-01    1.847923e+00   3.470378e-02
  5.647716e-01    1.817854e+00   3.434557e-02
  5.669821e-01    1.747154e+00   3.359847e-02
  5.691925e-01    1.803307e+00   3.406083e-02
  5.714030e-01    1.806129e+00   3.401481e-02
  5.736134e-01    1.803776e+00   3.392034e-02
  5.758239e-01    1.776883e+00   3.359469e-02
  5.780343e-01    1.687561e+00   3.267014e-02
  5.802448e-01    1.643763e+00   3.217592e-02
  5.824552e-01    1.615948e+00   3.183556e-02
  5.846657e-01    1.685243e+00   3.244321e-02
  5.868762e-01    1.700713e+00   3.252395e-02
  5.890866e-01    1.689613e+00   3.235036e-02
  5.912971e-01    1.700495e+00   3.238719e-02
  5.935075e-01    1.691483e+00   3.223450e-02
  5.957180e-01    1.691462e+00   3.216816e-02
  5.979284e-01    1.641345e+00   3.162334e-02
  6.001389e-01    1.612632e+00   3.128169e-02
  6.023494e-01    1.603019e+00   3.112497e-02
  6.045598e-01    1.648280e+00   3.149706e-02
  6.067703e-01    1.643377e+00   3.138694e-02
  6.089807e-01    1.660480e+00   3.148641e-02
  6.111912e-01    1.656540e+00   3.138624e-02
  6.134016e-01    1.670732e+00   3.145752e-02
  6.156121e-01    1.698737e+00   3.165703e-02
  6.178226e-01    1.668707e+00   3.131385e-02
  6.200330e-01    1.693652e+00   3.148480e-02
  6.222435e-01    1.702438e+00   3.150384e-02
  6.244539e-01    1.678337e+00   3.121878e-02
  6.266644e-01    1.715439e+00   3.150040e-02
  6.288748e-01    1.765474e+00   3.189429e-02
  6.310853e-01    1.769847e+00   3.187180e-02
  6.332957e-01    1.723278e+00   3.138895e-02
  6.355062e-01    1.706872e+00   3.117850e-02
  6.377167e-01    1.702775e+00   3.108129e-02
  6.399271e-01    1.703575e+00   3.102902e-02
  6.421376e-01    1.749365e+00   3.138325e-02
  6.443480e-01    1.742610e+00   3.126302e-02
  6.465585e-01    1.705159e+00   3.086668e-02
  6.487689e-01    1.685703e+00   3.063211e-02
  6.509794e-01    1.688859e+00   3.060295e-02
  6.531899e-01    1.658260e+00   3.026743e-02
  6.554003e-01    1.629148e+00   2.994415e-02
  6.576108e-01    1.633422e+00   2.992759e-02
  6.598212e-01    1.620652e+00   2.975498e-02
  6.620317e-01    1.621602e+00   2.970853e-02
  6.642421e-01    1.626941e+00   2.970235e-02
  6.664526e-01    1.610267e+00   2.949531e-02
  6.686630e-01    1.636764e+00   2.968200e-02
  6.708735e-01    1.633937e+00   2.960197e-02
  6.730840e-01    1.586761e+00   2.911831e-02
  6.752944e-01    1.645241e+00   2.959610e-02
  6.775049e-01    1.628258e+00   2.938950e-02
  6.797153e-01    1.618168e+00   2.924525e-02
  6.819258e-01    1.632512e+00   2.932160e-02
  6.841362e-01    1.604917e+00   2.902045e-02
  6.863467e-01    1.603523e+00   2.895588e-02
  6.885572e-01    1.609642e+00   2.895909e-02
  6.907676e-01    1.605950e+00   2.887404e-02
  6.929781e-01    1.597441e+00   2.874625e-02
  6.951885e-01    1.585798e+00   2.859058e-02
  6.973990e-01    1.618457e+00   2.883240e-02
  6.996094e-01    1.632048e+00   2.890228e-02
  7.018199e-01    1.612444e+00   2.867776e-02
  7.040303e-01    1.600299e+00   2.851936e-02
  7.062408e-01    1.625421e+00   2.869200e-02
  7.084513e-01    1.576218e+00   2.820525e-02
  7.106617e-01    1.600007e+00   2.836789e-02
  7.128722e-01    1.644788e+00   2.871239e-02
  7.150826e-01    1.628644e+00   2.852189e-02
  7.172931e-01    1.597818e+00   2.820198e-02
  7.195035e-01    1.559621e+00   2.781494e-02
  7.217140e-01    1.594453e+00   2.817360e-02
  7.239245e-01    1.582639e+00   2.829632e-02
  7.261349e-01    1.598957e+00   2.855128e-02
  7.283454e-01    1.608364e+00   2.870832e-02
  7.305558e-01    1.602025e+00   2.870615e-02
  7.327663e-01    1.574537e+00   2.850132e-02
  7.349767e-01    1.543609e+00   2.823621e-02
  7.371872e-01    1.557366e+00   2.835064e-02
  7.393976e-01    1.551973e+00   2.828734e-02
  7.416081e-01    1.546041e+00   2.821722e-02
  7.438186e-01    1.547157e+00   2.808433e-02
  7.460290e-01    1.577137e+00   2.806065e-02
  7.482395e-01    1.618646e+00   2.825398e-02
  7.504499e-01    1.580547e+00   2.778299e-02
  7.526604e-01    1.567792e+00   2.755432e-02
  7.548708e-01    1.592910e+00   2.768425e-02
  7.570813e-01    1.592951e+00   2.763335e-02
  7.592918e-01    1.543073e+00   2.716246e-02
  7.615022e-01    1.569729e+00   2.736230e-02
  7.637127e-01    1.583832e+00   2.745209e-02
  7.659231e-01    1.590616e+00   2.747863e-02
  7.681336e-01    1.631651e+00   2.779867e-02
  7.703440e-01    1.616187e+00   2.763500e-02
  7.725545e-01    1.596965e+00   2.743906e-02
  7.747650e-01    1.658933e+00   2.792715e-02
  7.769754e-01    1.622328e+00   2.756386e-02
  7.791859e-01    1.573029e+00   2.708837e-02
  7.813963e-01    1.594736e+00   2.722176e-02
  7.836068e-01    1.595705e+00   2.717786e-02
  7.858172e-01    1.603242e+00   2.719104e-02
  7.880277e-01    1.600953e+00   2.711993e-02
  7.902381e-01    1.606710e+00   2.711928e-02
  7.924486e-01    1.613686e+00   2.712776e-02
  7.946591e-01    1.626799e+00   2.718904e-02
  7.968695e-01    1.622056e+00   2.710083e-02
  7.990800e-01    1.646725e+00   2.725730e-02
  8.012904e-01    1.677826e+00   2.746592e-02
  8.035009e-01    1.706054e+00   2.764673e-02
  8.057113e-01    1.659211e+00   2.721740e-02
  8.079218e-01    1.663708e+00   2.720722e-02
  8.101323e-01    1.668919e+00   2.720352e-02
  8.123427e-01    1.673885e+00   2.719752e-02
  8.145532e-01    1.621088e+00   2.671937e-02
  8.167636e-01    1.631363e+00   2.675882e-02
  8.189741e-01    1.666043e+00   2.699667e-02
  8.211845e-01    1.651006e+00   2.682954e-02
  8.233950e-01    1.672721e+00   2.696147e-02
  8.256054e-01    1.680294e+00   2.697767e-02
  8.278159e-01    1.659070e+00   2.676249e-02
  8.300264e-01    1.657928e+00   2.670994e-02
  8.322368e-01    1.640778e+00   2.652827e-02
  8.344473e-01    1.655745e+00   2.660539e-02
  8.366577e-01    1.679511e+00   2.675255e-02
  8.388682e-01    1.700863e+00   2.687903e-02
  8.410786e-01    1.720356e+00   2.698955e-02
  8.432891e-01    1.680288e+00   2.663102e-02
  8.454996e-01    1.657241e+00   2.640590e-02
  8.477100e-01    1.650306e+00   2.630876e-02
  8.499205e-01    1.691187e+00   2.659080e-02
  8.521309e-01    1.693618e+00   2.656842e-02
  8.543414e-01    1.635435e+00   2.606733e-02
  8.565518e-01    1.648918e+00   2.613381e-02
  8.587623e-01    1.625928e+00   2.591058e-02
  8.609727e-01    1.634034e+00   2.593481e-02
  8.631832e-01    1.622549e+00   2.580366e-02
  8.653937e-01    1.606381e+00   2.563534e-02
  8.676041e-01    1.587675e+00   2.544716e-02
  8.698146e-01    1.648375e+00   2.588942e-02
  8.720250e-01    1.617001e+00   2.560279e-02
  8.742355e-01    1.597818e+00   2.541171e-02
  8.764459e-01    1.588453e+00   2.529849e-02
  8.786564e-01    1.610173e+00   2.543289e-02
  8.808669e-01    1.600406e+00   2.531720e-02
  8.830773e-01    1.605310e+00   2.531778e-02
  8.852878e-01    1.597087e+00   2.521500e-02
  8.874982e-01    1.585377e+00   2.508592e-02
  8.897087e-01    1.588847e+00   2.507582e-02
  8.919191e-01    1.594398e+00   2.508191e-02
  8.941296e-01    1.597789e+00   2.507131e-02
  8.963401e-01    1.582224e+00   2.491267e-02
  8.985505e-01    1.602829e+00   2.503736e-02
  9.007610e-01    1.626281e+00   2.518284e-02
  9.029714e-01    1.588954e+00   2.485644e-02
  9.051819e-01    1.591534e+00   2.483948e-02
  9.073923e-01    1.623176e+00   2.504834e-02
  9.096028e-01    1.638309e+00   2.512952e-02
  9.118132e-01    1.629689e+00   2.502676e-02
  9.140237e-01    1.625318e+00   2.495628e-02
  9.162342e-01    1.597481e+00   2.470710e-02
  9.184446e-01    1.609326e+00   2.476266e-02
  9.206551e-01    1.649976e+00   2.503731e-02
  9.228655e-01    1.618552e+00   2.476231e-02
  9.250760e-01    1.627536e+00   2.479528e-02
  9.272864e-01    1.666846e+00   2.505801e-02
  9.294969e-01    1.691924e+00   2.520899e-02
  9.317074e-01    1.719519e+00   2.537785e-02
  9.339178e-01    1.697719e+00   2.518204e-02
  9.361283e-01    1.632979e+00   2.466083e-02
  9.383387e-01    1.624719e+00   2.456490e-02
  9.405492e-01    1.676909e+00   2.492147e-02
  9.427596e-01    1.690199e+00   2.498403e-02
  9.449701e-01    1.670028e+00   2.480076e-02
  9.471805e-01    1.666345e+00   2.473829e-02
  9.493910e-01    1.672958e+00   2.475331e-02
  9.516015e-01    1.704305e+00   2.494927e-02
  9.538119e-01    1.701594e+00   2.489525e-02
  9.560224e-01    1.707575e+00   2.490387e-02
  9.582328e-01    1.757211e+00   2.522933e-02
  9.604433e-01    1.768036e+00   2.527109e-02
  9.626537e-01    1.798723e+00   2.545517e-02
  9.648642e-01    1.785720e+00   2.532829e-02
  9.670747e-01    1.746972e+00   2.501741e-02
  9.692851e-01    1.781663e+00   2.523100e-02
  9.714956e-01    1.844153e+00   2.563347e-02
  9.737060e-01    1.867059e+00   2.575831e-02
  9.759165e-01    1.817819e+00   2.538054e-02
  9.781269e-01    1.796324e+00   2.519703e-02
  9.803374e-01    1.788571e+00   2.510781e-02
  9.825478e-01    1.828091e+00   2.535019e-02
  9.847583e-01    1.805395e+00   2.515816e-02
  9.869688e-01    1.755977e+00   2.477822e-02
  9.891792e-01    1.787115e+00   2.496372e-02
  9.913897e-01    1.768425e+00   2.479934e-02
  9.936001e-01    1.733182e+00   2.451883e-02
  9.958106e-01    1.743115e+00   2.455558e-02
  9.980210e-01    1.709256e+00   2.428436e-02
  1.000231e+00    1.715277e+00   2.446037e-02
  1.002442e+00    1.647704e+00   2.410110e-02
  1.004652e+00    1.644983e+00   2.414837e-02
  1.006863e+00    1.627546e+00   2.406988e-02
  1.009073e+00    1.595585e+00   2.386886e-02
  1.011284e+00    1.552827e+00   2.357833e-02
  1.013494e+00    1.573233e+00   2.375628e-02
  1.015705e+00    1.586368e+00   2.387780e-02
  1.017915e+00    1.620555e+00   2.415034e-02
  1.020126e+00    1.662456e+00   2.447711e-02
  1.022336e+00    1.597211e+00   2.400382e-02
  1.024547e+00    1.586043e+00   2.393109e-02
  1.026757e+00    1.541976e+00   2.360464e-02
  1.028967e+00    1.576122e+00   2.387232e-02
  1.031178e+00    1.539624e+00   2.360048e-02
  1.033388e+00    1.534604e+00   2.356702e-02
  1.035599e+00    1.559002e+00   2.375708e-02
  1.037809e+00    1.552183e+00   2.370838e-02
  1.040020e+00    1.490254e+00   2.323185e-02
  1.042230e+00    1.525103e+00   2.350385e-02
  1.044441e+00    1.510419e+00   2.339021e-02
  1.046651e+00    1.519437e+00   2.346013e-02
  1.048862e+00    1.463493e+00   2.302338e-02
  1.051072e+00    1.497076e+00   2.328369e-02
  1.053282e+00    1.499594e+00   2.330232e-02
  1.055493e+00    1.515713e+00   2.342288e-02
  1.057703e+00    1.509321e+00   2.337194e-02
  1.059914e+00    1.471719e+00   2.307471e-02
  1.062124e+00    1.543326e+00   2.362525e-02
  1.064335e+00    1.558634e+00   2.373865e-02
  1.066545e+00    1.560379e+00   2.374574e-02
  1.068756e+00    1.730013e+00   2.499911e-02
  1.070966e+00    1.949824e+00   2.653230e-02
  1.073177e+00    2.039105e+00   2.712588e-02
  1.075387e+00    1.865939e+00   2.594271e-02
  1.077597e+00    1.641374e+00   2.432390e-02
  1.079808e+00    1.698105e+00   2.459759e-02
  1.082018e+00    2.032218e+00   2.668607e-02
  1.084229e+00    1.908748e+00   2.573702e-02
  1.086439e+00    1.586518e+00   2.337295e-02
  1.088650e+00    1.459596e+00   2.234268e-02
  1.090860e+00    1.470610e+00   2.235878e-02
  1.093071e+00    1.452871e+00   2.216131e-02
  1.095281e+00    1.435046e+00   2.196791e-02
  1.097492e+00    1.407301e+00   2.170032e-02
  1.099702e+00    1.404271e+00   2.162620e-02
  1.101912e+00    1.425486e+00   2.174033e-02
  1.104123e+00    1.448498e+00   2.186668e-02
  1.106333e+00    1.404186e+00   2.148564e-02
  1.108544e+00    1.431700e+00   2.165082e-02
  1.110754e+00    1.403636e+00   2.139492e-02
  1.112965e+00    1.413051e+00   2.142613e-02
  1.115175e+00    1.405098e+00   2.132480e-02
  1.117386e+00    1.417611e+00   2.138023e-02
  1.119596e+00    1.417107e+00   2.133850e-02
  1.121807e+00    1.428216e+00   2.138289e-02
  1.124017e+00    1.392433e+00   2.107690e-02
  1.126228e+00    1.403851e+00   2.112736e-02
  1.128438e+00    1.382167e+00   2.092708e-02
  1.130648e+00    1.368812e+00   2.079174e-02
  1.132859e+00    1.380022e+00   2.084258e-02
  1.135069e+00    1.350640e+00   2.058529e-02
  1.137280e+00    1.360877e+00   2.063051e-02
  1.139490e+00    1.357995e+00   2.057594e-02
  1.141701e+00    1.367612e+00   2.061575e-02
  1.143911e+00    1.365244e+00   2.056624e-02
  1.146122e+00    1.388347e+00   2.070744e-02
  1.148332e+00    1.384457e+00   2.064646e-02
  1.150543e+00    1.381929e+00   2.059672e-02
  1.152753e+00    1.373785e+00   2.050513e-02
  1.154963e+00    1.376681e+00   2.049565e-02
  1.157174e+00    1.400975e+00   2.064522e-02
  1.159384e+00    1.432171e+00   2.084332e-02
  1.161595e+00    1.485177e+00   2.119446e-02
  1.163805e+00    1.510568e+00   2.134413e-02
  1.166016e+00    1.572754e+00   2.174745e-02
  1.168226e+00    1.686874e+00   2.249050e-02
  1.170437e+00    1.622358e+00   2.202506e-02
  1.172647e+00    1.533089e+00   2.137993e-02
  1.174858e+00    1.446206e+00   2.073633e-02
  1.177068e+00    1.380399e+00   2.023061e-02
  1.179278e+00    1.380629e+00   2.020349e-02
  1.181489e+00    1.414919e+00   2.042530e-02
  1.183699e+00    1.405410e+00   2.032852e-02
  1.185910e+00    1.390212e+00   2.019020e-02
  1.188120e+00    1.394026e+00   2.019083e-02
  1.190331e+00    1.355021e+00   1.987960e-02
  1.192541e+00    1.334734e+00   1.970304e-02
  1.194752e+00    1.333619e+00   1.966794e-02
  1.196962e+00    1.339056e+00   1.968237e-02
  1.199173e+00    1.340244e+00   1.966471e-02
  1.201383e+00    1.366197e+00   1.982685e-02
  1.203593e+00    1.349198e+00   1.967833e-02
  1.205804e+00    1.364985e+00   1.976704e-02
  1.208014e+00    1.357515e+00   1.968597e-02
  1.210225e+00    1.342771e+00   1.955350e-02
  1.212435e+00    1.362190e+00   1.966949e-02
  1.214646e+00    1.345943e+00   1.952578e-02
  1.216856e+00    1.323961e+00   1.934044e-02
  1.219067e+00    1.307226e+00   1.919374e-02
  1.221277e+00    1.308857e+00   1.918106e-02
  1.223488e+00    1.323771e+00   1.926453e-02
  1.225698e+00    1.352578e+00   1.944609e-02
  1.227909e+00    1.382207e+00   1.962739e-02
  1.230119e+00    1.450716e+00   2.007491e-02
  1.232329e+00    1.433779e+00   1.992575e-02
  1.234540e+00    1.379575e+00   1.951485e-02
  1.236750e+00    1.364725e+00   1.937910e-02
  1.238961e+00    1.360153e+00   1.931954e-02
  1.241171e+00    1.354659e+00   1.925625e-02
  1.243382e+00    1.349982e+00   1.919947e-02
  1.245592e+00    1.369687e+00   1.931480e-02
  1.247803e+00    1.341757e+00   1.909330e-02
  1.250013e+00    1.330792e+00   1.899173e-02
  1.252224e+00    1.313696e+00   1.884641e-02
  1.254434e+00    1.374926e+00   1.925665e-02
  1.256644e+00    1.364816e+00   1.916240e-02
  1.258855e+00    1.326289e+00   1.886696e-02
  1.261065e+00    1.323153e+00   1.882146e-02
  1.263276e+00    1.376628e+00   1.917488e-02
  1.265486e+00    1.345807e+00   1.893619e-02
  1.267697e+00    1.322633e+00   1.874964e-02
  1.269907e+00    1.340669e+00   1.885442e-02
  1.272118e+00    1.365652e+00   1.900659e-02
  1.274328e+00    1.365051e+00   1.897955e-02
  1.276539e+00    1.359884e+00   1.892072e-02
  1.278749e+00    1.355180e+00   1.886564e-02
  1.280959e+00    1.345062e+00   1.877258e-02
  1.283170e+00    1.355410e+00   1.882219e-02
  1.285380e+00    1.337692e+00   1.867642e-02
  1.287591e+00    1.330508e+00   1.860432e-02
  1.289801e+00    1.341346e+00   1.865878e-02
  1.292012e+00    1.351817e+00   1.871436e-02
  1.294222e+00    1.356559e+00   1.873088e-02
  1.296433e+00    1.372203e+00   1.882284e-02
  1.298643e+00    1.375932e+00   1.883179e-02
  1.300854e+00    1.347736e+00   1.862142e-02
  1.303064e+00    1.389663e+00   1.888934e-02
  1.305274e+00    1.465244e+00   1.937388e-02
  1.307485e+00    1.464188e+00   1.934449e-02
  1.309695e+00    1.428167e+00   1.908218e-02
  1.311906e+00    1.396818e+00   1.884951e-02
  1.314116e+00    1.372615e+00   1.866451e-02
  1.316327e+00    1.358995e+00   1.854993e-02
  1.318537e+00    1.342346e+00   1.841411e-02
  1.320748e+00    1.365979e+00   1.855382e-02
  1.322958e+00    1.374536e+00   1.859114e-02
  1.325169e+00    1.382338e+00   1.862256e-02
  1.327379e+00    1.366322e+00   1.849242e-02
  1.329589e+00    1.372239e+00   1.851118e-02
  1.331800e+00    1.373787e+00   1.850074e-02
  1.334010e+00    1.372955e+00   1.847432e-02
  1.336221e+00    1.347245e+00   1.827878e-02
  1.338431e+00    1.369312e+00   1.840685e-02
  1.340642e+00    1.355785e+00   1.838002e-02
  1.342852e+00    1.358789e+00   1.850137e-02
  1.345063e+00    1.370149e+00   1.862840e-02
  1.347273e+00    1.357252e+00   1.857586e-02
  1.349484e+00    1.347485e+00   1.853657e-02
  1.351694e+00    1.341653e+00   1.851902e-02
  1.353905e+00    1.343167e+00   1.854745e-02
  1.356115e+00    1.327579e+00   1.845441e-02
  1.358325e+00    1.343229e+00   1.857615e-02
  1.360536e+00    1.337387e+00   1.854729e-02
  1.362746e+00    1.316935e+00   1.841436e-02
  1.364957e+00    1.321498e+00   1.845383e-02
  1.367167e+00    1.328193e+00   1.850761e-02
  1.369378e+00    1.307951e+00   1.837199e-02
  1.371588e+00    1.282262e+00   1.819567e-02
  1.373799e+00    1.323276e+00   1.848803e-02
  1.376009e+00    1.324453e+00   1.849962e-02
  1.378220e+00    1.330333e+00   1.854317e-02
  1.380430e+00    1.322917e+00   1.849411e-02
  1.382640e+00    1.329755e+00   1.854276e-02
  1.384851e+00    1.306450e+00   1.838043e-02
  1.387061e+00    1.291989e+00   1.827871e-02
  1.389272e+00    1.302701e+00   1.835453e-02
  1.391482e+00    1.275744e+00   1.816297e-02
  1.393693e+00    1.278231e+00   1.817979e-02
  1.395903e+00    1.275078e+00   1.815586e-02
  1.398114e+00    1.296707e+00   1.830780e-02
  1.400324e+00    1.306193e+00   1.837251e-02
  1.402535e+00    1.291636e+00   1.826752e-02
  1.404745e+00    1.275598e+00   1.815137e-02
  1.406955e+00    1.305089e+00   1.835729e-02
  1.409166e+00    1.267227e+00   1.808575e-02
  1.411376e+00    1.258292e+00   1.801877e-02
  1.413587e+00    1.266006e+00   1.807010e-02
  1.415797e+00    1.291694e+00   1.824892e-02
  1.418008e+00    1.301633e+00   1.827664e-02
  1.420218e+00    1.282325e+00   1.799012e-02
  1.422429e+00    1.263741e+00   1.777419e-02
  1.424639e+00    1.252852e+00   1.763318e-02
  1.426850e+00    1.258600e+00   1.761913e-02
  1.429060e+00    1.277588e+00   1.770240e-02
  1.431270e+00    1.279354e+00   1.767018e-02
  1.433481e+00    1.270667e+00   1.756910e-02
  1.435691e+00    1.304542e+00   1.776280e-02
  1.437902e+00    1.347210e+00   1.801339e-02
  1.440112e+00    1.326928e+00   1.784118e-02
  1.442323e+00    1.297126e+00   1.760630e-02
  1.444533e+00    1.262015e+00   1.733392e-02
  1.446744e+00    1.236278e+00   1.712554e-02
  1.448954e+00    1.258002e+00   1.724530e-02
  1.451165e+00    1.251686e+00   1.717242e-02
  1.453375e+00    1.269115e+00   1.726350e-02
  1.455586e+00    1.291513e+00   1.738681e-02
  1.457796e+00    1.249541e+00   1.707466e-02
  1.460006e+00    1.287876e+00   1.730713e-02
  1.462217e+00    1.287368e+00   1.727733e-02
  1.464427e+00    1.285412e+00   1.723844e-02
  1.466638e+00    1.273850e+00   1.713536e-02
  1.468848e+00    1.276269e+00   1.712622e-02
  1.471059e+00    1.276862e+00   1.710504e-02
  1.473269e+00    1.249179e+00   1.689442e-02
  1.475480e+00    1.251491e+00   1.688643e-02
  1.477690e+00    1.268325e+00   1.697578e-02
  1.479901e+00    1.286867e+00   1.707541e-02
  1.482111e+00    1.269117e+00   1.693391e-02
  1.484321e+00    1.255263e+00   1.681822e-02
  1.486532e+00    1.259188e+00   1.682221e-02
  1.488742e+00    1.253031e+00   1.675850e-02
  1.490953e+00    1.242868e+00   1.666798e-02
  1.493163e+00    1.285750e+00   1.693060e-02
  1.495374e+00    1.261964e+00   1.675181e-02
  1.497584e+00    1.272120e+00   1.679732e-02
  1.499795e+00    1.276655e+00   1.680545e-02
  1.502005e+00    1.249648e+00   1.660514e-02
  1.504216e+00    1.274566e+00   1.674872e-02
  1.506426e+00    1.273906e+00   1.672344e-02
  1.508636e+00    1.240645e+00   1.648338e-02
  1.510847e+00    1.259641e+00   1.658721e-02
  1.513057e+00    1.260232e+00   1.656599e-02
  1.515268e+00    1.280482e+00   1.667258e-02
  1.517478e+00    1.265923e+00   1.655225e-02
  1.519689e+00    1.299301e+00   1.674363e-02
  1.521899e+00    1.295127e+00   1.669324e-02
  1.524110e+00    1.290548e+00   1.664308e-02
  1.526320e+00    1.256582e+00   1.640296e-02
  1.528531e+00    1.283245e+00   1.655605e-02
  1.530741e+00    1.279715e+00   1.651391e-02
  1.532951e+00    1.249785e+00   1.630007e-02
  1.535162e+00    1.255776e+00   1.642589e-02
  1.537372e+00    1.266465e+00   1.656302e-02
  1.539583e+00    1.269126e+00   1.661493e-02
  1.541793e+00    1.275769e+00   1.666538e-02
  1.544004e+00    1.276119e+00   1.666795e-02
  1.546214e+00    1.248997e+00   1.648835e-02
  1.548425e+00    1.249117e+00   1.648941e-02
  1.550635e+00    1.252628e+00   1.652226e-02
  1.552846e+00    1.258242e+00   1.656897e-02
  1.555056e+00    1.246268e+00   1.644843e-02
  1.557266e+00    1.240825e+00   1.630217e-02
  1.559477e+00    1.256744e+00   1.634700e-02
  1.561687e+00    1.279100e+00   1.646067e-02
  1.563898e+00    1.285050e+00   1.648148e-02
  1.566108e+00    1.290106e+00   1.649761e-02
  1.568319e+00    1.303100e+00   1.656451e-02
  1.570529e+00    1.280241e+00   1.639310e-02
  1.572740e+00    1.262513e+00   1.625137e-02
  1.574950e+00    1.265006e+00   1.624088e-02
  1.577161e+00    1.250996e+00   1.612517e-02
  1.579371e+00    1.268226e+00   1.621192e-02
  1.581582e+00    1.264140e+00   1.616588e-02
  1.583792e+00    1.256363e+00   1.609796e-02
  1.586002e+00    1.260344e+00   1.610571e-02
  1.588213e+00    1.259876e+00   1.608538e-02
  1.590423e+00    1.248571e+00   1.599293e-02
  1.592634e+00    1.259183e+00   1.603900e-02
  1.594844e+00    1.254155e+00   1.598545e-02
  1.597055e+00    1.258348e+00   1.599153e-02
  1.599265e+00    1.242173e+00   1.586770e-02
  1.601476e+00    1.241888e+00   1.584555e-02
  1.603686e+00    1.213065e+00   1.564106e-02
  1.605897e+00    1.218420e+00   1.565553e-02
  1.608107e+00    1.233593e+00   1.573320e-02
  1.610317e+00    1.226267e+00   1.566718e-02
  1.612528e+00    1.223676e+00   1.563154e-02
  1.614738e+00    1.221891e+00   1.560124e-02
  1.616949e+00    1.218010e+00   1.555756e-02
  1.619159e+00    1.198689e+00   1.541513e-02
  1.621370e+00    1.212685e+00   1.548643e-02
  1.623580e+00    1.234964e+00   1.560957e-02
  1.625791e+00    1.182300e+00   1.525507e-02
  1.628001e+00    1.188642e+00   1.527775e-02
  1.630212e+00    1.191570e+00   1.527882e-02
  1.632422e+00    1.194693e+00   1.528087e-02
  1.634632e+00    1.178186e+00   1.515767e-02
  1.636843e+00    1.154811e+00   1.498918e-02
  1.639053e+00    1.162241e+00   1.502011e-02
  1.641264e+00    1.151548e+00   1.493389e-02
  1.643474e+00    1.154431e+00   1.493525e-02
  1.645685e+00    1.177737e+00   1.506843e-02
  1.647895e+00    1.192200e+00   1.514383e-02
  1.650106e+00    1.177326e+00   1.503189e-02
  1.652316e+00    1.131176e+00   1.471796e-02
  1.654527e+00    1.121818e+00   1.464043e-02
  1.656737e+00    1.124049e+00   1.463850e-02
  1.658947e+00    1.130324e+00   1.466305e-02
  1.661158e+00    1.106080e+00   1.448882e-02
  1.663368e+00    1.107455e+00   1.448190e-02
  1.665579e+00    1.136052e+00   1.465143e-02
  1.667789e+00    1.104972e+00   1.443346e-02
  1.670000e+00    1.114454e+00   1.447977e-02
  1.672210e+00    1.110951e+00   1.444109e-02
  1.674421e+00    1.086128e+00   1.426366e-02
  1.676631e+00    1.081775e+00   1.421932e-02
  1.678842e+00    1.073338e+00   1.414817e-02
  1.681052e+00    1.092450e+00   1.425818e-02
  1.683263e+00    1.095165e+00   1.426074e-02
  1.685473e+00    1.076153e+00   1.412134e-02
  1.687683e+00    1.052752e+00   1.395174e-02
  1.689894e+00    1.049671e+00   1.391576e-02
  1.692104e+00    1.063912e+00   1.399501e-02
  1.694315e+00    1.081839e+00   1.409787e-02
  1.696525e+00    1.060329e+00   1.394193e-02
  1.698736e+00    1.059805e+00   1.392369e-02
  1.700946e+00    1.061182e+00   1.391757e-02
  1.703157e+00    1.090673e+00   1.409480e-02
  1.705367e+00    1.078983e+00   1.400436e-02
  1.707578e+00    1.035356e+00   1.370385e-02
  1.709788e+00    1.042993e+00   1.374021e-02
  1.711998e+00    1.009773e+00   1.350485e-02
  1.714209e+00    9.949446e-01   1.339119e-02
  1.716419e+00    9.900932e-01   1.334453e-02
  1.718630e+00    1.019522e+00   1.352721e-02
  1.720840e+00    1.018023e+00   1.350317e-02
  1.723051e+00    9.870791e-01   1.328276e-02
  1.725261e+00    9.774615e-01   1.320350e-02
  1.727472e+00    1.008124e+00   1.339490e-02
  1.729682e+00    9.961469e-01   1.330177e-02
  1.731893e+00    1.001641e+00   1.332456e-02
  1.734103e+00    9.997866e-01   1.329849e-02
  1.736313e+00    1.036048e+00   1.352327e-02
  1.738524e+00    1.068679e+00   1.372033e-02
  1.740734e+00    1.024818e+00   1.342196e-02
  1.742945e+00    1.056364e+00   1.361308e-02
  1.745155e+00    1.138840e+00   1.412012e-02
  1.747366e+00    1.095083e+00   1.383169e-02
  1.749576e+00    1.028746e+00   1.339224e-02
  1.751787e+00    9.842044e-01   1.308575e-02
  1.753997e+00    9.861314e-01   1.308512e-02
  1.756208e+00    1.009014e+00   1.322263e-02
  1.758418e+00    1.006972e+00   1.319592e-02
  1.760628e+00    9.612477e-01   1.287954e-02
  1.762839e+00    9.418560e-01   1.273591e-02
  1.765049e+00    9.168739e-01   1.255306e-02
  1.767260e+00    9.176525e-01   1.254584e-02
  1.769470e+00    9.298782e-01   1.261633e-02
  1.771681e+00    9.370130e-01   1.265161e-02
  1.773891e+00    9.279034e-01   1.257707e-02
  1.776102e+00    9.573461e-01   1.276209e-02
  1.778312e+00    9.356673e-01   1.260413e-02
  1.780523e+00    9.179597e-01   1.247170e-02
  1.782733e+00    9.243221e-01   1.250227e-02
  1.784944e+00    9.206010e-01   1.246428e-02
  1.787154e+00    9.233438e-01   1.247038e-02
  1.789364e+00    9.236220e-01   1.245981e-02
  1.791575e+00    9.248237e-01   1.245539e-02
  1.793785e+00    9.681133e-01   1.273085e-02
  1.795996e+00    1.052705e+00   1.326198e-02
  1.798206e+00    1.241287e+00   1.438642e-02
  1.800417e+00    1.193926e+00   1.409493e-02
  1.802627e+00    1.052858e+00   1.322321e-02
  1.804838e+00    9.928097e-01   1.282797e-02
  1.807048e+00    9.350038e-01   1.243588e-02
  1.809259e+00    9.598549e-01   1.258605e-02
  1.811469e+00    9.478252e-01   1.249166e-02
  1.813679e+00    8.939123e-01   1.211625e-02
  1.815890e+00    8.940917e-01   1.210276e-02
  1.818100e+00    8.979492e-01   1.211371e-02
  1.820311e+00    8.964636e-01   1.208891e-02
  1.822521e+00    9.148284e-01   1.219705e-02
  1.824732e+00    8.977348e-01   1.206769e-02
  1.826942e+00    8.805702e-01   1.193947e-02
  1.829153e+00    8.665473e-01   1.183245e-02
  1.831363e+00    9.025369e-01   1.206350e-02
  1.833574e+00    9.587073e-01   1.242101e-02
  1.835784e+00    1.002783e+00   1.269120e-02
  1.837994e+00    9.097701e-01   1.207638e-02
  1.840205e+00    8.617219e-01   1.174203e-02
  1.842415e+00    8.608921e-01   1.172468e-02
  1.844626e+00    8.794901e-01   1.183902e-02
  1.846836e+00    8.661534e-01   1.173753e-02
  1.849047e+00    8.530599e-01   1.163693e-02
  1.851257e+00    8.528742e-01   1.162615e-02
  1.853468e+00    8.496025e-01   1.159509e-02
  1.855678e+00    8.576925e-01   1.164131e-02
  1.857889e+00    8.551995e-01   1.161588e-02
  1.860099e+00    8.657202e-01   1.167846e-02
  1.862309e+00    8.337181e-01   1.145217e-02
  1.864520e+00    8.465030e-01   1.153110e-02
  1.866730e+00    8.577282e-01   1.159793e-02
  1.868941e+00    8.465977e-01   1.151151e-02
  1.871151e+00    8.486444e-01   1.151406e-02
  1.873362e+00    8.317611e-01   1.138773e-02
  1.875572e+00    8.358873e-01   1.140508e-02
  1.877783e+00    8.258147e-01   1.132488e-02
  1.879993e+00    8.357699e-01   1.138185e-02
  1.882204e+00    8.584242e-01   1.152408e-02
  1.884414e+00    8.686431e-01   1.158124e-02
  1.886624e+00    8.576702e-01   1.149673e-02
  1.888835e+00    8.411813e-01   1.137469e-02
  1.891045e+00    8.260870e-01   1.126139e-02
  1.893256e+00    8.343510e-01   1.130649e-02
  1.895466e+00    8.330979e-01   1.128688e-02
  1.897677e+00    8.294253e-01   1.125108e-02
  1.899887e+00    8.217182e-01   1.118780e-02
  1.902098e+00    7.991545e-01   1.102249e-02
  1.904308e+00    8.203162e-01   1.115694e-02
  1.906519e+00    8.390192e-01   1.127252e-02
  1.908729e+00    8.458066e-01   1.130733e-02
  1.910940e+00    8.313663e-01   1.119922e-02
  1.913150e+00    8.513630e-01   1.132237e-02
  1.915360e+00    8.449587e-01   1.126895e-02
  1.917571e+00    8.362545e-01   1.119980e-02
  1.919781e+00    8.434299e-01   1.123688e-02
  1.921992e+00    8.950347e-01   1.156447e-02
  1.924202e+00    8.883354e-01   1.150990e-02
  1.926413e+00    8.483300e-01   1.123727e-02
  1.928623e+00    8.148607e-01   1.100280e-02
  1.930834e+00    8.195573e-01   1.102397e-02
  1.933044e+00    8.120798e-01   1.096292e-02
  1.935255e+00    7.982993e-01   1.085924e-02
  1.937465e+00    8.010933e-01   1.086786e-02
  1.939675e+00    7.948155e-01   1.081445e-02
  1.941886e+00    7.965578e-01   1.081605e-02
  1.944096e+00    8.084973e-01   1.088660e-02
  1.946307e+00    7.821815e-01   1.069777e-02
  1.948517e+00    7.866616e-01   1.071798e-02
  1.950728e+00    7.834822e-01   1.068616e-02
  1.952938e+00    7.828732e-01   1.067202e-02
  1.955149e+00    7.743875e-01   1.060392e-02
  1.957359e+00    7.932671e-01   1.072238e-02
  1.959570e+00    7.709504e-01   1.055979e-02
  1.961780e+00    7.675081e-01   1.052640e-02
  1.963990e+00    7.743905e-01   1.056351e-02
  1.966201e+00    7.765350e-01   1.056816e-02
  1.968411e+00    7.648700e-01   1.047848e-02
  1.970622e+00    7.776037e-01   1.055531e-02
  1.972832e+00    7.804599e-01   1.056476e-02
  1.975043e+00    7.900776e-01   1.061959e-02
  1.977253e+00    7.720010e-01   1.048753e-02
  1.979464e+00    7.905607e-01   1.060276e-02
  1.981674e+00    7.880945e-01   1.057593e-02
  1.983885e+00    7.864978e-01   1.055515e-02
  1.986095e+00    7.579635e-01   1.035236e-02
  1.988305e+00    7.755011e-01   1.046156e-02
  1.990516e+00    7.768752e-01   1.046090e-02
  1.992726e+00    7.802312e-01   1.047381e-02
  1.994937e+00    7.648284e-01   1.035986e-02
  1.997147e+00    7.805908e-01   1.045630e-02
  1.999358e+00    7.751051e-01   1.040965e-02
  2.001568e+00    7.790843e-01   1.042548e-02
  2.003779e+00    7.687153e-01   1.034398e-02
  2.005989e+00    7.723722e-01   1.035654e-02
  2.008200e+00    7.649766e-01   1.029533e-02
  2.010410e+00    7.697428e-01   1.031562e-02
  2.012621e+00    7.606845e-01   1.024309e-02
  2.014831e+00    7.720754e-01   1.030799e-02
  2.017041e+00    7.651290e-01   1.025115e-02
  2.019252e+00    7.606437e-01   1.021113e-02
  2.021462e+00    7.724391e-01   1.028045e-02
  2.023673e+00    7.492561e-01   1.011571e-02
  2.025883e+00    7.583482e-01   1.016740e-02
  2.028094e+00    7.560732e-01   1.014254e-02
  2.030304e+00    7.562205e-01   1.013403e-02
  2.032515e+00    7.642451e-01   1.017833e-02
  2.034725e+00    7.540760e-01   1.010098e-02
  2.036936e+00    7.598283e-01   1.013008e-02
  2.039146e+00    7.675683e-01   1.017191e-02
  2.041356e+00    7.665725e-01   1.015560e-02
  2.043567e+00    7.687669e-01   1.016075e-02
  2.045777e+00    7.672719e-01   1.014153e-02
  2.047988e+00    7.634495e-01   1.010684e-02
  2.050198e+00    7.524983e-01   1.002564e-02
  2.052409e+00    7.502720e-01   1.000316e-02
  2.054619e+00    7.526435e-01   1.001158e-02
  2.056830e+00    7.554682e-01   1.002315e-02
  2.059040e+00    7.658272e-01   1.008405e-02
  2.061251e+00    7.508925e-01   9.977991e-03
  2.063461e+00    7.455392e-01   9.934785e-03
  2.065671e+00    7.456495e-01   9.926802e-03
  2.067882e+00    7.597528e-01   1.001119e-02
  2.070092e+00    7.524966e-01   9.954028e-03
  2.072303e+00    7.485383e-01   9.918667e-03
  2.074513e+00    7.511958e-01   9.926907e-03
  2.076724e+00    7.296822e-01   9.774359e-03
  2.078934e+00    7.448462e-01   9.866364e-03
  2.081145e+00    7.457256e-01   9.863113e-03
  2.083355e+00    7.443199e-01   9.844599e-03
  2.085566e+00    7.459167e-01   9.846245e-03
  2.087776e+00    7.309201e-01   9.737291e-03
  2.089986e+00    7.345218e-01   9.752502e-03
  2.092197e+00    7.330127e-01   9.733540e-03
  2.094407e+00    7.420229e-01   9.783912e-03
  2.096618e+00    7.427077e-01   9.779496e-03
  2.098828e+00    7.490665e-01   9.811861e-03
  2.101039e+00    7.253071e-01   9.646081e-03
  2.103249e+00    7.255411e-01   9.638974e-03
  2.105460e+00    7.302027e-01   9.660892e-03
  2.107670e+00    7.214164e-01   9.593896e-03
  2.109881e+00    7.146834e-01   9.539936e-03
  2.112091e+00    7.155857e-01   9.537047e-03
  2.114301e+00    7.037324e-01   9.449054e-03
  2.116512e+00    7.199908e-01   9.548808e-03
  2.118722e+00    7.214075e-01   9.549384e-03
  2.120933e+00    7.135549e-01   9.488459e-03
  2.123143e+00    7.152609e-01   9.490889e-03
  2.125354e+00    7.110887e-01   9.454698e-03
  2.127564e+00    7.136040e-01   9.462675e-03
  2.129775e+00    7.250262e-01   9.529324e-03
  2.131985e+00    7.296652e-01   9.550621e-03
  2.134196e+00    6.997064e-01   9.343992e-03
  2.136406e+00    6.986474e-01   9.328252e-03
  2.138617e+00    6.993715e-01   9.324693e-03
  2.140827e+00    7.139584e-01   9.437550e-03
  2.143037e+00    7.110085e-01   9.463641e-03
  2.145248e+00    6.949234e-01   9.377813e-03
  2.147458e+00    7.004984e-01   9.430449e-03
  2.149669e+00    6.821746e-01   9.317973e-03
  2.151879e+00    6.870210e-01   9.360115e-03
  2.154090e+00    7.010089e-01   9.462251e-03
  2.156300e+00    6.966360e-01   9.439275e-03
  2.158511e+00    7.009066e-01   9.473473e-03
  2.160721e+00    6.817908e-01   9.348160e-03
  2.162932e+00    6.989612e-01   9.468865e-03
  2.165142e+00    6.937620e-01   9.436621e-03
  2.167352e+00    6.923577e-01   9.429960e-03
  2.169563e+00    6.794505e-01   9.343584e-03
  2.171773e+00    6.869799e-01   9.397623e-03
  2.173984e+00    6.997554e-01   9.486042e-03
  2.176194e+00    7.028793e-01   9.508396e-03
  2.178405e+00    7.002162e-01   9.491074e-03
  2.180615e+00    6.974514e-01   9.472994e-03
  2.182826e+00    7.033345e-01   9.513560e-03
  2.185036e+00    6.961907e-01   9.465167e-03
  2.187247e+00    6.925102e-01   9.440072e-03
  2.189457e+00    6.704656e-01   9.288200e-03
  2.191667e+00    6.732419e-01   9.307223e-03
  2.193878e+00    6.870174e-01   9.401388e-03
  2.196088e+00    6.993170e-01   9.484507e-03
  2.198299e+00    7.025594e-01   9.505349e-03
  2.200509e+00    6.869900e-01   9.398384e-03
  2.202720e+00    6.856700e-01   9.388191e-03
  2.204930e+00    6.799057e-01   9.347418e-03
  2.207141e+00    6.721515e-01   9.292832e-03
  2.209351e+00    6.850835e-01   9.379925e-03
  2.211562e+00    6.812081e-01   9.351732e-03
  2.213772e+00    6.721097e-01   9.233783e-03
  2.215982e+00    6.703550e-01   9.177698e-03
  2.218193e+00    6.648387e-01   9.110459e-03
  2.220403e+00    6.728356e-01   9.140533e-03
  2.222614e+00    6.715826e-01   9.111110e-03
  2.224824e+00    6.797401e-01   9.146787e-03
  2.227035e+00    6.931000e-01   9.218561e-03
  2.229245e+00    6.659756e-01   9.019475e-03
  2.231456e+00    6.658718e-01   9.003207e-03
  2.233666e+00    6.848768e-01   9.115537e-03
  2.235877e+00    6.735853e-01   9.025794e-03
  2.238087e+00    6.757110e-01   9.026479e-03
  2.240298e+00    6.695621e-01   8.971547e-03
  2.242508e+00    6.724454e-01   8.975674e-03
  2.244718e+00    6.705025e-01   8.946872e-03
  2.246929e+00    6.660432e-01   8.902662e-03
  2.249139e+00    6.771498e-01   8.964124e-03
  2.251350e+00    6.628651e-01   8.857398e-03
  2.253560e+00    6.602391e-01   8.828321e-03
  2.255771e+00    6.747709e-01   8.913456e-03
  2.257981e+00    6.793979e-01   8.932679e-03
  2.260192e+00    6.556693e-01   8.764261e-03
  2.262402e+00    6.853329e-01   8.949286e-03
  2.264613e+00    6.890692e-01   8.962611e-03
  2.266823e+00    6.867698e-01   8.937088e-03
  2.269033e+00    6.794453e-01   8.878772e-03
  2.271244e+00    6.798093e-01   8.870623e-03
  2.273454e+00    7.345120e-01   9.209780e-03
  2.275665e+00    7.530835e-01   9.314544e-03
  2.277875e+00    7.284389e-01   9.150464e-03
  2.280086e+00    6.761430e-01   8.805703e-03
  2.282296e+00    6.688790e-01   8.748783e-03
  2.284507e+00    6.721480e-01   8.759920e-03
  2.286717e+00    6.588494e-01   8.663349e-03
  2.288928e+00    6.477742e-01   8.580425e-03
  2.291138e+00    6.540200e-01   8.612291e-03
  2.293348e+00    6.437305e-01   8.534816e-03
  2.295559e+00    6.511284e-01   8.574436e-03
  2.297769e+00    6.653072e-01   8.657970e-03
  2.299980e+00    6.458045e-01   8.520856e-03
  2.302190e+00    6.411194e-01   8.480838e-03
  2.304401e+00    6.514597e-01   8.539648e-03
  2.306611e+00    6.374722e-01   8.438389e-03
  2.308822e+00    6.523668e-01   8.527959e-03
  2.311032e+00    6.813574e-01   8.708830e-03
  2.313243e+00    6.641112e-01   8.591565e-03
  2.315453e+00    6.543835e-01   8.520798e-03
  2.317663e+00    6.457438e-01   8.455249e-03
  2.319874e+00    6.359050e-01   8.381937e-03
  2.322084e+00    6.386073e-01   8.390806e-03
  2.324295e+00    6.408028e-01   8.397016e-03
  2.326505e+00    6.549746e-01   8.480238e-03
  2.328716e+00    6.363518e-01   8.350315e-03
  2.330926e+00    6.367905e-01   8.344437e-03
  2.333137e+00    6.490628e-01   8.416031e-03
  2.335347e+00    6.486146e-01   8.404220e-03
  2.337558e+00    6.395016e-01   8.336742e-03
  2.339768e+00    6.381047e-01   8.319058e-03
  2.341979e+00    6.505238e-01   8.391195e-03
  2.344189e+00    6.407394e-01   8.319446e-03
  2.346399e+00    6.283155e-01   8.229926e-03
  2.348610e+00    6.398491e-01   8.296650e-03
  2.350820e+00    6.378285e-01   8.275327e-03
  2.353031e+00    6.407108e-01   8.285693e-03
  2.355241e+00    6.240490e-01   8.169246e-03
  2.357452e+00    6.197687e-01   8.132845e-03
  2.359662e+00    6.444974e-01   8.285183e-03
  2.361873e+00    6.236086e-01   8.141654e-03
  2.364083e+00    6.303532e-01   8.177544e-03
  2.366294e+00    6.331825e-01   8.187744e-03
  2.368504e+00    6.320424e-01   8.172259e-03
  2.370714e+00    6.227851e-01   8.104150e-03
  2.372925e+00    6.338925e-01   8.167992e-03
  2.375135e+00    6.284995e-01   8.125096e-03
  2.377346e+00    6.031097e-01   7.951464e-03
  2.379556e+00    6.299408e-01   8.118462e-03
  2.381767e+00    6.204830e-01   8.049442e-03
  2.383977e+00    6.280637e-01   8.090487e-03
  2.386188e+00    6.111367e-01   7.972851e-03
  2.388398e+00    6.189544e-01   8.015718e-03
  2.390609e+00    6.200841e-01   8.015296e-03
  2.392819e+00    6.159511e-01   7.980761e-03
  2.395029e+00    6.162066e-01   7.974760e-03
  2.397240e+00    6.202291e-01   7.992826e-03
  2.399450e+00    6.279172e-01   8.034319e-03
  2.401661e+00    6.283830e-01   8.029530e-03
  2.403871e+00    6.135802e-01   7.926610e-03
  2.406082e+00    6.118188e-01   7.907784e-03
  2.408292e+00    6.088865e-01   7.881007e-03
  2.410503e+00    6.316053e-01   8.019060e-03
  2.412713e+00    6.071029e-01   7.854197e-03
  2.414924e+00    6.055942e-01   7.836934e-03
  2.417134e+00    6.187834e-01   7.914098e-03
  2.419344e+00    6.100367e-01   7.850521e-03
  2.421555e+00    6.036268e-01   7.801637e-03
  2.423765e+00    5.993309e-01   7.766437e-03
  2.425976e+00    5.947997e-01   7.729240e-03
  2.428186e+00    5.924374e-01   7.706715e-03
  2.430397e+00    5.662668e-01   7.527272e-03
  2.432607e+00    5.895084e-01   7.672938e-03
  2.434818e+00    5.978295e-01   7.719365e-03
  2.437028e+00    5.876278e-01   7.646103e-03
  2.439239e+00    5.819344e-01   7.601400e-03
  2.441449e+00    5.924149e-01   7.662323e-03
  2.443659e+00    5.879197e-01   7.625889e-03
  2.445870e+00    5.793969e-01   7.582553e-03
  2.448080e+00    5.692043e-01   7.549952e-03
  2.450291e+00    5.768340e-01   7.616966e-03
  2.452501e+00    5.667263e-01   7.561023e-03
  2.454712e+00    5.753273e-01   7.626630e-03
  2.456922e+00    5.645160e-01   7.561217e-03
  2.459133e+00    5.588800e-01   7.528759e-03
  2.461343e+00    5.587046e-01   7.531896e-03
  2.463554e+00    5.589076e-01   7.536731e-03
  2.465764e+00    5.491300e-01   7.473598e-03
  2.467975e+00    5.489643e-01   7.474738e-03
  2.470185e+00    5.680214e-01   7.605641e-03
  2.472395e+00    5.627874e-01   7.571763e-03
  2.474606e+00    5.471807e-01   7.467589e-03
  2.476816e+00    5.384961e-01   7.408812e-03
  2.479027e+00    5.521979e-01   7.503313e-03
  2.481237e+00    5.596533e-01   7.554095e-03
  2.483448e+00    5.516878e-01   7.500440e-03
  2.485658e+00    5.555476e-01   7.526490e-03
  2.487869e+00    5.521835e-01   7.503714e-03
  2.490079e+00    5.376300e-01   7.403644e-03
  2.492290e+00    5.340446e-01   7.378483e-03
  2.494500e+00    5.357460e-01   7.389496e-03
  2.496710e+00    5.484007e-01   7.475546e-03
  2.498921e+00    5.459556e-01   7.457879e-03
  2.501131e+00    5.357612e-01   7.386979e-03
  2.503342e+00    5.271352e-01   7.325993e-03
  2.505552e+00    5.393234e-01   7.409072e-03
  2.507763e+00    5.158911e-01   7.244936e-03
  2.509973e+00    5.293573e-01   7.337465e-03
  2.512184e+00    5.360330e-01   7.381991e-03
  2.514394e+00    5.305830e-01   7.334954e-03
  2.516605e+00    5.367925e-01   7.330242e-03
  2.518815e+00    5.292517e-01   7.250157e-03
  2.521025e+00    5.375060e-01   7.285270e-03
  2.523236e+00    5.350408e-01   7.250410e-03
  2.525446e+00    5.368174e-01   7.246650e-03
  2.527657e+00    5.298234e-01   7.184648e-03
  2.529867e+00    5.283157e-01   7.160169e-03
  2.532078e+00    5.364287e-01   7.199741e-03
  2.534288e+00    5.234911e-01   7.098531e-03
  2.536499e+00    5.242922e-01   7.092019e-03
  2.538709e+00    5.247488e-01   7.084099e-03
  2.540920e+00    5.474706e-01   7.224959e-03
  2.543130e+00    5.507311e-01   7.235842e-03
  2.545340e+00    5.386654e-01   7.145923e-03
  2.547551e+00    5.219408e-01   7.024195e-03
  2.549761e+00    5.048377e-01   6.898721e-03
  2.551972e+00    5.026492e-01   6.874571e-03
  2.554182e+00    5.142716e-01   6.944462e-03
  2.556393e+00    5.172506e-01   6.955507e-03
  2.558603e+00    5.244148e-01   6.994386e-03
  2.560814e+00    5.229863e-01   6.976139e-03
  2.563024e+00    5.358950e-01   7.052979e-03
  2.565235e+00    5.281621e-01   6.992343e-03
  2.567445e+00    5.030789e-01   6.814857e-03
  2.569656e+00    5.109802e-01   6.858496e-03
  2.571866e+00    5.152864e-01   6.877986e-03
  2.574076e+00    5.100535e-01   6.833780e-03
  2.576287e+00    5.182551e-01   6.880156e-03
  2.578497e+00    5.005429e-01   6.753850e-03
  2.580708e+00    5.029662e-01   6.762179e-03
  2.582918e+00    5.032687e-01   6.756535e-03
  2.585129e+00    5.059242e-01   6.766654e-03
  2.587339e+00    5.123096e-01   6.801566e-03
  2.589550e+00    4.968292e-01   6.690575e-03
  2.591760e+00    5.022674e-01   6.719421e-03
  2.593971e+00    5.199552e-01   6.829139e-03
  2.596181e+00    5.131997e-01   6.778395e-03
  2.598391e+00    5.185373e-01   6.808328e-03
  2.600602e+00    5.175106e-01   6.795621e-03
  2.602812e+00    5.197433e-01   6.802651e-03
  2.605023e+00    5.083995e-01   6.720849e-03
  2.607233e+00    5.028256e-01   6.676787e-03
  2.609444e+00    5.013347e-01   6.659710e-03
  2.611654e+00    5.005993e-01   6.647530e-03
  2.613865e+00    4.982415e-01   6.624891e-03
  2.616075e+00    5.167080e-01   6.739314e-03
  2.618286e+00    5.044507e-01   6.651926e-03
  2.620496e+00    5.063349e-01   6.657631e-03
  2.622706e+00    5.160000e-01   6.715061e-03
  2.624917e+00    5.084746e-01   6.660056e-03
  2.627127e+00    5.065951e-01   6.641963e-03
  2.629338e+00    5.130299e-01   6.677989e-03
  2.631548e+00    5.091337e-01   6.646378e-03
  2.633759e+00    5.104897e-01   6.648015e-03
  2.635969e+00    5.158536e-01   6.676066e-03
  2.638180e+00    5.015602e-01   6.575976e-03
  2.640390e+00    4.903109e-01   6.495238e-03
  2.642601e+00    4.940438e-01   6.513318e-03
  2.644811e+00    4.953441e-01   6.514840e-03
  2.647021e+00    4.907600e-01   6.478128e-03
  2.649232e+00    4.849634e-01   6.433122e-03
  2.651442e+00    4.998376e-01   6.524522e-03
  2.653653e+00    5.013679e-01   6.527702e-03
  2.655863e+00    5.126621e-01   6.594037e-03
  2.658074e+00    4.976344e-01   6.490072e-03
  2.660284e+00    4.984700e-01   6.489149e-03
  2.662495e+00    4.831979e-01   6.382313e-03
  2.664705e+00    5.047067e-01   6.516185e-03
  2.666916e+00    5.041319e-01   6.505970e-03
  2.669126e+00    4.995308e-01   6.469734e-03
  2.671337e+00    4.975278e-01   6.450151e-03
  2.673547e+00    5.018892e-01   6.471940e-03
  2.675757e+00    5.120230e-01   6.530387e-03
  2.677968e+00    5.025564e-01   6.463165e-03
  2.680178e+00    5.085127e-01   6.494858e-03
  2.682389e+00    4.879206e-01   6.355644e-03
  2.684599e+00    4.788111e-01   6.289914e-03
  2.686810e+00    4.965872e-01   6.398982e-03
  2.689020e+00    4.930175e-01   6.369644e-03
  2.691231e+00    4.939649e-01   6.369452e-03
  2.693441e+00    4.802804e-01   6.274526e-03
  2.695652e+00    4.886743e-01   6.322594e-03
  2.697862e+00    5.056027e-01   6.424749e-03
  2.700072e+00    4.847322e-01   6.284706e-03
  2.702283e+00    4.678420e-01   6.168166e-03
  2.704493e+00    4.716213e-01   6.186830e-03
  2.706704e+00    4.776757e-01   6.220097e-03
  2.708914e+00    4.798642e-01   6.228409e-03
  2.711125e+00    4.818513e-01   6.235074e-03
  2.713335e+00    4.931351e-01   6.301541e-03
  2.715546e+00    4.956960e-01   6.311362e-03
  2.717756e+00    4.969444e-01   6.313365e-03
  2.719967e+00    4.868476e-01   6.242684e-03
  2.722177e+00    4.751395e-01   6.161093e-03
  2.724387e+00    4.804386e-01   6.189276e-03
  2.726598e+00    4.971108e-01   6.289624e-03
  2.728808e+00    4.907790e-01   6.243256e-03
  2.731019e+00    4.832852e-01   6.189299e-03
  2.733229e+00    4.830261e-01   6.181830e-03
  2.735440e+00    4.882909e-01   6.209155e-03
  2.737650e+00    4.728093e-01   6.103960e-03
  2.739861e+00    4.791347e-01   6.138619e-03
  2.742071e+00    4.763301e-01   6.114915e-03
  2.744282e+00    4.775111e-01   6.116286e-03
  2.746492e+00    4.732359e-01   6.082864e-03
  2.748702e+00    4.710283e-01   6.062826e-03
  2.750913e+00    4.797924e-01   6.113176e-03
  2.753123e+00    4.826764e-01   6.125405e-03
  2.755334e+00    4.844832e-01   6.130760e-03
  2.757544e+00    4.854212e-01   6.130921e-03
  2.759755e+00    4.875345e-01   6.138332e-03
  2.761965e+00    4.775107e-01   6.068939e-03
  2.764176e+00    4.764132e-01   6.055990e-03
  2.766386e+00    4.809032e-01   6.078663e-03
  2.768597e+00    4.824723e-01   6.082701e-03
  2.770807e+00    4.663583e-01   5.974459e-03
  2.773017e+00    4.686319e-01   5.983095e-03
  2.775228e+00    4.750371e-01   6.018072e-03
  2.777438e+00    4.786839e-01   6.035337e-03
  2.779649e+00    4.773875e-01   6.021273e-03
  2.781859e+00    4.734709e-01   5.990768e-03
  2.784070e+00    4.976204e-01   6.135660e-03
  2.786280e+00    4.880863e-01   6.070794e-03
  2.788491e+00    4.826720e-01   6.031146e-03
  2.790701e+00    4.782358e-01   5.997699e-03
  2.792912e+00    4.817298e-01   6.013580e-03
  2.795122e+00    4.828715e-01   6.014919e-03
  2.797333e+00    4.857264e-01   6.027067e-03
  2.799543e+00    4.703559e-01   5.925105e-03
  2.801753e+00    4.743293e-01   5.944237e-03
  2.803964e+00    4.579972e-01   5.835433e-03
  2.806174e+00    4.732629e-01   5.925756e-03
  2.808385e+00    4.783378e-01   5.950617e-03
  2.810595e+00    4.852307e-01   5.986405e-03
  2.812806e+00    4.833162e-01   5.967912e-03
  2.815016e+00    4.838046e-01   5.966133e-03
  2.817227e+00    4.847177e-01   5.997975e-03
  2.819437e+00    4.815206e-01   5.989336e-03
  2.821648e+00    4.776156e-01   5.967312e-03
  2.823858e+00    4.681336e-01   5.913069e-03
  2.826068e+00    4.794522e-01   5.989148e-03
  2.828279e+00    4.843920e-01   6.024010e-03
  2.830489e+00    4.761753e-01   5.976067e-03
  2.832700e+00    4.692829e-01   5.935180e-03
  2.834910e+00    4.771367e-01   5.986737e-03
  2.837121e+00    4.736500e-01   5.966540e-03
  2.839331e+00    4.642683e-01   5.908362e-03
  2.841542e+00    4.715538e-01   5.955553e-03
  2.843752e+00    4.755772e-01   5.981720e-03
  2.845963e+00    4.561859e-01   5.858869e-03
  2.848173e+00    4.683357e-01   5.936463e-03
  2.850383e+00    4.610753e-01   5.890573e-03
  2.852594e+00    4.615457e-01   5.893484e-03
  2.854804e+00    4.785508e-01   6.000570e-03
  2.857015e+00    4.702430e-01   5.947823e-03
  2.859225e+00    4.673628e-01   5.929321e-03
  2.861436e+00    4.876407e-01   6.055922e-03
  2.863646e+00    4.784718e-01   5.998752e-03
  2.865857e+00    4.704365e-01   5.948537e-03
  2.868067e+00    4.446421e-01   5.783343e-03
  2.870278e+00    4.636915e-01   5.905590e-03
  2.872488e+00    4.599653e-01   5.880650e-03
  2.874698e+00    4.646203e-01   5.909294e-03
  2.876909e+00    4.711832e-01   5.949539e-03
  2.879119e+00    4.571061e-01   5.858384e-03
  2.881330e+00    4.642604e-01   5.902567e-03
  2.883540e+00    4.644175e-01   5.902190e-03
  2.885751e+00    4.599204e-01   5.871887e-03
  2.887961e+00    4.458341e-01   5.779437e-03
  2.890172e+00    4.665182e-01   5.910337e-03
  2.892382e+00    4.617584e-01   5.878339e-03
  2.894593e+00    4.522367e-01   5.815595e-03
  2.896803e+00    4.529783e-01   5.818406e-03
  2.899014e+00    4.507531e-01   5.802209e-03
  2.901224e+00    4.474274e-01   5.778787e-03
  2.903434e+00    4.512367e-01   5.801422e-03
  2.905645e+00    4.642979e-01   5.882524e-03
  2.907855e+00    4.676196e-01   5.901442e-03
  2.910066e+00    4.550560e-01   5.819544e-03
  2.912276e+00    4.558835e-01   5.822718e-03
  2.914487e+00    4.674754e-01   5.893800e-03
  2.916697e+00    4.548433e-01   5.811420e-03
  2.918908e+00    4.650493e-01   5.874222e-03
  2.921118e+00    4.577030e-01   5.824964e-03
  2.923329e+00    4.619122e-01   5.849352e-03
  2.925539e+00    4.518589e-01   5.783093e-03
  2.927749e+00    4.537766e-01   5.793023e-03
  2.929960e+00    4.648488e-01   5.860490e-03
  2.932170e+00    4.588054e-01   5.819930e-03
  2.934381e+00    4.488605e-01   5.754109e-03
  2.936591e+00    4.467473e-01   5.737975e-03
  2.938802e+00    4.387915e-01   5.684012e-03
  2.941012e+00    4.562951e-01   5.793903e-03
  2.943223e+00    4.637498e-01   5.838356e-03
  2.945433e+00    4.546736e-01   5.777197e-03
  2.947644e+00    4.566309e-01   5.785475e-03
  2.949854e+00    4.664364e-01   5.842945e-03
  2.952064e+00    4.619617e-01   5.810603e-03
  2.954275e+00    4.637000e-01   5.817063e-03
  2.956485e+00    4.608301e-01   5.794827e-03
  2.958696e+00    4.563743e-01   5.762364e-03
  2.960906e+00    4.557783e-01   5.754407e-03
  2.963117e+00    4.484940e-01   5.703785e-03
  2.965327e+00    4.520158e-01   5.722251e-03
  2.967538e+00    4.543012e-01   5.733771e-03
  2.969748e+00    4.501970e-01   5.705029e-03
  2.971959e+00    4.417576e-01   5.648198e-03
  2.974169e+00    4.601049e-01   5.761690e-03
  2.976379e+00    4.671678e-01   5.802794e-03
  2.978590e+00    4.655105e-01   5.789320e-03
  2.980800e+00    4.604035e-01   5.754666e-03
  2.983011e+00    4.583769e-01   5.739158e-03
  2.985221e+00    4.618413e-01   5.757642e-03
  2.987432e+00    4.500960e-01   5.680851e-03
  2.989642e+00    4.667928e-01   5.782589e-03
  2.991853e+00    4.640575e-01   5.762321e-03
  2.994063e+00    4.632020e-01   5.754077e-03
  2.996274e+00    4.668234e-01   5.773276e-03
  2.998484e+00    4.683614e-01   5.780049e-03
  3.000694e+00    4.667048e-01   5.766310e-03
  3.002905e+00    4.596825e-01   5.719811e-03
  3.005115e+00    4.648382e-01   5.748783e-03
  3.007326e+00    4.587374e-01   5.707756e-03
  3.009536e+00    4.682990e-01   5.763618e-03
  3.011747e+00    4.640359e-01   5.734384e-03
  3.013957e+00    4.494567e-01   5.640429e-03
  3.016168e+00    4.362159e-01   5.553524e-03
  3.018378e+00    4.380993e-01   5.562473e-03
  3.020589e+00    4.636763e-01   5.719310e-03
  3.022799e+00    4.580167e-01   5.681128e-03
  3.025010e+00    4.640999e-01   5.715449e-03
  3.027220e+00    4.678576e-01   5.735368e-03
  3.029430e+00    4.553993e-01   5.655258e-03
  3.031641e+00    4.410426e-01   5.562280e-03
  3.033851e+00    4.462579e-01   5.591577e-03
  3.036062e+00    4.497117e-01   5.610400e-03
  3.038272e+00    4.491476e-01   5.603313e-03
  3.040483e+00    4.576542e-01   5.652876e-03
  3.042693e+00    4.503267e-01   5.604203e-03
  3.044904e+00    4.504545e-01   5.600951e-03
  3.047114e+00    4.529154e-01   5.611429e-03
  3.049325e+00    4.609009e-01   5.656226e-03
  3.051535e+00    4.572744e-01   5.629508e-03
  3.053745e+00    4.513732e-01   5.588322e-03
  3.055956e+00    4.550589e-01   5.606487e-03
  3.058166e+00    4.424235e-01   5.523889e-03
  3.060377e+00    4.467849e-01   5.546281e-03
  3.062587e+00    4.443860e-01   5.526781e-03
  3.064798e+00    4.508632e-01   5.562653e-03
  3.067008e+00    4.444304e-01   5.518128e-03
  3.069219e+00    4.392430e-01   5.481374e-03
  3.071429e+00    4.312210e-01   5.427643e-03
  3.073640e+00    4.536833e-01   5.563852e-03
  3.075850e+00    4.583541e-01   5.588816e-03
  3.078060e+00    4.528231e-01   5.551880e-03
  3.080271e+00    4.469707e-01   5.512410e-03
  3.082481e+00    4.602268e-01   5.590058e-03
  3.084692e+00    4.497872e-01   5.522929e-03
  3.086902e+00    4.509850e-01   5.527001e-03
  3.089113e+00    4.631001e-01   5.597134e-03
  3.091323e+00    4.456047e-01   5.487034e-03
  3.093534e+00    4.519063e-01   5.522275e-03
  3.095744e+00    4.628647e-01   5.585427e-03
  3.097955e+00    4.407584e-01   5.446883e-03
  3.100165e+00    4.486662e-01   5.492190e-03
  3.102375e+00    4.566505e-01   5.537387e-03
  3.104586e+00    4.468864e-01   5.474376e-03
  3.106796e+00    4.492660e-01   5.485401e-03
  3.109007e+00    4.491701e-01   5.481587e-03
  3.111217e+00    4.371477e-01   5.404079e-03
  3.113428e+00    4.352543e-01   5.388986e-03
  3.115638e+00    4.401290e-01   5.415858e-03
  3.117849e+00    4.447367e-01   5.440415e-03
  3.120059e+00    4.445201e-01   5.435624e-03
  3.122270e+00    4.541991e-01   5.491196e-03
  3.124480e+00    4.499688e-01   5.461868e-03
  3.126691e+00    4.503203e-01   5.460402e-03
  3.128901e+00    4.504952e-01   5.458323e-03
  3.131111e+00    4.413450e-01   5.398783e-03
  3.133322e+00    4.468695e-01   5.429008e-03
  3.135532e+00    4.457863e-01   5.419012e-03
  3.137743e+00    4.414514e-01   5.389136e-03
  3.139953e+00    4.578379e-01   5.484505e-03
  3.142164e+00    4.376067e-01   5.373900e-03
  3.144374e+00    4.480039e-01   5.465954e-03
  3.146585e+00    4.432947e-01   5.451720e-03
  3.148795e+00    4.418388e-01   5.453545e-03
  3.151006e+00    4.424916e-01   5.466101e-03
  3.153216e+00    4.559725e-01   5.556004e-03
  3.155426e+00    4.441962e-01   5.490124e-03
  3.157637e+00    4.614626e-01   5.601452e-03
  3.159847e+00    4.443232e-01   5.501362e-03
  3.162058e+00    4.313842e-01   5.425057e-03
  3.164268e+00    4.417646e-01   5.493971e-03
  3.166479e+00    4.482301e-01   5.537753e-03
  3.168689e+00    4.350234e-01   5.458899e-03
  3.170900e+00    4.411546e-01   5.500400e-03
  3.173110e+00    4.444886e-01   5.524054e-03
  3.175321e+00    4.388717e-01   5.491537e-03
  3.177531e+00    4.425205e-01   5.517050e-03
  3.179741e+00    4.337563e-01   5.464232e-03
  3.181952e+00    4.355603e-01   5.477672e-03
  3.184162e+00    4.331999e-01   5.465001e-03
  3.186373e+00    4.417562e-01   5.520298e-03
  3.188583e+00    4.447407e-01   5.540731e-03
  3.190794e+00    4.422772e-01   5.527133e-03
  3.193004e+00    4.290370e-01   5.444985e-03
  3.195215e+00    4.338261e-01   5.476831e-03
  3.197425e+00    4.114283e-01   5.334721e-03
  3.199636e+00    4.334077e-01   5.474593e-03
  3.201846e+00    4.358222e-01   5.489236e-03
  3.204056e+00    4.337077e-01   5.476784e-03
  3.206267e+00    4.167365e-01   5.369396e-03
  3.208477e+00    4.184603e-01   5.381368e-03
  3.210688e+00    4.484158e-01   5.571528e-03
  3.212898e+00    4.344957e-01   5.484970e-03
  3.215109e+00    4.384005e-01   5.510284e-03
  3.217319e+00    4.476269e-01   5.568640e-03
  3.219530e+00    4.210331e-01   5.401070e-03
  3.221740e+00    4.332594e-01   5.479482e-03
  3.223951e+00    4.414864e-01   5.531744e-03
  3.226161e+00    4.326667e-01   5.476400e-03
  3.228372e+00    4.166131e-01   5.374376e-03
  3.230582e+00    4.286986e-01   5.451892e-03
  3.232792e+00    4.191777e-01   5.391237e-03
  3.235003e+00    4.332232e-01   5.481051e-03
  3.237213e+00    4.421422e-01   5.537316e-03
  3.239424e+00    4.216462e-01   5.407435e-03
  3.241634e+00    4.296638e-01   5.458723e-03
  3.243845e+00    4.341514e-01   5.487218e-03
  3.246055e+00    4.389385e-01   5.517136e-03
  3.248266e+00    4.293461e-01   5.456708e-03
  3.250476e+00    4.194093e-01   5.392909e-03
  3.252687e+00    4.128393e-01   5.350392e-03
  3.254897e+00    4.273789e-01   5.443686e-03
  3.257107e+00    4.365959e-01   5.501761e-03
  3.259318e+00    4.279884e-01   5.447029e-03
  3.261528e+00    4.240714e-01   5.421894e-03
  3.263739e+00    4.250386e-01   5.427526e-03
  3.265949e+00    4.384473e-01   5.512328e-03
  3.268160e+00    4.279048e-01   5.445275e-03
  3.270370e+00    4.113427e-01   5.338327e-03
  3.272581e+00    4.247282e-01   5.424205e-03
  3.274791e+00    4.318031e-01   5.468674e-03
  3.277002e+00    4.329927e-01   5.475632e-03
  3.279212e+00    4.307570e-01   5.461105e-03
  3.281422e+00    4.342066e-01   5.482325e-03
  3.283633e+00    4.380397e-01   5.505777e-03
  3.285843e+00    4.434619e-01   5.539429e-03
  3.288054e+00    4.351254e-01   5.486146e-03
  3.290264e+00    4.460956e-01   5.554548e-03
  3.292475e+00    4.353034e-01   5.486127e-03
  3.294685e+00    4.312822e-01   5.460078e-03
  3.296896e+00    4.218578e-01   5.399333e-03
  3.299106e+00    4.435777e-01   5.535997e-03
  3.301317e+00    4.331429e-01   5.469486e-03
  3.303527e+00    4.308218e-01   5.454333e-03
  3.305737e+00    4.120199e-01   5.332966e-03
  3.307948e+00    4.216852e-01   5.394449e-03
  3.310158e+00    4.357852e-01   5.483057e-03
  3.312369e+00    4.310789e-01   5.452481e-03
  3.314579e+00    4.215136e-01   5.390738e-03
  3.316790e+00    4.444131e-01   5.534481e-03
  3.319000e+00    4.434118e-01   5.527069e-03
  3.321211e+00    4.201330e-01   5.379404e-03
  3.323421e+00    4.336965e-01   5.464332e-03
  3.325632e+00    4.296743e-01   5.438018e-03
  3.327842e+00    4.272666e-01   5.421883e-03
  3.330052e+00    4.257699e-01   5.411260e-03
  3.332263e+00    4.394518e-01   5.496499e-03
  3.334473e+00    4.262046e-01   5.412114e-03
  3.336684e+00    4.271380e-01   5.416743e-03
  3.338894e+00    4.271945e-01   5.416261e-03
  3.341105e+00    4.259402e-01   5.407093e-03
  3.343315e+00    4.385870e-01   5.485596e-03
  3.345526e+00    4.281353e-01   5.418975e-03
  3.347736e+00    4.121065e-01   5.315146e-03
  3.349947e+00    4.086196e-01   5.291682e-03
  3.352157e+00    4.245513e-01   5.392686e-03
  3.354368e+00    4.224568e-01   5.378075e-03
  3.356578e+00    4.160038e-01   5.335812e-03
  3.358788e+00    4.264738e-01   5.401211e-03
  3.360999e+00    4.270873e-01   5.403819e-03
  3.363209e+00    4.195507e-01   5.354931e-03
  3.365420e+00    4.209568e-01   5.362367e-03
  3.367630e+00    4.195143e-01   5.352160e-03
  3.369841e+00    4.165821e-01   5.331981e-03
  3.372051e+00    4.211518e-01   5.359165e-03
  3.374262e+00    4.349456e-01   5.443723e-03
  3.376472e+00    4.308522e-01   5.415569e-03
  3.378683e+00    4.292778e-01   5.403135e-03
  3.380893e+00    4.099098e-01   5.277500e-03
  3.383103e+00    4.038413e-01   5.235632e-03
  3.385314e+00    4.119259e-01   5.285538e-03
  3.387524e+00    4.158609e-01   5.308007e-03
  3.389735e+00    4.198706e-01   5.330882e-03
  3.391945e+00    4.113566e-01   5.272901e-03
  3.394156e+00    4.128814e-01   5.278422e-03
  3.396366e+00    4.176259e-01   5.305246e-03
  3.398577e+00    4.077999e-01   5.239434e-03
  3.400787e+00    4.045614e-01   5.230395e-03
  3.402998e+00    4.141710e-01   5.330411e-03
  3.405208e+00    3.994984e-01   5.255676e-03
  3.407418e+00    3.982176e-01   5.262919e-03
  3.409629e+00    3.959007e-01   5.261502e-03
  3.411839e+00    3.950697e-01   5.267668e-03
  3.414050e+00    3.878459e-01   5.230156e-03
  3.416260e+00    4.093207e-01   5.382820e-03
  3.418471e+00    4.030074e-01   5.350687e-03
  3.420681e+00    3.886916e-01   5.263234e-03
  3.422892e+00    3.901719e-01   5.281268e-03
  3.425102e+00    3.825019e-01   5.236801e-03
  3.427313e+00    3.952833e-01   5.330857e-03
  3.429523e+00    3.812285e-01   5.242242e-03
  3.431733e+00    3.738472e-01   5.197789e-03
  3.433944e+00    3.853486e-01   5.283621e-03
  3.436154e+00    3.817897e-01   5.265424e-03
  3.438365e+00    3.753003e-01   5.226325e-03
  3.440575e+00    3.789639e-01   5.257730e-03
  3.442786e+00    3.693680e-01   5.196236e-03
  3.444996e+00    3.837105e-01   5.301739e-03
  3.447207e+00    3.708226e-01   5.217189e-03
  3.449417e+00    3.826338e-01   5.341022e-03
  3.451628e+00    3.647141e-01   5.243781e-03
  3.453838e+00    3.587267e-01   5.221428e-03
  3.456049e+00    3.580486e-01   5.240105e-03
  3.458259e+00    3.786835e-01   5.411284e-03
  3.460469e+00    3.796871e-01   5.438583e-03
  3.462680e+00    3.760081e-01   5.431494e-03
  3.464890e+00    3.733266e-01   5.430065e-03
  3.467101e+00    3.750698e-01   5.460357e-03
  3.469311e+00    3.910986e-01   5.592836e-03
  3.471522e+00    3.903864e-01   5.604455e-03
  3.473732e+00    3.964645e-01   5.664237e-03
  3.475943e+00    4.086066e-01   5.766539e-03
  3.478153e+00    4.056105e-01   5.761173e-03
  3.480364e+00    4.132133e-01   5.830422e-03
  3.482574e+00    4.180076e-01   5.879763e-03
  3.484784e+00    4.161429e-01   5.881608e-03
  3.486995e+00    4.328281e-01   6.013732e-03
  3.489205e+00    4.536220e-01   6.171725e-03
  3.491416e+00    4.378278e-01   6.078425e-03
  3.493626e+00    4.403059e-01   6.110257e-03
  3.495837e+00    4.612705e-01   6.269136e-03
  3.498047e+00    4.594986e-01   6.271827e-03
  3.500258e+00    4.560541e-01   6.262936e-03
  3.502468e+00    4.559059e-01   6.276341e-03
  3.504679e+00    4.739620e-01   6.414118e-03
  3.506889e+00    4.603234e-01   6.335526e-03
  3.509099e+00    4.917405e-01   6.562803e-03
  3.511310e+00    4.798918e-01   6.497813e-03
  3.513520e+00    4.866866e-01   6.558084e-03
  3.515731e+00    5.034108e-01   6.684497e-03
  3.517941e+00    4.838317e-01   6.567464e-03
  3.520152e+00    4.970994e-01   6.671247e-03
  3.522362e+00    5.066092e-01   6.749342e-03
  3.524573e+00    5.094689e-01   6.782674e-03
  3.526783e+00    5.060259e-01   6.773041e-03
  3.528994e+00    4.927332e-01   6.695398e-03
  3.531204e+00    5.371450e-01   7.003278e-03
  3.533414e+00    5.450282e-01   7.066810e-03
  3.535625e+00    5.400682e-01   7.047096e-03
  3.537835e+00    5.524470e-01   7.139692e-03
  3.540046e+00    5.567799e-01   7.176787e-03
  3.542256e+00    5.377710e-01   7.060768e-03
  3.544467e+00    5.329365e-01   7.036537e-03
  3.546677e+00    5.473588e-01   7.138774e-03
  3.548888e+00    5.233734e-01   6.988033e-03
  3.551098e+00    5.347831e-01   7.071036e-03
  3.553309e+00    5.485966e-01   7.170069e-03
  3.555519e+00    5.463470e-01   7.166743e-03
  3.557729e+00    5.403655e-01   7.139180e-03
  3.559940e+00    5.452548e-01   7.183054e-03
  3.562150e+00    5.541043e-01   7.253010e-03
  3.564361e+00    5.506978e-01   7.244173e-03
  3.566571e+00    5.592542e-01   7.314384e-03
  3.568782e+00    5.623795e-01   7.349237e-03
  3.570992e+00    5.446552e-01   7.246381e-03
  3.573203e+00    5.422744e-01   7.244743e-03
  3.575413e+00    5.552174e-01   7.344711e-03
  3.577624e+00    5.412605e-01   7.266009e-03
  3.579834e+00    5.347705e-01   7.236165e-03
  3.582045e+00    5.450487e-01   7.319536e-03
  3.584255e+00    5.374844e-01   7.282647e-03
  3.586465e+00    5.451871e-01   7.348690e-03
  3.588676e+00    5.345975e-01   7.291128e-03
  3.590886e+00    5.436124e-01   7.366168e-03
  3.593097e+00    5.430911e-01   7.377240e-03
  3.595307e+00    5.347250e-01   7.334094e-03
  3.597518e+00    5.378193e-01   7.369547e-03
  3.599728e+00    5.374711e-01   7.381266e-03
  3.601939e+00    5.506172e-01   7.485279e-03
  3.604149e+00    5.364200e-01   7.402531e-03
  3.606360e+00    5.390652e-01   7.434972e-03
  3.608570e+00    5.509449e-01   7.530801e-03
  3.610780e+00    5.477952e-01   7.520471e-03
  3.612991e+00    5.459755e-01   7.518063e-03
  3.615201e+00    5.381905e-01   7.474089e-03
  3.617412e+00    5.474804e-01   7.545693e-03
  3.619622e+00    5.348344e-01   7.463995e-03
  3.621833e+00    5.478374e-01   7.560969e-03
  3.624043e+00    5.506891e-01   7.590282e-03
  3.626254e+00    5.339759e-01   7.483928e-03
  3.628464e+00    5.263501e-01   7.441149e-03
  3.630675e+00    5.442308e-01   7.580754e-03
  3.632885e+00    5.413568e-01   7.575267e-03
  3.635095e+00    5.361415e-01   7.553137e-03
  3.637306e+00    5.255497e-01   7.492402e-03
  3.639516e+00    5.466856e-01   7.656256e-03
  3.641727e+00    5.202834e-01   7.483553e-03
  3.643937e+00    5.577549e-01   7.763163e-03
  3.646148e+00    5.293277e-01   7.577323e-03
  3.648358e+00    5.454704e-01   7.707029e-03
  3.650569e+00    5.373410e-01   7.664186e-03
  3.652779e+00    5.410516e-01   7.705465e-03
  3.654990e+00    5.546875e-01   7.817179e-03
  3.657200e+00    5.388502e-01   7.719761e-03
  3.659410e+00    5.383572e-01   7.731276e-03
  3.661621e+00    5.298350e-01   7.684902e-03
  3.663831e+00    5.277702e-01   7.684999e-03
  3.666042e+00    5.347508e-01   7.750855e-03
  3.668252e+00    5.361891e-01   7.776557e-03
  3.670463e+00    5.449787e-01   7.855495e-03
  3.672673e+00    5.360043e-01   7.806054e-03
  3.674884e+00    5.204644e-01   7.707295e-03
  3.677094e+00    5.182140e-01   7.705943e-03
  3.679305e+00    5.360694e-01   7.853206e-03
  3.681515e+00    5.588185e-01   8.034145e-03
  3.683726e+00    5.433632e-01   7.938293e-03
  3.685936e+00    5.365658e-01   7.904285e-03
  3.688146e+00    5.475559e-01   8.000909e-03
  3.690357e+00    5.194753e-01   7.808829e-03
  3.692567e+00    5.355054e-01   7.944701e-03
  3.694778e+00    4.982027e-01   7.678600e-03
  3.696988e+00    5.295677e-01   7.932612e-03
  3.699199e+00    5.304431e-01   7.955541e-03
  3.701409e+00    5.115094e-01   7.828397e-03
  3.703620e+00    5.126307e-01   7.853089e-03
  3.705830e+00    5.280557e-01   7.986813e-03
  3.708041e+00    5.311579e-01   8.026941e-03
  3.710251e+00    5.371416e-01   8.088987e-03
  3.712461e+00    5.155261e-01   7.941187e-03
  3.714672e+00    5.119779e-01   7.930349e-03
  3.716882e+00    5.462207e-01   8.208354e-03
  3.719093e+00    5.329933e-01   8.125787e-03
  3.721303e+00    5.419232e-01   8.210814e-03
  3.723514e+00    5.410655e-01   8.221986e-03
  3.725724e+00    5.071394e-01   7.977019e-03
  3.727935e+00    5.229204e-01   8.117684e-03
  3.730145e+00    5.181737e-01   8.098145e-03
  3.732356e+00    5.300034e-01   8.207788e-03
  3.734566e+00    5.334150e-01   8.252070e-03
  3.736776e+00    4.965654e-01   7.979314e-03
  3.738987e+00    5.361366e-01   8.309280e-03
  3.741197e+00    5.175256e-01   8.181904e-03
  3.743408e+00    5.133064e-01   8.166526e-03
  3.745618e+00    4.815785e-01   7.927798e-03
  3.747829e+00    5.039884e-01   8.128185e-03
  3.750039e+00    5.102417e-01   8.196741e-03
  3.752250e+00    5.033955e-01   8.159966e-03
  3.754460e+00    5.154088e-01   8.275356e-03
  3.756671e+00    5.138242e-01   8.281503e-03
  3.758881e+00    5.120279e-01   8.285752e-03
  3.761091e+00    4.950923e-01   8.166444e-03
  3.763302e+00    5.009382e-01   8.233436e-03
  3.765512e+00    5.107057e-01   8.332639e-03
  3.767723e+00    5.223911e-01   8.447033e-03
  3.769933e+00    5.353269e-01   8.570925e-03
  3.772144e+00    5.067908e-01   8.358927e-03
  3.774354e+00    5.181764e-01   8.472376e-03
  3.776565e+00    5.099859e-01   8.425128e-03
  3.778775e+00    4.933303e-01   8.306135e-03
  3.780986e+00    4.865789e-01   8.269018e-03
  3.783196e+00    5.163988e-01   8.539161e-03
  3.785407e+00    4.964828e-01   8.393173e-03
  3.787617e+00    4.999777e-01   8.443344e-03
  3.789827e+00    5.018213e-01   8.479410e-03
  3.792038e+00    5.002109e-01   8.486602e-03
  3.794248e+00    5.037506e-01   8.537812e-03
  3.796459e+00    5.081708e-01   8.596653e-03
  3.798669e+00    5.145624e-01   8.672242e-03
  3.800880e+00    5.209568e-01   8.747844e-03
  3.803090e+00    5.053294e-01   8.637540e-03
  3.805301e+00    5.056500e-01   8.662508e-03
  3.807511e+00    5.122468e-01   8.741124e-03
  3.809722e+00    4.887123e-01   8.559952e-03
  3.811932e+00    5.148968e-01   8.808758e-03
  3.814142e+00    5.237673e-01   8.907795e-03
  3.816353e+00    5.248558e-01   8.940536e-03
  3.818563e+00    4.916043e-01   8.675519e-03
  3.820774e+00    5.175804e-01   8.925432e-03
  3.822984e+00    5.315810e-01   9.069493e-03
  3.825195e+00    5.278841e-01   9.062367e-03
  3.827405e+00    5.056687e-01   8.893666e-03
  3.829616e+00    5.038802e-01   8.902141e-03
  3.831826e+00    5.094509e-01   8.975706e-03
  3.834037e+00    4.727561e-01   8.670290e-03
  3.836247e+00    5.123736e-01   9.051326e-03
  3.838457e+00    5.035393e-01   8.998159e-03
  3.840668e+00    5.147529e-01   9.123476e-03
  3.842878e+00    5.129572e-01   9.133496e-03
  3.845089e+00    5.266361e-01   9.280831e-03
  3.847299e+00    4.935715e-01   9.010509e-03
  3.849510e+00    4.903820e-01   9.007076e-03
  3.851720e+00    5.151332e-01   9.253420e-03
  3.853931e+00    5.128731e-01   9.252457e-03
  3.856141e+00    4.822333e-01   8.990643e-03
  3.858352e+00    4.740292e-01   8.932579e-03
  3.860562e+00    4.620345e-01   8.837610e-03
  3.862772e+00    4.693660e-01   8.926455e-03
  3.864983e+00    4.868779e-01   9.111043e-03
  3.867193e+00    4.876801e-01   9.138176e-03
  3.869404e+00    4.942254e-01   9.219126e-03
  3.871614e+00    4.855766e-01   9.157905e-03
  3.873825e+00    5.114838e-01   9.419750e-03
  3.876035e+00    5.009611e-01   9.343062e-03
  3.878246e+00    5.121599e-01   9.473249e-03
  3.880456e+00    5.080336e-01   9.464416e-03
  3.882667e+00    5.135742e-01   9.545863e-03
  3.884877e+00    4.971347e-01   9.421786e-03
  3.887087e+00    4.901622e-01   9.385340e-03
  3.889298e+00    5.157825e-01   9.658590e-03
  3.891508e+00    5.061172e-01   9.598718e-03
  3.893719e+00    5.010074e-01   9.581440e-03
  3.895929e+00    4.974584e-01   9.579037e-03
  3.898140e+00    5.129061e-01   9.759134e-03
  3.900350e+00    5.044459e-01   9.710808e-03
  3.902561e+00    4.741729e-01   9.446867e-03
  3.904771e+00    4.694059e-01   9.431257e-03
  3.906982e+00    4.886872e-01   9.656187e-03
  3.909192e+00    4.684139e-01   9.486575e-03
  3.911403e+00    4.901757e-01   9.738345e-03
  3.913613e+00    5.008994e-01   9.879187e-03
  3.915823e+00    4.993164e-01   9.898567e-03
  3.918034e+00    4.869324e-01   9.810413e-03
  3.920244e+00    4.856454e-01   9.832993e-03
  3.922455e+00    4.705328e-01   9.714293e-03
  3.924665e+00    4.646675e-01   9.688956e-03
  3.926876e+00    5.101796e-01   1.019040e-02
  3.929086e+00    4.865772e-01   9.989262e-03
  3.931297e+00    5.051036e-01   1.021294e-02
  3.933507e+00    4.943593e-01   1.013300e-02
  3.935718e+00    4.771637e-01   9.983593e-03
  3.937928e+00    4.928062e-01   1.017557e-02
  3.940138e+00    4.793844e-01   1.006509e-02
  3.942349e+00    5.197103e-01   1.051077e-02
  3.944559e+00    5.107361e-01   1.045033e-02
  3.946770e+00    4.841273e-01   1.020456e-02
  3.948980e+00    4.790993e-01   1.018191e-02
  3.951191e+00    5.009344e-01   1.044262e-02
  3.953401e+00    5.033758e-01   1.050000e-02
  3.955612e+00    5.029486e-01   1.052763e-02
  3.957822e+00    5.156155e-01   1.069208e-02
  3.960033e+00    5.062937e-01   1.062831e-02
  3.962243e+00    4.857792e-01   1.044363e-02
  3.964453e+00    4.453419e-01   1.003117e-02
  3.966664e+00    4.662574e-01   1.029667e-02
  3.968874e+00    5.030695e-01   1.072439e-02
  3.971085e+00    4.726522e-01   1.041675e-02
  3.973295e+00    5.022916e-01   1.076032e-02
  3.975506e+00    4.715161e-01   1.044665e-02
  3.977716e+00    4.956899e-01   1.073339e-02
  3.979927e+00    4.802079e-01   1.058640e-02
  3.982137e+00    4.915791e-01   1.073344e-02
  3.984348e+00    4.814349e-01   1.064463e-02
  3.986558e+00    4.772545e-01   1.062049e-02
  3.988768e+00    4.758248e-01   1.062721e-02
  3.990979e+00    4.942461e-01   1.085405e-02
  3.993189e+00    4.869993e-01   1.079723e-02
  3.995400e+00    4.879018e-01   1.083094e-02
  3.997610e+00    4.843537e-01   1.082116e-02
  3.999821e+00    4.955792e-01   1.098381e-02
  4.002031e+00    4.765909e-01   1.080951e-02
  4.004242e+00    4.560601e-01   1.061135e-02
  4.006452e+00    4.781731e-01   1.090467e-02
  4.008663e+00    4.789830e-01   1.095374e-02
  4.010873e+00    4.990841e-01   1.122167e-02
  4.013084e+00    4.915860e-01   1.117836e-02
  4.015294e+00    4.730827e-01   1.100649e-02
  4.017504e+00    4.994056e-01   1.135094e-02
  4.019715e+00    5.268648e-01   1.170327e-02
  4.021925e+00    4.800640e-01   1.121421e-02
  4.024136e+00    4.497952e-01   1.089697e-02
  4.026346e+00    4.860419e-01   1.137176e-02
  4.028557e+00    4.969862e-01   1.154390e-02
  4.030767e+00    4.878638e-01   1.148353e-02
  4.032978e+00    4.552999e-01   1.113846e-02
  4.035188e+00    4.648541e-01   1.129995e-02
  4.037399e+00    4.579474e-01   1.126207e-02
  4.039609e+00    4.757408e-01   1.152602e-02
  4.041819e+00    4.893732e-01   1.173916e-02
  4.044030e+00    4.845001e-01   1.173052e-02
  4.046240e+00    4.769422e-01   1.168809e-02
  4.048451e+00    4.900225e-01   1.189872e-02
  4.050661e+00    4.672810e-01   1.166995e-02
  4.052872e+00    4.694214e-01   1.174853e-02
  4.055082e+00    5.245894e-01   1.247566e-02
  4.057293e+00    4.910440e-01   1.212435e-02
  4.059503e+00    4.878792e-01   1.214016e-02
  4.061714e+00    4.865106e-01   1.217988e-02
  4.063924e+00    4.561892e-01   1.184944e-02
  4.066134e+00    4.781862e-01   1.218884e-02
  4.068345e+00    4.803633e-01   1.227541e-02
  4.070555e+00    4.734287e-01   1.224537e-02
  4.072766e+00    4.760409e-01   1.233948e-02
  4.074976e+00    4.871309e-01   1.254469e-02
  4.077187e+00    4.683572e-01   1.236164e-02
  4.079397e+00    4.920489e-01   1.273520e-02
  4.081608e+00    5.001303e-01   1.290615e-02
  4.083818e+00    5.081634e-01   1.307694e-02
  4.086029e+00    5.109720e-01   1.318236e-02
  4.088239e+00    5.031824e-01   1.315179e-02
  4.090449e+00    4.373602e-01   1.232812e-02
  4.092660e+00    4.794978e-01   1.297904e-02
  4.094870e+00    4.873755e-01   1.315821e-02
  4.097081e+00    4.579193e-01   1.282425e-02
  4.099291e+00    5.038782e-01   1.350791e-02
  4.101502e+00    4.879121e-01   1.334199e-02
  4.103712e+00    4.842566e-01   1.334129e-02
  4.105923e+00    4.854545e-01   1.340959e-02
  4.108133e+00    4.854612e-01   1.346137e-02
  4.110344e+00    4.976356e-01   1.368122e-02
  4.112554e+00    4.695593e-01   1.334224e-02
  4.114764e+00    4.862853e-01   1.363221e-02
  4.116975e+00    4.899295e-01   1.373724e-02
  4.119185e+00    5.042953e-01   1.399374e-02
  4.121396e+00    4.918573e-01   1.387721e-02
  4.123606e+00    5.320410e-01   1.449213e-02
  4.125817e+00    4.849635e-01   1.389420e-02
  4.128027e+00    4.779274e-01   1.385095e-02
  4.130238e+00    5.079722e-01   1.434103e-02
  4.132448e+00    4.461266e-01   1.349803e-02
  4.134659e+00    4.958958e-01   1.429216e-02
  4.136869e+00    4.966486e-01   1.436691e-02
  4.139080e+00    4.787189e-01   1.416871e-02
  4.141290e+00    5.058128e-01   1.462866e-02
  4.143500e+00    4.990925e-01   1.459807e-02
  4.145711e+00    4.871151e-01   1.448949e-02
  4.147921e+00    5.052353e-01   1.482398e-02
  4.150132e+00    5.170966e-01   1.506859e-02
  4.152342e+00    5.501409e-01   1.561790e-02
  4.154553e+00    5.089405e-01   1.509327e-02
  4.156763e+00    4.969854e-01   1.498861e-02
  4.158974e+00    4.906491e-01   1.496766e-02
  4.161184e+00    4.915897e-01   1.505646e-02
  4.163395e+00    5.228525e-01   1.560680e-02
  4.165605e+00    4.762007e-01   1.497198e-02
  4.167815e+00    5.181412e-01   1.569872e-02
  4.170026e+00    5.067600e-01   1.560728e-02
  4.172236e+00    5.380263e-01   1.616835e-02
  4.174447e+00    5.076717e-01   1.579127e-02
  4.176657e+00    5.316720e-01   1.624824e-02
  4.178868e+00    5.155119e-01   1.609024e-02
  4.181078e+00    5.053675e-01   1.602097e-02
  4.183289e+00    4.446725e-01   1.511387e-02
  4.185499e+00    4.928238e-01   1.600511e-02
  4.187710e+00    4.601143e-01   1.555554e-02
  4.189920e+00    4.811060e-01   1.600202e-02
  4.192130e+00    5.088509e-01   1.655781e-02
  4.194341e+00    4.944898e-01   1.642240e-02
  4.196551e+00    5.211855e-01   1.696653e-02
  4.198762e+00    5.131914e-01   1.694301e-02
  4.200972e+00    4.846092e-01   1.657088e-02
  4.203183e+00    4.672513e-01   1.637907e-02
  4.205393e+00    3.999844e-01   1.525472e-02
  4.207604e+00    4.441570e-01   1.618464e-02
  4.209814e+00    5.109956e-01   1.747881e-02
  4.212025e+00    5.325325e-01   1.796987e-02
  4.214235e+00    5.364498e-01   1.816377e-02
  4.216445e+00    4.721669e-01   1.716412e-02
  4.218656e+00    4.630109e-01   1.712409e-02
  4.220866e+00    4.740537e-01   1.745546e-02
  4.223077e+00    5.629209e-01   1.916751e-02
  4.225287e+00    4.337449e-01   1.695793e-02
  4.227498e+00    4.409033e-01   1.723108e-02
  4.229708e+00    4.934168e-01   1.837628e-02
  4.231919e+00    5.378441e-01   1.934489e-02
  4.234129e+00    5.073797e-01   1.894642e-02
  4.236340e+00    5.237594e-01   1.941472e-02
  4.238550e+00    4.381403e-01   1.791400e-02
  4.240761e+00    4.223716e-01   1.774368e-02
  4.242971e+00    5.046940e-01   1.957378e-02
  4.245181e+00    4.795786e-01   1.925967e-02
  4.247392e+00    4.736229e-01   1.931889e-02
  4.249602e+00    4.205277e-01   1.838447e-02
  4.251813e+00    5.230599e-01   2.070519e-02
  4.254023e+00    4.721700e-01   1.987132e-02
  4.256234e+00    4.394357e-01   1.937430e-02
  4.258444e+00    4.830396e-01   2.052569e-02
  4.260655e+00    5.284991e-01   2.170574e-02
  4.262865e+00    4.749104e-01   2.080911e-02
  4.265076e+00    4.963376e-01   2.151535e-02
  4.267286e+00    5.191279e-01   2.226503e-02
  4.269496e+00    4.626540e-01   2.127577e-02
  4.271707e+00    4.307385e-01   2.078184e-02
  4.273917e+00    4.471608e-01   2.144855e-02
  4.276128e+00    3.857987e-01   2.018676e-02
  4.278338e+00    4.604513e-01   2.234856e-02
  4.280549e+00    4.680302e-01   2.285387e-02
  4.282759e+00    4.830318e-01   2.355210e-02
  4.284970e+00    5.380777e-01   2.522521e-02
  4.287180e+00    4.951981e-01   2.448953e-02
  4.289391e+00    4.688425e-01   2.400743e-02
  4.291601e+00    4.946759e-01   2.485724e-02
  4.293811e+00    5.443903e-01   2.628027e-02
  4.296022e+00    4.773413e-01   2.480693e-02
  4.298232e+00    4.405997e-01   2.403164e-02
  4.300443e+00    4.926372e-01   2.562138e-02
  4.302653e+00    5.212013e-01   2.658229e-02
  4.304864e+00    5.115882e-01   2.656389e-02
  4.307074e+00    4.539087e-01   2.524622e-02
  4.309285e+00    5.602513e-01   2.830302e-02
  4.311495e+00    4.537491e-01   2.570910e-02
  4.313706e+00    4.670497e-01   2.632936e-02
  4.315916e+00    4.544406e-01   2.622651e-02
  4.318126e+00    4.924729e-01   2.757119e-02
  4.320337e+00    4.244028e-01   2.585522e-02
  4.322547e+00    4.694565e-01   2.748073e-02
  4.324758e+00    4.700834e-01   2.778464e-02
  4.326968e+00    4.637944e-01   2.790957e-02
  4.329179e+00    5.089959e-01   2.955876e-02
  4.331389e+00    6.212649e-01   3.303444e-02
  4.333600e+00    4.953713e-01   2.985001e-02
  4.335810e+00    4.266961e-01   2.803351e-02
  4.338021e+00    3.912822e-01   2.718831e-02
  4.340231e+00    2.849875e-01   2.349484e-02
  4.342442e+00    5.520915e-01   3.313888e-02
  4.344652e+00    3.765922e-01   2.774263e-02
  4.346862e+00    4.202865e-01   2.971664e-02
  4.349073e+00    4.079879e-01   2.970633e-02
  4.351283e+00    3.283334e-01   2.704658e-02
  4.353494e+00    3.923944e-01   3.002438e-02
  4.355704e+00    4.212542e-01   3.160920e-02
  4.357915e+00    3.680706e-01   3.003836e-02
  4.360125e+00    4.267984e-01   3.289877e-02
  4.362336e+00    4.998495e-01   3.625248e-02
  4.364546e+00    3.748594e-01   3.196502e-02
  4.366757e+00    3.346495e-01   3.080310e-02
  4.368967e+00    4.144457e-01   3.496378e-02
  4.371177e+00    4.530826e-01   3.733345e-02
  4.373388e+00    4.160027e-01   3.657371e-02
  4.375598e+00    4.817649e-01   4.025626e-02
  4.377809e+00    3.457227e-01   3.496635e-02
  4.380019e+00    3.525004e-01   3.619306e-02
  4.382230e+00    3.762431e-01   3.843653e-02
  4.384440e+00    2.331337e-01   3.112572e-02
  4.386651e+00    4.748366e-01   4.579042e-02
  4.388861e+00    3.200785e-01   3.885965e-02
  4.391072e+00    3.082384e-01   3.947282e-02
  4.393282e+00    3.831349e-01   4.570951e-02
  4.395492e+00    3.025288e-01   4.230299e-02
  4.397703e+00    4.627782e-01   5.471394e-02
  4.399913e+00    2.583891e-01   4.295341e-02
  4.402124e+00    3.277095e-01   5.111528e-02
  4.404334e+00    2.507064e-01   4.752743e-02
  4.406545e+00    1.975957e-01   4.533473e-02
  4.408755e+00    3.178821e-01   6.235117e-02
  4.410966e+00    4.543240e-01   8.250514e-02
  4.413176e+00    3.534190e-01   8.237997e-02
  4.415387e+00   -8.918665e-01            nan
  4.417597e+00   -2.044852e+00            nan
  4.419807e+00   -3.766224e-01            nan
