# == pyFAI calibration ==
# Distance Sample to Detector: 0.216 m
# PONI: 1.166e-01, 1.308e-01 m
# Rotations: 0.000000 0.000000 0.000000 rad
# 
# == Fit2d calibration ==
# Distance Sample-beamCenter: 216.000 mm
# Center: x=1744.293, y=1555.000 pix
# Tilt: 0.000 deg  TiltPlanRot: 0.000 deg
# 
# Detector Eiger 9M	 PixelSize= 7.500e-05, 7.500e-05 m
#    Detector has a mask: True 
#    Detector has a dark current: False 
#    detector has a flat field: False 
# 
# Wavelength: 9.8e-11 m
# Mask applied: from detector
# Dark current applied: False
# Flat field applied: False
# Polarization factor: None
# Normalization factor: 1.0
# 
# Headers of the input frame:
# {
# "_array_data.header_convention": "SLS_1.0",
# "_array_data.header_contents": "# Detector: Dectris Eiger 9M, S/N E-18-0102\r\n# Pixel_size 75e-6 m x 75e-6 m\r\n# Silicon sensor, thickness 0.000450 m\r\n# Exposure_time 0.024997 s\r\n# Exposure_period 0.025000 s\r\n# Count_cutoff 62318 counts\r\n# Wavelength 0.980106 A\r\n# Detector_distance 0.215992 m\r\n# Beam_xy (1555, 1744) pixels\r\n# Start_angle 0.000000 deg.\r\n# Angle_increment 0.000000 deg.",
# "Content-Type": "application/octet-stream;",
# "conversions": "x-CBF_BYTE_OFFSET",
# "Content-Transfer-Encoding": "BINARY",
# "X-Binary-Size": "10166590",
# "X-Binary-ID": "1",
# "X-Binary-Element-Type": "signed 32-bit integer",
# "X-Binary-Element-Byte-Order": "LITTLE_ENDIAN",
# "Content-MD5": "51HXR4hRIQK5FsLZ61bkBw==",
# "X-Binary-Number-of-Elements": "10166590",
# "X-Binary-Size-Fastest-Dimension": "3110",
# "X-Binary-Size-Second-Dimension": "3269",
# "X-Binary-Size-Padding": "4095"
# }
# --> H:/Proxima2a_2019-04-05/RAW_DATA/C5_gel17_position5/C5_mesh_1_data.cbf/C5_mesh_1_data.cbf000182.dat
#        q_A^-1              I           sigma 
  1.105228e-03    1.364455e+00   6.320720e-01
  3.315685e-03    1.358708e+00   3.834498e-01
  5.526141e-03    1.828847e+00   3.440019e-01
  7.736597e-03    1.694284e+00   2.797134e-01
  9.947054e-03    1.365650e+00   2.213840e-01
  1.215751e-02    1.583208e+00   2.155448e-01
  1.436797e-02    1.384287e+00   1.853911e-01
  1.657842e-02    1.478951e+00   1.783698e-01
  1.878888e-02    1.290075e+00   1.564844e-01
  2.099934e-02    1.299655e+00   1.485991e-01
  2.320979e-02    1.414927e+00   1.474687e-01
  2.542025e-02    1.407291e+00   1.405405e-01
  2.763070e-02    1.406948e+00   1.347812e-01
  2.984116e-02    1.435476e+00   1.310010e-01
  3.205162e-02    1.487858e+00   1.286966e-01
  3.426207e-02    1.365398e+00   1.192352e-01
  3.647253e-02    1.360051e+00   1.153366e-01
  3.868299e-02    1.404681e+00   1.138242e-01
  4.089344e-02    1.268594e+00   1.052063e-01
  4.310390e-02    1.452318e+00   1.096364e-01
  4.531436e-02    1.448855e+00   1.068017e-01
  4.752481e-02    1.439772e+00   1.039599e-01
  4.973527e-02    1.472039e+00   1.027570e-01
  5.194572e-02    1.444270e+00   9.959259e-02
  5.415618e-02    1.496276e+00   9.927610e-02
  5.636664e-02    1.413319e+00   9.457693e-02
  5.857709e-02    1.481346e+00   9.498233e-02
  6.078755e-02    1.505209e+00   9.398439e-02
  6.299801e-02    1.496381e+00   9.204870e-02
  6.520846e-02    1.533419e+00   9.158853e-02
  6.741892e-02    1.490358e+00   8.879637e-02
  6.962938e-02    1.514177e+00   8.807540e-02
  7.183983e-02    1.459682e+00   8.513366e-02
  7.405029e-02    1.397712e+00   8.205219e-02
  7.626074e-02    1.495471e+00   8.363332e-02
  7.847120e-02    1.511843e+00   8.289482e-02
  8.068166e-02    1.526038e+00   8.213362e-02
  8.289211e-02    1.533831e+00   8.123732e-02
  8.510257e-02    1.455506e+00   7.810099e-02
  8.731303e-02    1.330793e+00   7.372587e-02
  8.952348e-02    1.411597e+00   7.498990e-02
  9.173394e-02    1.591211e+00   7.864982e-02
  9.394439e-02    1.544993e+00   7.657952e-02
  9.615485e-02    1.556695e+00   7.597864e-02
  9.836531e-02    1.493709e+00   7.358265e-02
  1.005758e-01    1.376891e+00   6.986653e-02
  1.027862e-01    1.476485e+00   7.156528e-02
  1.049967e-01    1.530431e+00   7.208864e-02
  1.072071e-01    1.517153e+00   7.103059e-02
  1.094176e-01    1.499824e+00   6.990569e-02
  1.116280e-01    1.469286e+00   6.850035e-02
  1.138385e-01    1.508316e+00   6.872572e-02
  1.160490e-01    1.599248e+00   7.008901e-02
  1.182594e-01    1.555287e+00   6.846849e-02
  1.204699e-01    1.533942e+00   6.736979e-02
  1.226803e-01    1.438677e+00   6.465112e-02
  1.248908e-01    1.506864e+00   6.557655e-02
  1.271012e-01    1.581864e+00   6.660055e-02
  1.293117e-01    1.557811e+00   6.552414e-02
  1.315222e-01    1.560227e+00   6.502002e-02
  1.337326e-01    1.566863e+00   6.461614e-02
  1.359431e-01    1.648698e+00   6.632090e-02
  1.381535e-01    1.614407e+00   6.650849e-02
  1.403640e-01    1.584221e+00   6.616825e-02
  1.425744e-01    1.526658e+00   6.505877e-02
  1.447849e-01    1.577960e+00   6.615807e-02
  1.469953e-01    1.595739e+00   6.648808e-02
  1.492058e-01    1.559544e+00   6.565332e-02
  1.514163e-01    1.624025e+00   6.688557e-02
  1.536267e-01    1.602862e+00   6.631862e-02
  1.558372e-01    1.608676e+00   6.629210e-02
  1.580476e-01    1.625336e+00   6.647281e-02
  1.602581e-01    1.626876e+00   6.633537e-02
  1.624685e-01    1.603934e+00   6.568567e-02
  1.646790e-01    1.638437e+00   6.619775e-02
  1.668895e-01    1.707715e+00   6.738762e-02
  1.690999e-01    1.719636e+00   6.741934e-02
  1.713104e-01    1.813095e+00   6.901232e-02
  1.735208e-01    1.878820e+00   7.003359e-02
  1.757313e-01    1.846140e+00   6.920429e-02
  1.779417e-01    1.856129e+00   6.916492e-02
  1.801522e-01    1.967051e+00   7.097483e-02
  1.823626e-01    1.876446e+00   6.909018e-02
  1.845731e-01    1.897057e+00   6.924357e-02
  1.867836e-01    1.851091e+00   6.816869e-02
  1.889940e-01    1.864036e+00   6.818309e-02
  1.912045e-01    1.951268e+00   6.952728e-02
  1.934149e-01    2.002843e+00   7.020441e-02
  1.956254e-01    1.993188e+00   6.980400e-02
  1.978358e-01    2.018867e+00   7.001147e-02
  2.000463e-01    1.991042e+00   6.929692e-02
  2.022568e-01    2.039734e+00   6.990892e-02
  2.044672e-01    2.083035e+00   7.040507e-02
  2.066777e-01    1.943000e+00   6.777168e-02
  2.088881e-01    1.905195e+00   6.688955e-02
  2.110986e-01    1.920439e+00   6.692632e-02
  2.133090e-01    1.970303e+00   6.756924e-02
  2.155195e-01    1.971074e+00   6.735828e-02
  2.177300e-01    2.005491e+00   6.741004e-02
  2.199404e-01    1.957836e+00   6.484932e-02
  2.221509e-01    2.021983e+00   6.482095e-02
  2.243613e-01    2.005103e+00   6.373149e-02
  2.265718e-01    2.051688e+00   6.375702e-02
  2.287822e-01    2.078985e+00   6.354451e-02
  2.309927e-01    2.057377e+00   6.263757e-02
  2.332031e-01    2.124031e+00   6.309939e-02
  2.354136e-01    2.112984e+00   6.242503e-02
  2.376241e-01    2.113706e+00   6.195108e-02
  2.398345e-01    2.107478e+00   6.140193e-02
  2.420450e-01    2.137848e+00   6.140079e-02
  2.442554e-01    2.148697e+00   6.113233e-02
  2.464659e-01    2.110885e+00   6.018522e-02
  2.486763e-01    2.102377e+00   5.966900e-02
  2.508868e-01    2.162771e+00   6.013820e-02
  2.530973e-01    2.089892e+00   5.874977e-02
  2.553077e-01    2.135565e+00   5.902801e-02
  2.575182e-01    2.150153e+00   5.887888e-02
  2.597286e-01    2.059765e+00   5.729302e-02
  2.619391e-01    2.039389e+00   5.668071e-02
  2.641495e-01    2.038401e+00   5.635335e-02
  2.663600e-01    2.094245e+00   5.680593e-02
  2.685704e-01    2.007866e+00   5.532061e-02
  2.707809e-01    2.047953e+00   5.557353e-02
  2.729914e-01    2.065921e+00   5.552592e-02
  2.752018e-01    1.984542e+00   5.413808e-02
  2.774123e-01    1.913345e+00   5.288651e-02
  2.796227e-01    2.009864e+00   5.393593e-02
  2.818332e-01    2.014006e+00   5.372213e-02
  2.840436e-01    2.015097e+00   5.347622e-02
  2.862541e-01    1.986989e+00   5.284669e-02
  2.884646e-01    1.991384e+00   5.265401e-02
  2.906750e-01    1.945548e+00   5.179774e-02
  2.928855e-01    1.995475e+00   5.221506e-02
  2.950959e-01    2.014519e+00   5.222267e-02
  2.973064e-01    2.054924e+00   5.250671e-02
  2.995168e-01    1.957923e+00   5.102037e-02
  3.017273e-01    1.979009e+00   5.106819e-02
  3.039377e-01    1.967396e+00   5.069518e-02
  3.061482e-01    1.919471e+00   4.985731e-02
  3.083587e-01    1.881632e+00   4.914976e-02
  3.105691e-01    1.890580e+00   4.905606e-02
  3.127796e-01    1.905174e+00   4.903799e-02
  3.149900e-01    1.836642e+00   4.794732e-02
  3.172005e-01    1.902355e+00   4.859798e-02
  3.194109e-01    1.931608e+00   4.876809e-02
  3.216214e-01    1.845631e+00   4.747586e-02
  3.238319e-01    1.832613e+00   4.712069e-02
  3.260423e-01    1.937948e+00   4.826296e-02
  3.282528e-01    1.857868e+00   4.706717e-02
  3.304632e-01    1.900036e+00   4.741390e-02
  3.326737e-01    1.876780e+00   4.693900e-02
  3.348841e-01    1.902059e+00   4.707081e-02
  3.370946e-01    1.862155e+00   4.639922e-02
  3.393050e-01    1.817481e+00   4.566561e-02
  3.415155e-01    1.825757e+00   4.559739e-02
  3.437260e-01    1.841436e+00   4.562302e-02
  3.459364e-01    1.796980e+00   4.490224e-02
  3.481469e-01    1.757429e+00   4.424324e-02
  3.503573e-01    1.815232e+00   4.480114e-02
  3.525678e-01    1.843603e+00   4.498900e-02
  3.547782e-01    1.801504e+00   4.431162e-02
  3.569887e-01    1.841576e+00   4.464301e-02
  3.591992e-01    1.848891e+00   4.457328e-02
  3.614096e-01    1.833781e+00   4.423690e-02
  3.636201e-01    1.829110e+00   4.402523e-02
  3.658305e-01    1.820901e+00   4.377651e-02
  3.680410e-01    1.785856e+00   4.320409e-02
  3.702514e-01    1.789170e+00   4.309873e-02
  3.724619e-01    1.744451e+00   4.241179e-02
  3.746724e-01    1.732759e+00   4.212838e-02
  3.768828e-01    1.851086e+00   4.339655e-02
  3.790933e-01    1.795254e+00   4.259785e-02
  3.813037e-01    1.717265e+00   4.152597e-02
  3.835142e-01    1.775713e+00   4.208805e-02
  3.857246e-01    1.807122e+00   4.232124e-02
  3.879351e-01    1.802391e+00   4.212901e-02
  3.901455e-01    1.812296e+00   4.211011e-02
  3.923560e-01    1.808014e+00   4.192666e-02
  3.945665e-01    1.795029e+00   4.164334e-02
  3.967769e-01    1.827582e+00   4.188767e-02
  3.989874e-01    1.843662e+00   4.194016e-02
  4.011978e-01    1.820694e+00   4.154994e-02
  4.034083e-01    1.836602e+00   4.160295e-02
  4.056187e-01    1.791174e+00   4.095864e-02
  4.078292e-01    1.784290e+00   4.075615e-02
  4.100397e-01    1.730253e+00   4.001172e-02
  4.122501e-01    1.780942e+00   4.047212e-02
  4.144606e-01    1.757180e+00   4.008200e-02
  4.166710e-01    1.820004e+00   4.067095e-02
  4.188815e-01    1.795168e+00   4.027317e-02
  4.210919e-01    1.788918e+00   4.008518e-02
  4.233024e-01    1.813310e+00   4.023883e-02
  4.255128e-01    1.815570e+00   4.014752e-02
  4.277233e-01    1.814491e+00   4.002026e-02
  4.299338e-01    1.789660e+00   3.963112e-02
  4.321442e-01    1.791419e+00   3.953714e-02
  4.343547e-01    1.748091e+00   3.894564e-02
  4.365651e-01    1.755862e+00   3.892122e-02
  4.387756e-01    1.734355e+00   3.857380e-02
  4.409860e-01    1.747199e+00   3.860910e-02
  4.431965e-01    1.732839e+00   3.834379e-02
  4.454070e-01    1.693306e+00   3.779843e-02
  4.476174e-01    1.735908e+00   3.816589e-02
  4.498279e-01    1.703580e+00   3.770596e-02
  4.520383e-01    1.740246e+00   3.800498e-02
  4.542488e-01    1.766975e+00   3.819247e-02
  4.564592e-01    1.729799e+00   3.768720e-02
  4.586697e-01    1.709285e+00   3.736362e-02
  4.608801e-01    1.673720e+00   3.687384e-02
  4.630906e-01    1.715756e+00   3.723514e-02
  4.653011e-01    1.691338e+00   3.687204e-02
  4.675115e-01    1.738577e+00   3.728494e-02
  4.697220e-01    1.711114e+00   3.689245e-02
  4.719324e-01    1.721142e+00   3.690469e-02
  4.741429e-01    1.720917e+00   3.680719e-02
  4.763533e-01    1.722679e+00   3.673162e-02
  4.785638e-01    1.652034e+00   3.587767e-02
  4.807743e-01    1.627446e+00   3.551909e-02
  4.829847e-01    1.684283e+00   3.604273e-02
  4.851952e-01    1.639076e+00   3.546577e-02
  4.874056e-01    1.695046e+00   3.597525e-02
  4.896161e-01    1.737511e+00   3.633280e-02
  4.918265e-01    1.744837e+00   3.631888e-02
  4.940370e-01    1.727117e+00   3.604481e-02
  4.962475e-01    1.689708e+00   3.556425e-02
  4.984579e-01    1.681669e+00   3.539209e-02
  5.006684e-01    1.691153e+00   3.540523e-02
  5.028788e-01    1.666662e+00   3.506277e-02
  5.050893e-01    1.703529e+00   3.536223e-02
  5.072997e-01    1.711923e+00   3.536361e-02
  5.095102e-01    1.706185e+00   3.521977e-02
  5.117206e-01    1.653424e+00   3.458847e-02
  5.139311e-01    1.663788e+00   3.461459e-02
  5.161416e-01    1.659237e+00   3.448554e-02
  5.183520e-01    1.667125e+00   3.448526e-02
  5.205625e-01    1.653331e+00   3.426184e-02
  5.227729e-01    1.671302e+00   3.436721e-02
  5.249834e-01    1.666093e+00   3.423394e-02
  5.271938e-01    1.653358e+00   3.402330e-02
  5.294043e-01    1.692096e+00   3.434012e-02
  5.316148e-01    1.741404e+00   3.475708e-02
  5.338252e-01    1.820013e+00   3.545171e-02
  5.360357e-01    1.778151e+00   3.496186e-02
  5.382461e-01    1.714730e+00   3.425509e-02
  5.404566e-01    1.764264e+00   3.466726e-02
  5.426670e-01    1.781099e+00   3.475380e-02
  5.448775e-01    1.760096e+00   3.447109e-02
  5.470879e-01    1.806396e+00   3.484365e-02
  5.492984e-01    1.799803e+00   3.470267e-02
  5.515089e-01    1.773121e+00   3.436809e-02
  5.537193e-01    1.755271e+00   3.411933e-02
  5.559298e-01    1.736987e+00   3.386671e-02
  5.581402e-01    1.718458e+00   3.361198e-02
  5.603507e-01    1.787921e+00   3.420995e-02
  5.625611e-01    1.780969e+00   3.406931e-02
  5.647716e-01    1.746058e+00   3.366048e-02
  5.669821e-01    1.773219e+00   3.384814e-02
  5.691925e-01    1.757603e+00   3.362646e-02
  5.714030e-01    1.717166e+00   3.316651e-02
  5.736134e-01    1.742060e+00   3.333501e-02
  5.758239e-01    1.724739e+00   3.309807e-02
  5.780343e-01    1.687951e+00   3.267393e-02
  5.802448e-01    1.660861e+00   3.234282e-02
  5.824552e-01    1.644316e+00   3.211380e-02
  5.846657e-01    1.647620e+00   3.207903e-02
  5.868762e-01    1.621820e+00   3.176063e-02
  5.890866e-01    1.612507e+00   3.160358e-02
  5.912971e-01    1.649904e+00   3.190178e-02
  5.935075e-01    1.659790e+00   3.193108e-02
  5.957180e-01    1.666802e+00   3.193280e-02
  5.979284e-01    1.672196e+00   3.191915e-02
  6.001389e-01    1.637020e+00   3.151733e-02
  6.023494e-01    1.655361e+00   3.162904e-02
  6.045598e-01    1.680712e+00   3.180543e-02
  6.067703e-01    1.688251e+00   3.181257e-02
  6.089807e-01    1.670855e+00   3.158463e-02
  6.111912e-01    1.690072e+00   3.170232e-02
  6.134016e-01    1.694719e+00   3.168254e-02
  6.156121e-01    1.711368e+00   3.177451e-02
  6.178226e-01    1.654376e+00   3.117910e-02
  6.200330e-01    1.647158e+00   3.104963e-02
  6.222435e-01    1.666799e+00   3.117234e-02
  6.244539e-01    1.719521e+00   3.159949e-02
  6.266644e-01    1.686584e+00   3.123437e-02
  6.288748e-01    1.693680e+00   3.123906e-02
  6.310853e-01    1.745854e+00   3.165500e-02
  6.332957e-01    1.711440e+00   3.128096e-02
  6.355062e-01    1.709645e+00   3.120381e-02
  6.377167e-01    1.691393e+00   3.097724e-02
  6.399271e-01    1.699645e+00   3.099320e-02
  6.421376e-01    1.752799e+00   3.141404e-02
  6.443480e-01    1.733762e+00   3.118356e-02
  6.465585e-01    1.681969e+00   3.065606e-02
  6.487689e-01    1.692828e+00   3.069678e-02
  6.509794e-01    1.627499e+00   3.004188e-02
  6.531899e-01    1.587109e+00   2.961096e-02
  6.554003e-01    1.586249e+00   2.954728e-02
  6.576108e-01    1.582814e+00   2.946031e-02
  6.598212e-01    1.598463e+00   2.955057e-02
  6.620317e-01    1.617973e+00   2.967527e-02
  6.642421e-01    1.592596e+00   2.938716e-02
  6.664526e-01    1.612376e+00   2.951459e-02
  6.686630e-01    1.630341e+00   2.962372e-02
  6.708735e-01    1.620826e+00   2.948295e-02
  6.730840e-01    1.623325e+00   2.945189e-02
  6.752944e-01    1.624680e+00   2.941059e-02
  6.775049e-01    1.594319e+00   2.908161e-02
  6.797153e-01    1.547516e+00   2.859967e-02
  6.819258e-01    1.580369e+00   2.884952e-02
  6.841362e-01    1.598087e+00   2.895863e-02
  6.863467e-01    1.562668e+00   2.858463e-02
  6.885572e-01    1.600814e+00   2.887956e-02
  6.907676e-01    1.619060e+00   2.899164e-02
  6.929781e-01    1.631730e+00   2.905315e-02
  6.951885e-01    1.593440e+00   2.865938e-02
  6.973990e-01    1.601307e+00   2.867924e-02
  6.996094e-01    1.613374e+00   2.873646e-02
  7.018199e-01    1.607351e+00   2.863242e-02
  7.040303e-01    1.588774e+00   2.841648e-02
  7.062408e-01    1.632430e+00   2.875378e-02
  7.084513e-01    1.613952e+00   2.854086e-02
  7.106617e-01    1.564119e+00   2.804797e-02
  7.128722e-01    1.560295e+00   2.796518e-02
  7.150826e-01    1.561530e+00   2.792804e-02
  7.172931e-01    1.585191e+00   2.809032e-02
  7.195035e-01    1.579409e+00   2.799084e-02
  7.217140e-01    1.575721e+00   2.800761e-02
  7.239245e-01    1.583437e+00   2.830346e-02
  7.261349e-01    1.542618e+00   2.804378e-02
  7.283454e-01    1.548131e+00   2.816563e-02
  7.305558e-01    1.577992e+00   2.849001e-02
  7.327663e-01    1.563862e+00   2.840453e-02
  7.349767e-01    1.554034e+00   2.833141e-02
  7.371872e-01    1.549129e+00   2.827556e-02
  7.393976e-01    1.541931e+00   2.819568e-02
  7.416081e-01    1.558790e+00   2.833331e-02
  7.438186e-01    1.586639e+00   2.844042e-02
  7.460290e-01    1.571480e+00   2.801030e-02
  7.482395e-01    1.542444e+00   2.758090e-02
  7.504499e-01    1.549860e+00   2.751194e-02
  7.526604e-01    1.533103e+00   2.724780e-02
  7.548708e-01    1.573455e+00   2.751466e-02
  7.570813e-01    1.580745e+00   2.752728e-02
  7.592918e-01    1.534087e+00   2.708325e-02
  7.615022e-01    1.541247e+00   2.711294e-02
  7.637127e-01    1.534946e+00   2.702509e-02
  7.659231e-01    1.521782e+00   2.687750e-02
  7.681336e-01    1.559858e+00   2.718021e-02
  7.703440e-01    1.559940e+00   2.714985e-02
  7.725545e-01    1.544811e+00   2.698728e-02
  7.747650e-01    1.593559e+00   2.737135e-02
  7.769754e-01    1.578808e+00   2.719163e-02
  7.791859e-01    1.596668e+00   2.729113e-02
  7.813963e-01    1.577433e+00   2.707371e-02
  7.836068e-01    1.559336e+00   2.686635e-02
  7.858172e-01    1.586184e+00   2.704599e-02
  7.880277e-01    1.557053e+00   2.674553e-02
  7.902381e-01    1.564193e+00   2.675806e-02
  7.924486e-01    1.570727e+00   2.676423e-02
  7.946591e-01    1.576433e+00   2.676485e-02
  7.968695e-01    1.627565e+00   2.714680e-02
  7.990800e-01    1.650423e+00   2.728792e-02
  8.012904e-01    1.599538e+00   2.681750e-02
  8.035009e-01    1.596017e+00   2.674028e-02
  8.057113e-01    1.654055e+00   2.717505e-02
  8.079218e-01    1.682377e+00   2.735946e-02
  8.101323e-01    1.614020e+00   2.675235e-02
  8.123427e-01    1.626335e+00   2.680843e-02
  8.145532e-01    1.625814e+00   2.675827e-02
  8.167636e-01    1.662966e+00   2.701678e-02
  8.189741e-01    1.592337e+00   2.639278e-02
  8.211845e-01    1.607754e+00   2.647575e-02
  8.233950e-01    1.620630e+00   2.653835e-02
  8.256054e-01    1.635995e+00   2.661966e-02
  8.278159e-01    1.645436e+00   2.665231e-02
  8.300264e-01    1.638310e+00   2.655143e-02
  8.322368e-01    1.691815e+00   2.693768e-02
  8.344473e-01    1.667251e+00   2.669770e-02
  8.366577e-01    1.620040e+00   2.627464e-02
  8.388682e-01    1.598660e+00   2.605896e-02
  8.410786e-01    1.643141e+00   2.637689e-02
  8.432891e-01    1.634318e+00   2.626422e-02
  8.454996e-01    1.629445e+00   2.618350e-02
  8.477100e-01    1.616479e+00   2.603775e-02
  8.499205e-01    1.619374e+00   2.602010e-02
  8.521309e-01    1.612587e+00   2.592506e-02
  8.543414e-01    1.597150e+00   2.576039e-02
  8.565518e-01    1.625341e+00   2.594631e-02
  8.587623e-01    1.599473e+00   2.569892e-02
  8.609727e-01    1.620041e+00   2.582353e-02
  8.631832e-01    1.644717e+00   2.597932e-02
  8.653937e-01    1.673776e+00   2.616755e-02
  8.676041e-01    1.656430e+00   2.599235e-02
  8.698146e-01    1.624905e+00   2.570446e-02
  8.720250e-01    1.589982e+00   2.538798e-02
  8.742355e-01    1.610334e+00   2.551105e-02
  8.764459e-01    1.620608e+00   2.555326e-02
  8.786564e-01    1.639280e+00   2.566173e-02
  8.808669e-01    1.637654e+00   2.561012e-02
  8.830773e-01    1.614124e+00   2.538721e-02
  8.852878e-01    1.598185e+00   2.522366e-02
  8.874982e-01    1.591378e+00   2.513336e-02
  8.897087e-01    1.571651e+00   2.493977e-02
  8.919191e-01    1.581334e+00   2.497893e-02
  8.941296e-01    1.602937e+00   2.511166e-02
  8.963401e-01    1.579224e+00   2.488906e-02
  8.985505e-01    1.584401e+00   2.489302e-02
  9.007610e-01    1.594341e+00   2.493431e-02
  9.029714e-01    1.595851e+00   2.491032e-02
  9.051819e-01    1.616663e+00   2.503482e-02
  9.073923e-01    1.600292e+00   2.487116e-02
  9.096028e-01    1.579412e+00   2.467368e-02
  9.118132e-01    1.560972e+00   2.449346e-02
  9.140237e-01    1.570576e+00   2.453239e-02
  9.162342e-01    1.588781e+00   2.463973e-02
  9.184446e-01    1.626956e+00   2.489792e-02
  9.206551e-01    1.619689e+00   2.480647e-02
  9.228655e-01    1.636220e+00   2.489708e-02
  9.250760e-01    1.628585e+00   2.480329e-02
  9.272864e-01    1.607525e+00   2.460810e-02
  9.294969e-01    1.611293e+00   2.460099e-02
  9.317074e-01    1.624654e+00   2.466787e-02
  9.339178e-01    1.608847e+00   2.451406e-02
  9.361283e-01    1.652066e+00   2.480450e-02
  9.383387e-01    1.652515e+00   2.477416e-02
  9.405492e-01    1.632181e+00   2.458686e-02
  9.427596e-01    1.650898e+00   2.469185e-02
  9.449701e-01    1.653410e+00   2.467704e-02
  9.471805e-01    1.655206e+00   2.465548e-02
  9.493910e-01    1.661407e+00   2.466771e-02
  9.516015e-01    1.667006e+00   2.467475e-02
  9.538119e-01    1.674478e+00   2.469610e-02
  9.560224e-01    1.687170e+00   2.475462e-02
  9.582328e-01    1.680359e+00   2.467147e-02
  9.604433e-01    1.714128e+00   2.488283e-02
  9.626537e-01    1.752605e+00   2.512673e-02
  9.648642e-01    1.787105e+00   2.533808e-02
  9.670747e-01    1.809568e+00   2.546168e-02
  9.692851e-01    1.824995e+00   2.553597e-02
  9.714956e-01    1.877040e+00   2.586103e-02
  9.737060e-01    1.877579e+00   2.583076e-02
  9.759165e-01    1.902545e+00   2.596527e-02
  9.781269e-01    1.908831e+00   2.597412e-02
  9.803374e-01    1.897293e+00   2.585966e-02
  9.825478e-01    1.955413e+00   2.621814e-02
  9.847583e-01    1.933416e+00   2.603486e-02
  9.869688e-01    1.857707e+00   2.548588e-02
  9.891792e-01    1.861901e+00   2.548068e-02
  9.913897e-01    1.886531e+00   2.561407e-02
  9.936001e-01    1.804841e+00   2.502060e-02
  9.958106e-01    1.720477e+00   2.439561e-02
  9.980210e-01    1.677051e+00   2.405450e-02
  1.000231e+00    1.641795e+00   2.393069e-02
  1.002442e+00    1.636276e+00   2.401737e-02
  1.004652e+00    1.623729e+00   2.399185e-02
  1.006863e+00    1.612400e+00   2.395763e-02
  1.009073e+00    1.588075e+00   2.381260e-02
  1.011284e+00    1.606235e+00   2.398039e-02
  1.013494e+00    1.567145e+00   2.371029e-02
  1.015705e+00    1.558735e+00   2.366893e-02
  1.017915e+00    1.528935e+00   2.345774e-02
  1.020126e+00    1.534753e+00   2.351820e-02
  1.022336e+00    1.513488e+00   2.336623e-02
  1.024547e+00    1.500006e+00   2.327295e-02
  1.026757e+00    1.512311e+00   2.337649e-02
  1.028967e+00    1.503510e+00   2.331594e-02
  1.031178e+00    1.514768e+00   2.340919e-02
  1.033388e+00    1.495501e+00   2.326484e-02
  1.035599e+00    1.483244e+00   2.317267e-02
  1.037809e+00    1.468933e+00   2.306381e-02
  1.040020e+00    1.463554e+00   2.302280e-02
  1.042230e+00    1.467297e+00   2.305410e-02
  1.044441e+00    1.542983e+00   2.364099e-02
  1.046651e+00    1.554513e+00   2.372935e-02
  1.048862e+00    1.542686e+00   2.363809e-02
  1.051072e+00    1.589184e+00   2.398926e-02
  1.053282e+00    1.608385e+00   2.413277e-02
  1.055493e+00    1.647057e+00   2.441665e-02
  1.057703e+00    1.644503e+00   2.439613e-02
  1.059914e+00    1.588585e+00   2.397342e-02
  1.062124e+00    1.492077e+00   2.322971e-02
  1.064335e+00    1.485265e+00   2.317317e-02
  1.066545e+00    1.476898e+00   2.310183e-02
  1.068756e+00    1.451294e+00   2.289702e-02
  1.070966e+00    1.429191e+00   2.271554e-02
  1.073177e+00    1.454880e+00   2.291276e-02
  1.075387e+00    1.446136e+00   2.283863e-02
  1.077597e+00    1.429601e+00   2.270053e-02
  1.079808e+00    1.410851e+00   2.242087e-02
  1.082018e+00    1.436494e+00   2.243635e-02
  1.084229e+00    1.438802e+00   2.234514e-02
  1.086439e+00    1.404690e+00   2.199277e-02
  1.088650e+00    1.425444e+00   2.207971e-02
  1.090860e+00    1.452918e+00   2.222390e-02
  1.093071e+00    1.415599e+00   2.187520e-02
  1.095281e+00    1.427413e+00   2.190939e-02
  1.097492e+00    1.407643e+00   2.170297e-02
  1.099702e+00    1.400091e+00   2.159398e-02
  1.101912e+00    1.427130e+00   2.175287e-02
  1.104123e+00    1.414867e+00   2.161134e-02
  1.106333e+00    1.373365e+00   2.124853e-02
  1.108544e+00    1.409345e+00   2.148112e-02
  1.110754e+00    1.423798e+00   2.154802e-02
  1.112965e+00    1.407407e+00   2.138330e-02
  1.115175e+00    1.444340e+00   2.162052e-02
  1.117386e+00    1.428665e+00   2.146343e-02
  1.119596e+00    1.421694e+00   2.137301e-02
  1.121807e+00    1.406409e+00   2.121903e-02
  1.124017e+00    1.379989e+00   2.098249e-02
  1.126228e+00    1.391864e+00   2.103698e-02
  1.128438e+00    1.364924e+00   2.079611e-02
  1.130648e+00    1.400366e+00   2.103004e-02
  1.132859e+00    1.398921e+00   2.098480e-02
  1.135069e+00    1.391174e+00   2.089191e-02
  1.137280e+00    1.377687e+00   2.075754e-02
  1.139490e+00    1.372893e+00   2.068849e-02
  1.141701e+00    1.386221e+00   2.075554e-02
  1.143911e+00    1.376589e+00   2.065152e-02
  1.146122e+00    1.360634e+00   2.049972e-02
  1.148332e+00    1.352005e+00   2.040305e-02
  1.150543e+00    1.359089e+00   2.042579e-02
  1.152753e+00    1.390878e+00   2.063229e-02
  1.154963e+00    1.378114e+00   2.050633e-02
  1.157174e+00    1.354419e+00   2.029930e-02
  1.159384e+00    1.355563e+00   2.027821e-02
  1.161595e+00    1.376892e+00   2.040719e-02
  1.163805e+00    1.383301e+00   2.042522e-02
  1.166016e+00    1.393153e+00   2.046813e-02
  1.168226e+00    1.380614e+00   2.034672e-02
  1.170437e+00    1.384210e+00   2.034435e-02
  1.172647e+00    1.371992e+00   2.022543e-02
  1.174858e+00    1.399914e+00   2.040172e-02
  1.177068e+00    1.398746e+00   2.036459e-02
  1.179278e+00    1.444786e+00   2.066759e-02
  1.181489e+00    1.446983e+00   2.065544e-02
  1.183699e+00    1.445394e+00   2.061567e-02
  1.185910e+00    1.387312e+00   2.016915e-02
  1.188120e+00    1.362198e+00   1.995900e-02
  1.190331e+00    1.351370e+00   1.985278e-02
  1.192541e+00    1.378416e+00   2.002284e-02
  1.194752e+00    1.345134e+00   1.975269e-02
  1.196962e+00    1.352412e+00   1.978027e-02
  1.199173e+00    1.351561e+00   1.974757e-02
  1.201383e+00    1.346901e+00   1.968634e-02
  1.203593e+00    1.359118e+00   1.975054e-02
  1.205804e+00    1.353472e+00   1.968351e-02
  1.208014e+00    1.336766e+00   1.953493e-02
  1.210225e+00    1.349065e+00   1.959927e-02
  1.212435e+00    1.313112e+00   1.931192e-02
  1.214646e+00    1.340972e+00   1.948965e-02
  1.216856e+00    1.355575e+00   1.957000e-02
  1.219067e+00    1.345227e+00   1.947073e-02
  1.221277e+00    1.317078e+00   1.924121e-02
  1.223488e+00    1.344118e+00   1.941203e-02
  1.225698e+00    1.327676e+00   1.926626e-02
  1.227909e+00    1.335948e+00   1.929617e-02
  1.230119e+00    1.335623e+00   1.926213e-02
  1.232329e+00    1.338933e+00   1.925541e-02
  1.234540e+00    1.334155e+00   1.919090e-02
  1.236750e+00    1.338233e+00   1.919008e-02
  1.238961e+00    1.323681e+00   1.905875e-02
  1.241171e+00    1.328907e+00   1.907236e-02
  1.243382e+00    1.288979e+00   1.876066e-02
  1.245592e+00    1.323762e+00   1.898824e-02
  1.247803e+00    1.350896e+00   1.915819e-02
  1.250013e+00    1.342634e+00   1.907605e-02
  1.252224e+00    1.340847e+00   1.904017e-02
  1.254434e+00    1.344311e+00   1.904106e-02
  1.256644e+00    1.344467e+00   1.901900e-02
  1.258855e+00    1.343069e+00   1.898591e-02
  1.261065e+00    1.354031e+00   1.903982e-02
  1.263276e+00    1.349954e+00   1.898821e-02
  1.265486e+00    1.356048e+00   1.900807e-02
  1.267697e+00    1.305447e+00   1.862745e-02
  1.269907e+00    1.304800e+00   1.860049e-02
  1.272118e+00    1.331143e+00   1.876492e-02
  1.274328e+00    1.346665e+00   1.885127e-02
  1.276539e+00    1.352942e+00   1.887238e-02
  1.278749e+00    1.326339e+00   1.866380e-02
  1.280959e+00    1.347705e+00   1.879103e-02
  1.283170e+00    1.351675e+00   1.879623e-02
  1.285380e+00    1.331095e+00   1.863030e-02
  1.287591e+00    1.362482e+00   1.882653e-02
  1.289801e+00    1.366378e+00   1.883209e-02
  1.292012e+00    1.364544e+00   1.880225e-02
  1.294222e+00    1.370615e+00   1.882767e-02
  1.296433e+00    1.384314e+00   1.890572e-02
  1.298643e+00    1.415695e+00   1.910195e-02
  1.300854e+00    1.422371e+00   1.913009e-02
  1.303064e+00    1.392577e+00   1.890917e-02
  1.305274e+00    1.363506e+00   1.868919e-02
  1.307485e+00    1.325893e+00   1.840828e-02
  1.309695e+00    1.319271e+00   1.834023e-02
  1.311906e+00    1.334034e+00   1.842100e-02
  1.314116e+00    1.342315e+00   1.845735e-02
  1.316327e+00    1.359545e+00   1.855366e-02
  1.318537e+00    1.363864e+00   1.856112e-02
  1.320748e+00    1.342454e+00   1.839338e-02
  1.322958e+00    1.326780e+00   1.826531e-02
  1.325169e+00    1.390179e+00   1.867528e-02
  1.327379e+00    1.389451e+00   1.864830e-02
  1.329589e+00    1.361428e+00   1.843812e-02
  1.331800e+00    1.374278e+00   1.850404e-02
  1.334010e+00    1.400135e+00   1.865628e-02
  1.336221e+00    1.395682e+00   1.860447e-02
  1.338431e+00    1.386267e+00   1.852049e-02
  1.340642e+00    1.353707e+00   1.836592e-02
  1.342852e+00    1.363954e+00   1.853651e-02
  1.345063e+00    1.346737e+00   1.846857e-02
  1.347273e+00    1.332288e+00   1.840423e-02
  1.349484e+00    1.364255e+00   1.865154e-02
  1.351694e+00    1.344972e+00   1.854193e-02
  1.353905e+00    1.334694e+00   1.848884e-02
  1.356115e+00    1.341899e+00   1.855366e-02
  1.358325e+00    1.334838e+00   1.851805e-02
  1.360536e+00    1.335786e+00   1.853617e-02
  1.362746e+00    1.338476e+00   1.856435e-02
  1.364957e+00    1.330202e+00   1.851450e-02
  1.367167e+00    1.345516e+00   1.862790e-02
  1.369378e+00    1.351568e+00   1.867579e-02
  1.371588e+00    1.338839e+00   1.859278e-02
  1.373799e+00    1.321713e+00   1.847710e-02
  1.376009e+00    1.347964e+00   1.866311e-02
  1.378220e+00    1.333451e+00   1.856489e-02
  1.380430e+00    1.321073e+00   1.848124e-02
  1.382640e+00    1.312647e+00   1.842307e-02
  1.384851e+00    1.305153e+00   1.837131e-02
  1.387061e+00    1.307486e+00   1.838799e-02
  1.389272e+00    1.299262e+00   1.833031e-02
  1.391482e+00    1.282969e+00   1.821432e-02
  1.393693e+00    1.273240e+00   1.814427e-02
  1.395903e+00    1.248074e+00   1.796259e-02
  1.398114e+00    1.258241e+00   1.803421e-02
  1.400324e+00    1.272095e+00   1.813112e-02
  1.402535e+00    1.262492e+00   1.806025e-02
  1.404745e+00    1.259196e+00   1.803430e-02
  1.406955e+00    1.286669e+00   1.822728e-02
  1.409166e+00    1.264988e+00   1.806977e-02
  1.411376e+00    1.258343e+00   1.801913e-02
  1.413587e+00    1.250116e+00   1.795635e-02
  1.415797e+00    1.283687e+00   1.819229e-02
  1.418008e+00    1.283005e+00   1.814538e-02
  1.420218e+00    1.265699e+00   1.787312e-02
  1.422429e+00    1.244219e+00   1.763635e-02
  1.424639e+00    1.268882e+00   1.774563e-02
  1.426850e+00    1.270427e+00   1.770172e-02
  1.429060e+00    1.273983e+00   1.767742e-02
  1.431270e+00    1.284969e+00   1.770890e-02
  1.433481e+00    1.275906e+00   1.760528e-02
  1.435691e+00    1.291147e+00   1.767139e-02
  1.437902e+00    1.264606e+00   1.745243e-02
  1.440112e+00    1.260025e+00   1.738558e-02
  1.442323e+00    1.279567e+00   1.748670e-02
  1.444533e+00    1.272532e+00   1.740600e-02
  1.446744e+00    1.246488e+00   1.719612e-02
  1.448954e+00    1.254397e+00   1.722057e-02
  1.451165e+00    1.271404e+00   1.730714e-02
  1.453375e+00    1.266115e+00   1.724311e-02
  1.455586e+00    1.243288e+00   1.705910e-02
  1.457796e+00    1.267061e+00   1.719392e-02
  1.460006e+00    1.271444e+00   1.719639e-02
  1.462217e+00    1.276646e+00   1.720522e-02
  1.464427e+00    1.290145e+00   1.727016e-02
  1.466638e+00    1.236933e+00   1.688525e-02
  1.468848e+00    1.253246e+00   1.697103e-02
  1.471059e+00    1.296446e+00   1.723570e-02
  1.473269e+00    1.285493e+00   1.713821e-02
  1.475480e+00    1.277609e+00   1.706174e-02
  1.477690e+00    1.258703e+00   1.691126e-02
  1.479901e+00    1.274354e+00   1.699219e-02
  1.482111e+00    1.280385e+00   1.700891e-02
  1.484321e+00    1.250292e+00   1.678488e-02
  1.486532e+00    1.273926e+00   1.692037e-02
  1.488742e+00    1.248998e+00   1.673153e-02
  1.490953e+00    1.229959e+00   1.658119e-02
  1.493163e+00    1.234244e+00   1.658803e-02
  1.495374e+00    1.242287e+00   1.662068e-02
  1.497584e+00    1.257688e+00   1.670176e-02
  1.499795e+00    1.254703e+00   1.666035e-02
  1.502005e+00    1.226193e+00   1.644858e-02
  1.504216e+00    1.223565e+00   1.641020e-02
  1.506426e+00    1.252243e+00   1.658061e-02
  1.508636e+00    1.259869e+00   1.661060e-02
  1.510847e+00    1.218126e+00   1.631160e-02
  1.513057e+00    1.235036e+00   1.639954e-02
  1.515268e+00    1.237109e+00   1.638777e-02
  1.517478e+00    1.240515e+00   1.638530e-02
  1.519689e+00    1.257872e+00   1.647454e-02
  1.521899e+00    1.255565e+00   1.643630e-02
  1.524110e+00    1.284025e+00   1.660094e-02
  1.526320e+00    1.261682e+00   1.643623e-02
  1.528531e+00    1.283785e+00   1.655955e-02
  1.530741e+00    1.262335e+00   1.640138e-02
  1.532951e+00    1.254654e+00   1.633178e-02
  1.535162e+00    1.239262e+00   1.631754e-02
  1.537372e+00    1.212618e+00   1.620710e-02
  1.539583e+00    1.223769e+00   1.631532e-02
  1.541793e+00    1.220254e+00   1.629876e-02
  1.544004e+00    1.237313e+00   1.641253e-02
  1.546214e+00    1.232255e+00   1.637749e-02
  1.548425e+00    1.204996e+00   1.619556e-02
  1.550635e+00    1.218703e+00   1.629698e-02
  1.552846e+00    1.245504e+00   1.648487e-02
  1.555056e+00    1.257217e+00   1.652054e-02
  1.557266e+00    1.243185e+00   1.631767e-02
  1.559477e+00    1.204629e+00   1.600449e-02
  1.561687e+00    1.243121e+00   1.622749e-02
  1.563898e+00    1.241925e+00   1.620257e-02
  1.566108e+00    1.252076e+00   1.625263e-02
  1.568319e+00    1.275669e+00   1.638924e-02
  1.570529e+00    1.250907e+00   1.620420e-02
  1.572740e+00    1.247508e+00   1.615452e-02
  1.574950e+00    1.248083e+00   1.613188e-02
  1.577161e+00    1.245380e+00   1.608892e-02
  1.579371e+00    1.242602e+00   1.604732e-02
  1.581582e+00    1.247256e+00   1.605754e-02
  1.583792e+00    1.247158e+00   1.603890e-02
  1.586002e+00    1.230521e+00   1.591402e-02
  1.588213e+00    1.224872e+00   1.586035e-02
  1.590423e+00    1.238124e+00   1.592588e-02
  1.592634e+00    1.233118e+00   1.587214e-02
  1.594844e+00    1.226951e+00   1.581113e-02
  1.597055e+00    1.232301e+00   1.582515e-02
  1.599265e+00    1.239246e+00   1.584899e-02
  1.601476e+00    1.219978e+00   1.570516e-02
  1.603686e+00    1.228923e+00   1.574295e-02
  1.605897e+00    1.232129e+00   1.574337e-02
  1.608107e+00    1.209339e+00   1.557778e-02
  1.610317e+00    1.196217e+00   1.547402e-02
  1.612528e+00    1.204815e+00   1.551061e-02
  1.614738e+00    1.236997e+00   1.569739e-02
  1.616949e+00    1.217708e+00   1.555564e-02
  1.619159e+00    1.175806e+00   1.526728e-02
  1.621370e+00    1.183240e+00   1.529727e-02
  1.623580e+00    1.193617e+00   1.534605e-02
  1.625791e+00    1.159448e+00   1.510691e-02
  1.628001e+00    1.176648e+00   1.520047e-02
  1.630212e+00    1.168703e+00   1.513152e-02
  1.632422e+00    1.154073e+00   1.501886e-02
  1.634632e+00    1.159216e+00   1.503513e-02
  1.636843e+00    1.163649e+00   1.504642e-02
  1.639053e+00    1.152385e+00   1.495628e-02
  1.641264e+00    1.172621e+00   1.506991e-02
  1.643474e+00    1.153061e+00   1.492639e-02
  1.645685e+00    1.144827e+00   1.485641e-02
  1.647895e+00    1.138000e+00   1.479559e-02
  1.650106e+00    1.138532e+00   1.478215e-02
  1.652316e+00    1.128934e+00   1.470336e-02
  1.654527e+00    1.114216e+00   1.459074e-02
  1.656737e+00    1.111940e+00   1.455944e-02
  1.658947e+00    1.105264e+00   1.449959e-02
  1.661158e+00    1.102989e+00   1.446855e-02
  1.663368e+00    1.134849e+00   1.465992e-02
  1.665579e+00    1.138796e+00   1.466911e-02
  1.667789e+00    1.111099e+00   1.447343e-02
  1.670000e+00    1.083306e+00   1.427599e-02
  1.672210e+00    1.071736e+00   1.418393e-02
  1.674421e+00    1.079801e+00   1.422204e-02
  1.676631e+00    1.082585e+00   1.422464e-02
  1.678842e+00    1.090728e+00   1.426232e-02
  1.681052e+00    1.069941e+00   1.411055e-02
  1.683263e+00    1.068809e+00   1.408808e-02
  1.685473e+00    1.059483e+00   1.401153e-02
  1.687683e+00    1.045817e+00   1.390570e-02
  1.689894e+00    1.043836e+00   1.387703e-02
  1.692104e+00    1.031589e+00   1.378079e-02
  1.694315e+00    1.020437e+00   1.369193e-02
  1.696525e+00    1.029431e+00   1.373728e-02
  1.698736e+00    1.048684e+00   1.385043e-02
  1.700946e+00    1.046884e+00   1.382352e-02
  1.703157e+00    1.034974e+00   1.373016e-02
  1.705367e+00    1.028618e+00   1.367361e-02
  1.707578e+00    1.041838e+00   1.374667e-02
  1.709788e+00    1.046932e+00   1.376612e-02
  1.711998e+00    1.023222e+00   1.359449e-02
  1.714209e+00    1.004606e+00   1.345605e-02
  1.716419e+00    1.009690e+00   1.347595e-02
  1.718630e+00    1.004471e+00   1.342701e-02
  1.720840e+00    1.011957e+00   1.346286e-02
  1.723051e+00    1.011872e+00   1.344853e-02
  1.725261e+00    1.009177e+00   1.341602e-02
  1.727472e+00    9.982467e-01   1.332913e-02
  1.729682e+00    9.943342e-01   1.328966e-02
  1.731893e+00    9.962086e-01   1.328838e-02
  1.734103e+00    9.772748e-01   1.314794e-02
  1.736313e+00    9.617897e-01   1.302964e-02
  1.738524e+00    9.573709e-01   1.298616e-02
  1.740734e+00    9.698617e-01   1.305711e-02
  1.742945e+00    9.410524e-01   1.284864e-02
  1.745155e+00    9.428176e-01   1.284758e-02
  1.747366e+00    9.534625e-01   1.290633e-02
  1.749576e+00    9.612744e-01   1.294560e-02
  1.751787e+00    9.539661e-01   1.288316e-02
  1.753997e+00    9.431941e-01   1.279708e-02
  1.756208e+00    9.356047e-01   1.273256e-02
  1.758418e+00    9.436059e-01   1.277396e-02
  1.760628e+00    9.395290e-01   1.273319e-02
  1.762839e+00    9.316349e-01   1.266660e-02
  1.765049e+00    9.501368e-01   1.277872e-02
  1.767260e+00    9.494171e-01   1.276114e-02
  1.769470e+00    9.414413e-01   1.269454e-02
  1.771681e+00    9.272087e-01   1.258526e-02
  1.773891e+00    9.121205e-01   1.246965e-02
  1.776102e+00    9.102460e-01   1.244420e-02
  1.778312e+00    9.132992e-01   1.245254e-02
  1.780523e+00    9.025072e-01   1.236629e-02
  1.782733e+00    9.217975e-01   1.248516e-02
  1.784944e+00    9.231275e-01   1.248139e-02
  1.787154e+00    8.911645e-01   1.225115e-02
  1.789364e+00    9.046786e-01   1.233136e-02
  1.791575e+00    9.092902e-01   1.235036e-02
  1.793785e+00    9.067810e-01   1.232100e-02
  1.795996e+00    9.264897e-01   1.244162e-02
  1.798206e+00    9.653517e-01   1.268703e-02
  1.800417e+00    9.529693e-01   1.259250e-02
  1.802627e+00    9.217674e-01   1.237265e-02
  1.804838e+00    9.123731e-01   1.229731e-02
  1.807048e+00    9.292727e-01   1.239769e-02
  1.809259e+00    9.113106e-01   1.226369e-02
  1.811469e+00    8.739565e-01   1.199499e-02
  1.813679e+00    8.873911e-01   1.207197e-02
  1.815890e+00    8.944573e-01   1.210523e-02
  1.818100e+00    9.078451e-01   1.218028e-02
  1.820311e+00    8.888829e-01   1.203770e-02
  1.822521e+00    8.659315e-01   1.186660e-02
  1.824732e+00    8.492164e-01   1.173707e-02
  1.826942e+00    8.690155e-01   1.186085e-02
  1.829153e+00    8.749516e-01   1.188972e-02
  1.831363e+00    8.513409e-01   1.171635e-02
  1.833574e+00    8.561221e-01   1.173772e-02
  1.835784e+00    8.322194e-01   1.156158e-02
  1.837994e+00    8.447716e-01   1.163695e-02
  1.840205e+00    8.598714e-01   1.172940e-02
  1.842415e+00    8.624059e-01   1.173499e-02
  1.844626e+00    8.617652e-01   1.171912e-02
  1.846836e+00    8.907496e-01   1.190299e-02
  1.849047e+00    9.018011e-01   1.196477e-02
  1.851257e+00    8.820859e-01   1.182359e-02
  1.853468e+00    8.717772e-01   1.174544e-02
  1.855678e+00    8.605993e-01   1.166101e-02
  1.857889e+00    8.748447e-01   1.174854e-02
  1.860099e+00    8.883003e-01   1.182977e-02
  1.862309e+00    8.979065e-01   1.188484e-02
  1.864520e+00    9.112369e-01   1.196390e-02
  1.866730e+00    8.935304e-01   1.183751e-02
  1.868941e+00    8.318268e-01   1.141068e-02
  1.871151e+00    8.266920e-01   1.136415e-02
  1.873362e+00    8.449096e-01   1.147737e-02
  1.875572e+00    8.547415e-01   1.153298e-02
  1.877783e+00    8.585216e-01   1.154699e-02
  1.879993e+00    8.295460e-01   1.133939e-02
  1.882204e+00    8.301216e-01   1.133253e-02
  1.884414e+00    8.325931e-01   1.133838e-02
  1.886624e+00    8.360558e-01   1.135093e-02
  1.888835e+00    8.300403e-01   1.129911e-02
  1.891045e+00    8.368154e-01   1.133426e-02
  1.893256e+00    8.414299e-01   1.135436e-02
  1.895466e+00    8.413092e-01   1.134237e-02
  1.897677e+00    8.411033e-01   1.133000e-02
  1.899887e+00    8.583357e-01   1.143435e-02
  1.902098e+00    8.520412e-01   1.138138e-02
  1.904308e+00    8.253284e-01   1.119100e-02
  1.906519e+00    8.291868e-01   1.120627e-02
  1.908729e+00    8.355178e-01   1.123834e-02
  1.910940e+00    8.514924e-01   1.133395e-02
  1.913150e+00    8.705469e-01   1.144922e-02
  1.915360e+00    8.323205e-01   1.118438e-02
  1.917571e+00    8.162334e-01   1.106490e-02
  1.919781e+00    8.272966e-01   1.112892e-02
  1.921992e+00    8.229789e-01   1.108921e-02
  1.924202e+00    8.054788e-01   1.095999e-02
  1.926413e+00    8.052217e-01   1.094800e-02
  1.928623e+00    8.092480e-01   1.096483e-02
  1.930834e+00    8.084623e-01   1.094911e-02
  1.933044e+00    7.986069e-01   1.087158e-02
  1.935255e+00    8.237881e-01   1.103123e-02
  1.937465e+00    7.977083e-01   1.084491e-02
  1.939675e+00    7.927861e-01   1.080061e-02
  1.941886e+00    8.027134e-01   1.085778e-02
  1.944096e+00    7.927997e-01   1.078040e-02
  1.946307e+00    7.991838e-01   1.081339e-02
  1.948517e+00    7.860328e-01   1.071371e-02
  1.950728e+00    7.719066e-01   1.060693e-02
  1.952938e+00    7.702054e-01   1.058530e-02
  1.955149e+00    7.860682e-01   1.068359e-02
  1.957359e+00    7.953661e-01   1.073657e-02
  1.959570e+00    7.768892e-01   1.060036e-02
  1.961780e+00    7.942610e-01   1.070831e-02
  1.963990e+00    7.931846e-01   1.069091e-02
  1.966201e+00    7.992262e-01   1.072145e-02
  1.968411e+00    7.840508e-01   1.060906e-02
  1.970622e+00    7.852151e-01   1.060685e-02
  1.972832e+00    7.815904e-01   1.057240e-02
  1.975043e+00    7.780690e-01   1.053858e-02
  1.977253e+00    7.754678e-01   1.051105e-02
  1.979464e+00    7.772571e-01   1.051318e-02
  1.981674e+00    7.666622e-01   1.043113e-02
  1.983885e+00    7.540212e-01   1.033493e-02
  1.986095e+00    7.517968e-01   1.031016e-02
  1.988305e+00    7.583863e-01   1.034547e-02
  1.990516e+00    7.506839e-01   1.028307e-02
  1.992726e+00    7.722390e-01   1.042000e-02
  1.994937e+00    7.944528e-01   1.055859e-02
  1.997147e+00    7.668976e-01   1.036419e-02
  1.999358e+00    7.662385e-01   1.034993e-02
  2.001568e+00    7.636036e-01   1.032139e-02
  2.003779e+00    7.457861e-01   1.018855e-02
  2.005989e+00    7.514020e-01   1.021496e-02
  2.008200e+00    7.536145e-01   1.021861e-02
  2.010410e+00    7.590625e-01   1.024378e-02
  2.012621e+00    7.827362e-01   1.039051e-02
  2.014831e+00    7.420643e-01   1.010568e-02
  2.017041e+00    7.577165e-01   1.020136e-02
  2.019252e+00    7.603809e-01   1.020937e-02
  2.021462e+00    7.536243e-01   1.015447e-02
  2.023673e+00    7.407414e-01   1.005806e-02
  2.025883e+00    7.394748e-01   1.004009e-02
  2.028094e+00    7.509024e-01   1.010779e-02
  2.030304e+00    7.574158e-01   1.014203e-02
  2.032515e+00    7.544814e-01   1.011311e-02
  2.034725e+00    7.515400e-01   1.008398e-02
  2.036936e+00    7.529067e-01   1.008383e-02
  2.039146e+00    7.587838e-01   1.011354e-02
  2.041356e+00    7.553607e-01   1.008106e-02
  2.043567e+00    7.435224e-01   9.992532e-03
  2.045777e+00    7.386577e-01   9.950630e-03
  2.047988e+00    7.343090e-01   9.912065e-03
  2.050198e+00    7.388112e-01   9.934044e-03
  2.052409e+00    7.483068e-01   9.990043e-03
  2.054619e+00    7.425594e-01   9.944302e-03
  2.056830e+00    7.232465e-01   9.807072e-03
  2.059040e+00    7.414025e-01   9.921938e-03
  2.061251e+00    7.346145e-01   9.869243e-03
  2.063461e+00    7.402033e-01   9.899163e-03
  2.065671e+00    7.444751e-01   9.918990e-03
  2.067882e+00    7.390185e-01   9.873639e-03
  2.070092e+00    7.290337e-01   9.797617e-03
  2.072303e+00    7.305851e-01   9.799005e-03
  2.074513e+00    7.305192e-01   9.789321e-03
  2.076724e+00    7.396215e-01   9.840693e-03
  2.078934e+00    7.434512e-01   9.857133e-03
  2.081145e+00    7.520542e-01   9.904866e-03
  2.083355e+00    7.415165e-01   9.826067e-03
  2.085566e+00    7.383033e-01   9.795847e-03
  2.087776e+00    7.324350e-01   9.747385e-03
  2.089986e+00    7.333559e-01   9.744760e-03
  2.092197e+00    7.236465e-01   9.671157e-03
  2.094407e+00    7.357608e-01   9.742546e-03
  2.096618e+00    7.427784e-01   9.779952e-03
  2.098828e+00    7.378471e-01   9.738109e-03
  2.101039e+00    7.264355e-01   9.653582e-03
  2.103249e+00    7.151697e-01   9.569841e-03
  2.105460e+00    7.239789e-01   9.619625e-03
  2.107670e+00    7.025031e-01   9.467316e-03
  2.109881e+00    6.985100e-01   9.431366e-03
  2.112091e+00    6.979990e-01   9.419113e-03
  2.114301e+00    7.105801e-01   9.494917e-03
  2.116512e+00    7.091290e-01   9.476520e-03
  2.118722e+00    6.957894e-01   9.378294e-03
  2.120933e+00    6.967824e-01   9.376271e-03
  2.123143e+00    7.111176e-01   9.463359e-03
  2.125354e+00    7.105401e-01   9.451055e-03
  2.127564e+00    7.045894e-01   9.402717e-03
  2.129775e+00    7.038079e-01   9.388858e-03
  2.131985e+00    7.066471e-01   9.398771e-03
  2.134196e+00    6.932763e-01   9.300944e-03
  2.136406e+00    7.019126e-01   9.350029e-03
  2.138617e+00    7.026747e-01   9.346685e-03
  2.140827e+00    7.167620e-01   9.456071e-03
  2.143037e+00    6.891822e-01   9.317259e-03
  2.145248e+00    6.968881e-01   9.391053e-03
  2.147458e+00    6.846848e-01   9.323400e-03
  2.149669e+00    6.837099e-01   9.328444e-03
  2.151879e+00    6.949070e-01   9.413693e-03
  2.154090e+00    6.931258e-01   9.408893e-03
  2.156300e+00    6.856791e-01   9.364752e-03
  2.158511e+00    6.836463e-01   9.356095e-03
  2.160721e+00    7.055351e-01   9.509538e-03
  2.162932e+00    7.019356e-01   9.489005e-03
  2.165142e+00    6.931661e-01   9.432551e-03
  2.167352e+00    6.989067e-01   9.474455e-03
  2.169563e+00    6.980250e-01   9.470430e-03
  2.171773e+00    6.813037e-01   9.358752e-03
  2.173984e+00    6.866253e-01   9.396604e-03
  2.176194e+00    6.900298e-01   9.421108e-03
  2.178405e+00    6.717009e-01   9.295800e-03
  2.180615e+00    6.715992e-01   9.295773e-03
  2.182826e+00    6.802025e-01   9.355797e-03
  2.185036e+00    6.754094e-01   9.322836e-03
  2.187247e+00    6.771528e-01   9.334792e-03
  2.189457e+00    6.744017e-01   9.315427e-03
  2.191667e+00    6.849850e-01   9.388033e-03
  2.193878e+00    6.956754e-01   9.460466e-03
  2.196088e+00    6.878592e-01   9.406469e-03
  2.198299e+00    6.949699e-01   9.453882e-03
  2.200509e+00    6.894583e-01   9.415239e-03
  2.202720e+00    6.918042e-01   9.430099e-03
  2.204930e+00    6.680720e-01   9.265703e-03
  2.207141e+00    6.896760e-01   9.413202e-03
  2.209351e+00    6.780491e-01   9.331648e-03
  2.211562e+00    6.749066e-01   9.308377e-03
  2.213772e+00    6.653708e-01   9.187376e-03
  2.215982e+00    6.821363e-01   9.257977e-03
  2.218193e+00    6.880116e-01   9.267882e-03
  2.220403e+00    6.700061e-01   9.121295e-03
  2.222614e+00    6.783742e-01   9.157068e-03
  2.224824e+00    6.564502e-01   8.988738e-03
  2.227035e+00    6.735004e-01   9.087269e-03
  2.229245e+00    6.774631e-01   9.096914e-03
  2.231456e+00    6.763689e-01   9.073916e-03
  2.233666e+00    6.653433e-01   8.984602e-03
  2.235877e+00    6.758952e-01   9.041253e-03
  2.238087e+00    6.699163e-01   8.987684e-03
  2.240298e+00    6.880907e-01   9.094842e-03
  2.242508e+00    6.684102e-01   8.948688e-03
  2.244718e+00    6.844145e-01   9.039217e-03
  2.246929e+00    6.672896e-01   8.911003e-03
  2.249139e+00    6.627290e-01   8.868148e-03
  2.251350e+00    6.673751e-01   8.887470e-03
  2.253560e+00    6.665545e-01   8.870449e-03
  2.255771e+00    6.625940e-01   8.832677e-03
  2.257981e+00    6.633806e-01   8.826730e-03
  2.260192e+00    6.795936e-01   8.922730e-03
  2.262402e+00    6.739914e-01   8.874938e-03
  2.264613e+00    6.828655e-01   8.922182e-03
  2.266823e+00    6.805491e-01   8.896491e-03
  2.269033e+00    7.108234e-01   9.081484e-03
  2.271244e+00    7.014589e-01   9.010771e-03
  2.273454e+00    6.907792e-01   8.931438e-03
  2.275665e+00    6.877213e-01   8.901144e-03
  2.277875e+00    6.849891e-01   8.873337e-03
  2.280086e+00    6.719623e-01   8.778438e-03
  2.282296e+00    6.489157e-01   8.617252e-03
  2.284507e+00    6.382418e-01   8.536107e-03
  2.286717e+00    6.506101e-01   8.608993e-03
  2.288928e+00    6.601276e-01   8.661856e-03
  2.291138e+00    6.602454e-01   8.653173e-03
  2.293348e+00    6.556550e-01   8.613510e-03
  2.295559e+00    6.534351e-01   8.589621e-03
  2.297769e+00    6.368651e-01   8.470890e-03
  2.299980e+00    6.434027e-01   8.504982e-03
  2.302190e+00    6.469545e-01   8.519340e-03
  2.304401e+00    6.493386e-01   8.525738e-03
  2.306611e+00    6.530785e-01   8.541037e-03
  2.308822e+00    6.517274e-01   8.523819e-03
  2.311032e+00    6.488565e-01   8.498579e-03
  2.313243e+00    6.602464e-01   8.566509e-03
  2.315453e+00    6.491925e-01   8.486957e-03
  2.317663e+00    6.345720e-01   8.381774e-03
  2.319874e+00    6.438802e-01   8.434340e-03
  2.322084e+00    6.387238e-01   8.391570e-03
  2.324295e+00    6.364170e-01   8.368237e-03
  2.326505e+00    6.348791e-01   8.349132e-03
  2.328716e+00    6.272929e-01   8.290670e-03
  2.330926e+00    6.250429e-01   8.267106e-03
  2.333137e+00    6.286613e-01   8.282701e-03
  2.335347e+00    6.484265e-01   8.403006e-03
  2.337558e+00    6.239145e-01   8.234505e-03
  2.339768e+00    6.270737e-01   8.246860e-03
  2.341979e+00    6.244926e-01   8.221579e-03
  2.344189e+00    6.241307e-01   8.210901e-03
  2.346399e+00    6.279641e-01   8.227630e-03
  2.348610e+00    6.307945e-01   8.237735e-03
  2.350820e+00    6.241065e-01   8.185831e-03
  2.353031e+00    6.351629e-01   8.249718e-03
  2.355241e+00    6.382273e-01   8.261539e-03
  2.357452e+00    6.249881e-01   8.167021e-03
  2.359662e+00    6.184952e-01   8.116338e-03
  2.361873e+00    6.281733e-01   8.171389e-03
  2.364083e+00    6.177412e-01   8.095334e-03
  2.366294e+00    6.125467e-01   8.053209e-03
  2.368504e+00    6.171924e-01   8.075688e-03
  2.370714e+00    6.115707e-01   8.030850e-03
  2.372925e+00    6.014407e-01   7.956171e-03
  2.375135e+00    6.139629e-01   8.030562e-03
  2.377346e+00    6.220368e-01   8.075279e-03
  2.379556e+00    6.139295e-01   8.014630e-03
  2.381767e+00    6.129966e-01   8.000729e-03
  2.383977e+00    6.123072e-01   7.988351e-03
  2.386188e+00    6.240280e-01   8.056504e-03
  2.388398e+00    6.144892e-01   7.986759e-03
  2.390609e+00    6.159713e-01   7.988666e-03
  2.392819e+00    6.170300e-01   7.987757e-03
  2.395029e+00    6.120133e-01   7.947575e-03
  2.397240e+00    6.069841e-01   7.907027e-03
  2.399450e+00    6.220789e-01   7.996884e-03
  2.401661e+00    6.057937e-01   7.883872e-03
  2.403871e+00    6.123095e-01   7.918397e-03
  2.406082e+00    5.972177e-01   7.812862e-03
  2.408292e+00    5.882701e-01   7.746425e-03
  2.410503e+00    6.120435e-01   7.893915e-03
  2.412713e+00    6.077774e-01   7.858542e-03
  2.414924e+00    6.019946e-01   7.813627e-03
  2.417134e+00    5.982282e-01   7.781533e-03
  2.419344e+00    5.981601e-01   7.773718e-03
  2.421555e+00    6.157063e-01   7.879307e-03
  2.423765e+00    5.987870e-01   7.762918e-03
  2.425976e+00    5.848466e-01   7.664303e-03
  2.428186e+00    5.953025e-01   7.725303e-03
  2.430397e+00    6.010067e-01   7.754746e-03
  2.432607e+00    5.784053e-01   7.600347e-03
  2.434818e+00    5.972666e-01   7.715716e-03
  2.437028e+00    6.025351e-01   7.742483e-03
  2.439239e+00    5.967420e-01   7.697493e-03
  2.441449e+00    5.882668e-01   7.635470e-03
  2.443659e+00    5.835572e-01   7.597536e-03
  2.445870e+00    5.863376e-01   7.627825e-03
  2.448080e+00    5.763572e-01   7.597242e-03
  2.450291e+00    5.734696e-01   7.594729e-03
  2.452501e+00    5.807316e-01   7.653881e-03
  2.454712e+00    5.693319e-01   7.586784e-03
  2.456922e+00    5.679993e-01   7.584501e-03
  2.459133e+00    5.619276e-01   7.549269e-03
  2.461343e+00    5.478922e-01   7.458666e-03
  2.463554e+00    5.473028e-01   7.458065e-03
  2.465764e+00    5.468783e-01   7.458271e-03
  2.467975e+00    5.421200e-01   7.427994e-03
  2.470185e+00    5.403630e-01   7.418164e-03
  2.472395e+00    5.340812e-01   7.376132e-03
  2.474606e+00    5.451723e-01   7.453842e-03
  2.476816e+00    5.481845e-01   7.475171e-03
  2.479027e+00    5.441172e-01   7.448217e-03
  2.481237e+00    5.454972e-01   7.457950e-03
  2.483448e+00    5.332575e-01   7.374095e-03
  2.485658e+00    5.360123e-01   7.392976e-03
  2.487869e+00    5.280681e-01   7.338033e-03
  2.490079e+00    5.238798e-01   7.308342e-03
  2.492290e+00    5.433941e-01   7.442792e-03
  2.494500e+00    5.243070e-01   7.310192e-03
  2.496710e+00    5.165504e-01   7.255227e-03
  2.498921e+00    5.283954e-01   7.336942e-03
  2.501131e+00    5.393339e-01   7.411564e-03
  2.503342e+00    5.081193e-01   7.192650e-03
  2.505552e+00    5.279833e-01   7.330750e-03
  2.507763e+00    5.220698e-01   7.288202e-03
  2.509973e+00    5.130550e-01   7.223615e-03
  2.512184e+00    5.185763e-01   7.260780e-03
  2.514394e+00    5.199227e-01   7.260905e-03
  2.516605e+00    5.206252e-01   7.218995e-03
  2.518815e+00    5.256240e-01   7.225273e-03
  2.521025e+00    5.233431e-01   7.188650e-03
  2.523236e+00    5.217125e-01   7.159524e-03
  2.525446e+00    5.393940e-01   7.264023e-03
  2.527657e+00    5.199280e-01   7.117240e-03
  2.529867e+00    5.214089e-01   7.113208e-03
  2.532078e+00    5.241489e-01   7.116865e-03
  2.534288e+00    5.259082e-01   7.114891e-03
  2.536499e+00    5.338538e-01   7.156383e-03
  2.538709e+00    5.268286e-01   7.098152e-03
  2.540920e+00    5.251120e-01   7.075891e-03
  2.543130e+00    5.316669e-01   7.109486e-03
  2.545340e+00    5.199040e-01   7.020392e-03
  2.547551e+00    5.008276e-01   6.880648e-03
  2.549761e+00    5.194322e-01   6.997711e-03
  2.551972e+00    5.072281e-01   6.905822e-03
  2.554182e+00    5.146694e-01   6.947160e-03
  2.556393e+00    5.086265e-01   6.897266e-03
  2.558603e+00    5.068415e-01   6.876206e-03
  2.560814e+00    5.082380e-01   6.877073e-03
  2.563024e+00    5.071481e-01   6.861201e-03
  2.565235e+00    5.094344e-01   6.867233e-03
  2.567445e+00    5.187875e-01   6.920442e-03
  2.569656e+00    5.111569e-01   6.859681e-03
  2.571866e+00    5.089300e-01   6.835450e-03
  2.574076e+00    5.009499e-01   6.772509e-03
  2.576287e+00    5.040680e-01   6.785333e-03
  2.578497e+00    5.160831e-01   6.857874e-03
  2.580708e+00    5.103816e-01   6.811853e-03
  2.582918e+00    5.170177e-01   6.848207e-03
  2.585129e+00    5.043309e-01   6.755996e-03
  2.587339e+00    5.112557e-01   6.794562e-03
  2.589550e+00    4.957090e-01   6.683035e-03
  2.591760e+00    5.119712e-01   6.784014e-03
  2.593971e+00    5.060746e-01   6.737385e-03
  2.596181e+00    4.985620e-01   6.681011e-03
  2.598391e+00    5.051673e-01   6.719978e-03
  2.600602e+00    5.080569e-01   6.733268e-03
  2.602812e+00    5.107189e-01   6.743337e-03
  2.605023e+00    5.049978e-01   6.698318e-03
  2.607233e+00    5.115486e-01   6.734459e-03
  2.609444e+00    5.049829e-01   6.683893e-03
  2.611654e+00    5.029612e-01   6.663201e-03
  2.613865e+00    5.067196e-01   6.681010e-03
  2.616075e+00    5.064576e-01   6.672147e-03
  2.618286e+00    5.011768e-01   6.630294e-03
  2.620496e+00    5.102107e-01   6.683067e-03
  2.622706e+00    5.001671e-01   6.611248e-03
  2.624917e+00    4.923780e-01   6.553781e-03
  2.627127e+00    4.957815e-01   6.570697e-03
  2.629338e+00    4.998794e-01   6.591843e-03
  2.631548e+00    5.133110e-01   6.673582e-03
  2.633759e+00    4.911853e-01   6.521127e-03
  2.635969e+00    4.839783e-01   6.466520e-03
  2.638180e+00    5.003220e-01   6.567814e-03
  2.640390e+00    5.013499e-01   6.567971e-03
  2.642601e+00    4.903116e-01   6.488665e-03
  2.644811e+00    4.865484e-01   6.456742e-03
  2.647021e+00    5.100838e-01   6.604404e-03
  2.649232e+00    5.113651e-01   6.605932e-03
  2.651442e+00    4.943972e-01   6.488936e-03
  2.653653e+00    4.977980e-01   6.504411e-03
  2.655863e+00    4.932095e-01   6.467730e-03
  2.658074e+00    4.894311e-01   6.436350e-03
  2.660284e+00    4.959741e-01   6.472873e-03
  2.662495e+00    4.867246e-01   6.405571e-03
  2.664705e+00    4.880549e-01   6.407799e-03
  2.666916e+00    4.888106e-01   6.406343e-03
  2.669126e+00    4.887139e-01   6.399305e-03
  2.671337e+00    4.855209e-01   6.371843e-03
  2.673547e+00    4.875619e-01   6.378897e-03
  2.675757e+00    4.826445e-01   6.340267e-03
  2.677968e+00    4.917104e-01   6.393044e-03
  2.680178e+00    4.926861e-01   6.392979e-03
  2.682389e+00    4.918416e-01   6.381119e-03
  2.684599e+00    4.870039e-01   6.343514e-03
  2.686810e+00    4.843663e-01   6.319750e-03
  2.689020e+00    4.843805e-01   6.313604e-03
  2.691231e+00    4.776156e-01   6.263151e-03
  2.693441e+00    4.837601e-01   6.297207e-03
  2.695652e+00    4.921525e-01   6.345074e-03
  2.697862e+00    5.031075e-01   6.408859e-03
  2.700072e+00    5.017176e-01   6.393870e-03
  2.702283e+00    4.919377e-01   6.325003e-03
  2.704493e+00    4.918082e-01   6.317863e-03
  2.706704e+00    4.916510e-01   6.310423e-03
  2.708914e+00    4.870732e-01   6.275031e-03
  2.711125e+00    4.858703e-01   6.261026e-03
  2.713335e+00    4.851212e-01   6.250130e-03
  2.715546e+00    4.811057e-01   6.217793e-03
  2.717756e+00    4.822742e-01   6.219466e-03
  2.719967e+00    4.854517e-01   6.233721e-03
  2.722177e+00    4.847753e-01   6.223256e-03
  2.724387e+00    4.874137e-01   6.234049e-03
  2.726598e+00    4.802144e-01   6.181815e-03
  2.728808e+00    4.824380e-01   6.189978e-03
  2.731019e+00    4.827219e-01   6.185681e-03
  2.733229e+00    4.643166e-01   6.060942e-03
  2.735440e+00    4.659730e-01   6.065576e-03
  2.737650e+00    4.781125e-01   6.138103e-03
  2.739861e+00    4.709701e-01   6.086085e-03
  2.742071e+00    4.767917e-01   6.117882e-03
  2.744282e+00    4.844451e-01   6.160527e-03
  2.746492e+00    4.738181e-01   6.086608e-03
  2.748702e+00    4.793854e-01   6.116371e-03
  2.750913e+00    4.722592e-01   6.065006e-03
  2.753123e+00    4.767986e-01   6.087989e-03
  2.755334e+00    4.712771e-01   6.046631e-03
  2.757544e+00    4.768393e-01   6.076490e-03
  2.759755e+00    4.744197e-01   6.055203e-03
  2.761965e+00    4.815627e-01   6.094633e-03
  2.764176e+00    4.661283e-01   5.990264e-03
  2.766386e+00    4.901308e-01   6.136692e-03
  2.768597e+00    4.791492e-01   6.061725e-03
  2.770807e+00    4.650232e-01   5.965905e-03
  2.773017e+00    4.686280e-01   5.983061e-03
  2.775228e+00    4.766036e-01   6.028003e-03
  2.777438e+00    4.654846e-01   5.951538e-03
  2.779649e+00    4.715367e-01   5.984260e-03
  2.781859e+00    4.684543e-01   5.958947e-03
  2.784070e+00    4.828628e-01   6.044004e-03
  2.786280e+00    4.733025e-01   5.978142e-03
  2.788491e+00    4.713549e-01   5.960012e-03
  2.790701e+00    4.603044e-01   5.884206e-03
  2.792912e+00    4.577085e-01   5.861716e-03
  2.795122e+00    4.784029e-01   5.987026e-03
  2.797333e+00    4.691161e-01   5.923107e-03
  2.799543e+00    4.692629e-01   5.918225e-03
  2.801753e+00    4.537721e-01   5.814001e-03
  2.803964e+00    4.653775e-01   5.882250e-03
  2.806174e+00    4.808352e-01   5.972979e-03
  2.808385e+00    4.692180e-01   5.893631e-03
  2.810595e+00    4.696780e-01   5.889676e-03
  2.812806e+00    4.641439e-01   5.848360e-03
  2.815016e+00    4.577556e-01   5.803292e-03
  2.817227e+00    4.709214e-01   5.911997e-03
  2.819437e+00    4.636750e-01   5.877307e-03
  2.821648e+00    4.681975e-01   5.908164e-03
  2.823858e+00    4.709465e-01   5.930823e-03
  2.826068e+00    4.682810e-01   5.918971e-03
  2.828279e+00    4.727409e-01   5.951114e-03
  2.830489e+00    4.686962e-01   5.928945e-03
  2.832700e+00    4.695610e-01   5.936938e-03
  2.834910e+00    4.735215e-01   5.964020e-03
  2.837121e+00    4.610222e-01   5.886461e-03
  2.839331e+00    4.520258e-01   5.829945e-03
  2.841542e+00    4.539815e-01   5.843538e-03
  2.843752e+00    4.665290e-01   5.924512e-03
  2.845963e+00    4.705731e-01   5.950561e-03
  2.848173e+00    4.562904e-01   5.859626e-03
  2.850383e+00    4.586154e-01   5.874838e-03
  2.852594e+00    4.582250e-01   5.872247e-03
  2.854804e+00    4.789913e-01   6.003315e-03
  2.857015e+00    4.759865e-01   5.984039e-03
  2.859225e+00    4.786358e-01   6.000410e-03
  2.861436e+00    4.679801e-01   5.932593e-03
  2.863646e+00    4.634870e-01   5.904064e-03
  2.865857e+00    4.660143e-01   5.920509e-03
  2.868067e+00    4.469503e-01   5.798346e-03
  2.870278e+00    4.642962e-01   5.909417e-03
  2.872488e+00    4.789220e-01   6.000610e-03
  2.874698e+00    4.704058e-01   5.945978e-03
  2.876909e+00    4.574006e-01   5.861882e-03
  2.879119e+00    4.515834e-01   5.822894e-03
  2.881330e+00    4.366311e-01   5.724240e-03
  2.883540e+00    4.522098e-01   5.824083e-03
  2.885751e+00    4.592626e-01   5.867689e-03
  2.887961e+00    4.530457e-01   5.825988e-03
  2.890172e+00    4.542475e-01   5.832097e-03
  2.892382e+00    4.567802e-01   5.846559e-03
  2.894593e+00    4.494726e-01   5.797804e-03
  2.896803e+00    4.570725e-01   5.844633e-03
  2.899014e+00    4.582031e-01   5.849950e-03
  2.901224e+00    4.639897e-01   5.884787e-03
  2.903434e+00    4.550286e-01   5.825742e-03
  2.905645e+00    4.537058e-01   5.815055e-03
  2.907855e+00    4.578723e-01   5.839593e-03
  2.910066e+00    4.620150e-01   5.863881e-03
  2.912276e+00    4.507867e-01   5.790083e-03
  2.914487e+00    4.564420e-01   5.823829e-03
  2.916697e+00    4.583152e-01   5.833546e-03
  2.918908e+00    4.597046e-01   5.840382e-03
  2.921118e+00    4.576087e-01   5.824351e-03
  2.923329e+00    4.664583e-01   5.878066e-03
  2.925539e+00    4.598742e-01   5.834155e-03
  2.927749e+00    4.517180e-01   5.779883e-03
  2.929960e+00    4.459581e-01   5.740178e-03
  2.932170e+00    4.516873e-01   5.774606e-03
  2.934381e+00    4.382209e-01   5.685501e-03
  2.936591e+00    4.461602e-01   5.734193e-03
  2.938802e+00    4.531316e-01   5.776130e-03
  2.941012e+00    4.619460e-01   5.829704e-03
  2.943223e+00    4.417387e-01   5.698097e-03
  2.945433e+00    4.471150e-01   5.728984e-03
  2.947644e+00    4.473117e-01   5.726138e-03
  2.949854e+00    4.500355e-01   5.739301e-03
  2.952064e+00    4.419874e-01   5.683594e-03
  2.954275e+00    4.438132e-01   5.690956e-03
  2.956485e+00    4.547795e-01   5.756659e-03
  2.958696e+00    4.531917e-01   5.742234e-03
  2.960906e+00    4.541796e-01   5.744298e-03
  2.963117e+00    4.656630e-01   5.811932e-03
  2.965327e+00    4.548409e-01   5.740117e-03
  2.967538e+00    4.508116e-01   5.711716e-03
  2.969748e+00    4.488330e-01   5.696366e-03
  2.971959e+00    4.624469e-01   5.778946e-03
  2.974169e+00    4.596085e-01   5.758597e-03
  2.976379e+00    4.466933e-01   5.674221e-03
  2.978590e+00    4.365927e-01   5.606615e-03
  2.980800e+00    4.536954e-01   5.712570e-03
  2.983011e+00    4.508030e-01   5.691564e-03
  2.985221e+00    4.574709e-01   5.730315e-03
  2.987432e+00    4.553576e-01   5.713971e-03
  2.989642e+00    4.599154e-01   5.739836e-03
  2.991853e+00    4.530135e-01   5.693340e-03
  2.994063e+00    4.608348e-01   5.739334e-03
  2.996274e+00    4.520140e-01   5.680991e-03
  2.998484e+00    4.459456e-01   5.640025e-03
  3.000694e+00    4.471830e-01   5.644425e-03
  3.002905e+00    4.437239e-01   5.619645e-03
  3.005115e+00    4.522995e-01   5.670715e-03
  3.007326e+00    4.584300e-01   5.705838e-03
  3.009536e+00    4.544799e-01   5.677950e-03
  3.011747e+00    4.613490e-01   5.717753e-03
  3.013957e+00    4.616621e-01   5.716492e-03
  3.016168e+00    4.483537e-01   5.630247e-03
  3.018378e+00    4.597470e-01   5.698272e-03
  3.020589e+00    4.472489e-01   5.617092e-03
  3.022799e+00    4.444326e-01   5.596246e-03
  3.025010e+00    4.533675e-01   5.648960e-03
  3.027220e+00    4.499592e-01   5.624611e-03
  3.029430e+00    4.517452e-01   5.632496e-03
  3.031641e+00    4.571563e-01   5.662987e-03
  3.033851e+00    4.466413e-01   5.593985e-03
  3.036062e+00    4.548298e-01   5.642229e-03
  3.038272e+00    4.589798e-01   5.664324e-03
  3.040483e+00    4.443700e-01   5.570238e-03
  3.042693e+00    4.480651e-01   5.590093e-03
  3.044904e+00    4.476316e-01   5.583385e-03
  3.047114e+00    4.538319e-01   5.617098e-03
  3.049325e+00    4.515059e-01   5.598278e-03
  3.051535e+00    4.503098e-01   5.586480e-03
  3.053745e+00    4.517289e-01   5.590525e-03
  3.055956e+00    4.515425e-01   5.584783e-03
  3.058166e+00    4.450323e-01   5.540141e-03
  3.060377e+00    4.444686e-01   5.531894e-03
  3.062587e+00    4.471816e-01   5.544145e-03
  3.064798e+00    4.380931e-01   5.483307e-03
  3.067008e+00    4.566487e-01   5.593456e-03
  3.069219e+00    4.520422e-01   5.560662e-03
  3.071429e+00    4.456648e-01   5.517807e-03
  3.073640e+00    4.322900e-01   5.431102e-03
  3.075850e+00    4.379932e-01   5.463277e-03
  3.078060e+00    4.310094e-01   5.416481e-03
  3.080271e+00    4.472491e-01   5.514135e-03
  3.082481e+00    4.361866e-01   5.442110e-03
  3.084692e+00    4.390681e-01   5.456713e-03
  3.086902e+00    4.407327e-01   5.463818e-03
  3.089113e+00    4.396626e-01   5.453677e-03
  3.091323e+00    4.337768e-01   5.413699e-03
  3.093534e+00    4.368085e-01   5.429265e-03
  3.095744e+00    4.321340e-01   5.396813e-03
  3.097955e+00    4.429610e-01   5.460477e-03
  3.100165e+00    4.396738e-01   5.436866e-03
  3.102375e+00    4.451169e-01   5.467021e-03
  3.104586e+00    4.502017e-01   5.494632e-03
  3.106796e+00    4.425660e-01   5.444349e-03
  3.109007e+00    4.450823e-01   5.456589e-03
  3.111217e+00    4.452154e-01   5.453709e-03
  3.113428e+00    4.493036e-01   5.475269e-03
  3.115638e+00    4.385659e-01   5.406236e-03
  3.117849e+00    4.558877e-01   5.508195e-03
  3.120059e+00    4.345821e-01   5.374543e-03
  3.122270e+00    4.265674e-01   5.321534e-03
  3.124480e+00    4.395247e-01   5.398097e-03
  3.126691e+00    4.415563e-01   5.407020e-03
  3.128901e+00    4.406812e-01   5.398534e-03
  3.131111e+00    4.346775e-01   5.357848e-03
  3.133322e+00    4.461799e-01   5.424816e-03
  3.135532e+00    4.342123e-01   5.348203e-03
  3.137743e+00    4.433079e-01   5.400463e-03
  3.139953e+00    4.428230e-01   5.393812e-03
  3.142164e+00    4.341149e-01   5.352421e-03
  3.144374e+00    4.374461e-01   5.401160e-03
  3.146585e+00    4.443433e-01   5.458158e-03
  3.148795e+00    4.414160e-01   5.450938e-03
  3.151006e+00    4.228748e-01   5.343574e-03
  3.153216e+00    4.305626e-01   5.398980e-03
  3.155426e+00    4.325687e-01   5.417780e-03
  3.157637e+00    4.305013e-01   5.410294e-03
  3.159847e+00    4.375396e-01   5.459181e-03
  3.162058e+00    4.264800e-01   5.394134e-03
  3.164268e+00    4.302922e-01   5.422172e-03
  3.166479e+00    4.361418e-01   5.462562e-03
  3.168689e+00    4.343059e-01   5.454405e-03
  3.170900e+00    4.238649e-01   5.391540e-03
  3.173110e+00    4.367074e-01   5.475472e-03
  3.175321e+00    4.316470e-01   5.446157e-03
  3.177531e+00    4.367654e-01   5.481053e-03
  3.179741e+00    4.379764e-01   5.490750e-03
  3.181952e+00    4.220308e-01   5.391932e-03
  3.184162e+00    4.271850e-01   5.426919e-03
  3.186373e+00    4.346543e-01   5.475745e-03
  3.188583e+00    4.286515e-01   5.439593e-03
  3.190794e+00    4.169863e-01   5.366772e-03
  3.193004e+00    4.294398e-01   5.447547e-03
  3.195215e+00    4.308364e-01   5.457897e-03
  3.197425e+00    4.344559e-01   5.481990e-03
  3.199636e+00    4.227723e-01   5.407016e-03
  3.201846e+00    4.350981e-01   5.484663e-03
  3.204056e+00    4.296938e-01   5.451376e-03
  3.206267e+00    4.383691e-01   5.506999e-03
  3.208477e+00    4.287291e-01   5.447004e-03
  3.210688e+00    4.234679e-01   5.414332e-03
  3.212898e+00    4.226298e-01   5.409539e-03
  3.215109e+00    4.261233e-01   5.432594e-03
  3.217319e+00    4.257285e-01   5.430704e-03
  3.219530e+00    4.352800e-01   5.491688e-03
  3.221740e+00    4.309746e-01   5.465028e-03
  3.223951e+00    4.260334e-01   5.434074e-03
  3.226161e+00    4.257259e-01   5.432291e-03
  3.228372e+00    4.178796e-01   5.382535e-03
  3.230582e+00    4.174030e-01   5.379583e-03
  3.232792e+00    4.241410e-01   5.423062e-03
  3.235003e+00    4.249369e-01   5.428389e-03
  3.237213e+00    4.185304e-01   5.387424e-03
  3.239424e+00    4.323023e-01   5.475325e-03
  3.241634e+00    4.261030e-01   5.436069e-03
  3.243845e+00    4.284437e-01   5.451038e-03
  3.246055e+00    4.202229e-01   5.398226e-03
  3.248266e+00    4.293945e-01   5.457004e-03
  3.250476e+00    4.389557e-01   5.517136e-03
  3.252687e+00    4.229467e-01   5.415513e-03
  3.254897e+00    4.194908e-01   5.393211e-03
  3.257107e+00    4.272225e-01   5.442380e-03
  3.259318e+00    4.215898e-01   5.406159e-03
  3.261528e+00    4.334604e-01   5.481589e-03
  3.263739e+00    4.184477e-01   5.385288e-03
  3.265949e+00    4.187587e-01   5.387144e-03
  3.268160e+00    4.130520e-01   5.349926e-03
  3.270370e+00    4.166817e-01   5.372841e-03
  3.272581e+00    4.231436e-01   5.414100e-03
  3.274791e+00    4.140500e-01   5.355065e-03
  3.277002e+00    4.240167e-01   5.418594e-03
  3.279212e+00    4.180707e-01   5.380079e-03
  3.281422e+00    4.154224e-01   5.362432e-03
  3.283633e+00    4.236007e-01   5.414280e-03
  3.285843e+00    4.195526e-01   5.388028e-03
  3.288054e+00    4.095423e-01   5.322432e-03
  3.290264e+00    4.121903e-01   5.339312e-03
  3.292475e+00    4.068096e-01   5.303511e-03
  3.294685e+00    4.112042e-01   5.331463e-03
  3.296896e+00    4.227426e-01   5.404972e-03
  3.299106e+00    4.176099e-01   5.371540e-03
  3.301317e+00    4.357594e-01   5.485960e-03
  3.303527e+00    4.239267e-01   5.410518e-03
  3.305737e+00    4.382974e-01   5.500365e-03
  3.307948e+00    4.252455e-01   5.417210e-03
  3.310158e+00    4.363250e-01   5.486444e-03
  3.312369e+00    4.240205e-01   5.407656e-03
  3.314579e+00    4.147299e-01   5.347182e-03
  3.316790e+00    4.215675e-01   5.390366e-03
  3.319000e+00    4.089009e-01   5.307624e-03
  3.321211e+00    4.115869e-01   5.324394e-03
  3.323421e+00    4.212056e-01   5.385065e-03
  3.325632e+00    4.199483e-01   5.376149e-03
  3.327842e+00    4.173624e-01   5.358638e-03
  3.330052e+00    4.095276e-01   5.307077e-03
  3.332263e+00    4.090858e-01   5.303188e-03
  3.334473e+00    4.088988e-01   5.301097e-03
  3.336684e+00    3.988291e-01   5.234175e-03
  3.338894e+00    4.134070e-01   5.328126e-03
  3.341105e+00    4.210149e-01   5.375747e-03
  3.343315e+00    4.074842e-01   5.287539e-03
  3.345526e+00    4.132928e-01   5.324170e-03
  3.347736e+00    4.204942e-01   5.368971e-03
  3.349947e+00    4.074236e-01   5.283940e-03
  3.352157e+00    4.263539e-01   5.404121e-03
  3.354368e+00    4.193124e-01   5.358015e-03
  3.356578e+00    4.022059e-01   5.246590e-03
  3.358788e+00    4.002903e-01   5.232776e-03
  3.360999e+00    4.211511e-01   5.366131e-03
  3.363209e+00    4.155270e-01   5.329187e-03
  3.365420e+00    4.118124e-01   5.303800e-03
  3.367630e+00    4.242824e-01   5.382484e-03
  3.369841e+00    4.180067e-01   5.341104e-03
  3.372051e+00    4.144858e-01   5.316568e-03
  3.374262e+00    4.137978e-01   5.309760e-03
  3.376472e+00    4.041125e-01   5.244814e-03
  3.378683e+00    4.117484e-01   5.291663e-03
  3.380893e+00    4.069239e-01   5.258244e-03
  3.383103e+00    4.174501e-01   5.323096e-03
  3.385314e+00    4.251974e-01   5.370019e-03
  3.387524e+00    4.127256e-01   5.287968e-03
  3.389735e+00    4.070815e-01   5.249067e-03
  3.391945e+00    4.048800e-01   5.231222e-03
  3.394156e+00    4.045404e-01   5.224827e-03
  3.396366e+00    4.148730e-01   5.287736e-03
  3.398577e+00    4.121349e-01   5.267198e-03
  3.400787e+00    4.007032e-01   5.205424e-03
  3.402998e+00    3.978188e-01   5.224113e-03
  3.405208e+00    3.934693e-01   5.215844e-03
  3.407418e+00    3.951197e-01   5.242429e-03
  3.409629e+00    3.980154e-01   5.275526e-03
  3.411839e+00    3.863003e-01   5.208892e-03
  3.414050e+00    3.831103e-01   5.198118e-03
  3.416260e+00    3.918521e-01   5.266715e-03
  3.418471e+00    3.982870e-01   5.319253e-03
  3.420681e+00    3.909761e-01   5.278684e-03
  3.422892e+00    3.888854e-01   5.272536e-03
  3.425102e+00    3.862653e-01   5.262522e-03
  3.427313e+00    3.735998e-01   5.182579e-03
  3.429523e+00    3.872023e-01   5.283148e-03
  3.431733e+00    3.764033e-01   5.215536e-03
  3.433944e+00    3.733620e-01   5.200784e-03
  3.436154e+00    3.860132e-01   5.294443e-03
  3.438365e+00    3.806566e-01   5.263539e-03
  3.440575e+00    3.659329e-01   5.166503e-03
  3.442786e+00    3.812194e-01   5.278961e-03
  3.444996e+00    3.788798e-01   5.268266e-03
  3.447207e+00    3.656023e-01   5.180317e-03
  3.449417e+00    3.661877e-01   5.225000e-03
  3.451628e+00    3.601733e-01   5.211011e-03
  3.453838e+00    3.640654e-01   5.260141e-03
  3.456049e+00    3.733192e-01   5.350689e-03
  3.458259e+00    3.586860e-01   5.266489e-03
  3.460469e+00    3.495972e-01   5.218642e-03
  3.462680e+00    3.601391e-01   5.315640e-03
  3.464890e+00    3.499140e-01   5.257034e-03
  3.467101e+00    3.596666e-01   5.347070e-03
  3.469311e+00    3.843805e-01   5.544557e-03
  3.471522e+00    3.835818e-01   5.555415e-03
  3.473732e+00    4.004602e-01   5.692695e-03
  3.475943e+00    3.950220e-01   5.669900e-03
  3.478153e+00    3.915699e-01   5.660568e-03
  3.480364e+00    4.015410e-01   5.747482e-03
  3.482574e+00    4.184125e-01   5.882591e-03
  3.484784e+00    4.270981e-01   5.958523e-03
  3.486995e+00    4.355064e-01   6.032339e-03
  3.489205e+00    4.387608e-01   6.069765e-03
  3.491416e+00    4.267089e-01   6.000740e-03
  3.493626e+00    4.317749e-01   6.050792e-03
  3.495837e+00    4.390872e-01   6.116540e-03
  3.498047e+00    4.446574e-01   6.169706e-03
  3.500258e+00    4.618414e-01   6.302519e-03
  3.502468e+00    4.671288e-01   6.353146e-03
  3.504679e+00    4.529800e-01   6.270541e-03
  3.506889e+00    4.594202e-01   6.329294e-03
  3.509099e+00    4.882213e-01   6.539281e-03
  3.511310e+00    4.958100e-01   6.604680e-03
  3.513520e+00    4.777934e-01   6.497942e-03
  3.515731e+00    4.886421e-01   6.585680e-03
  3.517941e+00    4.932910e-01   6.631365e-03
  3.520152e+00    4.944520e-01   6.653450e-03
  3.522362e+00    5.176899e-01   6.822750e-03
  3.524573e+00    5.060280e-01   6.759749e-03
  3.526783e+00    4.994884e-01   6.729126e-03
  3.528994e+00    5.045073e-01   6.774935e-03
  3.531204e+00    5.182453e-01   6.878990e-03
  3.533414e+00    5.293800e-01   6.964613e-03
  3.535625e+00    5.278894e-01   6.967154e-03
  3.537835e+00    5.366903e-01   7.037184e-03
  3.540046e+00    5.418607e-01   7.079966e-03
  3.542256e+00    5.464188e-01   7.117294e-03
  3.544467e+00    5.615543e-01   7.222988e-03
  3.546677e+00    5.476293e-01   7.140552e-03
  3.548888e+00    5.389092e-01   7.090972e-03
  3.551098e+00    5.308154e-01   7.044787e-03
  3.553309e+00    5.316117e-01   7.058188e-03
  3.555519e+00    5.325572e-01   7.075726e-03
  3.557729e+00    5.292861e-01   7.065609e-03
  3.559940e+00    5.122727e-01   6.962449e-03
  3.562150e+00    5.228387e-01   7.045374e-03
  3.564361e+00    5.453622e-01   7.208997e-03
  3.566571e+00    5.514748e-01   7.263322e-03
  3.568782e+00    5.555988e-01   7.304810e-03
  3.570992e+00    5.424680e-01   7.231814e-03
  3.573203e+00    5.405601e-01   7.233266e-03
  3.575413e+00    5.291446e-01   7.170231e-03
  3.577624e+00    5.346308e-01   7.221336e-03
  3.579834e+00    5.213013e-01   7.144467e-03
  3.582045e+00    5.419499e-01   7.298685e-03
  3.584255e+00    5.487295e-01   7.358437e-03
  3.586465e+00    5.367443e-01   7.291570e-03
  3.588676e+00    5.328081e-01   7.278919e-03
  3.590886e+00    5.472223e-01   7.390580e-03
  3.593097e+00    5.392078e-01   7.350815e-03
  3.595307e+00    5.328552e-01   7.321269e-03
  3.597518e+00    5.398644e-01   7.383542e-03
  3.599728e+00    5.334495e-01   7.353619e-03
  3.601939e+00    5.364508e-01   7.388328e-03
  3.604149e+00    5.250891e-01   7.323964e-03
  3.606360e+00    5.418119e-01   7.453865e-03
  3.608570e+00    5.228655e-01   7.336423e-03
  3.610780e+00    5.095697e-01   7.253325e-03
  3.612991e+00    5.272944e-01   7.388300e-03
  3.615201e+00    5.154991e-01   7.314846e-03
  3.617412e+00    5.480431e-01   7.549562e-03
  3.619622e+00    5.265359e-01   7.405856e-03
  3.621833e+00    5.354545e-01   7.475037e-03
  3.624043e+00    5.282750e-01   7.434205e-03
  3.626254e+00    5.043228e-01   7.273161e-03
  3.628464e+00    5.251773e-01   7.432856e-03
  3.630675e+00    5.402431e-01   7.552932e-03
  3.632885e+00    5.084047e-01   7.341128e-03
  3.635095e+00    5.086260e-01   7.356731e-03
  3.637306e+00    5.349135e-01   7.558845e-03
  3.639516e+00    5.411549e-01   7.617447e-03
  3.641727e+00    5.451134e-01   7.659970e-03
  3.643937e+00    5.424640e-01   7.656088e-03
  3.646148e+00    5.170128e-01   7.488674e-03
  3.648358e+00    5.289629e-01   7.589477e-03
  3.650569e+00    5.333365e-01   7.635588e-03
  3.652779e+00    5.306949e-01   7.631363e-03
  3.654990e+00    5.253134e-01   7.607364e-03
  3.657200e+00    5.389275e-01   7.720329e-03
  3.659410e+00    5.340974e-01   7.700629e-03
  3.661621e+00    5.101635e-01   7.540900e-03
  3.663831e+00    5.156330e-01   7.596105e-03
  3.666042e+00    5.275938e-01   7.698779e-03
  3.668252e+00    5.309559e-01   7.738554e-03
  3.670463e+00    5.491834e-01   7.885723e-03
  3.672673e+00    5.048758e-01   7.576017e-03
  3.674884e+00    5.150254e-01   7.666894e-03
  3.677094e+00    5.168923e-01   7.696120e-03
  3.679305e+00    5.430223e-01   7.903964e-03
  3.681515e+00    5.254890e-01   7.790907e-03
  3.683726e+00    5.034631e-01   7.641265e-03
  3.685936e+00    5.356355e-01   7.897412e-03
  3.688146e+00    5.178527e-01   7.780881e-03
  3.690357e+00    5.081376e-01   7.723139e-03
  3.692567e+00    5.408570e-01   7.984286e-03
  3.694778e+00    5.162585e-01   7.816524e-03
  3.696988e+00    5.004952e-01   7.711795e-03
  3.699199e+00    5.173541e-01   7.856723e-03
  3.701409e+00    5.274235e-01   7.949265e-03
  3.703620e+00    5.180824e-01   7.894746e-03
  3.705830e+00    5.162255e-01   7.896830e-03
  3.708041e+00    5.307782e-01   8.024110e-03
  3.710251e+00    5.278017e-01   8.018325e-03
  3.712461e+00    5.154088e-01   7.940272e-03
  3.714672e+00    5.236076e-01   8.019947e-03
  3.716882e+00    5.222066e-01   8.025909e-03
  3.719093e+00    5.070555e-01   7.925583e-03
  3.721303e+00    4.968785e-01   7.862205e-03
  3.723514e+00    5.024345e-01   7.923011e-03
  3.725724e+00    4.971726e-01   7.898226e-03
  3.727935e+00    5.160597e-01   8.064251e-03
  3.730145e+00    5.088730e-01   8.025163e-03
  3.732356e+00    5.119111e-01   8.066476e-03
  3.734566e+00    5.140926e-01   8.101172e-03
  3.736776e+00    5.380424e-01   8.305900e-03
  3.738987e+00    5.296330e-01   8.258740e-03
  3.741197e+00    5.103787e-01   8.125198e-03
  3.743408e+00    5.114730e-01   8.151897e-03
  3.745618e+00    5.090507e-01   8.150831e-03
  3.747829e+00    5.033579e-01   8.123093e-03
  3.750039e+00    4.933479e-01   8.059935e-03
  3.752250e+00    5.061071e-01   8.181874e-03
  3.754460e+00    5.081176e-01   8.216640e-03
  3.756671e+00    5.000527e-01   8.169765e-03
  3.758881e+00    4.981057e-01   8.172306e-03
  3.761091e+00    5.030919e-01   8.232167e-03
  3.763302e+00    4.889890e-01   8.134672e-03
  3.765512e+00    4.978009e-01   8.226654e-03
  3.767723e+00    5.018961e-01   8.279718e-03
  3.769933e+00    5.044305e-01   8.319883e-03
  3.772144e+00    4.985187e-01   8.290446e-03
  3.774354e+00    5.066630e-01   8.377709e-03
  3.776565e+00    5.243635e-01   8.543063e-03
  3.778775e+00    4.911513e-01   8.287769e-03
  3.780986e+00    4.785100e-01   8.200200e-03
  3.783196e+00    5.103934e-01   8.489314e-03
  3.785407e+00    5.086434e-01   8.495352e-03
  3.787617e+00    5.053233e-01   8.488356e-03
  3.789827e+00    5.114025e-01   8.559977e-03
  3.792038e+00    5.033226e-01   8.512991e-03
  3.794248e+00    5.068869e-01   8.564324e-03
  3.796459e+00    5.026706e-01   8.550024e-03
  3.798669e+00    4.887085e-01   8.451555e-03
  3.800880e+00    5.013422e-01   8.581583e-03
  3.803090e+00    4.786226e-01   8.406196e-03
  3.805301e+00    5.073814e-01   8.677339e-03
  3.807511e+00    4.733418e-01   8.402635e-03
  3.809722e+00    5.006624e-01   8.663900e-03
  3.811932e+00    4.949730e-01   8.636721e-03
  3.814142e+00    5.030612e-01   8.729938e-03
  3.816353e+00    5.006478e-01   8.731868e-03
  3.818563e+00    5.036042e-01   8.780800e-03
  3.820774e+00    4.917600e-01   8.699982e-03
  3.822984e+00    5.001802e-01   8.797530e-03
  3.825195e+00    4.946415e-01   8.772341e-03
  3.827405e+00    5.150882e-01   8.976110e-03
  3.829616e+00    5.173987e-01   9.020796e-03
  3.831826e+00    5.072874e-01   8.956592e-03
  3.834037e+00    5.062142e-01   8.971850e-03
  3.836247e+00    4.884896e-01   8.837903e-03
  3.838457e+00    4.983193e-01   8.951387e-03
  3.840668e+00    4.936089e-01   8.934148e-03
  3.842878e+00    4.827820e-01   8.860786e-03
  3.845089e+00    4.858057e-01   8.913781e-03
  3.847299e+00    4.802489e-01   8.888092e-03
  3.849510e+00    5.074952e-01   9.162852e-03
  3.851720e+00    5.022692e-01   9.137166e-03
  3.853931e+00    5.064286e-01   9.194128e-03
  3.856141e+00    4.885481e-01   9.049294e-03
  3.858352e+00    4.995434e-01   9.169833e-03
  3.860562e+00    4.779121e-01   8.988157e-03
  3.862772e+00    5.030192e-01   9.240968e-03
  3.864983e+00    4.891936e-01   9.132646e-03
  3.867193e+00    4.862460e-01   9.124746e-03
  3.869404e+00    5.072188e-01   9.339493e-03
  3.871614e+00    4.953652e-01   9.249829e-03
  3.873825e+00    4.717964e-01   9.046880e-03
  3.876035e+00    4.880610e-01   9.222012e-03
  3.878246e+00    5.011072e-01   9.370433e-03
  3.880456e+00    4.837390e-01   9.235421e-03
  3.882667e+00    4.717960e-01   9.149343e-03
  3.884877e+00    4.853985e-01   9.309878e-03
  3.887087e+00    5.038409e-01   9.515341e-03
  3.889298e+00    5.023976e-01   9.532536e-03
  3.891508e+00    5.095125e-01   9.630758e-03
  3.893719e+00    4.959075e-01   9.532607e-03
  3.895929e+00    4.799156e-01   9.408629e-03
  3.898140e+00    5.106779e-01   9.737875e-03
  3.900350e+00    5.179438e-01   9.839883e-03
  3.902561e+00    5.246415e-01   9.936843e-03
  3.904771e+00    4.795558e-01   9.532730e-03
  3.906982e+00    4.939151e-01   9.707725e-03
  3.909192e+00    5.050596e-01   9.850571e-03
  3.911403e+00    4.846255e-01   9.683210e-03
  3.913613e+00    4.923348e-01   9.794248e-03
  3.915823e+00    4.658527e-01   9.561227e-03
  3.918034e+00    4.597754e-01   9.532860e-03
  3.920244e+00    4.978464e-01   9.955670e-03
  3.922455e+00    4.833786e-01   9.845984e-03
  3.924665e+00    4.823619e-01   9.871783e-03
  3.926876e+00    4.891872e-01   9.978513e-03
  3.929086e+00    4.700478e-01   9.818138e-03
  3.931297e+00    4.916436e-01   1.007599e-02
  3.933507e+00    4.674594e-01   9.853429e-03
  3.935718e+00    4.701083e-01   9.909510e-03
  3.937928e+00    4.919208e-01   1.016645e-02
  3.940138e+00    4.609699e-01   9.869892e-03
  3.942349e+00    4.659168e-01   9.951910e-03
  3.944559e+00    4.775807e-01   1.010545e-02
  3.946770e+00    4.693995e-01   1.004814e-02
  3.948980e+00    4.868633e-01   1.026408e-02
  3.951191e+00    4.884124e-01   1.031127e-02
  3.953401e+00    4.866347e-01   1.032390e-02
  3.955612e+00    4.874204e-01   1.036392e-02
  3.957822e+00    4.760573e-01   1.027379e-02
  3.960033e+00    4.588328e-01   1.011788e-02
  3.962243e+00    4.992248e-01   1.058708e-02
  3.964453e+00    4.643565e-01   1.024310e-02
  3.966664e+00    4.711645e-01   1.035075e-02
  3.968874e+00    4.995283e-01   1.068659e-02
  3.971085e+00    5.003926e-01   1.071810e-02
  3.973295e+00    4.922911e-01   1.065257e-02
  3.975506e+00    4.812246e-01   1.055374e-02
  3.977716e+00    4.733527e-01   1.048872e-02
  3.979927e+00    4.752999e-01   1.053216e-02
  3.982137e+00    4.883746e-01   1.069841e-02
  3.984348e+00    4.958670e-01   1.080297e-02
  3.986558e+00    4.699585e-01   1.053893e-02
  3.988768e+00    4.808055e-01   1.068280e-02
  3.990979e+00    5.045915e-01   1.096700e-02
  3.993189e+00    4.980700e-01   1.091932e-02
  3.995400e+00    4.598578e-01   1.051502e-02
  3.997610e+00    4.590384e-01   1.053466e-02
  3.999821e+00    4.708230e-01   1.070590e-02
  4.002031e+00    4.935458e-01   1.099999e-02
  4.004242e+00    5.151929e-01   1.127828e-02
  4.006452e+00    4.915224e-01   1.105594e-02
  4.008663e+00    4.737474e-01   1.089364e-02
  4.010873e+00    4.713268e-01   1.090520e-02
  4.013084e+00    4.970929e-01   1.124073e-02
  4.015294e+00    4.889449e-01   1.118946e-02
  4.017504e+00    4.967999e-01   1.132136e-02
  4.019715e+00    5.235783e-01   1.166664e-02
  4.021925e+00    5.143995e-01   1.160831e-02
  4.024136e+00    4.744707e-01   1.119192e-02
  4.026346e+00    4.949544e-01   1.147555e-02
  4.028557e+00    4.881212e-01   1.144052e-02
  4.030767e+00    4.950116e-01   1.156722e-02
  4.032978e+00    4.800684e-01   1.143749e-02
  4.035188e+00    4.475750e-01   1.108792e-02
  4.037399e+00    4.740228e-01   1.145805e-02
  4.039609e+00    4.917704e-01   1.171856e-02
  4.041819e+00    4.590767e-01   1.137000e-02
  4.044030e+00    4.693092e-01   1.154512e-02
  4.046240e+00    4.889546e-01   1.183447e-02
  4.048451e+00    5.071686e-01   1.210499e-02
  4.050661e+00    5.314959e-01   1.244601e-02
  4.052872e+00    4.521024e-01   1.152992e-02
  4.055082e+00    4.611326e-01   1.169671e-02
  4.057293e+00    4.658823e-01   1.180954e-02
  4.059503e+00    5.050392e-01   1.235184e-02
  4.061714e+00    4.772188e-01   1.206304e-02
  4.063924e+00    4.566711e-01   1.185559e-02
  4.066134e+00    4.603612e-01   1.195966e-02
  4.068345e+00    4.431336e-01   1.179011e-02
  4.070555e+00    4.501364e-01   1.194032e-02
  4.072766e+00    4.741932e-01   1.231558e-02
  4.074976e+00    4.368595e-01   1.187965e-02
  4.077187e+00    4.667393e-01   1.234030e-02
  4.079397e+00    4.738675e-01   1.249774e-02
  4.081608e+00    4.681621e-01   1.248685e-02
  4.083818e+00    4.768060e-01   1.266706e-02
  4.086029e+00    4.775093e-01   1.274341e-02
  4.088239e+00    4.555295e-01   1.251355e-02
  4.090449e+00    4.514437e-01   1.252500e-02
  4.092660e+00    4.530848e-01   1.261648e-02
  4.094870e+00    4.881432e-01   1.316862e-02
  4.097081e+00    4.572583e-01   1.281489e-02
  4.099291e+00    4.806816e-01   1.319337e-02
  4.101502e+00    5.039541e-01   1.355964e-02
  4.103712e+00    4.433864e-01   1.276593e-02
  4.105923e+00    4.615873e-01   1.307578e-02
  4.108133e+00    4.862852e-01   1.347254e-02
  4.110344e+00    5.354083e-01   1.419101e-02
  4.112554e+00    5.460346e-01   1.438769e-02
  4.114764e+00    5.187553e-01   1.408015e-02
  4.116975e+00    5.172107e-01   1.411447e-02
  4.119185e+00    5.241351e-01   1.426634e-02
  4.121396e+00    5.125806e-01   1.416660e-02
  4.123606e+00    4.819473e-01   1.379295e-02
  4.125817e+00    4.929318e-01   1.400793e-02
  4.128027e+00    4.834363e-01   1.393049e-02
  4.130238e+00    5.184699e-01   1.448846e-02
  4.132448e+00    4.645986e-01   1.377469e-02
  4.134659e+00    4.959462e-01   1.429278e-02
  4.136869e+00    4.905691e-01   1.427875e-02
  4.139080e+00    4.777402e-01   1.415432e-02
  4.141290e+00    4.762349e-01   1.419437e-02
  4.143500e+00    5.145838e-01   1.482304e-02
  4.145711e+00    4.684535e-01   1.420913e-02
  4.147921e+00    4.699309e-01   1.429675e-02
  4.150132e+00    5.009559e-01   1.483146e-02
  4.152342e+00    5.330524e-01   1.537360e-02
  4.154553e+00    4.582281e-01   1.432142e-02
  4.156763e+00    4.680078e-01   1.454512e-02
  4.158974e+00    5.286778e-01   1.553686e-02
  4.161184e+00    5.208848e-01   1.549838e-02
  4.163395e+00    4.614696e-01   1.466242e-02
  4.165605e+00    4.821278e-01   1.506466e-02
  4.167815e+00    5.239868e-01   1.578702e-02
  4.170026e+00    4.774320e-01   1.514905e-02
  4.172236e+00    4.588956e-01   1.493197e-02
  4.174447e+00    5.346862e-01   1.620574e-02
  4.176657e+00    4.808364e-01   1.545226e-02
  4.178868e+00    5.128720e-01   1.604878e-02
  4.181078e+00    5.382264e-01   1.653347e-02
  4.183289e+00    4.530095e-01   1.525505e-02
  4.185499e+00    4.952053e-01   1.604371e-02
  4.187710e+00    4.922527e-01   1.608979e-02
  4.189920e+00    4.346984e-01   1.521066e-02
  4.192130e+00    4.420286e-01   1.543233e-02
  4.194341e+00    4.889812e-01   1.633086e-02
  4.196551e+00    4.763315e-01   1.621987e-02
  4.198762e+00    5.277174e-01   1.718091e-02
  4.200972e+00    5.496649e-01   1.764852e-02
  4.203183e+00    4.291790e-01   1.569726e-02
  4.205393e+00    4.650228e-01   1.644842e-02
  4.207604e+00    4.118809e-01   1.558569e-02
  4.209814e+00    4.542323e-01   1.647936e-02
  4.212025e+00    4.479147e-01   1.648064e-02
  4.214235e+00    4.272937e-01   1.621064e-02
  4.216445e+00    4.987460e-01   1.764038e-02
  4.218656e+00    4.465868e-01   1.681804e-02
  4.220866e+00    4.874499e-01   1.769996e-02
  4.223077e+00    5.505474e-01   1.895604e-02
  4.225287e+00    4.477820e-01   1.722969e-02
  4.227498e+00    4.960114e-01   1.827618e-02
  4.229708e+00    4.863623e-01   1.824486e-02
  4.231919e+00    4.622663e-01   1.793417e-02
  4.234129e+00    4.893420e-01   1.860668e-02
  4.236340e+00    4.530157e-01   1.805578e-02
  4.238550e+00    4.741206e-01   1.863490e-02
  4.240761e+00    4.938624e-01   1.918670e-02
  4.242971e+00    4.240017e-01   1.794101e-02
  4.245181e+00    4.756681e-01   1.918099e-02
  4.247392e+00    4.683950e-01   1.921160e-02
  4.249602e+00    4.792527e-01   1.962613e-02
  4.251813e+00    4.709536e-01   1.964720e-02
  4.254023e+00    4.271829e-01   1.890060e-02
  4.256234e+00    4.819679e-01   2.029026e-02
  4.258444e+00    4.605383e-01   2.004189e-02
  4.260655e+00    4.956455e-01   2.102049e-02
  4.262865e+00    4.398912e-01   2.002744e-02
  4.265076e+00    4.492440e-01   2.046908e-02
  4.267286e+00    4.725063e-01   2.124148e-02
  4.269496e+00    4.425298e-01   2.080797e-02
  4.271707e+00    4.540113e-01   2.133598e-02
  4.273917e+00    4.974413e-01   2.262175e-02
  4.276128e+00    5.138005e-01   2.329666e-02
  4.278338e+00    4.796751e-01   2.281043e-02
  4.280549e+00    4.580708e-01   2.260984e-02
  4.282759e+00    4.771941e-01   2.340887e-02
  4.284970e+00    6.105745e-01   2.687062e-02
  4.287180e+00    5.424302e-01   2.563106e-02
  4.289391e+00    4.455342e-01   2.340350e-02
  4.291601e+00    4.177272e-01   2.284236e-02
  4.293811e+00    5.055946e-01   2.532610e-02
  4.296022e+00    4.817041e-01   2.491971e-02
  4.298232e+00    5.203412e-01   2.611657e-02
  4.300443e+00    3.913672e-01   2.283665e-02
  4.302653e+00    4.209558e-01   2.388906e-02
  4.304864e+00    4.726486e-01   2.553283e-02
  4.307074e+00    5.278246e-01   2.722421e-02
  4.309285e+00    5.198778e-01   2.726442e-02
  4.311495e+00    5.066099e-01   2.716568e-02
  4.313706e+00    4.324005e-01   2.533342e-02
  4.315916e+00    4.464670e-01   2.599533e-02
  4.318126e+00    4.491135e-01   2.633075e-02
  4.320337e+00    4.421640e-01   2.638961e-02
  4.322547e+00    5.577102e-01   2.995236e-02
  4.324758e+00    5.075176e-01   2.887077e-02
  4.326968e+00    5.248467e-01   2.968872e-02
  4.329179e+00    4.311506e-01   2.720666e-02
  4.331389e+00    3.906077e-01   2.619333e-02
  4.333600e+00    4.449897e-01   2.829091e-02
  4.335810e+00    4.645267e-01   2.924941e-02
  4.338021e+00    4.466485e-01   2.904868e-02
  4.340231e+00    5.064793e-01   3.132075e-02
  4.342442e+00    4.358428e-01   2.944512e-02
  4.344652e+00    4.241208e-01   2.943999e-02
  4.346862e+00    3.507950e-01   2.715022e-02
  4.349073e+00    5.061660e-01   3.308628e-02
  4.351283e+00    5.546863e-01   3.515481e-02
  4.353494e+00    4.395178e-01   3.177578e-02
  4.355704e+00    3.915502e-01   3.047490e-02
  4.357915e+00    3.726030e-01   3.022341e-02
  4.360125e+00    4.343721e-01   3.318895e-02
  4.362336e+00    3.682769e-01   3.111682e-02
  4.364546e+00    4.033762e-01   3.315905e-02
  4.366757e+00    4.557841e-01   3.594919e-02
  4.368967e+00    3.245383e-01   3.093854e-02
  4.371177e+00    5.138852e-01   3.976077e-02
  4.373388e+00    3.982457e-01   3.578478e-02
  4.375598e+00    3.391346e-01   3.377506e-02
  4.377809e+00    3.504948e-01   3.520437e-02
  4.380019e+00    4.166258e-01   3.934812e-02
  4.382230e+00    1.917704e-01   2.744151e-02
  4.384440e+00    2.548861e-01   3.254430e-02
  4.386651e+00    4.663029e-01   4.537900e-02
  4.388861e+00    3.824160e-01   4.247366e-02
  4.391072e+00    5.438555e-01   5.243074e-02
  4.393282e+00    4.316807e-01   4.851943e-02
  4.395492e+00    3.955302e-01   4.837259e-02
  4.397703e+00    2.245311e-01   3.811244e-02
  4.399913e+00    3.835607e-01   5.233314e-02
  4.402124e+00    3.234476e-01   5.078209e-02
  4.404334e+00    4.507440e-01   6.372304e-02
  4.406545e+00    1.372252e-01   3.778663e-02
  4.408755e+00    2.227586e-01   5.219479e-02
  4.410966e+00    1.081298e-01   4.026289e-02
  4.413176e+00    2.629494e-01   7.104346e-02
  4.415387e+00   -6.098816e-01            nan
  4.417597e+00   -1.902338e+00            nan
  4.419807e+00   -3.766224e-01            nan
