# == pyFAI calibration ==
# Distance Sample to Detector: 0.216 m
# PONI: 1.166e-01, 1.308e-01 m
# Rotations: 0.000000 0.000000 0.000000 rad
# 
# == Fit2d calibration ==
# Distance Sample-beamCenter: 216.000 mm
# Center: x=1744.293, y=1555.000 pix
# Tilt: 0.000 deg  TiltPlanRot: 0.000 deg
# 
# Detector Eiger 9M	 PixelSize= 7.500e-05, 7.500e-05 m
#    Detector has a mask: True 
#    Detector has a dark current: False 
#    detector has a flat field: False 
# 
# Wavelength: 9.8e-11 m
# Mask applied: from detector
# Dark current applied: False
# Flat field applied: False
# Polarization factor: None
# Normalization factor: 1.0
# 
# Headers of the input frame:
# {
# "_array_data.header_convention": "SLS_1.0",
# "_array_data.header_contents": "# Detector: Dectris Eiger 9M, S/N E-18-0102\r\n# Pixel_size 75e-6 m x 75e-6 m\r\n# Silicon sensor, thickness 0.000450 m\r\n# Exposure_time 0.024997 s\r\n# Exposure_period 0.025000 s\r\n# Count_cutoff 62318 counts\r\n# Wavelength 0.980106 A\r\n# Detector_distance 0.215992 m\r\n# Beam_xy (1555, 1744) pixels\r\n# Start_angle 0.000000 deg.\r\n# Angle_increment 0.000000 deg.",
# "Content-Type": "application/octet-stream;",
# "conversions": "x-CBF_BYTE_OFFSET",
# "Content-Transfer-Encoding": "BINARY",
# "X-Binary-Size": "10166592",
# "X-Binary-ID": "1",
# "X-Binary-Element-Type": "signed 32-bit integer",
# "X-Binary-Element-Byte-Order": "LITTLE_ENDIAN",
# "Content-MD5": "Zq7mnK/qf1SFMCX7kukNmA==",
# "X-Binary-Number-of-Elements": "10166590",
# "X-Binary-Size-Fastest-Dimension": "3110",
# "X-Binary-Size-Second-Dimension": "3269",
# "X-Binary-Size-Padding": "4095"
# }
# --> H:/Proxima2a_2019-04-05/RAW_DATA/C5_gel17_position5/C5_mesh_1_data.cbf/C5_mesh_1_data.cbf000181.dat
#        q_A^-1              I           sigma 
  1.105228e-03    1.507030e+00   6.642749e-01
  3.315685e-03    1.438521e+00   3.945513e-01
  5.526141e-03    1.436011e+00   3.048253e-01
  7.736597e-03    1.664026e+00   2.772045e-01
  9.947054e-03    1.739960e+00   2.498884e-01
  1.215751e-02    1.639566e+00   2.193477e-01
  1.436797e-02    1.264171e+00   1.771653e-01
  1.657842e-02    1.442167e+00   1.761377e-01
  1.878888e-02    1.446893e+00   1.657226e-01
  2.099934e-02    1.340290e+00   1.509042e-01
  2.320979e-02    1.292301e+00   1.409337e-01
  2.542025e-02    1.369088e+00   1.386198e-01
  2.763070e-02    1.519913e+00   1.400876e-01
  2.984116e-02    1.306313e+00   1.249684e-01
  3.205162e-02    1.491279e+00   1.288444e-01
  3.426207e-02    1.498392e+00   1.249072e-01
  3.647253e-02    1.388049e+00   1.165178e-01
  3.868299e-02    1.493238e+00   1.173573e-01
  4.089344e-02    1.426511e+00   1.115625e-01
  4.310390e-02    1.376706e+00   1.067442e-01
  4.531436e-02    1.335664e+00   1.025450e-01
  4.752481e-02    1.525258e+00   1.070017e-01
  4.973527e-02    1.480969e+00   1.030682e-01
  5.194572e-02    1.471109e+00   1.005137e-01
  5.415618e-02    1.374795e+00   9.516073e-02
  5.636664e-02    1.219011e+00   8.783527e-02
  5.857709e-02    1.319002e+00   8.962667e-02
  6.078755e-02    1.324128e+00   8.815001e-02
  6.299801e-02    1.384268e+00   8.853325e-02
  6.520846e-02    1.481450e+00   9.002314e-02
  6.741892e-02    1.516339e+00   8.956700e-02
  6.962938e-02    1.436292e+00   8.578036e-02
  7.183983e-02    1.357411e+00   8.209708e-02
  7.405029e-02    1.327520e+00   7.996535e-02
  7.626074e-02    1.404814e+00   8.105871e-02
  7.847120e-02    1.440695e+00   8.092079e-02
  8.068166e-02    1.471248e+00   8.064569e-02
  8.289211e-02    1.473984e+00   7.963666e-02
  8.510257e-02    1.493274e+00   7.910777e-02
  8.731303e-02    1.480206e+00   7.775454e-02
  8.952348e-02    1.407402e+00   7.487843e-02
  9.173394e-02    1.454131e+00   7.518578e-02
  9.394439e-02    1.386893e+00   7.255559e-02
  9.615485e-02    1.440783e+00   7.309521e-02
  9.836531e-02    1.410700e+00   7.150884e-02
  1.005758e-01    1.543935e+00   7.398333e-02
  1.027862e-01    1.487503e+00   7.183181e-02
  1.049967e-01    1.397037e+00   6.887538e-02
  1.072071e-01    1.430147e+00   6.896379e-02
  1.094176e-01    1.477430e+00   6.938184e-02
  1.116280e-01    1.471577e+00   6.855375e-02
  1.138385e-01    1.502442e+00   6.859178e-02
  1.160490e-01    1.532543e+00   6.861173e-02
  1.182594e-01    1.578447e+00   6.897637e-02
  1.204699e-01    1.458801e+00   6.569899e-02
  1.226803e-01    1.515630e+00   6.635764e-02
  1.248908e-01    1.616037e+00   6.791054e-02
  1.271012e-01    1.624122e+00   6.748430e-02
  1.293117e-01    1.500498e+00   6.430747e-02
  1.315222e-01    1.571499e+00   6.525446e-02
  1.337326e-01    1.558974e+00   6.445329e-02
  1.359431e-01    1.587594e+00   6.508029e-02
  1.381535e-01    1.600116e+00   6.621347e-02
  1.403640e-01    1.655046e+00   6.763116e-02
  1.425744e-01    1.547095e+00   6.549278e-02
  1.447849e-01    1.513042e+00   6.478290e-02
  1.469953e-01    1.553784e+00   6.560820e-02
  1.492058e-01    1.565615e+00   6.578098e-02
  1.514163e-01    1.575754e+00   6.588406e-02
  1.536267e-01    1.614981e+00   6.656883e-02
  1.558372e-01    1.692065e+00   6.798860e-02
  1.580476e-01    1.672055e+00   6.742138e-02
  1.602581e-01    1.523596e+00   6.419528e-02
  1.624685e-01    1.524970e+00   6.404835e-02
  1.646790e-01    1.671595e+00   6.686422e-02
  1.668895e-01    1.693814e+00   6.711278e-02
  1.690999e-01    1.743113e+00   6.787801e-02
  1.713104e-01    1.701200e+00   6.684887e-02
  1.735208e-01    1.786609e+00   6.829336e-02
  1.757313e-01    1.740239e+00   6.719007e-02
  1.779417e-01    1.770891e+00   6.755815e-02
  1.801522e-01    1.884203e+00   6.946408e-02
  1.823626e-01    1.837994e+00   6.837864e-02
  1.845731e-01    1.848837e+00   6.835786e-02
  1.867836e-01    1.873383e+00   6.857792e-02
  1.889940e-01    1.892312e+00   6.869829e-02
  1.912045e-01    1.956467e+00   6.961985e-02
  1.934149e-01    1.969436e+00   6.961646e-02
  1.956254e-01    1.949304e+00   6.903128e-02
  1.978358e-01    1.980759e+00   6.934755e-02
  2.000463e-01    1.955409e+00   6.867404e-02
  2.022568e-01    1.930569e+00   6.801247e-02
  2.044672e-01    1.936259e+00   6.787930e-02
  2.066777e-01    1.874710e+00   6.657004e-02
  2.088881e-01    1.895589e+00   6.672069e-02
  2.110986e-01    1.897264e+00   6.652126e-02
  2.133090e-01    1.910500e+00   6.653589e-02
  2.155195e-01    1.976385e+00   6.744897e-02
  2.177300e-01    1.973910e+00   6.687716e-02
  2.199404e-01    1.974083e+00   6.511783e-02
  2.221509e-01    1.927177e+00   6.328308e-02
  2.243613e-01    1.883387e+00   6.176687e-02
  2.265718e-01    1.911553e+00   6.154114e-02
  2.287822e-01    1.947340e+00   6.149973e-02
  2.309927e-01    2.023426e+00   6.211858e-02
  2.332031e-01    2.059024e+00   6.212631e-02
  2.354136e-01    2.123822e+00   6.258491e-02
  2.376241e-01    2.209979e+00   6.334621e-02
  2.398345e-01    2.232028e+00   6.319028e-02
  2.420450e-01    2.131428e+00   6.130855e-02
  2.442554e-01    2.099368e+00   6.042650e-02
  2.464659e-01    2.092350e+00   5.992042e-02
  2.486763e-01    2.084352e+00   5.941266e-02
  2.508868e-01    2.161692e+00   6.012319e-02
  2.530973e-01    2.106754e+00   5.898631e-02
  2.553077e-01    2.121869e+00   5.883842e-02
  2.575182e-01    2.085469e+00   5.798648e-02
  2.597286e-01    2.081160e+00   5.758978e-02
  2.619391e-01    2.051195e+00   5.684455e-02
  2.641495e-01    2.068857e+00   5.677277e-02
  2.663600e-01    2.058490e+00   5.631894e-02
  2.685704e-01    2.028762e+00   5.560772e-02
  2.707809e-01    1.993739e+00   5.483303e-02
  2.729914e-01    2.008494e+00   5.474874e-02
  2.752018e-01    2.003647e+00   5.439804e-02
  2.774123e-01    1.983171e+00   5.384291e-02
  2.796227e-01    1.993726e+00   5.371898e-02
  2.818332e-01    1.983974e+00   5.332009e-02
  2.840436e-01    1.989593e+00   5.313672e-02
  2.862541e-01    1.941197e+00   5.223419e-02
  2.884646e-01    1.932005e+00   5.186305e-02
  2.906750e-01    2.005780e+00   5.259343e-02
  2.928855e-01    1.982513e+00   5.204523e-02
  2.950959e-01    1.946057e+00   5.132762e-02
  2.973064e-01    1.940760e+00   5.102735e-02
  2.995168e-01    1.918380e+00   5.050250e-02
  3.017273e-01    1.952269e+00   5.072201e-02
  3.039377e-01    1.983196e+00   5.089835e-02
  3.061482e-01    1.879872e+00   4.934036e-02
  3.083587e-01    1.870057e+00   4.899834e-02
  3.105691e-01    1.893957e+00   4.909985e-02
  3.127796e-01    1.897952e+00   4.894497e-02
  3.149900e-01    1.845150e+00   4.805825e-02
  3.172005e-01    1.819452e+00   4.752727e-02
  3.194109e-01    1.907412e+00   4.846164e-02
  3.216214e-01    1.911594e+00   4.831682e-02
  3.238319e-01    1.880467e+00   4.773194e-02
  3.260423e-01    1.876389e+00   4.749026e-02
  3.282528e-01    1.845656e+00   4.691222e-02
  3.304632e-01    1.807686e+00   4.624731e-02
  3.326737e-01    1.847710e+00   4.657403e-02
  3.348841e-01    1.802345e+00   4.582039e-02
  3.370946e-01    1.810831e+00   4.575530e-02
  3.393050e-01    1.773424e+00   4.510875e-02
  3.415155e-01    1.788833e+00   4.513392e-02
  3.437260e-01    1.821569e+00   4.537624e-02
  3.459364e-01    1.786653e+00   4.477302e-02
  3.481469e-01    1.780465e+00   4.453227e-02
  3.503573e-01    1.756044e+00   4.406470e-02
  3.525678e-01    1.753712e+00   4.387850e-02
  3.547782e-01    1.799870e+00   4.429152e-02
  3.569887e-01    1.783350e+00   4.393158e-02
  3.591992e-01    1.837910e+00   4.444073e-02
  3.614096e-01    1.824036e+00   4.411919e-02
  3.636201e-01    1.749956e+00   4.306215e-02
  3.658305e-01    1.736740e+00   4.275287e-02
  3.680410e-01    1.792171e+00   4.328040e-02
  3.702514e-01    1.799611e+00   4.322429e-02
  3.724619e-01    1.779719e+00   4.283838e-02
  3.746724e-01    1.754232e+00   4.238862e-02
  3.768828e-01    1.808246e+00   4.289144e-02
  3.790933e-01    1.805706e+00   4.272165e-02
  3.813037e-01    1.769601e+00   4.215402e-02
  3.835142e-01    1.784306e+00   4.218976e-02
  3.857246e-01    1.763766e+00   4.181048e-02
  3.879351e-01    1.763506e+00   4.167208e-02
  3.901455e-01    1.771267e+00   4.163072e-02
  3.923560e-01    1.806077e+00   4.190418e-02
  3.945665e-01    1.851652e+00   4.229506e-02
  3.967769e-01    1.800776e+00   4.157934e-02
  3.989874e-01    1.778693e+00   4.119458e-02
  4.011978e-01    1.732769e+00   4.053427e-02
  4.034083e-01    1.743328e+00   4.053275e-02
  4.056187e-01    1.784721e+00   4.088481e-02
  4.078292e-01    1.777393e+00   4.067729e-02
  4.100397e-01    1.793428e+00   4.073563e-02
  4.122501e-01    1.764626e+00   4.028630e-02
  4.144606e-01    1.809610e+00   4.067558e-02
  4.166710e-01    1.750988e+00   3.989236e-02
  4.188815e-01    1.774956e+00   4.004581e-02
  4.210919e-01    1.771370e+00   3.988811e-02
  4.233024e-01    1.799406e+00   4.008426e-02
  4.255128e-01    1.779773e+00   3.974978e-02
  4.277233e-01    1.757684e+00   3.938881e-02
  4.299338e-01    1.774436e+00   3.946221e-02
  4.321442e-01    1.776454e+00   3.937164e-02
  4.343547e-01    1.784025e+00   3.934390e-02
  4.365651e-01    1.708739e+00   3.839539e-02
  4.387756e-01    1.698836e+00   3.817676e-02
  4.409860e-01    1.774567e+00   3.891029e-02
  4.431965e-01    1.791402e+00   3.898636e-02
  4.454070e-01    1.780492e+00   3.875931e-02
  4.476174e-01    1.723347e+00   3.802756e-02
  4.498279e-01    1.685667e+00   3.750720e-02
  4.520383e-01    1.704990e+00   3.761804e-02
  4.542488e-01    1.755298e+00   3.806607e-02
  4.564592e-01    1.759784e+00   3.801243e-02
  4.586697e-01    1.731138e+00   3.760171e-02
  4.608801e-01    1.710317e+00   3.727479e-02
  4.630906e-01    1.685174e+00   3.690182e-02
  4.653011e-01    1.690424e+00   3.686206e-02
  4.675115e-01    1.674797e+00   3.659465e-02
  4.697220e-01    1.687445e+00   3.663640e-02
  4.719324e-01    1.739200e+00   3.709777e-02
  4.741429e-01    1.747028e+00   3.708537e-02
  4.763533e-01    1.725324e+00   3.675980e-02
  4.785638e-01    1.748053e+00   3.690556e-02
  4.807743e-01    1.747421e+00   3.680506e-02
  4.829847e-01    1.683190e+00   3.603104e-02
  4.851952e-01    1.676310e+00   3.586634e-02
  4.874056e-01    1.690451e+00   3.592646e-02
  4.896161e-01    1.699799e+00   3.593635e-02
  4.918265e-01    1.669782e+00   3.552915e-02
  4.940370e-01    1.726429e+00   3.603762e-02
  4.962475e-01    1.689577e+00   3.556288e-02
  4.984579e-01    1.672102e+00   3.529129e-02
  5.006684e-01    1.658915e+00   3.506615e-02
  5.028788e-01    1.664799e+00   3.504315e-02
  5.050893e-01    1.644679e+00   3.474606e-02
  5.072997e-01    1.654922e+00   3.476989e-02
  5.095102e-01    1.628377e+00   3.440732e-02
  5.117206e-01    1.654246e+00   3.459707e-02
  5.139311e-01    1.682662e+00   3.481038e-02
  5.161416e-01    1.690249e+00   3.480631e-02
  5.183520e-01    1.690881e+00   3.473010e-02
  5.205625e-01    1.681662e+00   3.455415e-02
  5.227729e-01    1.661584e+00   3.426716e-02
  5.249834e-01    1.652876e+00   3.409789e-02
  5.271938e-01    1.695962e+00   3.445886e-02
  5.294043e-01    1.720333e+00   3.462547e-02
  5.316148e-01    1.731710e+00   3.466021e-02
  5.338252e-01    1.793924e+00   3.519670e-02
  5.360357e-01    1.742994e+00   3.461451e-02
  5.382461e-01    1.705083e+00   3.415860e-02
  5.404566e-01    1.724715e+00   3.427649e-02
  5.426670e-01    1.752225e+00   3.447095e-02
  5.448775e-01    1.757004e+00   3.444078e-02
  5.470879e-01    1.792871e+00   3.471299e-02
  5.492984e-01    1.764590e+00   3.436150e-02
  5.515089e-01    1.799489e+00   3.462269e-02
  5.537193e-01    1.800311e+00   3.455429e-02
  5.559298e-01    1.784909e+00   3.433071e-02
  5.581402e-01    1.751413e+00   3.393275e-02
  5.603507e-01    1.776525e+00   3.410077e-02
  5.625611e-01    1.778767e+00   3.404822e-02
  5.647716e-01    1.783059e+00   3.401527e-02
  5.669821e-01    1.793851e+00   3.404449e-02
  5.691925e-01    1.787165e+00   3.390806e-02
  5.714030e-01    1.732555e+00   3.331479e-02
  5.736134e-01    1.729112e+00   3.321088e-02
  5.758239e-01    1.719379e+00   3.304661e-02
  5.780343e-01    1.661405e+00   3.241599e-02
  5.802448e-01    1.659280e+00   3.232742e-02
  5.824552e-01    1.660607e+00   3.227248e-02
  5.846657e-01    1.691024e+00   3.249883e-02
  5.868762e-01    1.671375e+00   3.224219e-02
  5.890866e-01    1.669537e+00   3.215761e-02
  5.912971e-01    1.626781e+00   3.167745e-02
  5.935075e-01    1.679843e+00   3.212339e-02
  5.957180e-01    1.652894e+00   3.179931e-02
  5.979284e-01    1.612157e+00   3.134090e-02
  6.001389e-01    1.630216e+00   3.145176e-02
  6.023494e-01    1.631080e+00   3.139621e-02
  6.045598e-01    1.639573e+00   3.141377e-02
  6.067703e-01    1.662918e+00   3.157300e-02
  6.089807e-01    1.640422e+00   3.129566e-02
  6.111912e-01    1.662268e+00   3.144046e-02
  6.134016e-01    1.626508e+00   3.103839e-02
  6.156121e-01    1.631104e+00   3.102044e-02
  6.178226e-01    1.688784e+00   3.150164e-02
  6.200330e-01    1.723843e+00   3.176419e-02
  6.222435e-01    1.700649e+00   3.148728e-02
  6.244539e-01    1.711237e+00   3.152328e-02
  6.266644e-01    1.740887e+00   3.173320e-02
  6.288748e-01    1.720341e+00   3.148398e-02
  6.310853e-01    1.725435e+00   3.146935e-02
  6.332957e-01    1.672688e+00   3.092478e-02
  6.355062e-01    1.682403e+00   3.095420e-02
  6.377167e-01    1.703712e+00   3.108983e-02
  6.399271e-01    1.701717e+00   3.101211e-02
  6.421376e-01    1.699321e+00   3.093110e-02
  6.443480e-01    1.698962e+00   3.086900e-02
  6.465585e-01    1.702454e+00   3.084217e-02
  6.487689e-01    1.667150e+00   3.046310e-02
  6.509794e-01    1.643383e+00   3.018811e-02
  6.531899e-01    1.624632e+00   2.995896e-02
  6.554003e-01    1.604432e+00   2.971614e-02
  6.576108e-01    1.620094e+00   2.980523e-02
  6.598212e-01    1.594427e+00   2.951326e-02
  6.620317e-01    1.587757e+00   2.939687e-02
  6.642421e-01    1.605164e+00   2.950288e-02
  6.664526e-01    1.578854e+00   2.920621e-02
  6.686630e-01    1.595546e+00   2.930588e-02
  6.708735e-01    1.600354e+00   2.929617e-02
  6.730840e-01    1.597741e+00   2.921887e-02
  6.752944e-01    1.609589e+00   2.927368e-02
  6.775049e-01    1.607610e+00   2.920255e-02
  6.797153e-01    1.588084e+00   2.897213e-02
  6.819258e-01    1.580068e+00   2.884677e-02
  6.841362e-01    1.612307e+00   2.908719e-02
  6.863467e-01    1.560051e+00   2.856069e-02
  6.885572e-01    1.592080e+00   2.880067e-02
  6.907676e-01    1.603172e+00   2.884905e-02
  6.929781e-01    1.571963e+00   2.851610e-02
  6.951885e-01    1.582185e+00   2.855798e-02
  6.973990e-01    1.585530e+00   2.853761e-02
  6.996094e-01    1.572326e+00   2.836854e-02
  7.018199e-01    1.592508e+00   2.849992e-02
  7.040303e-01    1.569363e+00   2.824235e-02
  7.062408e-01    1.613554e+00   2.858706e-02
  7.084513e-01    1.600489e+00   2.842158e-02
  7.106617e-01    1.599756e+00   2.836568e-02
  7.128722e-01    1.599781e+00   2.831684e-02
  7.150826e-01    1.610042e+00   2.835853e-02
  7.172931e-01    1.628667e+00   2.847292e-02
  7.195035e-01    1.629212e+00   2.842873e-02
  7.217140e-01    1.581721e+00   2.806089e-02
  7.239245e-01    1.553170e+00   2.803166e-02
  7.261349e-01    1.517748e+00   2.781680e-02
  7.283454e-01    1.551963e+00   2.820045e-02
  7.305558e-01    1.552716e+00   2.826093e-02
  7.327663e-01    1.586601e+00   2.861027e-02
  7.349767e-01    1.567299e+00   2.845206e-02
  7.371872e-01    1.557283e+00   2.834988e-02
  7.393976e-01    1.543507e+00   2.821008e-02
  7.416081e-01    1.551449e+00   2.826651e-02
  7.438186e-01    1.593447e+00   2.850137e-02
  7.460290e-01    1.549071e+00   2.780988e-02
  7.482395e-01    1.558843e+00   2.772711e-02
  7.504499e-01    1.560616e+00   2.760724e-02
  7.526604e-01    1.576496e+00   2.763072e-02
  7.548708e-01    1.566484e+00   2.745366e-02
  7.570813e-01    1.566888e+00   2.740634e-02
  7.592918e-01    1.544878e+00   2.717833e-02
  7.615022e-01    1.561325e+00   2.728897e-02
  7.637127e-01    1.556512e+00   2.721427e-02
  7.659231e-01    1.575441e+00   2.734725e-02
  7.681336e-01    1.572200e+00   2.728753e-02
  7.703440e-01    1.544053e+00   2.701126e-02
  7.725545e-01    1.556293e+00   2.708737e-02
  7.747650e-01    1.610100e+00   2.751306e-02
  7.769754e-01    1.557464e+00   2.700720e-02
  7.791859e-01    1.560639e+00   2.698148e-02
  7.813963e-01    1.531650e+00   2.667790e-02
  7.836068e-01    1.569752e+00   2.695593e-02
  7.858172e-01    1.609294e+00   2.724230e-02
  7.880277e-01    1.570569e+00   2.686137e-02
  7.902381e-01    1.576620e+00   2.686413e-02
  7.924486e-01    1.612588e+00   2.711854e-02
  7.946591e-01    1.619251e+00   2.712590e-02
  7.968695e-01    1.631235e+00   2.717740e-02
  7.990800e-01    1.595508e+00   2.683010e-02
  8.012904e-01    1.610947e+00   2.691296e-02
  8.035009e-01    1.621226e+00   2.695064e-02
  8.057113e-01    1.626976e+00   2.695171e-02
  8.079218e-01    1.597012e+00   2.665629e-02
  8.101323e-01    1.597080e+00   2.661159e-02
  8.123427e-01    1.612228e+00   2.669190e-02
  8.145532e-01    1.639026e+00   2.686680e-02
  8.167636e-01    1.627466e+00   2.672684e-02
  8.189741e-01    1.650788e+00   2.687280e-02
  8.211845e-01    1.601114e+00   2.642105e-02
  8.233950e-01    1.596096e+00   2.633670e-02
  8.256054e-01    1.635842e+00   2.661842e-02
  8.278159e-01    1.649619e+00   2.668615e-02
  8.300264e-01    1.628761e+00   2.647394e-02
  8.322368e-01    1.602274e+00   2.621517e-02
  8.344473e-01    1.601774e+00   2.616818e-02
  8.366577e-01    1.630394e+00   2.635846e-02
  8.388682e-01    1.634635e+00   2.635055e-02
  8.410786e-01    1.612225e+00   2.612757e-02
  8.432891e-01    1.634185e+00   2.626312e-02
  8.454996e-01    1.660568e+00   2.643239e-02
  8.477100e-01    1.640781e+00   2.623275e-02
  8.499205e-01    1.621182e+00   2.603463e-02
  8.521309e-01    1.636054e+00   2.611300e-02
  8.543414e-01    1.619363e+00   2.593892e-02
  8.565518e-01    1.619594e+00   2.590039e-02
  8.587623e-01    1.624698e+00   2.590077e-02
  8.609727e-01    1.618567e+00   2.581178e-02
  8.631832e-01    1.601744e+00   2.563769e-02
  8.653937e-01    1.609686e+00   2.566167e-02
  8.676041e-01    1.624503e+00   2.574062e-02
  8.698146e-01    1.607509e+00   2.556648e-02
  8.720250e-01    1.619728e+00   2.562436e-02
  8.742355e-01    1.604600e+00   2.546560e-02
  8.764459e-01    1.562500e+00   2.509098e-02
  8.786564e-01    1.553437e+00   2.498079e-02
  8.808669e-01    1.586931e+00   2.521038e-02
  8.830773e-01    1.614166e+00   2.538752e-02
  8.852878e-01    1.595096e+00   2.519928e-02
  8.874982e-01    1.620556e+00   2.536271e-02
  8.897087e-01    1.599058e+00   2.515628e-02
  8.919191e-01    1.599002e+00   2.511809e-02
  8.941296e-01    1.603051e+00   2.511256e-02
  8.963401e-01    1.654083e+00   2.547210e-02
  8.985505e-01    1.669305e+00   2.555131e-02
  9.007610e-01    1.704456e+00   2.578099e-02
  9.029714e-01    1.759592e+00   2.615708e-02
  9.051819e-01    1.700217e+00   2.567363e-02
  9.073923e-01    1.601999e+00   2.488443e-02
  9.096028e-01    1.627569e+00   2.504701e-02
  9.118132e-01    1.609549e+00   2.487165e-02
  9.140237e-01    1.597910e+00   2.474497e-02
  9.162342e-01    1.577479e+00   2.455192e-02
  9.184446e-01    1.608699e+00   2.475785e-02
  9.206551e-01    1.599608e+00   2.465219e-02
  9.228655e-01    1.629761e+00   2.484790e-02
  9.250760e-01    1.613436e+00   2.468765e-02
  9.272864e-01    1.630841e+00   2.478590e-02
  9.294969e-01    1.612653e+00   2.461138e-02
  9.317074e-01    1.605641e+00   2.452311e-02
  9.339178e-01    1.622406e+00   2.461713e-02
  9.361283e-01    1.647920e+00   2.477337e-02
  9.383387e-01    1.629310e+00   2.459960e-02
  9.405492e-01    1.635356e+00   2.461075e-02
  9.427596e-01    1.645382e+00   2.465057e-02
  9.449701e-01    1.619453e+00   2.442233e-02
  9.471805e-01    1.646410e+00   2.458987e-02
  9.493910e-01    1.621223e+00   2.436759e-02
  9.516015e-01    1.626365e+00   2.437211e-02
  9.538119e-01    1.646110e+00   2.448600e-02
  9.560224e-01    1.699043e+00   2.484156e-02
  9.582328e-01    1.748085e+00   2.516373e-02
  9.604433e-01    1.762420e+00   2.523092e-02
  9.626537e-01    1.776485e+00   2.529734e-02
  9.648642e-01    1.787589e+00   2.534152e-02
  9.670747e-01    1.810355e+00   2.546720e-02
  9.692851e-01    1.853368e+00   2.573373e-02
  9.714956e-01    1.861350e+00   2.575272e-02
  9.737060e-01    1.854559e+00   2.567193e-02
  9.759165e-01    1.890416e+00   2.588236e-02
  9.781269e-01    1.958444e+00   2.630948e-02
  9.803374e-01    1.989912e+00   2.648333e-02
  9.825478e-01    1.974230e+00   2.634401e-02
  9.847583e-01    1.908095e+00   2.586382e-02
  9.869688e-01    1.836700e+00   2.534137e-02
  9.891792e-01    1.816238e+00   2.516631e-02
  9.913897e-01    1.790360e+00   2.495266e-02
  9.936001e-01    1.749721e+00   2.463555e-02
  9.958106e-01    1.699134e+00   2.424381e-02
  9.980210e-01    1.696210e+00   2.419151e-02
  1.000231e+00    1.650583e+00   2.399466e-02
  1.002442e+00    1.636123e+00   2.401626e-02
  1.004652e+00    1.611893e+00   2.390425e-02
  1.006863e+00    1.610559e+00   2.394393e-02
  1.009073e+00    1.591231e+00   2.383627e-02
  1.011284e+00    1.565173e+00   2.367189e-02
  1.013494e+00    1.537250e+00   2.348305e-02
  1.015705e+00    1.509299e+00   2.329055e-02
  1.017915e+00    1.542455e+00   2.356123e-02
  1.020126e+00    1.528211e+00   2.346803e-02
  1.022336e+00    1.510309e+00   2.334167e-02
  1.024547e+00    1.488815e+00   2.318598e-02
  1.026757e+00    1.483993e+00   2.315658e-02
  1.028967e+00    1.521358e+00   2.345392e-02
  1.031178e+00    1.490359e+00   2.321982e-02
  1.033388e+00    1.515575e+00   2.342045e-02
  1.035599e+00    1.510114e+00   2.338164e-02
  1.037809e+00    1.508567e+00   2.337287e-02
  1.040020e+00    1.518614e+00   2.345186e-02
  1.042230e+00    1.531547e+00   2.355343e-02
  1.044441e+00    1.623214e+00   2.424783e-02
  1.046651e+00    1.679842e+00   2.466737e-02
  1.048862e+00    1.586989e+00   2.397517e-02
  1.051072e+00    1.494882e+00   2.326664e-02
  1.053282e+00    1.507819e+00   2.336612e-02
  1.055493e+00    1.538478e+00   2.359812e-02
  1.057703e+00    1.559375e+00   2.375631e-02
  1.059914e+00    1.516080e+00   2.341991e-02
  1.062124e+00    1.484081e+00   2.316738e-02
  1.064335e+00    1.492313e+00   2.322808e-02
  1.066545e+00    1.489043e+00   2.319664e-02
  1.068756e+00    1.447932e+00   2.287047e-02
  1.070966e+00    1.454547e+00   2.291616e-02
  1.073177e+00    1.451473e+00   2.288594e-02
  1.075387e+00    1.429640e+00   2.270800e-02
  1.077597e+00    1.417221e+00   2.260203e-02
  1.079808e+00    1.398650e+00   2.232371e-02
  1.082018e+00    1.414616e+00   2.226483e-02
  1.084229e+00    1.440893e+00   2.236137e-02
  1.086439e+00    1.424768e+00   2.214938e-02
  1.088650e+00    1.420149e+00   2.203868e-02
  1.090860e+00    1.408792e+00   2.188382e-02
  1.093071e+00    1.423962e+00   2.193971e-02
  1.095281e+00    1.433321e+00   2.195470e-02
  1.097492e+00    1.418856e+00   2.178922e-02
  1.099702e+00    1.431160e+00   2.183227e-02
  1.101912e+00    1.387304e+00   2.144721e-02
  1.104123e+00    1.404743e+00   2.153387e-02
  1.106333e+00    1.417254e+00   2.158539e-02
  1.108544e+00    1.416773e+00   2.153767e-02
  1.110754e+00    1.398745e+00   2.135761e-02
  1.112965e+00    1.423828e+00   2.150767e-02
  1.115175e+00    1.429703e+00   2.151069e-02
  1.117386e+00    1.410313e+00   2.132513e-02
  1.119596e+00    1.408918e+00   2.127676e-02
  1.121807e+00    1.402855e+00   2.119221e-02
  1.124017e+00    1.366844e+00   2.088231e-02
  1.126228e+00    1.361445e+00   2.080584e-02
  1.128438e+00    1.354048e+00   2.071309e-02
  1.130648e+00    1.379130e+00   2.086997e-02
  1.132859e+00    1.384418e+00   2.087574e-02
  1.135069e+00    1.396747e+00   2.093370e-02
  1.137280e+00    1.398611e+00   2.091458e-02
  1.139490e+00    1.354809e+00   2.055180e-02
  1.141701e+00    1.354663e+00   2.051791e-02
  1.143911e+00    1.358614e+00   2.051625e-02
  1.146122e+00    1.361014e+00   2.050259e-02
  1.148332e+00    1.361232e+00   2.047255e-02
  1.150543e+00    1.346295e+00   2.032944e-02
  1.152753e+00    1.346583e+00   2.030110e-02
  1.154963e+00    1.347555e+00   2.027768e-02
  1.157174e+00    1.360273e+00   2.034312e-02
  1.159384e+00    1.376896e+00   2.043715e-02
  1.161595e+00    1.369537e+00   2.035262e-02
  1.163805e+00    1.384738e+00   2.043583e-02
  1.166016e+00    1.383431e+00   2.039659e-02
  1.168226e+00    1.380272e+00   2.034418e-02
  1.170437e+00    1.364177e+00   2.019663e-02
  1.172647e+00    1.347908e+00   2.004711e-02
  1.174858e+00    1.346297e+00   2.000723e-02
  1.177068e+00    1.372934e+00   2.017578e-02
  1.179278e+00    1.431258e+00   2.057061e-02
  1.181489e+00    1.435239e+00   2.057145e-02
  1.183699e+00    1.405008e+00   2.032563e-02
  1.185910e+00    1.345133e+00   1.986016e-02
  1.188120e+00    1.365427e+00   1.998263e-02
  1.190331e+00    1.359762e+00   1.991434e-02
  1.192541e+00    1.342079e+00   1.975718e-02
  1.194752e+00    1.340522e+00   1.971878e-02
  1.196962e+00    1.356476e+00   1.980998e-02
  1.199173e+00    1.345866e+00   1.970591e-02
  1.201383e+00    1.339459e+00   1.963189e-02
  1.203593e+00    1.345268e+00   1.964963e-02
  1.205804e+00    1.354563e+00   1.969144e-02
  1.208014e+00    1.361015e+00   1.971132e-02
  1.210225e+00    1.362067e+00   1.969349e-02
  1.212435e+00    1.339845e+00   1.950751e-02
  1.214646e+00    1.318023e+00   1.932218e-02
  1.216856e+00    1.322135e+00   1.932710e-02
  1.219067e+00    1.332516e+00   1.937850e-02
  1.221277e+00    1.335415e+00   1.937470e-02
  1.223488e+00    1.314043e+00   1.919364e-02
  1.225698e+00    1.320904e+00   1.921705e-02
  1.227909e+00    1.334819e+00   1.928801e-02
  1.230119e+00    1.333791e+00   1.924893e-02
  1.232329e+00    1.314759e+00   1.908078e-02
  1.234540e+00    1.316126e+00   1.906079e-02
  1.236750e+00    1.333303e+00   1.915470e-02
  1.238961e+00    1.311879e+00   1.897360e-02
  1.241171e+00    1.331478e+00   1.909078e-02
  1.243382e+00    1.329310e+00   1.905190e-02
  1.245592e+00    1.356877e+00   1.922427e-02
  1.247803e+00    1.339979e+00   1.908064e-02
  1.250013e+00    1.331521e+00   1.899693e-02
  1.252224e+00    1.345549e+00   1.907353e-02
  1.254434e+00    1.349710e+00   1.907927e-02
  1.256644e+00    1.322929e+00   1.886605e-02
  1.258855e+00    1.312212e+00   1.876654e-02
  1.261065e+00    1.355859e+00   1.905265e-02
  1.263276e+00    1.343454e+00   1.894245e-02
  1.265486e+00    1.298502e+00   1.860039e-02
  1.267697e+00    1.329453e+00   1.879792e-02
  1.269907e+00    1.342026e+00   1.886396e-02
  1.272118e+00    1.349817e+00   1.889608e-02
  1.274328e+00    1.343865e+00   1.883168e-02
  1.276539e+00    1.350217e+00   1.885335e-02
  1.278749e+00    1.342972e+00   1.878049e-02
  1.280959e+00    1.320300e+00   1.859898e-02
  1.283170e+00    1.318221e+00   1.856218e-02
  1.285380e+00    1.349941e+00   1.876170e-02
  1.287591e+00    1.363842e+00   1.883594e-02
  1.289801e+00    1.347245e+00   1.869977e-02
  1.292012e+00    1.344313e+00   1.866234e-02
  1.294222e+00    1.367186e+00   1.880410e-02
  1.296433e+00    1.375261e+00   1.884380e-02
  1.298643e+00    1.419358e+00   1.912663e-02
  1.300854e+00    1.402434e+00   1.899557e-02
  1.303064e+00    1.347514e+00   1.860069e-02
  1.305274e+00    1.337851e+00   1.851253e-02
  1.307485e+00    1.340773e+00   1.851126e-02
  1.309695e+00    1.346689e+00   1.852985e-02
  1.311906e+00    1.333315e+00   1.841604e-02
  1.314116e+00    1.340728e+00   1.844643e-02
  1.316327e+00    1.362102e+00   1.857110e-02
  1.318537e+00    1.335802e+00   1.836919e-02
  1.320748e+00    1.329555e+00   1.830477e-02
  1.322958e+00    1.340298e+00   1.835814e-02
  1.325169e+00    1.357362e+00   1.845354e-02
  1.327379e+00    1.368586e+00   1.850774e-02
  1.329589e+00    1.359490e+00   1.842499e-02
  1.331800e+00    1.371457e+00   1.848504e-02
  1.334010e+00    1.369999e+00   1.845441e-02
  1.336221e+00    1.386948e+00   1.854616e-02
  1.338431e+00    1.369647e+00   1.840912e-02
  1.340642e+00    1.372139e+00   1.849054e-02
  1.342852e+00    1.348811e+00   1.843333e-02
  1.345063e+00    1.358168e+00   1.854676e-02
  1.347273e+00    1.392091e+00   1.881275e-02
  1.349484e+00    1.370411e+00   1.869360e-02
  1.351694e+00    1.322990e+00   1.838978e-02
  1.353905e+00    1.349594e+00   1.859174e-02
  1.356115e+00    1.341609e+00   1.855168e-02
  1.358325e+00    1.326542e+00   1.846039e-02
  1.360536e+00    1.340088e+00   1.856602e-02
  1.362746e+00    1.298470e+00   1.828482e-02
  1.364957e+00    1.305954e+00   1.834496e-02
  1.367167e+00    1.339075e+00   1.858327e-02
  1.369378e+00    1.320912e+00   1.846278e-02
  1.371588e+00    1.321000e+00   1.846847e-02
  1.373799e+00    1.322083e+00   1.847971e-02
  1.376009e+00    1.305754e+00   1.836857e-02
  1.378220e+00    1.335952e+00   1.858226e-02
  1.380430e+00    1.332672e+00   1.856220e-02
  1.382640e+00    1.334283e+00   1.857428e-02
  1.384851e+00    1.307884e+00   1.839053e-02
  1.387061e+00    1.304980e+00   1.837036e-02
  1.389272e+00    1.304023e+00   1.836384e-02
  1.391482e+00    1.325561e+00   1.851418e-02
  1.393693e+00    1.329294e+00   1.853938e-02
  1.395903e+00    1.294965e+00   1.829690e-02
  1.398114e+00    1.291734e+00   1.827268e-02
  1.400324e+00    1.277950e+00   1.817279e-02
  1.402535e+00    1.294790e+00   1.828980e-02
  1.404745e+00    1.302681e+00   1.834306e-02
  1.406955e+00    1.288746e+00   1.824199e-02
  1.409166e+00    1.266589e+00   1.808119e-02
  1.411376e+00    1.255791e+00   1.800085e-02
  1.413587e+00    1.280966e+00   1.817655e-02
  1.415797e+00    1.269307e+00   1.809013e-02
  1.418008e+00    1.251987e+00   1.792469e-02
  1.420218e+00    1.263832e+00   1.785992e-02
  1.422429e+00    1.252677e+00   1.769620e-02
  1.424639e+00    1.269553e+00   1.775033e-02
  1.426850e+00    1.239368e+00   1.748401e-02
  1.429060e+00    1.247590e+00   1.749334e-02
  1.431270e+00    1.296922e+00   1.779106e-02
  1.433481e+00    1.257442e+00   1.747747e-02
  1.435691e+00    1.249504e+00   1.738407e-02
  1.437902e+00    1.258497e+00   1.741021e-02
  1.440112e+00    1.278774e+00   1.751445e-02
  1.442323e+00    1.257630e+00   1.733617e-02
  1.444533e+00    1.253516e+00   1.727544e-02
  1.446744e+00    1.280179e+00   1.742695e-02
  1.448954e+00    1.275841e+00   1.736714e-02
  1.451165e+00    1.272405e+00   1.731397e-02
  1.453375e+00    1.248589e+00   1.712335e-02
  1.455586e+00    1.257351e+00   1.715530e-02
  1.457796e+00    1.263176e+00   1.716756e-02
  1.460006e+00    1.303802e+00   1.741380e-02
  1.462217e+00    1.305648e+00   1.739957e-02
  1.464427e+00    1.303530e+00   1.735950e-02
  1.466638e+00    1.301112e+00   1.731775e-02
  1.468848e+00    1.298228e+00   1.727293e-02
  1.471059e+00    1.266608e+00   1.703622e-02
  1.473269e+00    1.283709e+00   1.712632e-02
  1.475480e+00    1.271626e+00   1.702174e-02
  1.477690e+00    1.276672e+00   1.703156e-02
  1.479901e+00    1.254277e+00   1.685780e-02
  1.482111e+00    1.267458e+00   1.692282e-02
  1.484321e+00    1.248589e+00   1.677345e-02
  1.486532e+00    1.242850e+00   1.671271e-02
  1.488742e+00    1.246896e+00   1.671742e-02
  1.490953e+00    1.237283e+00   1.663049e-02
  1.493163e+00    1.241154e+00   1.663440e-02
  1.495374e+00    1.252736e+00   1.669042e-02
  1.497584e+00    1.256718e+00   1.669534e-02
  1.499795e+00    1.227806e+00   1.648079e-02
  1.502005e+00    1.228702e+00   1.646540e-02
  1.504216e+00    1.246608e+00   1.656400e-02
  1.506426e+00    1.241859e+00   1.651174e-02
  1.508636e+00    1.241288e+00   1.648764e-02
  1.510847e+00    1.253892e+00   1.654932e-02
  1.513057e+00    1.262828e+00   1.658304e-02
  1.515268e+00    1.250547e+00   1.647654e-02
  1.517478e+00    1.246200e+00   1.642280e-02
  1.519689e+00    1.243104e+00   1.637754e-02
  1.521899e+00    1.240393e+00   1.633668e-02
  1.524110e+00    1.256133e+00   1.641966e-02
  1.526320e+00    1.259497e+00   1.642198e-02
  1.528531e+00    1.271024e+00   1.647702e-02
  1.530741e+00    1.271785e+00   1.646267e-02
  1.532951e+00    1.265421e+00   1.640171e-02
  1.535162e+00    1.261865e+00   1.646567e-02
  1.537372e+00    1.258554e+00   1.651122e-02
  1.539583e+00    1.266561e+00   1.659813e-02
  1.541793e+00    1.250026e+00   1.649639e-02
  1.544004e+00    1.270988e+00   1.663439e-02
  1.546214e+00    1.243987e+00   1.645526e-02
  1.548425e+00    1.251211e+00   1.650320e-02
  1.550635e+00    1.275140e+00   1.667008e-02
  1.552846e+00    1.248415e+00   1.650414e-02
  1.555056e+00    1.228584e+00   1.633131e-02
  1.557266e+00    1.235807e+00   1.626917e-02
  1.559477e+00    1.246101e+00   1.627765e-02
  1.561687e+00    1.242568e+00   1.622389e-02
  1.563898e+00    1.245098e+00   1.622325e-02
  1.566108e+00    1.264158e+00   1.633086e-02
  1.568319e+00    1.267416e+00   1.633614e-02
  1.570529e+00    1.254182e+00   1.622539e-02
  1.572740e+00    1.243253e+00   1.612693e-02
  1.574950e+00    1.270909e+00   1.627874e-02
  1.577161e+00    1.255051e+00   1.615127e-02
  1.579371e+00    1.239233e+00   1.602556e-02
  1.581582e+00    1.247630e+00   1.605996e-02
  1.583792e+00    1.263791e+00   1.614548e-02
  1.586002e+00    1.243811e+00   1.599974e-02
  1.588213e+00    1.253356e+00   1.604369e-02
  1.590423e+00    1.244851e+00   1.596910e-02
  1.592634e+00    1.230215e+00   1.585344e-02
  1.594844e+00    1.216385e+00   1.574291e-02
  1.597055e+00    1.209457e+00   1.567779e-02
  1.599265e+00    1.218933e+00   1.571855e-02
  1.601476e+00    1.213125e+00   1.566099e-02
  1.603686e+00    1.208090e+00   1.560895e-02
  1.605897e+00    1.211599e+00   1.561165e-02
  1.608107e+00    1.228598e+00   1.570130e-02
  1.610317e+00    1.233339e+00   1.571231e-02
  1.612528e+00    1.227436e+00   1.565554e-02
  1.614738e+00    1.211189e+00   1.553279e-02
  1.616949e+00    1.193409e+00   1.539963e-02
  1.619159e+00    1.192332e+00   1.537420e-02
  1.621370e+00    1.175373e+00   1.524635e-02
  1.623580e+00    1.195079e+00   1.535542e-02
  1.625791e+00    1.217113e+00   1.547802e-02
  1.628001e+00    1.182899e+00   1.524082e-02
  1.630212e+00    1.198955e+00   1.532608e-02
  1.632422e+00    1.188470e+00   1.524103e-02
  1.634632e+00    1.175639e+00   1.514127e-02
  1.636843e+00    1.160342e+00   1.502504e-02
  1.639053e+00    1.149645e+00   1.493849e-02
  1.641264e+00    1.158290e+00   1.497756e-02
  1.643474e+00    1.184018e+00   1.512540e-02
  1.645685e+00    1.190382e+00   1.514913e-02
  1.647895e+00    1.181440e+00   1.507534e-02
  1.650106e+00    1.151939e+00   1.486893e-02
  1.652316e+00    1.155894e+00   1.487788e-02
  1.654527e+00    1.147912e+00   1.480972e-02
  1.656737e+00    1.148131e+00   1.479448e-02
  1.658947e+00    1.149253e+00   1.478531e-02
  1.661158e+00    1.124157e+00   1.460674e-02
  1.663368e+00    1.120334e+00   1.456586e-02
  1.665579e+00    1.124821e+00   1.457883e-02
  1.667789e+00    1.099100e+00   1.439506e-02
  1.670000e+00    1.100683e+00   1.439003e-02
  1.672210e+00    1.087886e+00   1.429041e-02
  1.674421e+00    1.077961e+00   1.420993e-02
  1.676631e+00    1.082521e+00   1.422421e-02
  1.678842e+00    1.099968e+00   1.432260e-02
  1.681052e+00    1.096110e+00   1.428206e-02
  1.683263e+00    1.068768e+00   1.408783e-02
  1.685473e+00    1.066163e+00   1.405563e-02
  1.687683e+00    1.058253e+00   1.398813e-02
  1.689894e+00    1.063864e+00   1.400954e-02
  1.692104e+00    1.061821e+00   1.398125e-02
  1.694315e+00    1.054027e+00   1.391547e-02
  1.696525e+00    1.045776e+00   1.384592e-02
  1.698736e+00    1.033679e+00   1.375099e-02
  1.700946e+00    1.047035e+00   1.382451e-02
  1.703157e+00    1.029209e+00   1.369188e-02
  1.705367e+00    1.029302e+00   1.367816e-02
  1.707578e+00    1.016550e+00   1.357882e-02
  1.709788e+00    1.038170e+00   1.370838e-02
  1.711998e+00    1.029330e+00   1.363501e-02
  1.714209e+00    9.993327e-01   1.342068e-02
  1.716419e+00    9.907823e-01   1.334918e-02
  1.718630e+00    1.002454e+00   1.341351e-02
  1.720840e+00    1.011841e+00   1.346210e-02
  1.723051e+00    1.031387e+00   1.357759e-02
  1.725261e+00    1.001785e+00   1.336680e-02
  1.727472e+00    9.948015e-01   1.330611e-02
  1.729682e+00    9.767468e-01   1.317162e-02
  1.731893e+00    9.691917e-01   1.310695e-02
  1.734103e+00    9.914469e-01   1.324290e-02
  1.736313e+00    9.905649e-01   1.322313e-02
  1.738524e+00    9.615456e-01   1.301446e-02
  1.740734e+00    9.521649e-01   1.293744e-02
  1.742945e+00    9.557771e-01   1.294876e-02
  1.745155e+00    9.559617e-01   1.293683e-02
  1.747366e+00    9.570996e-01   1.293093e-02
  1.749576e+00    9.562572e-01   1.291177e-02
  1.751787e+00    9.579828e-01   1.291025e-02
  1.753997e+00    9.608564e-01   1.291635e-02
  1.756208e+00    9.346057e-01   1.272576e-02
  1.758418e+00    9.423683e-01   1.276558e-02
  1.760628e+00    9.172503e-01   1.258133e-02
  1.762839e+00    9.228792e-01   1.260693e-02
  1.765049e+00    9.260861e-01   1.261596e-02
  1.767260e+00    9.262123e-01   1.260422e-02
  1.769470e+00    9.301529e-01   1.261820e-02
  1.771681e+00    9.318043e-01   1.261640e-02
  1.773891e+00    9.287746e-01   1.258298e-02
  1.776102e+00    9.069964e-01   1.242197e-02
  1.778312e+00    9.284508e-01   1.255540e-02
  1.780523e+00    9.088970e-01   1.240999e-02
  1.782733e+00    9.087537e-01   1.239652e-02
  1.784944e+00    9.265563e-01   1.250454e-02
  1.787154e+00    8.937576e-01   1.226896e-02
  1.789364e+00    8.799304e-01   1.216155e-02
  1.791575e+00    8.901057e-01   1.221937e-02
  1.793785e+00    8.921551e-01   1.222123e-02
  1.795996e+00    8.898286e-01   1.219298e-02
  1.798206e+00    9.193273e-01   1.238091e-02
  1.800417e+00    9.077647e-01   1.229020e-02
  1.802627e+00    9.063103e-01   1.226847e-02
  1.804838e+00    8.714508e-01   1.201838e-02
  1.807048e+00    8.565432e-01   1.190268e-02
  1.809259e+00    8.676998e-01   1.196661e-02
  1.811469e+00    8.786557e-01   1.202720e-02
  1.813679e+00    8.826066e-01   1.203939e-02
  1.815890e+00    9.019372e-01   1.215572e-02
  1.818100e+00    9.119622e-01   1.220788e-02
  1.820311e+00    8.847511e-01   1.200967e-02
  1.822521e+00    8.872700e-01   1.201193e-02
  1.824732e+00    8.712714e-01   1.188849e-02
  1.826942e+00    8.677047e-01   1.185193e-02
  1.829153e+00    8.650627e-01   1.182231e-02
  1.831363e+00    8.816022e-01   1.192278e-02
  1.833574e+00    8.624882e-01   1.178128e-02
  1.835784e+00    8.716756e-01   1.183246e-02
  1.837994e+00    8.717936e-01   1.182161e-02
  1.840205e+00    8.677712e-01   1.178317e-02
  1.842415e+00    8.511602e-01   1.165824e-02
  1.844626e+00    8.459587e-01   1.161114e-02
  1.846836e+00    8.573070e-01   1.167741e-02
  1.849047e+00    8.860924e-01   1.186009e-02
  1.851257e+00    8.820509e-01   1.182336e-02
  1.853468e+00    8.471584e-01   1.157842e-02
  1.855678e+00    8.448148e-01   1.155357e-02
  1.857889e+00    8.511200e-01   1.158816e-02
  1.860099e+00    8.501901e-01   1.157323e-02
  1.862309e+00    8.802226e-01   1.176720e-02
  1.864520e+00    9.329528e-01   1.210561e-02
  1.866730e+00    9.266980e-01   1.205522e-02
  1.868941e+00    8.601180e-01   1.160309e-02
  1.871151e+00    8.663287e-01   1.163338e-02
  1.873362e+00    8.694429e-01   1.164283e-02
  1.875572e+00    8.476959e-01   1.148537e-02
  1.877783e+00    8.436000e-01   1.144618e-02
  1.879993e+00    8.466231e-01   1.145552e-02
  1.882204e+00    8.256416e-01   1.130191e-02
  1.884414e+00    8.384019e-01   1.137786e-02
  1.886624e+00    8.352043e-01   1.134515e-02
  1.888835e+00    8.554396e-01   1.147067e-02
  1.891045e+00    8.497950e-01   1.142184e-02
  1.893256e+00    8.241366e-01   1.123709e-02
  1.895466e+00    8.360248e-01   1.130667e-02
  1.897677e+00    8.300539e-01   1.125535e-02
  1.899887e+00    8.162735e-01   1.115066e-02
  1.902098e+00    8.351745e-01   1.126815e-02
  1.904308e+00    8.259821e-01   1.119542e-02
  1.906519e+00    8.422818e-01   1.129442e-02
  1.908729e+00    8.289546e-01   1.119412e-02
  1.910940e+00    8.148112e-01   1.108716e-02
  1.913150e+00    8.269253e-01   1.115868e-02
  1.915360e+00    8.268556e-01   1.114757e-02
  1.917571e+00    8.221387e-01   1.110487e-02
  1.919781e+00    8.216034e-01   1.109056e-02
  1.921992e+00    8.141671e-01   1.102969e-02
  1.924202e+00    8.033746e-01   1.094565e-02
  1.926413e+00    8.080109e-01   1.096696e-02
  1.928623e+00    7.940613e-01   1.086146e-02
  1.930834e+00    8.188587e-01   1.101927e-02
  1.933044e+00    8.008002e-01   1.088651e-02
  1.935255e+00    7.959315e-01   1.084312e-02
  1.937465e+00    7.856225e-01   1.076241e-02
  1.939675e+00    8.048936e-01   1.088279e-02
  1.941886e+00    7.941118e-01   1.079943e-02
  1.944096e+00    8.073241e-01   1.087871e-02
  1.946307e+00    7.933692e-01   1.077398e-02
  1.948517e+00    7.820852e-01   1.068677e-02
  1.950728e+00    7.687086e-01   1.058492e-02
  1.952938e+00    7.958279e-01   1.075994e-02
  1.955149e+00    7.875636e-01   1.069376e-02
  1.957359e+00    7.880106e-01   1.068680e-02
  1.959570e+00    7.747012e-01   1.058543e-02
  1.961780e+00    7.766412e-01   1.058887e-02
  1.963990e+00    7.928427e-01   1.068861e-02
  1.966201e+00    7.818312e-01   1.060414e-02
  1.968411e+00    7.714556e-01   1.052349e-02
  1.970622e+00    7.850724e-01   1.060588e-02
  1.972832e+00    7.924217e-01   1.064542e-02
  1.975043e+00    7.695249e-01   1.048055e-02
  1.977253e+00    7.912650e-01   1.061758e-02
  1.979464e+00    7.544781e-01   1.035798e-02
  1.981674e+00    7.607887e-01   1.039108e-02
  1.983885e+00    7.773526e-01   1.049360e-02
  1.986095e+00    7.844293e-01   1.053154e-02
  1.988305e+00    7.735907e-01   1.044867e-02
  1.990516e+00    7.809696e-01   1.048844e-02
  1.992726e+00    7.729777e-01   1.042502e-02
  1.994937e+00    7.656251e-01   1.036524e-02
  1.997147e+00    7.625208e-01   1.033459e-02
  1.999358e+00    7.469677e-01   1.021894e-02
  2.001568e+00    7.622025e-01   1.031191e-02
  2.003779e+00    7.578990e-01   1.027095e-02
  2.005989e+00    7.585759e-01   1.026362e-02
  2.008200e+00    7.669868e-01   1.030885e-02
  2.010410e+00    7.527189e-01   1.020092e-02
  2.012621e+00    7.625065e-01   1.025534e-02
  2.014831e+00    7.702202e-01   1.029560e-02
  2.017041e+00    7.795330e-01   1.034719e-02
  2.019252e+00    7.674726e-01   1.025687e-02
  2.021462e+00    7.525398e-01   1.014716e-02
  2.023673e+00    7.358077e-01   1.002451e-02
  2.025883e+00    7.604180e-01   1.018126e-02
  2.028094e+00    7.419988e-01   1.004770e-02
  2.030304e+00    7.389089e-01   1.001736e-02
  2.032515e+00    7.626626e-01   1.016777e-02
  2.034725e+00    7.645397e-01   1.017083e-02
  2.036936e+00    7.495495e-01   1.006134e-02
  2.039146e+00    7.383643e-01   9.976528e-03
  2.041356e+00    7.387828e-01   9.969822e-03
  2.043567e+00    7.344092e-01   9.931091e-03
  2.045777e+00    7.371356e-01   9.940380e-03
  2.047988e+00    7.399728e-01   9.950215e-03
  2.050198e+00    7.422264e-01   9.956969e-03
  2.052409e+00    7.619399e-01   1.008064e-02
  2.054619e+00    7.681159e-01   1.011396e-02
  2.056830e+00    7.717799e-01   1.013078e-02
  2.059040e+00    7.682292e-01   1.009985e-02
  2.061251e+00    7.566212e-01   1.001598e-02
  2.063461e+00    7.520958e-01   9.978369e-03
  2.065671e+00    7.545470e-01   9.985868e-03
  2.067882e+00    7.323701e-01   9.829124e-03
  2.070092e+00    7.376733e-01   9.855500e-03
  2.072303e+00    7.474494e-01   9.911443e-03
  2.074513e+00    7.352781e-01   9.821177e-03
  2.076724e+00    7.371810e-01   9.824439e-03
  2.078934e+00    7.418222e-01   9.846335e-03
  2.081145e+00    7.333314e-01   9.780798e-03
  2.083355e+00    7.365595e-01   9.793154e-03
  2.085566e+00    7.341311e-01   9.768135e-03
  2.087776e+00    7.298859e-01   9.730416e-03
  2.089986e+00    7.258048e-01   9.694451e-03
  2.092197e+00    7.275239e-01   9.697035e-03
  2.094407e+00    7.201494e-01   9.638641e-03
  2.096618e+00    7.139145e-01   9.588049e-03
  2.098828e+00    7.206831e-01   9.624171e-03
  2.101039e+00    7.137681e-01   9.569046e-03
  2.103249e+00    7.062314e-01   9.509836e-03
  2.105460e+00    7.265099e-01   9.636426e-03
  2.107670e+00    7.229149e-01   9.603867e-03
  2.109881e+00    7.124711e-01   9.525151e-03
  2.112091e+00    7.207182e-01   9.571177e-03
  2.114301e+00    7.167519e-01   9.536074e-03
  2.116512e+00    6.995133e-01   9.412047e-03
  2.118722e+00    7.113428e-01   9.482535e-03
  2.120933e+00    7.062996e-01   9.440089e-03
  2.123143e+00    7.030647e-01   9.409642e-03
  2.125354e+00    7.018229e-01   9.392878e-03
  2.127564e+00    7.237065e-01   9.529423e-03
  2.129775e+00    7.051935e-01   9.398109e-03
  2.131985e+00    7.084314e-01   9.410615e-03
  2.134196e+00    7.131513e-01   9.433330e-03
  2.136406e+00    7.102422e-01   9.405342e-03
  2.138617e+00    6.957943e-01   9.300821e-03
  2.140827e+00    7.063933e-01   9.387416e-03
  2.143037e+00    7.089812e-01   9.450134e-03
  2.145248e+00    7.070471e-01   9.459266e-03
  2.147458e+00    7.040159e-01   9.454097e-03
  2.149669e+00    7.113580e-01   9.515178e-03
  2.151879e+00    7.011277e-01   9.455744e-03
  2.154090e+00    7.001784e-01   9.456637e-03
  2.156300e+00    7.145829e-01   9.560087e-03
  2.158511e+00    6.953388e-01   9.435784e-03
  2.160721e+00    6.814024e-01   9.345490e-03
  2.162932e+00    6.923340e-01   9.423881e-03
  2.165142e+00    6.827599e-01   9.361484e-03
  2.167352e+00    6.945522e-01   9.444893e-03
  2.169563e+00    6.810403e-01   9.354509e-03
  2.171773e+00    6.871473e-01   9.398782e-03
  2.173984e+00    6.826901e-01   9.369663e-03
  2.176194e+00    6.677478e-01   9.267724e-03
  2.178405e+00    6.912155e-01   9.429874e-03
  2.180615e+00    6.838825e-01   9.380390e-03
  2.182826e+00    6.859269e-01   9.395088e-03
  2.185036e+00    6.934161e-01   9.446277e-03
  2.187247e+00    6.923100e-01   9.438707e-03
  2.189457e+00    6.811659e-01   9.362016e-03
  2.191667e+00    6.774965e-01   9.336596e-03
  2.193878e+00    6.784889e-01   9.342864e-03
  2.196088e+00    6.856378e-01   9.391272e-03
  2.198299e+00    6.808532e-01   9.357357e-03
  2.200509e+00    6.843668e-01   9.380435e-03
  2.202720e+00    6.751685e-01   9.316001e-03
  2.204930e+00    6.833723e-01   9.371218e-03
  2.207141e+00    6.648983e-01   9.242566e-03
  2.209351e+00    6.745591e-01   9.307596e-03
  2.211562e+00    6.613284e-01   9.214271e-03
  2.213772e+00    6.671999e-01   9.199989e-03
  2.215982e+00    6.624915e-01   9.123706e-03
  2.218193e+00    6.872114e-01   9.262463e-03
  2.220403e+00    6.895732e-01   9.253534e-03
  2.222614e+00    6.679534e-01   9.086470e-03
  2.224824e+00    6.702493e-01   9.082714e-03
  2.227035e+00    6.835942e-01   9.155111e-03
  2.229245e+00    6.789702e-01   9.107045e-03
  2.231456e+00    6.711139e-01   9.038578e-03
  2.233666e+00    6.772749e-01   9.064820e-03
  2.235877e+00    6.685373e-01   8.991894e-03
  2.238087e+00    6.904484e-01   9.124385e-03
  2.240298e+00    6.632004e-01   8.928840e-03
  2.242508e+00    6.750045e-01   8.992718e-03
  2.244718e+00    6.693569e-01   8.939243e-03
  2.246929e+00    6.611852e-01   8.870137e-03
  2.249139e+00    6.601124e-01   8.850635e-03
  2.251350e+00    6.609963e-01   8.844891e-03
  2.253560e+00    6.769922e-01   8.939624e-03
  2.255771e+00    6.716129e-01   8.892586e-03
  2.257981e+00    6.656433e-01   8.841793e-03
  2.260192e+00    6.644113e-01   8.822483e-03
  2.262402e+00    6.771652e-01   8.895810e-03
  2.264613e+00    6.772029e-01   8.885117e-03
  2.266823e+00    6.773545e-01   8.875598e-03
  2.269033e+00    6.800338e-01   8.882617e-03
  2.271244e+00    6.675683e-01   8.790416e-03
  2.273454e+00    6.709026e-01   8.801990e-03
  2.275665e+00    6.670570e-01   8.766402e-03
  2.277875e+00    6.479908e-01   8.630380e-03
  2.280086e+00    6.557726e-01   8.672020e-03
  2.282296e+00    6.551071e-01   8.658262e-03
  2.284507e+00    6.355466e-01   8.518072e-03
  2.286717e+00    6.277233e-01   8.456228e-03
  2.288928e+00    6.432709e-01   8.550527e-03
  2.291138e+00    6.572594e-01   8.633597e-03
  2.293348e+00    6.504088e-01   8.578978e-03
  2.295559e+00    6.491579e-01   8.561456e-03
  2.297769e+00    6.489031e-01   8.550561e-03
  2.299980e+00    6.491238e-01   8.542727e-03
  2.302190e+00    6.445235e-01   8.503320e-03
  2.304401e+00    6.439614e-01   8.490367e-03
  2.306611e+00    6.433993e-01   8.477499e-03
  2.308822e+00    6.556761e-01   8.549602e-03
  2.311032e+00    6.406012e-01   8.444350e-03
  2.313243e+00    6.465636e-01   8.477288e-03
  2.315453e+00    6.335922e-01   8.384347e-03
  2.317663e+00    6.384551e-01   8.407390e-03
  2.319874e+00    6.333185e-01   8.364868e-03
  2.322084e+00    6.430215e-01   8.419750e-03
  2.324295e+00    6.339466e-01   8.351984e-03
  2.326505e+00    6.405482e-01   8.386331e-03
  2.328716e+00    6.276785e-01   8.293211e-03
  2.330926e+00    6.384630e-01   8.355385e-03
  2.333137e+00    6.353328e-01   8.326555e-03
  2.335347e+00    6.305026e-01   8.286043e-03
  2.337558e+00    6.450815e-01   8.373015e-03
  2.339768e+00    6.402621e-01   8.333134e-03
  2.341979e+00    6.332186e-01   8.278823e-03
  2.344189e+00    6.327104e-01   8.267149e-03
  2.346399e+00    6.330545e-01   8.260918e-03
  2.348610e+00    6.199293e-01   8.166476e-03
  2.350820e+00    6.300783e-01   8.224914e-03
  2.353031e+00    6.100496e-01   8.084994e-03
  2.355241e+00    6.233677e-01   8.164773e-03
  2.357452e+00    6.355042e-01   8.235445e-03
  2.359662e+00    6.248755e-01   8.158105e-03
  2.361873e+00    6.260596e-01   8.157618e-03
  2.364083e+00    6.111392e-01   8.051967e-03
  2.366294e+00    6.043435e-01   7.999113e-03
  2.368504e+00    6.113356e-01   8.037260e-03
  2.370714e+00    6.322924e-01   8.165768e-03
  2.372925e+00    6.275983e-01   8.127348e-03
  2.375135e+00    6.067603e-01   7.983329e-03
  2.377346e+00    6.162400e-01   8.037564e-03
  2.379556e+00    6.229950e-01   8.073579e-03
  2.381767e+00    6.115279e-01   7.991143e-03
  2.383977e+00    6.151949e-01   8.007171e-03
  2.386188e+00    6.143554e-01   7.993811e-03
  2.388398e+00    6.175607e-01   8.006698e-03
  2.390609e+00    6.093459e-01   7.945585e-03
  2.392819e+00    6.094149e-01   7.938312e-03
  2.395029e+00    5.945371e-01   7.833285e-03
  2.397240e+00    6.096261e-01   7.924205e-03
  2.399450e+00    6.111234e-01   7.926162e-03
  2.401661e+00    5.930538e-01   7.800550e-03
  2.403871e+00    5.976050e-01   7.822733e-03
  2.406082e+00    6.030497e-01   7.850889e-03
  2.408292e+00    6.110231e-01   7.894842e-03
  2.410503e+00    5.904875e-01   7.753649e-03
  2.412713e+00    5.982335e-01   7.796607e-03
  2.414924e+00    5.979164e-01   7.787096e-03
  2.417134e+00    6.058629e-01   7.831033e-03
  2.419344e+00    5.936109e-01   7.744111e-03
  2.421555e+00    5.830957e-01   7.667822e-03
  2.423765e+00    5.966951e-01   7.749313e-03
  2.425976e+00    5.920309e-01   7.711243e-03
  2.428186e+00    6.023904e-01   7.771163e-03
  2.430397e+00    5.934882e-01   7.706078e-03
  2.432607e+00    5.936789e-01   7.700037e-03
  2.434818e+00    5.934820e-01   7.691257e-03
  2.437028e+00    5.888158e-01   7.653817e-03
  2.439239e+00    5.779557e-01   7.575372e-03
  2.441449e+00    5.812063e-01   7.589494e-03
  2.443659e+00    5.936687e-01   7.663074e-03
  2.445870e+00    5.850457e-01   7.619429e-03
  2.448080e+00    5.713185e-01   7.563958e-03
  2.450291e+00    5.763814e-01   7.613984e-03
  2.452501e+00    5.714925e-01   7.592759e-03
  2.454712e+00    5.687868e-01   7.583143e-03
  2.456922e+00    5.726830e-01   7.615699e-03
  2.459133e+00    5.668489e-01   7.582258e-03
  2.461343e+00    5.619169e-01   7.553528e-03
  2.463554e+00    5.496873e-01   7.474294e-03
  2.465764e+00    5.463867e-01   7.454925e-03
  2.467975e+00    5.432723e-01   7.435868e-03
  2.470185e+00    5.624651e-01   7.568364e-03
  2.472395e+00    5.376142e-01   7.400487e-03
  2.474606e+00    5.348188e-01   7.382741e-03
  2.476816e+00    5.373586e-01   7.400990e-03
  2.479027e+00    5.306060e-01   7.355162e-03
  2.481237e+00    5.481771e-01   7.476230e-03
  2.483448e+00    5.470139e-01   7.468605e-03
  2.485658e+00    5.339552e-01   7.378782e-03
  2.487869e+00    5.376990e-01   7.404618e-03
  2.490079e+00    5.417573e-01   7.432015e-03
  2.492290e+00    5.383785e-01   7.408367e-03
  2.494500e+00    5.318423e-01   7.362523e-03
  2.496710e+00    5.298129e-01   7.347785e-03
  2.498921e+00    5.213045e-01   7.287553e-03
  2.501131e+00    5.338810e-01   7.373981e-03
  2.503342e+00    5.258378e-01   7.316989e-03
  2.505552e+00    5.305664e-01   7.348663e-03
  2.507763e+00    5.225010e-01   7.291206e-03
  2.509973e+00    5.151048e-01   7.238029e-03
  2.512184e+00    5.167004e-01   7.247646e-03
  2.514394e+00    5.145094e-01   7.222993e-03
  2.516605e+00    5.195715e-01   7.211710e-03
  2.518815e+00    4.989137e-01   7.039292e-03
  2.521025e+00    5.037771e-01   7.052990e-03
  2.523236e+00    5.146997e-01   7.111242e-03
  2.525446e+00    5.216355e-01   7.143443e-03
  2.527657e+00    5.136389e-01   7.074054e-03
  2.529867e+00    5.246832e-01   7.135515e-03
  2.532078e+00    5.301172e-01   7.157258e-03
  2.534288e+00    5.128449e-01   7.025990e-03
  2.536499e+00    5.047791e-01   6.958785e-03
  2.538709e+00    5.164765e-01   7.028043e-03
  2.540920e+00    5.235968e-01   7.065674e-03
  2.543130e+00    5.147956e-01   6.995795e-03
  2.545340e+00    5.111237e-01   6.960840e-03
  2.547551e+00    5.118361e-01   6.955852e-03
  2.549761e+00    5.082906e-01   6.922282e-03
  2.551972e+00    5.030177e-01   6.877079e-03
  2.554182e+00    5.109754e-01   6.922183e-03
  2.556393e+00    5.177165e-01   6.958630e-03
  2.558603e+00    5.246326e-01   6.995841e-03
  2.560814e+00    5.189206e-01   6.948970e-03
  2.563024e+00    5.147791e-01   6.912639e-03
  2.565235e+00    5.129114e-01   6.890637e-03
  2.567445e+00    5.072905e-01   6.843328e-03
  2.569656e+00    5.096571e-01   6.849612e-03
  2.571866e+00    5.067245e-01   6.820615e-03
  2.574076e+00    5.019535e-01   6.779297e-03
  2.576287e+00    5.041372e-01   6.785800e-03
  2.578497e+00    5.027308e-01   6.768575e-03
  2.580708e+00    5.123700e-01   6.825108e-03
  2.582918e+00    4.944308e-01   6.696957e-03
  2.585129e+00    4.918367e-01   6.671774e-03
  2.587339e+00    5.066749e-01   6.764047e-03
  2.589550e+00    5.069057e-01   6.758093e-03
  2.591760e+00    4.959633e-01   6.677122e-03
  2.593971e+00    5.054598e-01   6.733264e-03
  2.596181e+00    5.076960e-01   6.741955e-03
  2.598391e+00    5.069566e-01   6.731872e-03
  2.600602e+00    4.993024e-01   6.674998e-03
  2.602812e+00    5.047712e-01   6.703958e-03
  2.605023e+00    5.060322e-01   6.705168e-03
  2.607233e+00    5.128037e-01   6.742716e-03
  2.609444e+00    5.009581e-01   6.657200e-03
  2.611654e+00    5.043602e-01   6.672467e-03
  2.613865e+00    4.918087e-01   6.581983e-03
  2.616075e+00    5.010464e-01   6.636393e-03
  2.618286e+00    5.065236e-01   6.665581e-03
  2.620496e+00    5.049922e-01   6.648796e-03
  2.622706e+00    4.921597e-01   6.558115e-03
  2.624917e+00    4.908986e-01   6.543919e-03
  2.627127e+00    4.988539e-01   6.591032e-03
  2.629338e+00    5.025303e-01   6.609287e-03
  2.631548e+00    5.040160e-01   6.612905e-03
  2.633759e+00    5.011802e-01   6.587121e-03
  2.635969e+00    4.882106e-01   6.494737e-03
  2.638180e+00    4.965241e-01   6.542850e-03
  2.640390e+00    4.907033e-01   6.497846e-03
  2.642601e+00    4.913144e-01   6.495302e-03
  2.644811e+00    4.873846e-01   6.462288e-03
  2.647021e+00    4.957206e-01   6.510763e-03
  2.649232e+00    5.013987e-01   6.541239e-03
  2.651442e+00    4.992845e-01   6.520904e-03
  2.653653e+00    5.191237e-01   6.642292e-03
  2.655863e+00    5.004196e-01   6.514826e-03
  2.658074e+00    5.022247e-01   6.519936e-03
  2.660284e+00    4.910609e-01   6.440737e-03
  2.662495e+00    4.956845e-01   6.464253e-03
  2.664705e+00    4.818926e-01   6.367228e-03
  2.666916e+00    4.743384e-01   6.310795e-03
  2.669126e+00    4.856144e-01   6.378965e-03
  2.671337e+00    4.914708e-01   6.410772e-03
  2.673547e+00    5.003507e-01   6.461999e-03
  2.675757e+00    5.087945e-01   6.509771e-03
  2.677968e+00    4.985965e-01   6.437658e-03
  2.680178e+00    4.867254e-01   6.354202e-03
  2.682389e+00    4.831376e-01   6.324391e-03
  2.684599e+00    4.932202e-01   6.383868e-03
  2.686810e+00    4.821832e-01   6.305505e-03
  2.689020e+00    4.862909e-01   6.326037e-03
  2.691231e+00    4.901335e-01   6.344690e-03
  2.693441e+00    4.900561e-01   6.338061e-03
  2.695652e+00    4.848042e-01   6.297531e-03
  2.697862e+00    4.750438e-01   6.227555e-03
  2.700072e+00    4.860059e-01   6.292955e-03
  2.702283e+00    4.753931e-01   6.217734e-03
  2.704493e+00    4.808973e-01   6.247377e-03
  2.706704e+00    4.944089e-01   6.328107e-03
  2.708914e+00    4.821976e-01   6.243536e-03
  2.711125e+00    4.829072e-01   6.241910e-03
  2.713335e+00    4.825819e-01   6.233753e-03
  2.715546e+00    4.801910e-01   6.211876e-03
  2.717756e+00    4.878352e-01   6.255215e-03
  2.719967e+00    4.854205e-01   6.233531e-03
  2.722177e+00    4.787059e-01   6.184174e-03
  2.724387e+00    4.808711e-01   6.192060e-03
  2.726598e+00    4.847049e-01   6.210656e-03
  2.728808e+00    4.797668e-01   6.172814e-03
  2.731019e+00    4.726925e-01   6.121093e-03
  2.733229e+00    4.810823e-01   6.169375e-03
  2.735440e+00    4.932981e-01   6.240906e-03
  2.737650e+00    4.706296e-01   6.089879e-03
  2.739861e+00    4.696473e-01   6.077538e-03
  2.742071e+00    4.783770e-01   6.128039e-03
  2.744282e+00    4.876505e-01   6.180875e-03
  2.746492e+00    4.835044e-01   6.148511e-03
  2.748702e+00    4.804905e-01   6.123411e-03
  2.750913e+00    4.804345e-01   6.117275e-03
  2.753123e+00    4.738630e-01   6.069227e-03
  2.755334e+00    4.824431e-01   6.117835e-03
  2.757544e+00    4.821071e-01   6.109961e-03
  2.759755e+00    4.804636e-01   6.093652e-03
  2.761965e+00    4.920505e-01   6.160636e-03
  2.764176e+00    4.880178e-01   6.129309e-03
  2.766386e+00    4.871984e-01   6.118324e-03
  2.768597e+00    4.776762e-01   6.052386e-03
  2.770807e+00    4.806391e-01   6.065242e-03
  2.773017e+00    4.804382e-01   6.057995e-03
  2.775228e+00    4.664054e-01   5.963159e-03
  2.777438e+00    4.709129e-01   5.986148e-03
  2.779649e+00    4.641030e-01   5.936890e-03
  2.781859e+00    4.754401e-01   6.003226e-03
  2.784070e+00    4.667183e-01   5.942110e-03
  2.786280e+00    4.683196e-01   5.946578e-03
  2.788491e+00    4.746045e-01   5.980521e-03
  2.790701e+00    4.798645e-01   6.007913e-03
  2.792912e+00    4.767930e-01   5.982682e-03
  2.795122e+00    4.574824e-01   5.854675e-03
  2.797333e+00    4.636191e-01   5.888291e-03
  2.799543e+00    4.834712e-01   6.007136e-03
  2.801753e+00    4.777558e-01   5.965672e-03
  2.803964e+00    4.775071e-01   5.958426e-03
  2.806174e+00    4.780994e-01   5.955959e-03
  2.808385e+00    4.729230e-01   5.916852e-03
  2.810595e+00    4.657970e-01   5.865299e-03
  2.812806e+00    4.674910e-01   5.869399e-03
  2.815016e+00    4.564671e-01   5.795123e-03
  2.817227e+00    4.617695e-01   5.854271e-03
  2.819437e+00    4.742698e-01   5.944066e-03
  2.821648e+00    4.714155e-01   5.928445e-03
  2.823858e+00    4.654711e-01   5.896247e-03
  2.826068e+00    4.661786e-01   5.905648e-03
  2.828279e+00    4.833947e-01   6.017813e-03
  2.830489e+00    4.763643e-01   5.977238e-03
  2.832700e+00    4.667948e-01   5.919452e-03
  2.834910e+00    4.582425e-01   5.867001e-03
  2.837121e+00    4.658731e-01   5.917335e-03
  2.839331e+00    4.761309e-01   5.983376e-03
  2.841542e+00    4.720634e-01   5.958780e-03
  2.843752e+00    4.638092e-01   5.907231e-03
  2.845963e+00    4.710429e-01   5.953503e-03
  2.848173e+00    4.759855e-01   5.984764e-03
  2.850383e+00    4.622024e-01   5.897767e-03
  2.852594e+00    4.590238e-01   5.877362e-03
  2.854804e+00    4.713382e-01   5.955185e-03
  2.857015e+00    4.626923e-01   5.899869e-03
  2.859225e+00    4.741297e-01   5.972092e-03
  2.861436e+00    4.653110e-01   5.915654e-03
  2.863646e+00    4.610994e-01   5.888852e-03
  2.865857e+00    4.599406e-01   5.881776e-03
  2.868067e+00    4.560302e-01   5.856956e-03
  2.870278e+00    4.523425e-01   5.832853e-03
  2.872488e+00    4.662956e-01   5.920994e-03
  2.874698e+00    4.544304e-01   5.844125e-03
  2.876909e+00    4.578061e-01   5.864477e-03
  2.879119e+00    4.631597e-01   5.897052e-03
  2.881330e+00    4.512982e-01   5.819596e-03
  2.883540e+00    4.502549e-01   5.811479e-03
  2.885751e+00    4.484102e-01   5.797960e-03
  2.887961e+00    4.537636e-01   5.830588e-03
  2.890172e+00    4.583469e-01   5.858370e-03
  2.892382e+00    4.454956e-01   5.773872e-03
  2.894593e+00    4.546741e-01   5.831258e-03
  2.896803e+00    4.580709e-01   5.851009e-03
  2.899014e+00    4.499418e-01   5.796991e-03
  2.901224e+00    4.477309e-01   5.780743e-03
  2.903434e+00    4.551926e-01   5.826791e-03
  2.905645e+00    4.583682e-01   5.844861e-03
  2.907855e+00    4.624157e-01   5.868495e-03
  2.910066e+00    4.583988e-01   5.840893e-03
  2.912276e+00    4.429761e-01   5.739701e-03
  2.914487e+00    4.527794e-01   5.800419e-03
  2.916697e+00    4.516016e-01   5.790660e-03
  2.918908e+00    4.538284e-01   5.802933e-03
  2.921118e+00    4.625815e-01   5.855899e-03
  2.923329e+00    4.593753e-01   5.833287e-03
  2.925539e+00    4.498523e-01   5.770231e-03
  2.927749e+00    4.424413e-01   5.720216e-03
  2.929960e+00    4.501975e-01   5.767397e-03
  2.932170e+00    4.583154e-01   5.816816e-03
  2.934381e+00    4.653204e-01   5.858654e-03
  2.936591e+00    4.476846e-01   5.744008e-03
  2.938802e+00    4.443277e-01   5.719732e-03
  2.941012e+00    4.650141e-01   5.849027e-03
  2.943223e+00    4.508880e-01   5.756817e-03
  2.945433e+00    4.525936e-01   5.763962e-03
  2.947644e+00    4.503134e-01   5.745330e-03
  2.949854e+00    4.547733e-01   5.769423e-03
  2.952064e+00    4.485894e-01   5.725897e-03
  2.954275e+00    4.282834e-01   5.590510e-03
  2.956485e+00    4.422573e-01   5.676825e-03
  2.958696e+00    4.601150e-01   5.785930e-03
  2.960906e+00    4.538423e-01   5.742172e-03
  2.963117e+00    4.603894e-01   5.778936e-03
  2.965327e+00    4.523954e-01   5.724655e-03
  2.967538e+00    4.576081e-01   5.754605e-03
  2.969748e+00    4.511608e-01   5.711134e-03
  2.971959e+00    4.488759e-01   5.693525e-03
  2.974169e+00    4.428606e-01   5.652692e-03
  2.976379e+00    4.600692e-01   5.758536e-03
  2.978590e+00    4.493525e-01   5.687959e-03
  2.980800e+00    4.439533e-01   5.650923e-03
  2.983011e+00    4.443932e-01   5.650934e-03
  2.985221e+00    4.468334e-01   5.663319e-03
  2.987432e+00    4.504218e-01   5.682911e-03
  2.989642e+00    4.381675e-01   5.602489e-03
  2.991853e+00    4.541682e-01   5.700578e-03
  2.994063e+00    4.596968e-01   5.732262e-03
  2.996274e+00    4.408856e-01   5.610603e-03
  2.998484e+00    4.446324e-01   5.631723e-03
  3.000694e+00    4.523515e-01   5.676948e-03
  3.002905e+00    4.449298e-01   5.627277e-03
  3.005115e+00    4.564330e-01   5.696571e-03
  3.007326e+00    4.430559e-01   5.609349e-03
  3.009536e+00    4.542972e-01   5.676793e-03
  3.011747e+00    4.598044e-01   5.708190e-03
  3.013957e+00    4.581934e-01   5.694964e-03
  3.016168e+00    4.561169e-01   5.678770e-03
  3.018378e+00    4.707231e-01   5.765910e-03
  3.020589e+00    4.427691e-01   5.588883e-03
  3.022799e+00    4.441607e-01   5.594526e-03
  3.025010e+00    4.501820e-01   5.629100e-03
  3.027220e+00    4.508785e-01   5.630334e-03
  3.029430e+00    4.459429e-01   5.596225e-03
  3.031641e+00    4.481312e-01   5.606805e-03
  3.033851e+00    4.418851e-01   5.564114e-03
  3.036062e+00    4.540639e-01   5.637481e-03
  3.038272e+00    4.421755e-01   5.559663e-03
  3.040483e+00    4.486292e-01   5.596871e-03
  3.042693e+00    4.423293e-01   5.554195e-03
  3.044904e+00    4.399494e-01   5.535269e-03
  3.047114e+00    4.477704e-01   5.579452e-03
  3.049325e+00    4.486400e-01   5.580502e-03
  3.051535e+00    4.266866e-01   5.437967e-03
  3.053745e+00    4.502155e-01   5.581131e-03
  3.055956e+00    4.516040e-01   5.585175e-03
  3.058166e+00    4.511958e-01   5.578367e-03
  3.060377e+00    4.554442e-01   5.599776e-03
  3.062587e+00    4.462309e-01   5.538251e-03
  3.064798e+00    4.469264e-01   5.538316e-03
  3.067008e+00    4.361189e-01   5.466286e-03
  3.069219e+00    4.309258e-01   5.429225e-03
  3.071429e+00    4.429440e-01   5.500920e-03
  3.073640e+00    4.457456e-01   5.514977e-03
  3.075850e+00    4.405595e-01   5.479246e-03
  3.078060e+00    4.389839e-01   5.466381e-03
  3.080271e+00    4.450946e-01   5.500832e-03
  3.082481e+00    4.455642e-01   5.500292e-03
  3.084692e+00    4.403835e-01   5.464892e-03
  3.086902e+00    4.333938e-01   5.418152e-03
  3.089113e+00    4.381678e-01   5.444371e-03
  3.091323e+00    4.369752e-01   5.433631e-03
  3.093534e+00    4.486732e-01   5.502495e-03
  3.095744e+00    4.436998e-01   5.468572e-03
  3.097955e+00    4.479369e-01   5.491057e-03
  3.100165e+00    4.372841e-01   5.422081e-03
  3.102375e+00    4.325297e-01   5.389165e-03
  3.104586e+00    4.463342e-01   5.470975e-03
  3.106796e+00    4.471032e-01   5.472184e-03
  3.109007e+00    4.405195e-01   5.428556e-03
  3.111217e+00    4.320122e-01   5.372225e-03
  3.113428e+00    4.457547e-01   5.453600e-03
  3.115638e+00    4.495884e-01   5.473759e-03
  3.117849e+00    4.297416e-01   5.347922e-03
  3.120059e+00    4.273590e-01   5.329669e-03
  3.122270e+00    4.260730e-01   5.318463e-03
  3.124480e+00    4.400946e-01   5.401578e-03
  3.126691e+00    4.574347e-01   5.503389e-03
  3.128901e+00    4.296211e-01   5.330374e-03
  3.131111e+00    4.418474e-01   5.401839e-03
  3.133322e+00    4.348491e-01   5.355495e-03
  3.135532e+00    4.350586e-01   5.353414e-03
  3.137743e+00    4.532270e-01   5.460532e-03
  3.139953e+00    4.341314e-01   5.340625e-03
  3.142164e+00    4.525774e-01   5.465047e-03
  3.144374e+00    4.493529e-01   5.474181e-03
  3.146585e+00    4.347601e-01   5.398992e-03
  3.148795e+00    4.297698e-01   5.378529e-03
  3.151006e+00    4.315677e-01   5.398233e-03
  3.153216e+00    4.438748e-01   5.481789e-03
  3.155426e+00    4.340102e-01   5.426833e-03
  3.157637e+00    4.143229e-01   5.307642e-03
  3.159847e+00    4.262604e-01   5.388360e-03
  3.162058e+00    4.348450e-01   5.446753e-03
  3.164268e+00    4.367476e-01   5.462709e-03
  3.166479e+00    4.411497e-01   5.493824e-03
  3.168689e+00    4.318058e-01   5.438684e-03
  3.170900e+00    4.301866e-01   5.431612e-03
  3.173110e+00    4.150055e-01   5.337689e-03
  3.175321e+00    4.295756e-01   5.433064e-03
  3.177531e+00    4.400643e-01   5.501716e-03
  3.179741e+00    4.321222e-01   5.453924e-03
  3.181952e+00    4.416699e-01   5.515956e-03
  3.184162e+00    4.414788e-01   5.516977e-03
  3.186373e+00    4.250588e-01   5.414978e-03
  3.188583e+00    4.304492e-01   5.450970e-03
  3.190794e+00    4.435847e-01   5.535300e-03
  3.193004e+00    4.280204e-01   5.438539e-03
  3.195215e+00    4.390447e-01   5.509643e-03
  3.197425e+00    4.301020e-01   5.454471e-03
  3.199636e+00    4.175952e-01   5.373798e-03
  3.201846e+00    4.171922e-01   5.370620e-03
  3.204056e+00    4.379642e-01   5.503585e-03
  3.206267e+00    4.290099e-01   5.447883e-03
  3.208477e+00    4.284590e-01   5.445313e-03
  3.210688e+00    4.250232e-01   5.424249e-03
  3.212898e+00    4.317430e-01   5.467555e-03
  3.215109e+00    4.269077e-01   5.437594e-03
  3.217319e+00    4.329869e-01   5.476804e-03
  3.219530e+00    4.343802e-01   5.486020e-03
  3.221740e+00    4.133079e-01   5.351839e-03
  3.223951e+00    4.258853e-01   5.433111e-03
  3.226161e+00    4.250534e-01   5.428012e-03
  3.228372e+00    4.257170e-01   5.432761e-03
  3.230582e+00    4.275475e-01   5.444579e-03
  3.232792e+00    4.283500e-01   5.449913e-03
  3.235003e+00    4.105478e-01   5.335694e-03
  3.237213e+00    4.184332e-01   5.386789e-03
  3.239424e+00    4.252731e-01   5.430625e-03
  3.241634e+00    4.295868e-01   5.458243e-03
  3.243845e+00    4.335525e-01   5.483454e-03
  3.246055e+00    4.232512e-01   5.417632e-03
  3.248266e+00    4.275321e-01   5.445172e-03
  3.250476e+00    4.073438e-01   5.314763e-03
  3.252687e+00    4.158308e-01   5.369748e-03
  3.254897e+00    4.127052e-01   5.349421e-03
  3.257107e+00    4.183460e-01   5.385539e-03
  3.259318e+00    4.209101e-01   5.401809e-03
  3.261528e+00    4.043172e-01   5.294118e-03
  3.263739e+00    4.080103e-01   5.317678e-03
  3.265949e+00    4.220354e-01   5.408189e-03
  3.268160e+00    4.214124e-01   5.403787e-03
  3.270370e+00    4.170378e-01   5.375152e-03
  3.272581e+00    4.280492e-01   5.445387e-03
  3.274791e+00    4.124492e-01   5.344715e-03
  3.277002e+00    4.094379e-01   5.324611e-03
  3.279212e+00    4.140351e-01   5.354055e-03
  3.281422e+00    4.036900e-01   5.286177e-03
  3.283633e+00    4.123119e-01   5.341642e-03
  3.285843e+00    4.157187e-01   5.363346e-03
  3.288054e+00    3.996499e-01   5.257768e-03
  3.290264e+00    4.014973e-01   5.269585e-03
  3.292475e+00    4.167565e-01   5.367959e-03
  3.294685e+00    4.288572e-01   5.444700e-03
  3.296896e+00    4.272323e-01   5.433615e-03
  3.299106e+00    4.258035e-01   5.423978e-03
  3.301317e+00    4.168881e-01   5.365866e-03
  3.303527e+00    4.188648e-01   5.378100e-03
  3.305737e+00    4.166977e-01   5.363144e-03
  3.307948e+00    4.075737e-01   5.303429e-03
  3.310158e+00    4.294396e-01   5.442986e-03
  3.312369e+00    4.237954e-01   5.406227e-03
  3.314579e+00    4.170378e-01   5.362030e-03
  3.316790e+00    4.277228e-01   5.429583e-03
  3.319000e+00    4.241103e-01   5.405417e-03
  3.321211e+00    4.230471e-01   5.398024e-03
  3.323421e+00    4.212387e-01   5.385279e-03
  3.325632e+00    4.207786e-01   5.381460e-03
  3.327842e+00    4.079913e-01   5.298140e-03
  3.330052e+00    4.226959e-01   5.391696e-03
  3.332263e+00    4.304135e-01   5.439694e-03
  3.334473e+00    4.166090e-01   5.350830e-03
  3.336684e+00    4.180498e-01   5.358820e-03
  3.338894e+00    4.109480e-01   5.312276e-03
  3.341105e+00    3.979622e-01   5.226496e-03
  3.343315e+00    4.081278e-01   5.291687e-03
  3.345526e+00    4.060133e-01   5.277100e-03
  3.347736e+00    4.060557e-01   5.275982e-03
  3.349947e+00    4.102656e-01   5.302339e-03
  3.352157e+00    4.086874e-01   5.290970e-03
  3.354368e+00    4.090746e-01   5.292203e-03
  3.356578e+00    4.246043e-01   5.390686e-03
  3.358788e+00    3.934627e-01   5.187972e-03
  3.360999e+00    4.171956e-01   5.340869e-03
  3.363209e+00    4.108013e-01   5.298791e-03
  3.365420e+00    4.118346e-01   5.303946e-03
  3.367630e+00    4.078396e-01   5.277159e-03
  3.369841e+00    4.121470e-01   5.303520e-03
  3.372051e+00    4.200592e-01   5.352218e-03
  3.374262e+00    4.069516e-01   5.265640e-03
  3.376472e+00    3.922392e-01   5.167206e-03
  3.378683e+00    3.913827e-01   5.159120e-03
  3.380893e+00    3.970599e-01   5.194115e-03
  3.383103e+00    3.981935e-01   5.198884e-03
  3.385314e+00    4.005040e-01   5.211751e-03
  3.387524e+00    4.046609e-01   5.236056e-03
  3.389735e+00    3.885498e-01   5.128184e-03
  3.391945e+00    4.090338e-01   5.257979e-03
  3.394156e+00    4.094284e-01   5.256330e-03
  3.396366e+00    4.055395e-01   5.227901e-03
  3.398577e+00    4.019420e-01   5.201657e-03
  3.400787e+00    4.053220e-01   5.235315e-03
  3.402998e+00    3.988224e-01   5.230713e-03
  3.405208e+00    3.836272e-01   5.150199e-03
  3.407418e+00    3.857714e-01   5.180052e-03
  3.409629e+00    3.900823e-01   5.222670e-03
  3.411839e+00    3.894155e-01   5.229853e-03
  3.414050e+00    3.966686e-01   5.289309e-03
  3.416260e+00    3.775979e-01   5.170043e-03
  3.418471e+00    3.890683e-01   5.257326e-03
  3.420681e+00    3.705283e-01   5.138795e-03
  3.422892e+00    3.850546e-01   5.246489e-03
  3.425102e+00    3.750352e-01   5.185475e-03
  3.427313e+00    3.695222e-01   5.154204e-03
  3.429523e+00    3.804063e-01   5.236570e-03
  3.431733e+00    3.738180e-01   5.197592e-03
  3.433944e+00    3.745258e-01   5.208893e-03
  3.436154e+00    3.881807e-01   5.309304e-03
  3.438365e+00    3.925849e-01   5.345334e-03
  3.440575e+00    3.634998e-01   5.149332e-03
  3.442786e+00    3.650627e-01   5.165889e-03
  3.444996e+00    3.609005e-01   5.141711e-03
  3.447207e+00    3.494221e-01   5.064423e-03
  3.449417e+00    3.542692e-01   5.139247e-03
  3.451628e+00    3.659161e-01   5.252402e-03
  3.453838e+00    3.482372e-01   5.144523e-03
  3.456049e+00    3.565094e-01   5.228845e-03
  3.458259e+00    3.501433e-01   5.203368e-03
  3.460469e+00    3.641048e-01   5.325820e-03
  3.462680e+00    3.582910e-01   5.302002e-03
  3.464890e+00    3.569244e-01   5.309409e-03
  3.467101e+00    3.692997e-01   5.418207e-03
  3.469311e+00    3.669714e-01   5.417563e-03
  3.471522e+00    3.828425e-01   5.550046e-03
  3.473732e+00    3.939842e-01   5.646484e-03
  3.475943e+00    3.853612e-01   5.600146e-03
  3.478153e+00    3.944286e-01   5.681177e-03
  3.480364e+00    3.925485e-01   5.682786e-03
  3.482574e+00    4.000356e-01   5.751960e-03
  3.484784e+00    4.206848e-01   5.913600e-03
  3.486995e+00    4.163152e-01   5.897968e-03
  3.489205e+00    4.072712e-01   5.847860e-03
  3.491416e+00    4.354722e-01   6.062057e-03
  3.493626e+00    4.348764e-01   6.072471e-03
  3.495837e+00    4.395698e-01   6.119895e-03
  3.498047e+00    4.552906e-01   6.243048e-03
  3.500258e+00    4.534615e-01   6.245084e-03
  3.502468e+00    4.599496e-01   6.304133e-03
  3.504679e+00    4.594494e-01   6.315166e-03
  3.506889e+00    4.656502e-01   6.372053e-03
  3.509099e+00    4.798943e-01   6.483291e-03
  3.511310e+00    4.770609e-01   6.478596e-03
  3.513520e+00    4.862917e-01   6.555451e-03
  3.515731e+00    4.910449e-01   6.601842e-03
  3.517941e+00    4.985515e-01   6.666653e-03
  3.520152e+00    4.905972e-01   6.627473e-03
  3.522362e+00    5.029762e-01   6.725091e-03
  3.524573e+00    5.070367e-01   6.766462e-03
  3.526783e+00    5.171544e-01   6.847090e-03
  3.528994e+00    5.384101e-01   6.998864e-03
  3.531204e+00    5.195671e-01   6.887779e-03
  3.533414e+00    5.144543e-01   6.865734e-03
  3.535625e+00    5.225607e-01   6.931926e-03
  3.537835e+00    5.253823e-01   6.962605e-03
  3.540046e+00    5.468202e-01   7.112306e-03
  3.542256e+00    5.371054e-01   7.056395e-03
  3.544467e+00    5.210879e-01   6.957871e-03
  3.546677e+00    5.366355e-01   7.068499e-03
  3.548888e+00    5.300460e-01   7.032434e-03
  3.551098e+00    5.265478e-01   7.016402e-03
  3.553309e+00    5.388479e-01   7.106058e-03
  3.555519e+00    5.295820e-01   7.055943e-03
  3.557729e+00    5.374769e-01   7.120047e-03
  3.559940e+00    5.532168e-01   7.235317e-03
  3.562150e+00    5.363523e-01   7.135904e-03
  3.564361e+00    5.110112e-01   6.978279e-03
  3.566571e+00    5.245482e-01   7.083786e-03
  3.568782e+00    5.325329e-01   7.151557e-03
  3.570992e+00    5.326858e-01   7.166298e-03
  3.573203e+00    5.386292e-01   7.220343e-03
  3.575413e+00    5.357836e-01   7.215040e-03
  3.577624e+00    5.370242e-01   7.237493e-03
  3.579834e+00    5.282772e-01   7.192139e-03
  3.582045e+00    5.255891e-01   7.187665e-03
  3.584255e+00    5.305733e-01   7.235655e-03
  3.586465e+00    5.366530e-01   7.290955e-03
  3.588676e+00    5.247025e-01   7.223350e-03
  3.590886e+00    5.205821e-01   7.208457e-03
  3.593097e+00    5.175974e-01   7.201976e-03
  3.595307e+00    5.297085e-01   7.299625e-03
  3.597518e+00    5.282642e-01   7.303795e-03
  3.599728e+00    5.322210e-01   7.345127e-03
  3.601939e+00    5.209103e-01   7.280549e-03
  3.604149e+00    5.279401e-01   7.343801e-03
  3.606360e+00    5.277929e-01   7.356833e-03
  3.608570e+00    5.128667e-01   7.265900e-03
  3.610780e+00    5.330738e-01   7.418714e-03
  3.612991e+00    5.203478e-01   7.339510e-03
  3.615201e+00    5.244001e-01   7.377679e-03
  3.617412e+00    5.451989e-01   7.529971e-03
  3.619622e+00    5.477238e-01   7.553376e-03
  3.621833e+00    5.375066e-01   7.489389e-03
  3.624043e+00    5.181289e-01   7.362433e-03
  3.626254e+00    5.319037e-01   7.469383e-03
  3.628464e+00    5.390331e-01   7.530269e-03
  3.630675e+00    5.330235e-01   7.502335e-03
  3.632885e+00    5.096314e-01   7.349924e-03
  3.635095e+00    5.198050e-01   7.437171e-03
  3.637306e+00    5.329810e-01   7.545156e-03
  3.639516e+00    5.609333e-01   7.755423e-03
  3.641727e+00    5.336826e-01   7.579269e-03
  3.643937e+00    5.308175e-01   7.573400e-03
  3.646148e+00    5.135135e-01   7.463298e-03
  3.648358e+00    5.197152e-01   7.522853e-03
  3.650569e+00    5.313252e-01   7.621180e-03
  3.652779e+00    5.152675e-01   7.519636e-03
  3.654990e+00    5.402607e-01   7.714823e-03
  3.657200e+00    5.231847e-01   7.606725e-03
  3.659410e+00    5.509525e-01   7.821164e-03
  3.661621e+00    5.365337e-01   7.733366e-03
  3.663831e+00    5.087731e-01   7.545429e-03
  3.666042e+00    5.127552e-01   7.589753e-03
  3.668252e+00    5.339745e-01   7.760478e-03
  3.670463e+00    5.280586e-01   7.732599e-03
  3.672673e+00    5.153069e-01   7.653844e-03
  3.674884e+00    5.313055e-01   7.787136e-03
  3.677094e+00    5.169694e-01   7.696708e-03
  3.679305e+00    5.110146e-01   7.667497e-03
  3.681515e+00    5.210443e-01   7.757845e-03
  3.683726e+00    5.357836e-01   7.882719e-03
  3.685936e+00    5.280760e-01   7.841514e-03
  3.688146e+00    5.190784e-01   7.790057e-03
  3.690357e+00    5.299994e-01   7.887547e-03
  3.692567e+00    5.386385e-01   7.967891e-03
  3.694778e+00    5.162442e-01   7.816372e-03
  3.696988e+00    5.206351e-01   7.865469e-03
  3.699199e+00    5.163698e-01   7.849259e-03
  3.701409e+00    5.321981e-01   7.985137e-03
  3.703620e+00    5.185862e-01   7.898575e-03
  3.705830e+00    5.331447e-01   8.025214e-03
  3.708041e+00    5.368616e-01   8.069959e-03
  3.710251e+00    5.055845e-01   7.847778e-03
  3.712461e+00    5.131835e-01   7.923079e-03
  3.714672e+00    5.132933e-01   7.940570e-03
  3.716882e+00    4.973663e-01   7.832714e-03
  3.719093e+00    5.046547e-01   7.906780e-03
  3.721303e+00    5.091683e-01   7.958826e-03
  3.723514e+00    5.035260e-01   7.931629e-03
  3.725724e+00    4.966218e-01   7.893842e-03
  3.727935e+00    5.052108e-01   7.979073e-03
  3.730145e+00    5.133443e-01   8.060264e-03
  3.732356e+00    5.147009e-01   8.088488e-03
  3.734566e+00    5.159213e-01   8.115573e-03
  3.736776e+00    5.064241e-01   8.058163e-03
  3.738987e+00    4.909129e-01   7.951093e-03
  3.741197e+00    5.060276e-01   8.090499e-03
  3.743408e+00    5.121866e-01   8.157603e-03
  3.745618e+00    4.979768e-01   8.061639e-03
  3.747829e+00    5.153466e-01   8.219266e-03
  3.750039e+00    5.016221e-01   8.127250e-03
  3.752250e+00    4.911477e-01   8.060085e-03
  3.754460e+00    4.691442e-01   7.895190e-03
  3.756671e+00    5.120445e-01   8.267169e-03
  3.758881e+00    4.991911e-01   8.181193e-03
  3.761091e+00    5.044944e-01   8.243628e-03
  3.763302e+00    4.985202e-01   8.213561e-03
  3.765512e+00    5.021190e-01   8.262301e-03
  3.767723e+00    5.192673e-01   8.421751e-03
  3.769933e+00    4.949517e-01   8.241390e-03
  3.772144e+00    4.941936e-01   8.254359e-03
  3.774354e+00    5.048289e-01   8.362544e-03
  3.776565e+00    5.150748e-01   8.467041e-03
  3.778775e+00    5.049055e-01   8.403017e-03
  3.780986e+00    5.011702e-01   8.392097e-03
  3.783196e+00    4.946680e-01   8.357593e-03
  3.785407e+00    4.873144e-01   8.315285e-03
  3.787617e+00    5.014577e-01   8.455825e-03
  3.789827e+00    4.905018e-01   8.383236e-03
  3.792038e+00    4.879089e-01   8.381621e-03
  3.794248e+00    4.849955e-01   8.377371e-03
  3.796459e+00    4.795448e-01   8.350995e-03
  3.798669e+00    5.102233e-01   8.635587e-03
  3.800880e+00    4.917920e-01   8.499463e-03
  3.803090e+00    5.011455e-01   8.601702e-03
  3.805301e+00    5.056847e-01   8.662818e-03
  3.807511e+00    4.935915e-01   8.580468e-03
  3.809722e+00    4.914333e-01   8.583743e-03
  3.811932e+00    4.676271e-01   8.394751e-03
  3.814142e+00    4.546039e-01   8.298851e-03
  3.816353e+00    4.838494e-01   8.584093e-03
  3.818563e+00    5.109349e-01   8.844490e-03
  3.820774e+00    4.712234e-01   8.516339e-03
  3.822984e+00    5.170738e-01   8.944866e-03
  3.825195e+00    5.081886e-01   8.891696e-03
  3.827405e+00    5.047950e-01   8.886003e-03
  3.829616e+00    4.901853e-01   8.780351e-03
  3.831826e+00    4.777060e-01   8.691509e-03
  3.834037e+00    4.779623e-01   8.717905e-03
  3.836247e+00    5.137193e-01   9.063176e-03
  3.838457e+00    4.786368e-01   8.772897e-03
  3.840668e+00    4.983463e-01   8.976880e-03
  3.842878e+00    5.245023e-01   9.235705e-03
  3.845089e+00    4.982212e-01   9.026986e-03
  3.847299e+00    5.219610e-01   9.266012e-03
  3.849510e+00    4.896336e-01   9.000262e-03
  3.851720e+00    4.461851e-01   8.611946e-03
  3.853931e+00    5.157138e-01   9.277936e-03
  3.856141e+00    5.009100e-01   9.163085e-03
  3.858352e+00    4.953428e-01   9.131218e-03
  3.860562e+00    5.012565e-01   9.205067e-03
  3.862772e+00    5.052975e-01   9.261837e-03
  3.864983e+00    4.961118e-01   9.197057e-03
  3.867193e+00    5.065762e-01   9.313505e-03
  3.869404e+00    4.739832e-01   9.028392e-03
  3.871614e+00    4.885463e-01   9.185820e-03
  3.873825e+00    5.033534e-01   9.344617e-03
  3.876035e+00    4.748441e-01   9.096297e-03
  3.878246e+00    4.739639e-01   9.113109e-03
  3.880456e+00    4.945450e-01   9.337958e-03
  3.882667e+00    4.811598e-01   9.239711e-03
  3.884877e+00    5.047269e-01   9.493406e-03
  3.887087e+00    4.935606e-01   9.417802e-03
  3.889298e+00    5.079245e-01   9.584771e-03
  3.891508e+00    4.819064e-01   9.366282e-03
  3.893719e+00    5.140105e-01   9.704955e-03
  3.895929e+00    4.919169e-01   9.525615e-03
  3.898140e+00    5.090458e-01   9.722280e-03
  3.900350e+00    5.078231e-01   9.743257e-03
  3.902561e+00    5.002014e-01   9.702660e-03
  3.904771e+00    4.658802e-01   9.395807e-03
  3.906982e+00    4.986802e-01   9.754401e-03
  3.909192e+00    4.717305e-01   9.520085e-03
  3.911403e+00    5.012261e-01   9.847571e-03
  3.913613e+00    5.046408e-01   9.915957e-03
  3.915823e+00    4.871919e-01   9.777677e-03
  3.918034e+00    4.837416e-01   9.778245e-03
  3.920244e+00    4.902032e-01   9.878968e-03
  3.922455e+00    4.510990e-01   9.511607e-03
  3.924665e+00    4.321084e-01   9.343385e-03
  3.926876e+00    4.687452e-01   9.767765e-03
  3.929086e+00    4.846627e-01   9.969565e-03
  3.931297e+00    4.946580e-01   1.010686e-02
  3.933507e+00    4.911175e-01   1.009970e-02
  3.935718e+00    4.770540e-01   9.982498e-03
  3.937928e+00    4.680387e-01   9.916487e-03
  3.940138e+00    4.863977e-01   1.013844e-02
  3.942349e+00    4.903710e-01   1.020973e-02
  3.944559e+00    5.008375e-01   1.034864e-02
  3.946770e+00    4.518775e-01   9.858843e-03
  3.948980e+00    4.738582e-01   1.012601e-02
  3.951191e+00    4.868986e-01   1.029532e-02
  3.953401e+00    4.926596e-01   1.038753e-02
  3.955612e+00    5.212467e-01   1.071752e-02
  3.957822e+00    4.752510e-01   1.026511e-02
  3.960033e+00    4.534795e-01   1.005869e-02
  3.962243e+00    4.765052e-01   1.034336e-02
  3.964453e+00    4.762234e-01   1.037312e-02
  3.966664e+00    4.825495e-01   1.047505e-02
  3.968874e+00    5.039394e-01   1.073368e-02
  3.971085e+00    4.857419e-01   1.056006e-02
  3.973295e+00    4.749956e-01   1.046377e-02
  3.975506e+00    4.692605e-01   1.042165e-02
  3.977716e+00    4.879775e-01   1.064957e-02
  3.979927e+00    4.864911e-01   1.065545e-02
  3.982137e+00    4.773577e-01   1.057703e-02
  3.984348e+00    4.447763e-01   1.023143e-02
  3.986558e+00    4.547084e-01   1.036643e-02
  3.988768e+00    4.712926e-01   1.057658e-02
  3.990979e+00    4.942274e-01   1.085376e-02
  3.993189e+00    4.964971e-01   1.090208e-02
  3.995400e+00    4.773582e-01   1.071320e-02
  3.997610e+00    4.939015e-01   1.092735e-02
  3.999821e+00    4.996155e-01   1.102846e-02
  4.002031e+00    4.761148e-01   1.080407e-02
  4.004242e+00    4.630265e-01   1.069211e-02
  4.006452e+00    4.442148e-01   1.051035e-02
  4.008663e+00    4.670661e-01   1.081656e-02
  4.010873e+00    4.630323e-01   1.080882e-02
  4.013084e+00    4.793203e-01   1.103794e-02
  4.015294e+00    4.999696e-01   1.131492e-02
  4.017504e+00    4.896510e-01   1.123964e-02
  4.019715e+00    4.863900e-01   1.124471e-02
  4.021925e+00    4.498949e-01   1.085613e-02
  4.024136e+00    4.475655e-01   1.086992e-02
  4.026346e+00    4.639510e-01   1.111026e-02
  4.028557e+00    4.790625e-01   1.133393e-02
  4.030767e+00    4.679344e-01   1.124646e-02
  4.032978e+00    4.519061e-01   1.109686e-02
  4.035188e+00    4.557927e-01   1.118935e-02
  4.037399e+00    4.796281e-01   1.152545e-02
  4.039609e+00    4.805765e-01   1.158458e-02
  4.041819e+00    4.414787e-01   1.114990e-02
  4.044030e+00    4.567973e-01   1.139017e-02
  4.046240e+00    4.753178e-01   1.166824e-02
  4.048451e+00    4.650553e-01   1.159161e-02
  4.050661e+00    4.788022e-01   1.181282e-02
  4.052872e+00    4.754812e-01   1.182424e-02
  4.055082e+00    4.924223e-01   1.208702e-02
  4.057293e+00    4.810609e-01   1.200050e-02
  4.059503e+00    5.107280e-01   1.242121e-02
  4.061714e+00    4.422741e-01   1.161291e-02
  4.063924e+00    4.834288e-01   1.219806e-02
  4.066134e+00    5.109107e-01   1.259900e-02
  4.068345e+00    5.030357e-01   1.256187e-02
  4.070555e+00    4.838676e-01   1.237953e-02
  4.072766e+00    4.832536e-01   1.243265e-02
  4.074976e+00    4.781157e-01   1.242801e-02
  4.077187e+00    4.589865e-01   1.223745e-02
  4.079397e+00    4.808424e-01   1.258930e-02
  4.081608e+00    4.683965e-01   1.249004e-02
  4.083818e+00    4.630047e-01   1.248236e-02
  4.086029e+00    4.653122e-01   1.257960e-02
  4.088239e+00    4.365072e-01   1.224957e-02
  4.090449e+00    4.786049e-01   1.289608e-02
  4.092660e+00    4.893571e-01   1.311202e-02
  4.094870e+00    4.684598e-01   1.290026e-02
  4.097081e+00    4.409979e-01   1.258503e-02
  4.099291e+00    4.686652e-01   1.302746e-02
  4.101502e+00    4.738921e-01   1.314876e-02
  4.103712e+00    5.148029e-01   1.375577e-02
  4.105923e+00    4.645266e-01   1.311740e-02
  4.108133e+00    4.354555e-01   1.274916e-02
  4.110344e+00    4.674315e-01   1.325958e-02
  4.112554e+00    4.105028e-01   1.247498e-02
  4.114764e+00    4.555335e-01   1.319413e-02
  4.116975e+00    4.834536e-01   1.364604e-02
  4.119185e+00    4.967606e-01   1.388889e-02
  4.121396e+00    4.712546e-01   1.358336e-02
  4.123606e+00    4.653007e-01   1.355281e-02
  4.125817e+00    4.890930e-01   1.395296e-02
  4.128027e+00    4.878750e-01   1.399452e-02
  4.130238e+00    4.603018e-01   1.365157e-02
  4.132448e+00    4.615739e-01   1.372955e-02
  4.134659e+00    4.986569e-01   1.433206e-02
  4.136869e+00    5.105918e-01   1.456706e-02
  4.139080e+00    4.843481e-01   1.425185e-02
  4.141290e+00    4.717229e-01   1.412717e-02
  4.143500e+00    4.959411e-01   1.455204e-02
  4.145711e+00    4.532325e-01   1.397635e-02
  4.147921e+00    4.308954e-01   1.368997e-02
  4.150132e+00    5.151448e-01   1.504016e-02
  4.152342e+00    4.476878e-01   1.408886e-02
  4.154553e+00    4.611967e-01   1.436780e-02
  4.156763e+00    4.799420e-01   1.472928e-02
  4.158974e+00    4.674576e-01   1.460973e-02
  4.161184e+00    4.938242e-01   1.509038e-02
  4.163395e+00    5.003678e-01   1.526784e-02
  4.165605e+00    4.794524e-01   1.502296e-02
  4.167815e+00    4.554004e-01   1.471765e-02
  4.170026e+00    4.716753e-01   1.505722e-02
  4.172236e+00    5.091853e-01   1.572899e-02
  4.174447e+00    4.615888e-01   1.505761e-02
  4.176657e+00    4.498281e-01   1.494553e-02
  4.178868e+00    4.475652e-01   1.499221e-02
  4.181078e+00    4.974465e-01   1.589470e-02
  4.183289e+00    5.154668e-01   1.627270e-02
  4.185499e+00    4.880556e-01   1.592755e-02
  4.187710e+00    5.231603e-01   1.658692e-02
  4.189920e+00    5.088725e-01   1.645756e-02
  4.192130e+00    5.065246e-01   1.651987e-02
  4.194341e+00    4.478395e-01   1.562857e-02
  4.196551e+00    4.245288e-01   1.531278e-02
  4.198762e+00    4.617670e-01   1.607151e-02
  4.200972e+00    4.877021e-01   1.662393e-02
  4.203183e+00    4.465445e-01   1.601156e-02
  4.205393e+00    4.435643e-01   1.606429e-02
  4.207604e+00    4.707488e-01   1.666224e-02
  4.209814e+00    4.621252e-01   1.662211e-02
  4.212025e+00    4.792011e-01   1.704650e-02
  4.214235e+00    4.749070e-01   1.709010e-02
  4.216445e+00    4.463764e-01   1.668854e-02
  4.218656e+00    4.492849e-01   1.686853e-02
  4.220866e+00    4.326954e-01   1.667641e-02
  4.223077e+00    4.897115e-01   1.787795e-02
  4.225287e+00    4.373475e-01   1.702809e-02
  4.227498e+00    4.731219e-01   1.784935e-02
  4.229708e+00    4.287464e-01   1.713006e-02
  4.231919e+00    4.645624e-01   1.797858e-02
  4.234129e+00    5.010284e-01   1.882768e-02
  4.236340e+00    4.915857e-01   1.880890e-02
  4.238550e+00    4.740469e-01   1.863327e-02
  4.240761e+00    5.321937e-01   1.991727e-02
  4.242971e+00    5.192780e-01   1.985469e-02
  4.245181e+00    4.617845e-01   1.889903e-02
  4.247392e+00    5.082335e-01   2.001196e-02
  4.249602e+00    5.002438e-01   2.005149e-02
  4.251813e+00    5.154169e-01   2.055370e-02
  4.254023e+00    4.675494e-01   1.977351e-02
  4.256234e+00    4.716223e-01   2.007146e-02
  4.258444e+00    4.660250e-01   2.016058e-02
  4.260655e+00    5.632532e-01   2.240818e-02
  4.262865e+00    5.256538e-01   2.189282e-02
  4.265076e+00    3.852437e-01   1.895584e-02
  4.267286e+00    4.283277e-01   2.022379e-02
  4.269496e+00    4.197226e-01   2.026435e-02
  4.271707e+00    4.193695e-01   2.050604e-02
  4.273917e+00    4.329728e-01   2.110496e-02
  4.276128e+00    4.582005e-01   2.199982e-02
  4.278338e+00    4.118693e-01   2.113675e-02
  4.280549e+00    4.465334e-01   2.232360e-02
  4.282759e+00    4.386430e-01   2.244325e-02
  4.284970e+00    4.613598e-01   2.335783e-02
  4.287180e+00    4.448971e-01   2.321228e-02
  4.289391e+00    4.756828e-01   2.418222e-02
  4.291601e+00    4.700020e-01   2.422914e-02
  4.293811e+00    4.235131e-01   2.317983e-02
  4.296022e+00    4.252310e-01   2.341310e-02
  4.298232e+00    5.960688e-01   2.795205e-02
  4.300443e+00    5.042678e-01   2.592224e-02
  4.302653e+00    4.885798e-01   2.573676e-02
  4.304864e+00    4.846913e-01   2.585595e-02
  4.307074e+00    5.208356e-01   2.704410e-02
  4.309285e+00    4.382994e-01   2.503343e-02
  4.311495e+00    5.213445e-01   2.755779e-02
  4.313706e+00    5.157219e-01   2.766710e-02
  4.315916e+00    4.048434e-01   2.475379e-02
  4.318126e+00    4.029518e-01   2.494072e-02
  4.320337e+00    4.687627e-01   2.717163e-02
  4.322547e+00    5.517552e-01   2.979280e-02
  4.324758e+00    3.673360e-01   2.456208e-02
  4.326968e+00    3.603702e-01   2.460039e-02
  4.329179e+00    4.657095e-01   2.827530e-02
  4.331389e+00    4.751844e-01   2.889041e-02
  4.333600e+00    4.467442e-01   2.834624e-02
  4.335810e+00    5.145572e-01   3.078441e-02
  4.338021e+00    5.219955e-01   3.140361e-02
  4.340231e+00    4.252811e-01   2.869993e-02
  4.342442e+00    6.165646e-01   3.502111e-02
  4.344652e+00    3.986033e-01   2.854192e-02
  4.346862e+00    4.055412e-01   2.919119e-02
  4.349073e+00    4.440272e-01   3.098948e-02
  4.351283e+00    5.336899e-01   3.448166e-02
  4.353494e+00    4.369405e-01   3.168311e-02
  4.355704e+00    5.196406e-01   3.510723e-02
  4.357915e+00    5.147291e-01   3.552268e-02
  4.360125e+00    5.385156e-01   3.695497e-02
  4.362336e+00    4.928605e-01   3.599734e-02
  4.364546e+00    5.364348e-01   3.823877e-02
  4.366757e+00    4.935761e-01   3.740943e-02
  4.368967e+00    3.681572e-01   3.295349e-02
  4.371177e+00    4.011270e-01   3.512884e-02
  4.373388e+00    3.843988e-01   3.515462e-02
  4.375598e+00    4.283243e-01   3.795885e-02
  4.377809e+00    3.752106e-01   3.642476e-02
  4.380019e+00    3.367031e-01   3.537506e-02
  4.382230e+00    3.100175e-01   3.488863e-02
  4.384440e+00    3.964739e-01   4.059213e-02
  4.386651e+00    4.610749e-01   4.512267e-02
  4.388861e+00    4.691994e-01   4.704858e-02
  4.391072e+00    4.431804e-01   4.732895e-02
  4.393282e+00    3.742878e-01   4.517793e-02
  4.395492e+00    4.510602e-01   5.165648e-02
  4.397703e+00    2.553433e-01   4.064203e-02
  4.399913e+00    2.905508e-01   4.554857e-02
  4.402124e+00    2.861885e-01   4.776680e-02
  4.404334e+00    2.875096e-01   5.089321e-02
  4.406545e+00    1.501493e-01   3.951696e-02
  4.408755e+00    4.409690e-01   7.344241e-02
  4.410966e+00    4.321926e-01   8.047470e-02
  4.413176e+00    4.234810e-01   9.016430e-02
  4.415387e+00   -3.667666e-01            nan
  4.417597e+00   -1.771595e+00            nan
  4.419807e+00   -3.766224e-01            nan
