# == pyFAI calibration ==
# Distance Sample to Detector: 0.216 m
# PONI: 1.166e-01, 1.308e-01 m
# Rotations: 0.000000 0.000000 0.000000 rad
# 
# == Fit2d calibration ==
# Distance Sample-beamCenter: 216.000 mm
# Center: x=1744.293, y=1555.000 pix
# Tilt: 0.000 deg  TiltPlanRot: 0.000 deg
# 
# Detector Eiger 9M	 PixelSize= 7.500e-05, 7.500e-05 m
#    Detector has a mask: True 
#    Detector has a dark current: False 
#    detector has a flat field: False 
# 
# Wavelength: 9.8e-11 m
# Mask applied: from detector
# Dark current applied: False
# Flat field applied: False
# Polarization factor: None
# Normalization factor: 1.0
# 
# Headers of the input frame:
# {
# "_array_data.header_convention": "SLS_1.0",
# "_array_data.header_contents": "# Detector: Dectris Eiger 9M, S/N E-18-0102\r\n# Pixel_size 75e-6 m x 75e-6 m\r\n# Silicon sensor, thickness 0.000450 m\r\n# Exposure_time 0.024997 s\r\n# Exposure_period 0.025000 s\r\n# Count_cutoff 62318 counts\r\n# Wavelength 0.980106 A\r\n# Detector_distance 0.215992 m\r\n# Beam_xy (1555, 1744) pixels\r\n# Start_angle 0.000000 deg.\r\n# Angle_increment 0.000000 deg.",
# "Content-Type": "application/octet-stream;",
# "conversions": "x-CBF_BYTE_OFFSET",
# "Content-Transfer-Encoding": "BINARY",
# "X-Binary-Size": "10166592",
# "X-Binary-ID": "1",
# "X-Binary-Element-Type": "signed 32-bit integer",
# "X-Binary-Element-Byte-Order": "LITTLE_ENDIAN",
# "Content-MD5": "O228ckQfEFYpu53lmC40Cw==",
# "X-Binary-Number-of-Elements": "10166590",
# "X-Binary-Size-Fastest-Dimension": "3110",
# "X-Binary-Size-Second-Dimension": "3269",
# "X-Binary-Size-Padding": "4095"
# }
# --> H:/Proxima2a_2019-04-05/RAW_DATA/C5_gel17_position5/C5_mesh_1_data.cbf/C5_mesh_1_data.cbf000094.dat
#        q_A^-1              I           sigma 
  1.105228e-03    1.071598e+00   5.601481e-01
  3.315685e-03    7.874045e-01   2.919069e-01
  5.526141e-03    1.325171e+00   2.928250e-01
  7.736597e-03    1.674338e+00   2.780620e-01
  9.947054e-03    2.030155e+00   2.699238e-01
  1.215751e-02    1.790803e+00   2.292411e-01
  1.436797e-02    1.388167e+00   1.856508e-01
  1.657842e-02    1.379475e+00   1.722667e-01
  1.878888e-02    1.502507e+00   1.688775e-01
  2.099934e-02    1.584281e+00   1.640658e-01
  2.320979e-02    1.306862e+00   1.417254e-01
  2.542025e-02    1.223128e+00   1.310223e-01
  2.763070e-02    1.395957e+00   1.342537e-01
  2.984116e-02    1.451955e+00   1.317507e-01
  3.205162e-02    1.419655e+00   1.257123e-01
  3.426207e-02    1.259311e+00   1.145095e-01
  3.647253e-02    1.375348e+00   1.159834e-01
  3.868299e-02    1.532055e+00   1.188729e-01
  4.089344e-02    1.411001e+00   1.109543e-01
  4.310390e-02    1.473395e+00   1.104291e-01
  4.531436e-02    1.433208e+00   1.062235e-01
  4.752481e-02    1.610988e+00   1.099677e-01
  4.973527e-02    1.501483e+00   1.037796e-01
  5.194572e-02    1.418133e+00   9.868733e-02
  5.415618e-02    1.383022e+00   9.544503e-02
  5.636664e-02    1.301382e+00   9.075438e-02
  5.857709e-02    1.431334e+00   9.336518e-02
  6.078755e-02    1.427491e+00   9.152589e-02
  6.299801e-02    1.454877e+00   9.076315e-02
  6.520846e-02    1.489891e+00   9.027926e-02
  6.741892e-02    1.593685e+00   9.182290e-02
  6.962938e-02    1.483214e+00   8.717028e-02
  7.183983e-02    1.397927e+00   8.331329e-02
  7.405029e-02    1.505393e+00   8.515422e-02
  7.626074e-02    1.512472e+00   8.410735e-02
  7.847120e-02    1.489422e+00   8.227785e-02
  8.068166e-02    1.577907e+00   8.351777e-02
  8.289211e-02    1.556842e+00   8.184441e-02
  8.510257e-02    1.418260e+00   7.709521e-02
  8.731303e-02    1.458152e+00   7.717312e-02
  8.952348e-02    1.443483e+00   7.583217e-02
  9.173394e-02    1.498847e+00   7.633301e-02
  9.394439e-02    1.556051e+00   7.685306e-02
  9.615485e-02    1.641226e+00   7.801424e-02
  9.836531e-02    1.605643e+00   7.628989e-02
  1.005758e-01    1.533253e+00   7.372696e-02
  1.027862e-01    1.619457e+00   7.495017e-02
  1.049967e-01    1.643326e+00   7.470021e-02
  1.072071e-01    1.584915e+00   7.259952e-02
  1.094176e-01    1.566191e+00   7.143561e-02
  1.116280e-01    1.595550e+00   7.138302e-02
  1.138385e-01    1.574813e+00   7.022437e-02
  1.160490e-01    1.651977e+00   7.123510e-02
  1.182594e-01    1.572296e+00   6.884184e-02
  1.204699e-01    1.601952e+00   6.884705e-02
  1.226803e-01    1.557992e+00   6.727863e-02
  1.248908e-01    1.538064e+00   6.625196e-02
  1.271012e-01    1.599722e+00   6.697544e-02
  1.293117e-01    1.555186e+00   6.546890e-02
  1.315222e-01    1.574549e+00   6.531776e-02
  1.337326e-01    1.618036e+00   6.566283e-02
  1.359431e-01    1.671594e+00   6.677981e-02
  1.381535e-01    1.663951e+00   6.752130e-02
  1.403640e-01    1.592788e+00   6.634692e-02
  1.425744e-01    1.621881e+00   6.705704e-02
  1.447849e-01    1.625310e+00   6.714335e-02
  1.469953e-01    1.621460e+00   6.702179e-02
  1.492058e-01    1.568040e+00   6.583191e-02
  1.514163e-01    1.530547e+00   6.493210e-02
  1.536267e-01    1.613091e+00   6.652988e-02
  1.558372e-01    1.660180e+00   6.734494e-02
  1.580476e-01    1.708498e+00   6.815214e-02
  1.602581e-01    1.776653e+00   6.932172e-02
  1.624685e-01    1.771598e+00   6.903350e-02
  1.646790e-01    1.740662e+00   6.823161e-02
  1.668895e-01    1.780649e+00   6.881158e-02
  1.690999e-01    1.820633e+00   6.937092e-02
  1.713104e-01    1.800418e+00   6.877067e-02
  1.735208e-01    1.798059e+00   6.851187e-02
  1.757313e-01    1.823343e+00   6.877565e-02
  1.779417e-01    1.862690e+00   6.928705e-02
  1.801522e-01    1.919900e+00   7.011902e-02
  1.823626e-01    1.934717e+00   7.015473e-02
  1.845731e-01    2.028728e+00   7.160626e-02
  1.867836e-01    2.041582e+00   7.159034e-02
  1.889940e-01    2.062724e+00   7.172495e-02
  1.912045e-01    1.934727e+00   6.923198e-02
  1.934149e-01    1.950857e+00   6.928729e-02
  1.956254e-01    2.067496e+00   7.109326e-02
  1.978358e-01    1.939818e+00   6.862714e-02
  2.000463e-01    2.063380e+00   7.054451e-02
  2.022568e-01    2.029957e+00   6.974120e-02
  2.044672e-01    1.972235e+00   6.850699e-02
  2.066777e-01    1.993622e+00   6.864883e-02
  2.088881e-01    2.003084e+00   6.858641e-02
  2.110986e-01    1.937560e+00   6.722400e-02
  2.133090e-01    1.948248e+00   6.719001e-02
  2.155195e-01    1.874103e+00   6.568049e-02
  2.177300e-01    1.918381e+00   6.592977e-02
  2.199404e-01    1.987746e+00   6.534278e-02
  2.221509e-01    1.965750e+00   6.391325e-02
  2.243613e-01    2.029053e+00   6.411097e-02
  2.265718e-01    2.067375e+00   6.400030e-02
  2.287822e-01    2.155336e+00   6.470082e-02
  2.309927e-01    2.084917e+00   6.305540e-02
  2.332031e-01    2.117204e+00   6.299791e-02
  2.354136e-01    2.101229e+00   6.225114e-02
  2.376241e-01    2.254924e+00   6.398709e-02
  2.398345e-01    2.188674e+00   6.257360e-02
  2.420450e-01    2.150528e+00   6.158261e-02
  2.442554e-01    2.195369e+00   6.179267e-02
  2.464659e-01    2.200930e+00   6.145550e-02
  2.486763e-01    2.168539e+00   6.060062e-02
  2.508868e-01    2.131844e+00   5.970666e-02
  2.530973e-01    2.138180e+00   5.942462e-02
  2.553077e-01    2.124439e+00   5.887405e-02
  2.575182e-01    2.124694e+00   5.852924e-02
  2.597286e-01    2.125916e+00   5.820575e-02
  2.619391e-01    2.122368e+00   5.782234e-02
  2.641495e-01    2.094366e+00   5.712171e-02
  2.663600e-01    2.143711e+00   5.747290e-02
  2.685704e-01    2.134028e+00   5.703213e-02
  2.707809e-01    2.058972e+00   5.572286e-02
  2.729914e-01    2.064410e+00   5.550562e-02
  2.752018e-01    2.056359e+00   5.510893e-02
  2.774123e-01    2.011329e+00   5.422382e-02
  2.796227e-01    2.096171e+00   5.508180e-02
  2.818332e-01    2.005935e+00   5.361440e-02
  2.840436e-01    2.038734e+00   5.378894e-02
  2.862541e-01    2.003117e+00   5.306071e-02
  2.884646e-01    2.037883e+00   5.326519e-02
  2.906750e-01    2.031419e+00   5.292852e-02
  2.928855e-01    1.981168e+00   5.202756e-02
  2.950959e-01    2.045089e+00   5.261739e-02
  2.973064e-01    2.017686e+00   5.202882e-02
  2.995168e-01    1.976279e+00   5.125893e-02
  3.017273e-01    1.995565e+00   5.128137e-02
  3.039377e-01    1.994463e+00   5.104272e-02
  3.061482e-01    2.024661e+00   5.120520e-02
  3.083587e-01    1.968855e+00   5.027605e-02
  3.105691e-01    1.853372e+00   4.857092e-02
  3.127796e-01    1.938867e+00   4.946971e-02
  3.149900e-01    1.987786e+00   4.988121e-02
  3.172005e-01    1.926012e+00   4.889924e-02
  3.194109e-01    1.856764e+00   4.781393e-02
  3.216214e-01    1.921320e+00   4.843955e-02
  3.238319e-01    1.905271e+00   4.804572e-02
  3.260423e-01    1.908289e+00   4.789224e-02
  3.282528e-01    1.933583e+00   4.801666e-02
  3.304632e-01    2.002402e+00   4.867439e-02
  3.326737e-01    1.991357e+00   4.835059e-02
  3.348841e-01    1.884986e+00   4.685910e-02
  3.370946e-01    1.866823e+00   4.645732e-02
  3.393050e-01    1.895335e+00   4.663341e-02
  3.415155e-01    1.923979e+00   4.680785e-02
  3.437260e-01    1.860726e+00   4.586135e-02
  3.459364e-01    1.918565e+00   4.639641e-02
  3.481469e-01    1.876555e+00   4.571817e-02
  3.503573e-01    1.799354e+00   4.460479e-02
  3.525678e-01    1.788081e+00   4.430637e-02
  3.547782e-01    1.837565e+00   4.475292e-02
  3.569887e-01    1.804242e+00   4.418816e-02
  3.591992e-01    1.867434e+00   4.479626e-02
  3.614096e-01    1.832413e+00   4.422037e-02
  3.636201e-01    1.862076e+00   4.442021e-02
  3.658305e-01    1.845551e+00   4.407182e-02
  3.680410e-01    1.878841e+00   4.431457e-02
  3.702514e-01    1.812246e+00   4.337578e-02
  3.724619e-01    1.867574e+00   4.388297e-02
  3.746724e-01    1.857949e+00   4.362372e-02
  3.768828e-01    1.808400e+00   4.289328e-02
  3.790933e-01    1.820869e+00   4.290064e-02
  3.813037e-01    1.798088e+00   4.249196e-02
  3.835142e-01    1.802586e+00   4.240533e-02
  3.857246e-01    1.797475e+00   4.220812e-02
  3.879351e-01    1.785929e+00   4.193618e-02
  3.901455e-01    1.810514e+00   4.208941e-02
  3.923560e-01    1.806730e+00   4.191178e-02
  3.945665e-01    1.777974e+00   4.144504e-02
  3.967769e-01    1.828627e+00   4.189963e-02
  3.989874e-01    1.836089e+00   4.185396e-02
  4.011978e-01    1.763160e+00   4.088818e-02
  4.034083e-01    1.825085e+00   4.147229e-02
  4.056187e-01    1.865865e+00   4.180391e-02
  4.078292e-01    1.829460e+00   4.126881e-02
  4.100397e-01    1.818453e+00   4.101883e-02
  4.122501e-01    1.838343e+00   4.111919e-02
  4.144606e-01    1.779042e+00   4.033058e-02
  4.166710e-01    1.841340e+00   4.090863e-02
  4.188815e-01    1.853879e+00   4.092646e-02
  4.210919e-01    1.809044e+00   4.031003e-02
  4.233024e-01    1.804049e+00   4.013596e-02
  4.255128e-01    1.843382e+00   4.045384e-02
  4.277233e-01    1.842117e+00   4.032379e-02
  4.299338e-01    1.800513e+00   3.975110e-02
  4.321442e-01    1.860960e+00   4.029722e-02
  4.343547e-01    1.800253e+00   3.952244e-02
  4.365651e-01    1.806019e+00   3.947319e-02
  4.387756e-01    1.784106e+00   3.912315e-02
  4.409860e-01    1.780269e+00   3.897278e-02
  4.431965e-01    1.756763e+00   3.860757e-02
  4.454070e-01    1.774309e+00   3.869196e-02
  4.476174e-01    1.740024e+00   3.821111e-02
  4.498279e-01    1.723492e+00   3.792568e-02
  4.520383e-01    1.700544e+00   3.756896e-02
  4.542488e-01    1.707267e+00   3.754166e-02
  4.564592e-01    1.758967e+00   3.800359e-02
  4.586697e-01    1.783864e+00   3.817005e-02
  4.608801e-01    1.769138e+00   3.791035e-02
  4.630906e-01    1.791683e+00   3.805010e-02
  4.653011e-01    1.791033e+00   3.794318e-02
  4.675115e-01    1.806509e+00   3.800637e-02
  4.697220e-01    1.816723e+00   3.801390e-02
  4.719324e-01    1.739245e+00   3.709827e-02
  4.741429e-01    1.739664e+00   3.700711e-02
  4.763533e-01    1.731936e+00   3.683019e-02
  4.785638e-01    1.743116e+00   3.685339e-02
  4.807743e-01    1.779219e+00   3.713842e-02
  4.829847e-01    1.720109e+00   3.642406e-02
  4.851952e-01    1.675559e+00   3.585830e-02
  4.874056e-01    1.694070e+00   3.596491e-02
  4.896161e-01    1.758213e+00   3.654859e-02
  4.918265e-01    1.762312e+00   3.650032e-02
  4.940370e-01    1.728732e+00   3.606164e-02
  4.962475e-01    1.705008e+00   3.572489e-02
  4.984579e-01    1.697826e+00   3.556172e-02
  5.006684e-01    1.722506e+00   3.573191e-02
  5.028788e-01    1.737152e+00   3.579656e-02
  5.050893e-01    1.707183e+00   3.540014e-02
  5.072997e-01    1.678066e+00   3.501219e-02
  5.095102e-01    1.656895e+00   3.470727e-02
  5.117206e-01    1.702953e+00   3.510271e-02
  5.139311e-01    1.721528e+00   3.521010e-02
  5.161416e-01    1.740659e+00   3.532154e-02
  5.183520e-01    1.695150e+00   3.477392e-02
  5.205625e-01    1.703732e+00   3.478014e-02
  5.227729e-01    1.684477e+00   3.450240e-02
  5.249834e-01    1.700745e+00   3.458812e-02
  5.271938e-01    1.748677e+00   3.499028e-02
  5.294043e-01    1.795258e+00   3.537145e-02
  5.316148e-01    1.767640e+00   3.501794e-02
  5.338252e-01    1.773881e+00   3.499953e-02
  5.360357e-01    1.794312e+00   3.512037e-02
  5.382461e-01    1.771527e+00   3.481779e-02
  5.404566e-01    1.759431e+00   3.461975e-02
  5.426670e-01    1.807811e+00   3.501341e-02
  5.448775e-01    1.832679e+00   3.517467e-02
  5.470879e-01    1.796992e+00   3.475285e-02
  5.492984e-01    1.757448e+00   3.429191e-02
  5.515089e-01    1.773045e+00   3.436734e-02
  5.537193e-01    1.823005e+00   3.477139e-02
  5.559298e-01    1.826802e+00   3.473125e-02
  5.581402e-01    1.825979e+00   3.464755e-02
  5.603507e-01    1.852744e+00   3.482459e-02
  5.625611e-01    1.853019e+00   3.475162e-02
  5.647716e-01    1.819315e+00   3.435935e-02
  5.669821e-01    1.777434e+00   3.388836e-02
  5.691925e-01    1.779093e+00   3.383139e-02
  5.714030e-01    1.740972e+00   3.339563e-02
  5.736134e-01    1.700966e+00   3.293948e-02
  5.758239e-01    1.721752e+00   3.306939e-02
  5.780343e-01    1.714198e+00   3.292698e-02
  5.802448e-01    1.676687e+00   3.249655e-02
  5.824552e-01    1.687798e+00   3.253564e-02
  5.846657e-01    1.671099e+00   3.230679e-02
  5.868762e-01    1.716162e+00   3.267132e-02
  5.890866e-01    1.713288e+00   3.257624e-02
  5.912971e-01    1.680221e+00   3.219355e-02
  5.935075e-01    1.689813e+00   3.221858e-02
  5.957180e-01    1.643255e+00   3.170646e-02
  5.979284e-01    1.653444e+00   3.173965e-02
  6.001389e-01    1.670972e+00   3.184248e-02
  6.023494e-01    1.696620e+00   3.202079e-02
  6.045598e-01    1.677000e+00   3.177028e-02
  6.067703e-01    1.671890e+00   3.165806e-02
  6.089807e-01    1.696750e+00   3.182843e-02
  6.111912e-01    1.706815e+00   3.185895e-02
  6.134016e-01    1.735307e+00   3.205968e-02
  6.156121e-01    1.726534e+00   3.191500e-02
  6.178226e-01    1.695553e+00   3.156474e-02
  6.200330e-01    1.666983e+00   3.123593e-02
  6.222435e-01    1.708481e+00   3.155969e-02
  6.244539e-01    1.752363e+00   3.189984e-02
  6.266644e-01    1.740083e+00   3.172587e-02
  6.288748e-01    1.759207e+00   3.183764e-02
  6.310853e-01    1.690621e+00   3.115026e-02
  6.332957e-01    1.708043e+00   3.124988e-02
  6.355062e-01    1.735416e+00   3.143811e-02
  6.377167e-01    1.735855e+00   3.138174e-02
  6.399271e-01    1.723000e+00   3.120544e-02
  6.421376e-01    1.749229e+00   3.138203e-02
  6.443480e-01    1.725749e+00   3.111142e-02
  6.465585e-01    1.763797e+00   3.139289e-02
  6.487689e-01    1.767045e+00   3.136248e-02
  6.509794e-01    1.686371e+00   3.058041e-02
  6.531899e-01    1.679582e+00   3.046139e-02
  6.554003e-01    1.639769e+00   3.004163e-02
  6.576108e-01    1.629332e+00   2.989008e-02
  6.598212e-01    1.668397e+00   3.019009e-02
  6.620317e-01    1.685286e+00   3.028627e-02
  6.642421e-01    1.671719e+00   3.010832e-02
  6.664526e-01    1.668639e+00   3.002514e-02
  6.686630e-01    1.657119e+00   2.986600e-02
  6.708735e-01    1.611531e+00   2.939831e-02
  6.730840e-01    1.577690e+00   2.903493e-02
  6.752944e-01    1.629307e+00   2.945244e-02
  6.775049e-01    1.657375e+00   2.965109e-02
  6.797153e-01    1.691077e+00   2.989683e-02
  6.819258e-01    1.679207e+00   2.973800e-02
  6.841362e-01    1.649668e+00   2.942226e-02
  6.863467e-01    1.657660e+00   2.944062e-02
  6.885572e-01    1.645516e+00   2.928002e-02
  6.907676e-01    1.636376e+00   2.914627e-02
  6.929781e-01    1.634875e+00   2.908112e-02
  6.951885e-01    1.630395e+00   2.898981e-02
  6.973990e-01    1.617046e+00   2.881984e-02
  6.996094e-01    1.630666e+00   2.889004e-02
  7.018199e-01    1.610881e+00   2.866385e-02
  7.040303e-01    1.607351e+00   2.858212e-02
  7.062408e-01    1.625212e+00   2.869016e-02
  7.084513e-01    1.602288e+00   2.843754e-02
  7.106617e-01    1.609277e+00   2.844997e-02
  7.128722e-01    1.635325e+00   2.862967e-02
  7.150826e-01    1.632069e+00   2.855187e-02
  7.172931e-01    1.629394e+00   2.847927e-02
  7.195035e-01    1.615499e+00   2.830883e-02
  7.217140e-01    1.618013e+00   2.838097e-02
  7.239245e-01    1.584940e+00   2.831690e-02
  7.261349e-01    1.589118e+00   2.846329e-02
  7.283454e-01    1.600472e+00   2.863781e-02
  7.305558e-01    1.606677e+00   2.874778e-02
  7.327663e-01    1.610126e+00   2.882162e-02
  7.349767e-01    1.626359e+00   2.898317e-02
  7.371872e-01    1.628218e+00   2.898837e-02
  7.393976e-01    1.625611e+00   2.895066e-02
  7.416081e-01    1.620861e+00   2.889192e-02
  7.438186e-01    1.610823e+00   2.865635e-02
  7.460290e-01    1.600509e+00   2.826782e-02
  7.482395e-01    1.617766e+00   2.824631e-02
  7.504499e-01    1.631468e+00   2.822697e-02
  7.526604e-01    1.643748e+00   2.821391e-02
  7.548708e-01    1.642477e+00   2.811169e-02
  7.570813e-01    1.603052e+00   2.772081e-02
  7.592918e-01    1.605407e+00   2.770565e-02
  7.615022e-01    1.673733e+00   2.825422e-02
  7.637127e-01    1.625420e+00   2.781017e-02
  7.659231e-01    1.586579e+00   2.744376e-02
  7.681336e-01    1.582620e+00   2.737780e-02
  7.703440e-01    1.628148e+00   2.773705e-02
  7.725545e-01    1.640062e+00   2.780685e-02
  7.747650e-01    1.618724e+00   2.758665e-02
  7.769754e-01    1.601393e+00   2.738542e-02
  7.791859e-01    1.588076e+00   2.721762e-02
  7.813963e-01    1.607885e+00   2.733376e-02
  7.836068e-01    1.585944e+00   2.709462e-02
  7.858172e-01    1.603246e+00   2.719106e-02
  7.880277e-01    1.613096e+00   2.722259e-02
  7.902381e-01    1.627047e+00   2.729037e-02
  7.924486e-01    1.646781e+00   2.740452e-02
  7.946591e-01    1.640580e+00   2.730398e-02
  7.968695e-01    1.683391e+00   2.760844e-02
  7.990800e-01    1.666317e+00   2.741900e-02
  8.012904e-01    1.642919e+00   2.717871e-02
  8.035009e-01    1.647341e+00   2.716683e-02
  8.057113e-01    1.674681e+00   2.734398e-02
  8.079218e-01    1.647898e+00   2.707764e-02
  8.101323e-01    1.622581e+00   2.682321e-02
  8.123427e-01    1.634092e+00   2.687228e-02
  8.145532e-01    1.663488e+00   2.706652e-02
  8.167636e-01    1.663888e+00   2.702428e-02
  8.189741e-01    1.629445e+00   2.669851e-02
  8.211845e-01    1.667574e+00   2.696380e-02
  8.233950e-01    1.698032e+00   2.716469e-02
  8.256054e-01    1.696649e+00   2.710865e-02
  8.278159e-01    1.660313e+00   2.677252e-02
  8.300264e-01    1.657898e+00   2.670969e-02
  8.322368e-01    1.661249e+00   2.669325e-02
  8.344473e-01    1.673296e+00   2.674604e-02
  8.366577e-01    1.675419e+00   2.671994e-02
  8.388682e-01    1.664085e+00   2.658685e-02
  8.410786e-01    1.653475e+00   2.645972e-02
  8.432891e-01    1.649678e+00   2.638732e-02
  8.454996e-01    1.655080e+00   2.638868e-02
  8.477100e-01    1.649846e+00   2.630509e-02
  8.499205e-01    1.664127e+00   2.637722e-02
  8.521309e-01    1.652460e+00   2.624359e-02
  8.543414e-01    1.653942e+00   2.621442e-02
  8.565518e-01    1.628970e+00   2.597524e-02
  8.587623e-01    1.633384e+00   2.596993e-02
  8.609727e-01    1.629410e+00   2.589808e-02
  8.631832e-01    1.642035e+00   2.595815e-02
  8.653937e-01    1.591681e+00   2.551776e-02
  8.676041e-01    1.600599e+00   2.555053e-02
  8.698146e-01    1.614550e+00   2.562241e-02
  8.720250e-01    1.611947e+00   2.556274e-02
  8.742355e-01    1.615662e+00   2.555322e-02
  8.764459e-01    1.599434e+00   2.538578e-02
  8.786564e-01    1.585864e+00   2.524018e-02
  8.808669e-01    1.598225e+00   2.529993e-02
  8.830773e-01    1.609074e+00   2.534746e-02
  8.852878e-01    1.613874e+00   2.534716e-02
  8.874982e-01    1.599622e+00   2.519837e-02
  8.897087e-01    1.610290e+00   2.524448e-02
  8.919191e-01    1.623072e+00   2.530644e-02
  8.941296e-01    1.626673e+00   2.529691e-02
  8.963401e-01    1.598399e+00   2.503971e-02
  8.985505e-01    1.589217e+00   2.493082e-02
  9.007610e-01    1.588117e+00   2.488559e-02
  9.029714e-01    1.600220e+00   2.494440e-02
  9.051819e-01    1.583758e+00   2.477873e-02
  9.073923e-01    1.576860e+00   2.468840e-02
  9.096028e-01    1.601477e+00   2.484543e-02
  9.118132e-01    1.639083e+00   2.509878e-02
  9.140237e-01    1.619706e+00   2.491317e-02
  9.162342e-01    1.610329e+00   2.480624e-02
  9.184446e-01    1.619357e+00   2.483973e-02
  9.206551e-01    1.598066e+00   2.464032e-02
  9.228655e-01    1.601541e+00   2.463183e-02
  9.250760e-01    1.606632e+00   2.463553e-02
  9.272864e-01    1.625152e+00   2.474263e-02
  9.294969e-01    1.648678e+00   2.488475e-02
  9.317074e-01    1.622148e+00   2.464885e-02
  9.339178e-01    1.640005e+00   2.475029e-02
  9.361283e-01    1.639691e+00   2.471144e-02
  9.383387e-01    1.657038e+00   2.480802e-02
  9.405492e-01    1.675299e+00   2.490951e-02
  9.427596e-01    1.668736e+00   2.482489e-02
  9.449701e-01    1.680559e+00   2.487881e-02
  9.471805e-01    1.706213e+00   2.503248e-02
  9.493910e-01    1.730732e+00   2.517710e-02
  9.516015e-01    1.735067e+00   2.517343e-02
  9.538119e-01    1.732870e+00   2.512301e-02
  9.560224e-01    1.740143e+00   2.514023e-02
  9.582328e-01    1.742578e+00   2.512406e-02
  9.604433e-01    1.783472e+00   2.538116e-02
  9.626537e-01    1.775975e+00   2.529371e-02
  9.648642e-01    1.820998e+00   2.557723e-02
  9.670747e-01    1.826334e+00   2.557935e-02
  9.692851e-01    1.856318e+00   2.575419e-02
  9.714956e-01    1.852610e+00   2.569219e-02
  9.737060e-01    1.868050e+00   2.576513e-02
  9.759165e-01    1.901810e+00   2.596025e-02
  9.781269e-01    1.894303e+00   2.587508e-02
  9.803374e-01    1.885461e+00   2.577891e-02
  9.825478e-01    1.870608e+00   2.564331e-02
  9.847583e-01    1.839936e+00   2.539768e-02
  9.869688e-01    1.800989e+00   2.509380e-02
  9.891792e-01    1.795742e+00   2.502391e-02
  9.913897e-01    1.787798e+00   2.493480e-02
  9.936001e-01    1.748038e+00   2.462370e-02
  9.958106e-01    1.766657e+00   2.472083e-02
  9.980210e-01    1.743752e+00   2.452819e-02
  1.000231e+00    1.678562e+00   2.419718e-02
  1.002442e+00    1.654575e+00   2.415130e-02
  1.004652e+00    1.636225e+00   2.408401e-02
  1.006863e+00    1.630638e+00   2.409273e-02
  1.009073e+00    1.632145e+00   2.414076e-02
  1.011284e+00    1.632001e+00   2.417195e-02
  1.013494e+00    1.634014e+00   2.421086e-02
  1.015705e+00    1.611059e+00   2.406291e-02
  1.017915e+00    1.573851e+00   2.379981e-02
  1.020126e+00    1.578234e+00   2.384902e-02
  1.022336e+00    1.554801e+00   2.368300e-02
  1.024547e+00    1.543209e+00   2.360571e-02
  1.026757e+00    1.541161e+00   2.359840e-02
  1.028967e+00    1.538397e+00   2.358489e-02
  1.031178e+00    1.520249e+00   2.345152e-02
  1.033388e+00    1.543409e+00   2.363452e-02
  1.035599e+00    1.550678e+00   2.369360e-02
  1.037809e+00    1.548941e+00   2.368358e-02
  1.040020e+00    1.522545e+00   2.348221e-02
  1.042230e+00    1.477665e+00   2.313544e-02
  1.044441e+00    1.478175e+00   2.313918e-02
  1.046651e+00    1.490362e+00   2.323458e-02
  1.048862e+00    1.482540e+00   2.317270e-02
  1.051072e+00    1.517486e+00   2.344188e-02
  1.053282e+00    1.516723e+00   2.343503e-02
  1.055493e+00    1.549811e+00   2.368488e-02
  1.057703e+00    1.526599e+00   2.350532e-02
  1.059914e+00    1.522656e+00   2.347064e-02
  1.062124e+00    1.546373e+00   2.364856e-02
  1.064335e+00    1.597547e+00   2.403313e-02
  1.066545e+00    1.606966e+00   2.409763e-02
  1.068756e+00    1.597036e+00   2.401920e-02
  1.070966e+00    1.556225e+00   2.370362e-02
  1.073177e+00    1.516753e+00   2.339492e-02
  1.075387e+00    1.504681e+00   2.329633e-02
  1.077597e+00    1.543551e+00   2.358787e-02
  1.079808e+00    1.591515e+00   2.381317e-02
  1.082018e+00    1.551117e+00   2.331433e-02
  1.084229e+00    1.491128e+00   2.274784e-02
  1.086439e+00    1.508282e+00   2.278927e-02
  1.088650e+00    1.527705e+00   2.285801e-02
  1.090860e+00    1.463185e+00   2.230230e-02
  1.093071e+00    1.465124e+00   2.225454e-02
  1.095281e+00    1.474956e+00   2.227129e-02
  1.097492e+00    1.444116e+00   2.198233e-02
  1.099702e+00    1.465538e+00   2.209293e-02
  1.101912e+00    1.468809e+00   2.206823e-02
  1.104123e+00    1.465669e+00   2.199591e-02
  1.106333e+00    1.440524e+00   2.176188e-02
  1.108544e+00    1.423908e+00   2.159183e-02
  1.110754e+00    1.415401e+00   2.148438e-02
  1.112965e+00    1.446190e+00   2.167592e-02
  1.115175e+00    1.429002e+00   2.150543e-02
  1.117386e+00    1.433567e+00   2.150021e-02
  1.119596e+00    1.419199e+00   2.135425e-02
  1.121807e+00    1.397911e+00   2.115482e-02
  1.124017e+00    1.417221e+00   2.126365e-02
  1.126228e+00    1.404875e+00   2.113508e-02
  1.128438e+00    1.423245e+00   2.123575e-02
  1.130648e+00    1.436075e+00   2.129648e-02
  1.132859e+00    1.424051e+00   2.117246e-02
  1.135069e+00    1.413513e+00   2.105897e-02
  1.137280e+00    1.415675e+00   2.104178e-02
  1.139490e+00    1.397359e+00   2.087203e-02
  1.141701e+00    1.379502e+00   2.070517e-02
  1.143911e+00    1.387252e+00   2.073136e-02
  1.146122e+00    1.391523e+00   2.073109e-02
  1.148332e+00    1.373479e+00   2.056445e-02
  1.150543e+00    1.368854e+00   2.049905e-02
  1.152753e+00    1.381530e+00   2.056284e-02
  1.154963e+00    1.397812e+00   2.065234e-02
  1.157174e+00    1.398511e+00   2.062707e-02
  1.159384e+00    1.404259e+00   2.063922e-02
  1.161595e+00    1.388875e+00   2.049582e-02
  1.163805e+00    1.392120e+00   2.049022e-02
  1.166016e+00    1.376777e+00   2.034749e-02
  1.168226e+00    1.368484e+00   2.025712e-02
  1.170437e+00    1.389750e+00   2.038503e-02
  1.172647e+00    1.375401e+00   2.025055e-02
  1.174858e+00    1.356167e+00   2.008042e-02
  1.177068e+00    1.384184e+00   2.025831e-02
  1.179278e+00    1.391589e+00   2.028355e-02
  1.181489e+00    1.363528e+00   2.005095e-02
  1.183699e+00    1.362830e+00   2.001819e-02
  1.185910e+00    1.372043e+00   2.005783e-02
  1.188120e+00    1.369095e+00   2.000947e-02
  1.190331e+00    1.352261e+00   1.985933e-02
  1.192541e+00    1.342057e+00   1.975703e-02
  1.194752e+00    1.359084e+00   1.985482e-02
  1.196962e+00    1.360387e+00   1.983853e-02
  1.199173e+00    1.335291e+00   1.962834e-02
  1.201383e+00    1.357437e+00   1.976320e-02
  1.203593e+00    1.362331e+00   1.977386e-02
  1.205804e+00    1.375335e+00   1.984185e-02
  1.208014e+00    1.378002e+00   1.983395e-02
  1.210225e+00    1.419270e+00   2.010275e-02
  1.212435e+00    1.548142e+00   2.096905e-02
  1.214646e+00    1.590696e+00   2.122700e-02
  1.216856e+00    1.522090e+00   2.073716e-02
  1.219067e+00    1.444677e+00   2.017763e-02
  1.221277e+00    1.424108e+00   2.000774e-02
  1.223488e+00    1.422169e+00   1.996771e-02
  1.225698e+00    1.381384e+00   1.965208e-02
  1.227909e+00    1.396711e+00   1.973011e-02
  1.230119e+00    1.387280e+00   1.963111e-02
  1.232329e+00    1.362300e+00   1.942270e-02
  1.234540e+00    1.377901e+00   1.950300e-02
  1.236750e+00    1.369246e+00   1.941116e-02
  1.238961e+00    1.368948e+00   1.938188e-02
  1.241171e+00    1.396818e+00   1.955360e-02
  1.243382e+00    1.382060e+00   1.942624e-02
  1.245592e+00    1.420136e+00   1.966730e-02
  1.247803e+00    1.413553e+00   1.959746e-02
  1.250013e+00    1.411816e+00   1.956134e-02
  1.252224e+00    1.440371e+00   1.973414e-02
  1.254434e+00    1.479648e+00   1.997654e-02
  1.256644e+00    1.475051e+00   1.992126e-02
  1.258855e+00    1.415245e+00   1.948940e-02
  1.261065e+00    1.380360e+00   1.922406e-02
  1.263276e+00    1.365462e+00   1.909695e-02
  1.265486e+00    1.387007e+00   1.922384e-02
  1.267697e+00    1.361140e+00   1.902062e-02
  1.269907e+00    1.369143e+00   1.905360e-02
  1.272118e+00    1.350752e+00   1.890263e-02
  1.274328e+00    1.351180e+00   1.888286e-02
  1.276539e+00    1.388029e+00   1.911551e-02
  1.278749e+00    1.397629e+00   1.915883e-02
  1.280959e+00    1.451387e+00   1.950042e-02
  1.283170e+00    1.563008e+00   2.021226e-02
  1.285380e+00    1.545835e+00   2.007692e-02
  1.287591e+00    1.489475e+00   1.968440e-02
  1.289801e+00    1.400929e+00   1.906871e-02
  1.292012e+00    1.357940e+00   1.875671e-02
  1.294222e+00    1.361652e+00   1.876600e-02
  1.296433e+00    1.340237e+00   1.860232e-02
  1.298643e+00    1.362197e+00   1.873754e-02
  1.300854e+00    1.359850e+00   1.870493e-02
  1.303064e+00    1.367899e+00   1.874085e-02
  1.305274e+00    1.373562e+00   1.875797e-02
  1.307485e+00    1.368247e+00   1.869998e-02
  1.309695e+00    1.346718e+00   1.853004e-02
  1.311906e+00    1.369007e+00   1.866090e-02
  1.314116e+00    1.388044e+00   1.876911e-02
  1.316327e+00    1.392374e+00   1.877634e-02
  1.318537e+00    1.388489e+00   1.872794e-02
  1.320748e+00    1.367167e+00   1.856190e-02
  1.322958e+00    1.360514e+00   1.849607e-02
  1.325169e+00    1.388629e+00   1.866488e-02
  1.327379e+00    1.400874e+00   1.872478e-02
  1.329589e+00    1.392204e+00   1.864537e-02
  1.331800e+00    1.374333e+00   1.850442e-02
  1.334010e+00    1.346710e+00   1.829688e-02
  1.336221e+00    1.356795e+00   1.834346e-02
  1.338431e+00    1.349579e+00   1.827376e-02
  1.340642e+00    1.366900e+00   1.845520e-02
  1.342852e+00    1.356459e+00   1.848550e-02
  1.345063e+00    1.364596e+00   1.859061e-02
  1.347273e+00    1.366269e+00   1.863747e-02
  1.349484e+00    1.370082e+00   1.869133e-02
  1.351694e+00    1.360124e+00   1.864608e-02
  1.353905e+00    1.343458e+00   1.854945e-02
  1.356115e+00    1.353591e+00   1.863432e-02
  1.358325e+00    1.360599e+00   1.869587e-02
  1.360536e+00    1.369635e+00   1.876956e-02
  1.362746e+00    1.362395e+00   1.872950e-02
  1.364957e+00    1.339457e+00   1.857880e-02
  1.367167e+00    1.346508e+00   1.863477e-02
  1.369378e+00    1.366809e+00   1.878080e-02
  1.371588e+00    1.321058e+00   1.846890e-02
  1.373799e+00    1.314137e+00   1.842408e-02
  1.376009e+00    1.331533e+00   1.854899e-02
  1.378220e+00    1.337955e+00   1.859623e-02
  1.380430e+00    1.311491e+00   1.841407e-02
  1.382640e+00    1.311074e+00   1.841205e-02
  1.384851e+00    1.309242e+00   1.840005e-02
  1.387061e+00    1.311911e+00   1.841909e-02
  1.389272e+00    1.306662e+00   1.838242e-02
  1.391482e+00    1.294847e+00   1.829846e-02
  1.393693e+00    1.262883e+00   1.807032e-02
  1.395903e+00    1.278034e+00   1.817689e-02
  1.398114e+00    1.289428e+00   1.825636e-02
  1.400324e+00    1.292907e+00   1.827884e-02
  1.402535e+00    1.272653e+00   1.813279e-02
  1.404745e+00    1.278043e+00   1.816876e-02
  1.406955e+00    1.287912e+00   1.823607e-02
  1.409166e+00    1.296013e+00   1.829000e-02
  1.411376e+00    1.258771e+00   1.802221e-02
  1.413587e+00    1.285190e+00   1.820649e-02
  1.415797e+00    1.287193e+00   1.821713e-02
  1.418008e+00    1.268985e+00   1.804597e-02
  1.420218e+00    1.268511e+00   1.789294e-02
  1.422429e+00    1.293993e+00   1.798567e-02
  1.424639e+00    1.267057e+00   1.773287e-02
  1.426850e+00    1.282265e+00   1.778400e-02
  1.429060e+00    1.311321e+00   1.793459e-02
  1.431270e+00    1.305039e+00   1.784666e-02
  1.433481e+00    1.303209e+00   1.779267e-02
  1.435691e+00    1.275052e+00   1.756089e-02
  1.437902e+00    1.281445e+00   1.756824e-02
  1.440112e+00    1.257074e+00   1.736522e-02
  1.442323e+00    1.264313e+00   1.738217e-02
  1.444533e+00    1.251953e+00   1.726468e-02
  1.446744e+00    1.255834e+00   1.726045e-02
  1.448954e+00    1.262747e+00   1.727779e-02
  1.451165e+00    1.282337e+00   1.738140e-02
  1.453375e+00    1.282573e+00   1.735482e-02
  1.455586e+00    1.265878e+00   1.721337e-02
  1.457796e+00    1.283645e+00   1.730609e-02
  1.460006e+00    1.284466e+00   1.728422e-02
  1.462217e+00    1.280275e+00   1.722967e-02
  1.464427e+00    1.284603e+00   1.723301e-02
  1.466638e+00    1.272140e+00   1.712386e-02
  1.468848e+00    1.274354e+00   1.711336e-02
  1.471059e+00    1.279362e+00   1.712178e-02
  1.473269e+00    1.269526e+00   1.703144e-02
  1.475480e+00    1.294144e+00   1.717177e-02
  1.477690e+00    1.292308e+00   1.713554e-02
  1.479901e+00    1.297611e+00   1.714654e-02
  1.482111e+00    1.271594e+00   1.695043e-02
  1.484321e+00    1.256344e+00   1.682544e-02
  1.486532e+00    1.271685e+00   1.690549e-02
  1.488742e+00    1.261414e+00   1.681447e-02
  1.490953e+00    1.249547e+00   1.671270e-02
  1.493163e+00    1.281618e+00   1.690338e-02
  1.495374e+00    1.281293e+00   1.687960e-02
  1.497584e+00    1.268497e+00   1.677340e-02
  1.499795e+00    1.256036e+00   1.666918e-02
  1.502005e+00    1.268714e+00   1.673135e-02
  1.504216e+00    1.270730e+00   1.672349e-02
  1.506426e+00    1.247240e+00   1.654749e-02
  1.508636e+00    1.262360e+00   1.662698e-02
  1.510847e+00    1.261265e+00   1.659793e-02
  1.513057e+00    1.267329e+00   1.661257e-02
  1.515268e+00    1.276254e+00   1.664502e-02
  1.517478e+00    1.271334e+00   1.658759e-02
  1.519689e+00    1.287913e+00   1.667009e-02
  1.521899e+00    1.265960e+00   1.650421e-02
  1.524110e+00    1.271612e+00   1.652051e-02
  1.526320e+00    1.270275e+00   1.649210e-02
  1.528531e+00    1.259133e+00   1.639980e-02
  1.530741e+00    1.239991e+00   1.625557e-02
  1.532951e+00    1.257576e+00   1.635078e-02
  1.535162e+00    1.262144e+00   1.646750e-02
  1.537372e+00    1.250454e+00   1.645798e-02
  1.539583e+00    1.247173e+00   1.647062e-02
  1.541793e+00    1.244704e+00   1.646122e-02
  1.544004e+00    1.267981e+00   1.661469e-02
  1.546214e+00    1.270523e+00   1.662983e-02
  1.548425e+00    1.282440e+00   1.670790e-02
  1.550635e+00    1.284361e+00   1.673023e-02
  1.552846e+00    1.254674e+00   1.654547e-02
  1.555056e+00    1.241120e+00   1.641442e-02
  1.557266e+00    1.236520e+00   1.627387e-02
  1.559477e+00    1.250777e+00   1.630815e-02
  1.561687e+00    1.258257e+00   1.632600e-02
  1.563898e+00    1.258924e+00   1.631307e-02
  1.566108e+00    1.252900e+00   1.625799e-02
  1.568319e+00    1.279069e+00   1.641105e-02
  1.570529e+00    1.282464e+00   1.640733e-02
  1.572740e+00    1.250983e+00   1.617700e-02
  1.574950e+00    1.257198e+00   1.619067e-02
  1.577161e+00    1.245655e+00   1.609070e-02
  1.579371e+00    1.249857e+00   1.609408e-02
  1.581582e+00    1.280518e+00   1.627024e-02
  1.583792e+00    1.287771e+00   1.629794e-02
  1.586002e+00    1.282076e+00   1.624398e-02
  1.588213e+00    1.274553e+00   1.617879e-02
  1.590423e+00    1.274136e+00   1.615584e-02
  1.592634e+00    1.270565e+00   1.611132e-02
  1.594844e+00    1.272843e+00   1.610412e-02
  1.597055e+00    1.259454e+00   1.599856e-02
  1.599265e+00    1.248303e+00   1.590681e-02
  1.601476e+00    1.224281e+00   1.573282e-02
  1.603686e+00    1.252608e+00   1.589393e-02
  1.605897e+00    1.258228e+00   1.590924e-02
  1.608107e+00    1.258345e+00   1.589025e-02
  1.610317e+00    1.259947e+00   1.588088e-02
  1.612528e+00    1.251285e+00   1.580691e-02
  1.614738e+00    1.221915e+00   1.560142e-02
  1.616949e+00    1.227537e+00   1.561826e-02
  1.619159e+00    1.237169e+00   1.566060e-02
  1.621370e+00    1.220411e+00   1.553571e-02
  1.623580e+00    1.228630e+00   1.556949e-02
  1.625791e+00    1.201677e+00   1.537956e-02
  1.628001e+00    1.215236e+00   1.544773e-02
  1.630212e+00    1.201054e+00   1.533951e-02
  1.632422e+00    1.200609e+00   1.531867e-02
  1.634632e+00    1.173765e+00   1.512920e-02
  1.636843e+00    1.168026e+00   1.507468e-02
  1.639053e+00    1.171725e+00   1.508128e-02
  1.641264e+00    1.150457e+00   1.492683e-02
  1.643474e+00    1.142870e+00   1.486027e-02
  1.645685e+00    1.150606e+00   1.489387e-02
  1.647895e+00    1.141108e+00   1.481579e-02
  1.650106e+00    1.138599e+00   1.478257e-02
  1.652316e+00    1.128217e+00   1.469869e-02
  1.654527e+00    1.126479e+00   1.467080e-02
  1.656737e+00    1.133482e+00   1.469980e-02
  1.658947e+00    1.124882e+00   1.462769e-02
  1.661158e+00    1.135005e+00   1.467703e-02
  1.663368e+00    1.152039e+00   1.477054e-02
  1.665579e+00    1.151786e+00   1.475254e-02
  1.667789e+00    1.202183e+00   1.505497e-02
  1.670000e+00    1.258412e+00   1.538656e-02
  1.672210e+00    1.223272e+00   1.515358e-02
  1.674421e+00    1.141241e+00   1.462107e-02
  1.676631e+00    1.137339e+00   1.457992e-02
  1.678842e+00    1.144500e+00   1.460966e-02
  1.681052e+00    1.100765e+00   1.431236e-02
  1.683263e+00    1.088759e+00   1.421895e-02
  1.685473e+00    1.097317e+00   1.425951e-02
  1.687683e+00    1.121372e+00   1.439924e-02
  1.689894e+00    1.186780e+00   1.479672e-02
  1.692104e+00    1.174134e+00   1.470212e-02
  1.694315e+00    1.142643e+00   1.448861e-02
  1.696525e+00    1.154705e+00   1.454917e-02
  1.698736e+00    1.123031e+00   1.433299e-02
  1.700946e+00    1.131518e+00   1.437143e-02
  1.703157e+00    1.097324e+00   1.413771e-02
  1.705367e+00    1.061947e+00   1.389337e-02
  1.707578e+00    1.073094e+00   1.395136e-02
  1.709788e+00    1.069500e+00   1.391370e-02
  1.711998e+00    1.094541e+00   1.406026e-02
  1.714209e+00    1.119075e+00   1.420199e-02
  1.716419e+00    1.174392e+00   1.453356e-02
  1.718630e+00    1.119532e+00   1.417519e-02
  1.720840e+00    1.059648e+00   1.377645e-02
  1.723051e+00    1.024993e+00   1.353545e-02
  1.725261e+00    1.018827e+00   1.348000e-02
  1.727472e+00    1.022108e+00   1.348749e-02
  1.729682e+00    1.001663e+00   1.333856e-02
  1.731893e+00    1.004923e+00   1.334636e-02
  1.734103e+00    1.006295e+00   1.334172e-02
  1.736313e+00    1.011262e+00   1.336055e-02
  1.738524e+00    9.949515e-01   1.323859e-02
  1.740734e+00    9.945898e-01   1.322251e-02
  1.742945e+00    1.004001e+00   1.327142e-02
  1.745155e+00    9.728639e-01   1.305070e-02
  1.747366e+00    9.620422e-01   1.296428e-02
  1.749576e+00    9.640654e-01   1.296438e-02
  1.751787e+00    9.649584e-01   1.295716e-02
  1.753997e+00    9.632942e-01   1.293272e-02
  1.756208e+00    9.668456e-01   1.294340e-02
  1.758418e+00    9.646247e-01   1.291545e-02
  1.760628e+00    9.425645e-01   1.275377e-02
  1.762839e+00    9.464867e-01   1.276715e-02
  1.765049e+00    9.292413e-01   1.263744e-02
  1.767260e+00    9.459291e-01   1.273766e-02
  1.769470e+00    9.605130e-01   1.282249e-02
  1.771681e+00    9.396183e-01   1.266919e-02
  1.773891e+00    9.404135e-01   1.266156e-02
  1.776102e+00    9.646964e-01   1.281099e-02
  1.778312e+00    9.745059e-01   1.286304e-02
  1.780523e+00    9.994504e-01   1.301350e-02
  1.782733e+00    9.709210e-01   1.281355e-02
  1.784944e+00    9.596530e-01   1.272591e-02
  1.787154e+00    9.546050e-01   1.267973e-02
  1.789364e+00    9.370774e-01   1.255024e-02
  1.791575e+00    9.361724e-01   1.253158e-02
  1.793785e+00    9.622338e-01   1.269214e-02
  1.795996e+00    9.615430e-01   1.267481e-02
  1.798206e+00    9.410288e-01   1.252620e-02
  1.800417e+00    9.403450e-01   1.250881e-02
  1.802627e+00    9.141804e-01   1.232162e-02
  1.804838e+00    9.386055e-01   1.247284e-02
  1.807048e+00    9.218354e-01   1.234801e-02
  1.809259e+00    8.935144e-01   1.214333e-02
  1.811469e+00    8.925151e-01   1.212169e-02
  1.813679e+00    8.801627e-01   1.202270e-02
  1.815890e+00    8.798251e-01   1.200582e-02
  1.818100e+00    8.799663e-01   1.199179e-02
  1.820311e+00    8.824741e-01   1.199421e-02
  1.822521e+00    8.655108e-01   1.186373e-02
  1.824732e+00    8.864898e-01   1.199185e-02
  1.826942e+00    8.836290e-01   1.196019e-02
  1.829153e+00    8.979169e-01   1.204472e-02
  1.831363e+00    8.927554e-01   1.199796e-02
  1.833574e+00    8.817365e-01   1.191201e-02
  1.835784e+00    8.778549e-01   1.187434e-02
  1.837994e+00    8.792716e-01   1.187221e-02
  1.840205e+00    8.629770e-01   1.175057e-02
  1.842415e+00    8.882382e-01   1.190944e-02
  1.844626e+00    8.707094e-01   1.177979e-02
  1.846836e+00    8.620781e-01   1.170987e-02
  1.849047e+00    8.593478e-01   1.167974e-02
  1.851257e+00    8.732755e-01   1.176438e-02
  1.853468e+00    8.562378e-01   1.164030e-02
  1.855678e+00    8.610473e-01   1.166405e-02
  1.857889e+00    8.490370e-01   1.157397e-02
  1.860099e+00    8.460321e-01   1.154489e-02
  1.862309e+00    8.500332e-01   1.156368e-02
  1.864520e+00    8.592686e-01   1.161774e-02
  1.866730e+00    8.575651e-01   1.159681e-02
  1.868941e+00    8.411657e-01   1.147453e-02
  1.871151e+00    8.401921e-01   1.145657e-02
  1.873362e+00    8.235421e-01   1.133132e-02
  1.875572e+00    8.241442e-01   1.132469e-02
  1.877783e+00    8.373799e-01   1.140390e-02
  1.879993e+00    8.322828e-01   1.135810e-02
  1.882204e+00    8.382710e-01   1.138800e-02
  1.884414e+00    8.533468e-01   1.147883e-02
  1.886624e+00    8.411373e-01   1.138536e-02
  1.888835e+00    8.427672e-01   1.138541e-02
  1.891045e+00    8.361948e-01   1.133007e-02
  1.893256e+00    8.227906e-01   1.122790e-02
  1.895466e+00    8.339005e-01   1.129231e-02
  1.897677e+00    8.044670e-01   1.108051e-02
  1.899887e+00    8.385874e-01   1.130203e-02
  1.902098e+00    8.324893e-01   1.125004e-02
  1.904308e+00    8.371820e-01   1.127106e-02
  1.906519e+00    8.405522e-01   1.128284e-02
  1.908729e+00    8.068198e-01   1.104366e-02
  1.910940e+00    8.106601e-01   1.105886e-02
  1.913150e+00    8.413906e-01   1.125585e-02
  1.915360e+00    8.488909e-01   1.129514e-02
  1.917571e+00    8.274890e-01   1.114096e-02
  1.919781e+00    8.014792e-01   1.095389e-02
  1.921992e+00    8.224445e-01   1.108560e-02
  1.924202e+00    8.105104e-01   1.099417e-02
  1.926413e+00    8.141919e-01   1.100881e-02
  1.928623e+00    8.117973e-01   1.098210e-02
  1.930834e+00    8.025889e-01   1.090926e-02
  1.933044e+00    7.959332e-01   1.085336e-02
  1.935255e+00    8.133106e-01   1.096086e-02
  1.937465e+00    8.114111e-01   1.093763e-02
  1.939675e+00    8.102990e-01   1.091927e-02
  1.941886e+00    8.154874e-01   1.094382e-02
  1.944096e+00    8.177703e-01   1.094885e-02
  1.946307e+00    8.141975e-01   1.091450e-02
  1.948517e+00    8.083008e-01   1.086440e-02
  1.950728e+00    8.015981e-01   1.080899e-02
  1.952938e+00    8.072518e-01   1.083690e-02
  1.955149e+00    8.141980e-01   1.087306e-02
  1.957359e+00    8.197986e-01   1.090023e-02
  1.959570e+00    8.037169e-01   1.078184e-02
  1.961780e+00    8.038855e-01   1.077300e-02
  1.963990e+00    7.983416e-01   1.072562e-02
  1.966201e+00    7.942599e-01   1.068809e-02
  1.968411e+00    7.939546e-01   1.067584e-02
  1.970622e+00    7.855356e-01   1.060903e-02
  1.972832e+00    7.748556e-01   1.052675e-02
  1.975043e+00    7.903713e-01   1.062156e-02
  1.977253e+00    8.011320e-01   1.068355e-02
  1.979464e+00    8.296723e-01   1.086188e-02
  1.981674e+00    8.297093e-01   1.085155e-02
  1.983885e+00    8.277611e-01   1.082851e-02
  1.986095e+00    8.140612e-01   1.072860e-02
  1.988305e+00    8.026719e-01   1.064326e-02
  1.990516e+00    7.806794e-01   1.048650e-02
  1.992726e+00    7.979490e-01   1.059205e-02
  1.994937e+00    7.952049e-01   1.056358e-02
  1.997147e+00    7.924051e-01   1.053514e-02
  1.999358e+00    7.906233e-01   1.051334e-02
  2.001568e+00    7.970459e-01   1.054497e-02
  2.003779e+00    7.931776e-01   1.050727e-02
  2.005989e+00    8.045579e-01   1.057012e-02
  2.008200e+00    8.010882e-01   1.053554e-02
  2.010410e+00    7.943311e-01   1.047908e-02
  2.012621e+00    7.791543e-01   1.036670e-02
  2.014831e+00    7.779134e-01   1.034689e-02
  2.017041e+00    7.728572e-01   1.030279e-02
  2.019252e+00    7.667190e-01   1.025182e-02
  2.021462e+00    7.769480e-01   1.031040e-02
  2.023673e+00    7.910656e-01   1.039409e-02
  2.025883e+00    8.068067e-01   1.048722e-02
  2.028094e+00    8.068134e-01   1.047735e-02
  2.030304e+00    7.930908e-01   1.037813e-02
  2.032515e+00    8.077740e-01   1.046418e-02
  2.034725e+00    7.945212e-01   1.036833e-02
  2.036936e+00    7.809944e-01   1.027022e-02
  2.039146e+00    7.689615e-01   1.018114e-02
  2.041356e+00    7.566472e-01   1.008965e-02
  2.043567e+00    7.623053e-01   1.011793e-02
  2.045777e+00    8.070738e-01   1.040125e-02
  2.047988e+00    7.872162e-01   1.026295e-02
  2.050198e+00    7.730389e-01   1.016156e-02
  2.052409e+00    7.620363e-01   1.008128e-02
  2.054619e+00    7.593711e-01   1.005622e-02
  2.056830e+00    7.449783e-01   9.953327e-03
  2.059040e+00    7.528889e-01   9.998498e-03
  2.061251e+00    7.697066e-01   1.010222e-02
  2.063461e+00    7.462155e-01   9.939298e-03
  2.065671e+00    7.464593e-01   9.932186e-03
  2.067882e+00    7.532054e-01   9.967960e-03
  2.070092e+00    7.585371e-01   9.993894e-03
  2.072303e+00    7.687116e-01   1.005144e-02
  2.074513e+00    7.782393e-01   1.010399e-02
  2.076724e+00    7.834167e-01   1.012786e-02
  2.078934e+00    7.615771e-01   9.976590e-03
  2.081145e+00    7.449418e-01   9.857926e-03
  2.083355e+00    7.581875e-01   9.935878e-03
  2.085566e+00    7.755395e-01   1.003985e-02
  2.087776e+00    7.610483e-01   9.935947e-03
  2.089986e+00    7.733552e-01   1.000698e-02
  2.092197e+00    7.708552e-01   9.981629e-03
  2.094407e+00    7.696466e-01   9.964372e-03
  2.096618e+00    7.853470e-01   1.005629e-02
  2.098828e+00    7.491690e-01   9.812557e-03
  2.101039e+00    7.338338e-01   9.702610e-03
  2.103249e+00    7.112997e-01   9.543920e-03
  2.105460e+00    7.320608e-01   9.673166e-03
  2.107670e+00    7.238050e-01   9.609760e-03
  2.109881e+00    7.477753e-01   9.758295e-03
  2.112091e+00    7.550359e-01   9.796394e-03
  2.114301e+00    7.453549e-01   9.724489e-03
  2.116512e+00    7.350013e-01   9.647842e-03
  2.118722e+00    7.199357e-01   9.539641e-03
  2.120933e+00    7.256329e-01   9.568417e-03
  2.123143e+00    7.227429e-01   9.540407e-03
  2.125354e+00    7.256758e-01   9.551171e-03
  2.127564e+00    7.220852e-01   9.518762e-03
  2.129775e+00    7.068882e-01   9.409375e-03
  2.131985e+00    7.172146e-01   9.468771e-03
  2.134196e+00    7.180359e-01   9.465584e-03
  2.136406e+00    7.114934e-01   9.413627e-03
  2.138617e+00    7.204064e-01   9.463873e-03
  2.140827e+00    7.254040e-01   9.512905e-03
  2.143037e+00    7.141665e-01   9.484641e-03
  2.145248e+00    6.941634e-01   9.372685e-03
  2.147458e+00    6.991190e-01   9.421154e-03
  2.149669e+00    6.912951e-01   9.380050e-03
  2.151879e+00    6.947935e-01   9.412915e-03
  2.154090e+00    7.207535e-01   9.594569e-03
  2.156300e+00    7.165502e-01   9.573251e-03
  2.158511e+00    7.091503e-01   9.529024e-03
  2.160721e+00    7.073907e-01   9.522039e-03
  2.162932e+00    6.895162e-01   9.404696e-03
  2.165142e+00    6.882461e-01   9.399013e-03
  2.167352e+00    7.015674e-01   9.492467e-03
  2.169563e+00    7.018065e-01   9.496056e-03
  2.171773e+00    6.990014e-01   9.479506e-03
  2.173984e+00    6.925199e-01   9.436877e-03
  2.176194e+00    6.799332e-01   9.351910e-03
  2.178405e+00    6.875762e-01   9.405006e-03
  2.180615e+00    7.075149e-01   9.541098e-03
  2.182826e+00    6.900193e-01   9.423077e-03
  2.185036e+00    6.836114e-01   9.379267e-03
  2.187247e+00    6.909431e-01   9.429371e-03
  2.189457e+00    6.830387e-01   9.374886e-03
  2.191667e+00    6.831146e-01   9.375217e-03
  2.193878e+00    7.029898e-01   9.510055e-03
  2.196088e+00    7.039787e-01   9.516045e-03
  2.198299e+00    7.115766e-01   9.566162e-03
  2.200509e+00    6.961922e-01   9.461125e-03
  2.202720e+00    6.794592e-01   9.345578e-03
  2.204930e+00    6.889175e-01   9.409143e-03
  2.207141e+00    6.823183e-01   9.362865e-03
  2.209351e+00    6.889986e-01   9.406687e-03
  2.211562e+00    6.700553e-01   9.274867e-03
  2.213772e+00    6.722196e-01   9.234537e-03
  2.215982e+00    6.777437e-01   9.228126e-03
  2.218193e+00    6.748251e-01   9.178636e-03
  2.220403e+00    6.759462e-01   9.161641e-03
  2.222614e+00    6.882977e-01   9.223786e-03
  2.224824e+00    6.882378e-01   9.203805e-03
  2.227035e+00    6.797705e-01   9.129474e-03
  2.229245e+00    6.902989e-01   9.182703e-03
  2.231456e+00    6.803917e-01   9.100850e-03
  2.233666e+00    6.663028e-01   8.991089e-03
  2.235877e+00    6.708364e-01   9.007351e-03
  2.238087e+00    6.716871e-01   8.999556e-03
  2.240298e+00    6.679808e-01   8.960960e-03
  2.242508e+00    6.573024e-01   8.874032e-03
  2.244718e+00    6.561533e-01   8.850618e-03
  2.246929e+00    6.632524e-01   8.883992e-03
  2.249139e+00    6.832201e-01   9.004200e-03
  2.251350e+00    6.703770e-01   8.907451e-03
  2.253560e+00    6.626078e-01   8.844140e-03
  2.255771e+00    6.804571e-01   8.950934e-03
  2.257981e+00    6.629667e-01   8.824008e-03
  2.260192e+00    6.580361e-01   8.780059e-03
  2.262402e+00    6.705067e-01   8.851958e-03
  2.264613e+00    6.744747e-01   8.867206e-03
  2.266823e+00    6.670133e-01   8.807585e-03
  2.269033e+00    6.649830e-01   8.783771e-03
  2.271244e+00    6.664208e-01   8.782846e-03
  2.273454e+00    6.707289e-01   8.800862e-03
  2.275665e+00    6.678423e-01   8.771550e-03
  2.277875e+00    6.568956e-01   8.689482e-03
  2.280086e+00    6.513479e-01   8.642728e-03
  2.282296e+00    6.481856e-01   8.612384e-03
  2.284507e+00    6.624495e-01   8.696475e-03
  2.286717e+00    6.719112e-01   8.748801e-03
  2.288928e+00    6.660739e-01   8.700778e-03
  2.291138e+00    6.692569e-01   8.712025e-03
  2.293348e+00    6.615455e-01   8.652121e-03
  2.295559e+00    6.534793e-01   8.589913e-03
  2.297769e+00    6.666708e-01   8.666823e-03
  2.299980e+00    6.565528e-01   8.591468e-03
  2.302190e+00    6.595592e-01   8.601946e-03
  2.304401e+00    6.528614e-01   8.548831e-03
  2.306611e+00    6.463333e-01   8.496817e-03
  2.308822e+00    6.562360e-01   8.553239e-03
  2.311032e+00    6.466954e-01   8.484430e-03
  2.313243e+00    6.361133e-01   8.408488e-03
  2.315453e+00    6.652146e-01   8.591020e-03
  2.317663e+00    6.643893e-01   8.576458e-03
  2.319874e+00    6.407438e-01   8.413761e-03
  2.322084e+00    6.368764e-01   8.379434e-03
  2.324295e+00    6.533425e-01   8.478777e-03
  2.326505e+00    6.578709e-01   8.498971e-03
  2.328716e+00    6.443951e-01   8.402918e-03
  2.330926e+00    6.469811e-01   8.410939e-03
  2.333137e+00    6.506225e-01   8.426136e-03
  2.335347e+00    6.521930e-01   8.427370e-03
  2.337558e+00    6.406481e-01   8.344208e-03
  2.339768e+00    6.481168e-01   8.384083e-03
  2.341979e+00    6.350529e-01   8.290811e-03
  2.344189e+00    6.438867e-01   8.339833e-03
  2.346399e+00    6.431872e-01   8.326769e-03
  2.348610e+00    6.556013e-01   8.398145e-03
  2.350820e+00    6.404168e-01   8.292120e-03
  2.353031e+00    6.281894e-01   8.204314e-03
  2.355241e+00    6.318550e-01   8.220179e-03
  2.357452e+00    6.443403e-01   8.292481e-03
  2.359662e+00    6.416739e-01   8.267043e-03
  2.361873e+00    6.239392e-01   8.143802e-03
  2.364083e+00    6.261379e-01   8.150163e-03
  2.366294e+00    6.307626e-01   8.172073e-03
  2.368504e+00    6.267743e-01   8.138139e-03
  2.370714e+00    6.199406e-01   8.085608e-03
  2.372925e+00    6.228165e-01   8.096327e-03
  2.375135e+00    6.273362e-01   8.117547e-03
  2.377346e+00    6.441325e-01   8.217448e-03
  2.379556e+00    6.342949e-01   8.146483e-03
  2.381767e+00    6.256664e-01   8.082996e-03
  2.383977e+00    6.204087e-01   8.041030e-03
  2.386188e+00    6.106587e-01   7.969733e-03
  2.388398e+00    6.130283e-01   7.977255e-03
  2.390609e+00    6.203642e-01   8.017094e-03
  2.392819e+00    6.241791e-01   8.033902e-03
  2.395029e+00    6.116988e-01   7.945529e-03
  2.397240e+00    6.089181e-01   7.919619e-03
  2.399450e+00    6.147956e-01   7.949932e-03
  2.401661e+00    6.169847e-01   7.956359e-03
  2.403871e+00    6.124394e-01   7.919246e-03
  2.406082e+00    5.984352e-01   7.820812e-03
  2.408292e+00    6.055440e-01   7.859337e-03
  2.410503e+00    6.077549e-01   7.866214e-03
  2.412713e+00    6.047506e-01   7.838959e-03
  2.414924e+00    5.912209e-01   7.743368e-03
  2.417134e+00    6.135050e-01   7.880269e-03
  2.419344e+00    5.959666e-01   7.759466e-03
  2.421555e+00    5.841773e-01   7.674913e-03
  2.423765e+00    6.061127e-01   7.810245e-03
  2.425976e+00    6.012343e-01   7.770943e-03
  2.428186e+00    6.020994e-01   7.769291e-03
  2.430397e+00    5.988131e-01   7.740572e-03
  2.432607e+00    5.890948e-01   7.670261e-03
  2.434818e+00    5.826029e-01   7.620434e-03
  2.437028e+00    5.875814e-01   7.645779e-03
  2.439239e+00    6.137711e-01   7.806555e-03
  2.441449e+00    5.818583e-01   7.593771e-03
  2.443659e+00    5.857654e-01   7.611896e-03
  2.445870e+00    5.786513e-01   7.577668e-03
  2.448080e+00    5.797533e-01   7.619584e-03
  2.450291e+00    5.804266e-01   7.640662e-03
  2.452501e+00    5.797886e-01   7.647664e-03
  2.454712e+00    5.628380e-01   7.543385e-03
  2.456922e+00    5.859315e-01   7.703292e-03
  2.459133e+00    5.692509e-01   7.598299e-03
  2.461343e+00    5.548558e-01   7.505927e-03
  2.463554e+00    5.531046e-01   7.497477e-03
  2.465764e+00    5.685914e-01   7.604882e-03
  2.467975e+00    5.647596e-01   7.581518e-03
  2.470185e+00    5.594881e-01   7.548307e-03
  2.472395e+00    5.531661e-01   7.506751e-03
  2.474606e+00    5.489317e-01   7.479526e-03
  2.476816e+00    5.502830e-01   7.489453e-03
  2.479027e+00    5.557234e-01   7.527243e-03
  2.481237e+00    5.556383e-01   7.526935e-03
  2.483448e+00    5.636677e-01   7.581437e-03
  2.485658e+00    5.725437e-01   7.640753e-03
  2.487869e+00    5.608235e-01   7.562201e-03
  2.490079e+00    5.273771e-01   7.332704e-03
  2.492290e+00    5.551839e-01   7.523094e-03
  2.494500e+00    5.444674e-01   7.449405e-03
  2.496710e+00    5.289795e-01   7.342005e-03
  2.498921e+00    5.275796e-01   7.331287e-03
  2.501131e+00    5.256621e-01   7.317011e-03
  2.503342e+00    5.326247e-01   7.364030e-03
  2.505552e+00    5.391408e-01   7.407831e-03
  2.507763e+00    5.252185e-01   7.310118e-03
  2.509973e+00    5.344326e-01   7.372580e-03
  2.512184e+00    5.488581e-01   7.469758e-03
  2.514394e+00    5.379618e-01   7.385787e-03
  2.516605e+00    5.369559e-01   7.331367e-03
  2.518815e+00    5.259162e-01   7.227263e-03
  2.521025e+00    5.213637e-01   7.175060e-03
  2.523236e+00    5.241225e-01   7.176030e-03
  2.525446e+00    5.375288e-01   7.251457e-03
  2.527657e+00    5.217573e-01   7.129749e-03
  2.529867e+00    5.167418e-01   7.081309e-03
  2.532078e+00    5.233803e-01   7.111628e-03
  2.534288e+00    5.304261e-01   7.145398e-03
  2.536499e+00    5.301656e-01   7.131625e-03
  2.538709e+00    5.329298e-01   7.139106e-03
  2.540920e+00    5.306419e-01   7.113074e-03
  2.543130e+00    5.268585e-01   7.077268e-03
  2.545340e+00    5.273146e-01   7.070228e-03
  2.547551e+00    5.200869e-01   7.011700e-03
  2.549761e+00    5.188826e-01   6.994025e-03
  2.551972e+00    5.288814e-01   7.051664e-03
  2.554182e+00    5.244872e-01   7.013122e-03
  2.556393e+00    5.106710e-01   6.911114e-03
  2.558603e+00    5.206221e-01   6.969061e-03
  2.560814e+00    5.215814e-01   6.966744e-03
  2.563024e+00    5.373345e-01   7.062456e-03
  2.565235e+00    5.261295e-01   6.978869e-03
  2.567445e+00    5.221571e-01   6.942874e-03
  2.569656e+00    5.206624e-01   6.923168e-03
  2.571866e+00    5.099323e-01   6.842175e-03
  2.574076e+00    5.172494e-01   6.881805e-03
  2.576287e+00    5.165576e-01   6.868890e-03
  2.578497e+00    5.083243e-01   6.806132e-03
  2.580708e+00    5.200844e-01   6.876283e-03
  2.582918e+00    5.199534e-01   6.867621e-03
  2.585129e+00    5.218252e-01   6.872180e-03
  2.587339e+00    5.171391e-01   6.833528e-03
  2.589550e+00    5.302582e-01   6.912001e-03
  2.591760e+00    5.283645e-01   6.891790e-03
  2.593971e+00    5.237170e-01   6.853793e-03
  2.596181e+00    5.226712e-01   6.840662e-03
  2.598391e+00    5.252808e-01   6.852450e-03
  2.600602e+00    5.213265e-01   6.820635e-03
  2.602812e+00    5.099980e-01   6.738585e-03
  2.605023e+00    5.078964e-01   6.717504e-03
  2.607233e+00    5.090562e-01   6.718039e-03
  2.609444e+00    5.143755e-01   6.745756e-03
  2.611654e+00    5.012891e-01   6.652126e-03
  2.613865e+00    5.050700e-01   6.670123e-03
  2.616075e+00    5.041453e-01   6.656899e-03
  2.618286e+00    5.054427e-01   6.658448e-03
  2.620496e+00    5.294210e-01   6.807721e-03
  2.622706e+00    5.054478e-01   6.646055e-03
  2.624917e+00    5.034444e-01   6.627014e-03
  2.627127e+00    5.046637e-01   6.629302e-03
  2.629338e+00    5.137047e-01   6.682376e-03
  2.631548e+00    5.120521e-01   6.665395e-03
  2.633759e+00    5.166975e-01   6.688329e-03
  2.635969e+00    5.132993e-01   6.659519e-03
  2.638180e+00    5.092626e-01   6.626258e-03
  2.640390e+00    5.064334e-01   6.601179e-03
  2.642601e+00    4.947056e-01   6.517674e-03
  2.644811e+00    5.033529e-01   6.567295e-03
  2.647021e+00    5.066878e-01   6.582392e-03
  2.649232e+00    5.097586e-01   6.595553e-03
  2.651442e+00    4.977231e-01   6.510715e-03
  2.653653e+00    4.888905e-01   6.445958e-03
  2.655863e+00    5.009208e-01   6.518087e-03
  2.658074e+00    5.038983e-01   6.530784e-03
  2.660284e+00    5.186428e-01   6.619137e-03
  2.662495e+00    5.125827e-01   6.573517e-03
  2.664705e+00    5.011942e-01   6.493496e-03
  2.666916e+00    5.003114e-01   6.481255e-03
  2.669126e+00    5.074136e-01   6.520581e-03
  2.671337e+00    4.955764e-01   6.437498e-03
  2.673547e+00    4.926487e-01   6.412086e-03
  2.675757e+00    4.954604e-01   6.423890e-03
  2.677968e+00    5.068910e-01   6.490979e-03
  2.680178e+00    5.030767e-01   6.460040e-03
  2.682389e+00    5.119786e-01   6.510436e-03
  2.684599e+00    5.039828e-01   6.453150e-03
  2.686810e+00    4.933586e-01   6.378140e-03
  2.689020e+00    5.073720e-01   6.461693e-03
  2.691231e+00    5.123719e-01   6.487046e-03
  2.693441e+00    5.038136e-01   6.426420e-03
  2.695652e+00    4.929906e-01   6.350472e-03
  2.697862e+00    4.807516e-01   6.264867e-03
  2.700072e+00    4.852564e-01   6.288087e-03
  2.702283e+00    4.934572e-01   6.334760e-03
  2.704493e+00    4.920523e-01   6.319429e-03
  2.706704e+00    4.926668e-01   6.316945e-03
  2.708914e+00    5.026459e-01   6.374547e-03
  2.711125e+00    4.902648e-01   6.289281e-03
  2.713335e+00    4.928042e-01   6.299431e-03
  2.715546e+00    4.893834e-01   6.271049e-03
  2.717756e+00    4.905429e-01   6.272560e-03
  2.719967e+00    4.857887e-01   6.235882e-03
  2.722177e+00    4.779527e-01   6.179311e-03
  2.724387e+00    4.806615e-01   6.190719e-03
  2.726598e+00    4.840597e-01   6.206502e-03
  2.728808e+00    4.861970e-01   6.214052e-03
  2.731019e+00    4.827113e-01   6.185614e-03
  2.733229e+00    4.917881e-01   6.237651e-03
  2.735440e+00    4.950210e-01   6.251776e-03
  2.737650e+00    4.730259e-01   6.105388e-03
  2.739861e+00    4.711434e-01   6.087191e-03
  2.742071e+00    5.016944e-01   6.275609e-03
  2.744282e+00    4.939595e-01   6.220737e-03
  2.746492e+00    4.944968e-01   6.218009e-03
  2.748702e+00    4.829684e-01   6.139184e-03
  2.750913e+00    4.773288e-01   6.097476e-03
  2.753123e+00    4.742267e-01   6.071551e-03
  2.755334e+00    4.856382e-01   6.138064e-03
  2.757544e+00    4.856656e-01   6.132469e-03
  2.759755e+00    4.814603e-01   6.099969e-03
  2.761965e+00    4.818341e-01   6.096346e-03
  2.764176e+00    4.908867e-01   6.147294e-03
  2.766386e+00    4.854115e-01   6.107090e-03
  2.768597e+00    4.884811e-01   6.120456e-03
  2.770807e+00    4.877232e-01   6.109776e-03
  2.773017e+00    4.727384e-01   6.009252e-03
  2.775228e+00    4.790860e-01   6.043681e-03
  2.777438e+00    4.715260e-01   5.990038e-03
  2.779649e+00    4.765854e-01   6.016205e-03
  2.781859e+00    4.815865e-01   6.041899e-03
  2.784070e+00    4.775107e-01   6.010420e-03
  2.786280e+00    4.860913e-01   6.058353e-03
  2.788491e+00    4.891941e-01   6.071757e-03
  2.790701e+00    4.828466e-01   6.026542e-03
  2.792912e+00    4.813392e-01   6.011148e-03
  2.795122e+00    4.796809e-01   5.995019e-03
  2.797333e+00    4.778928e-01   5.978259e-03
  2.799543e+00    4.712318e-01   5.930617e-03
  2.801753e+00    4.811716e-01   5.986955e-03
  2.803964e+00    4.816538e-01   5.984239e-03
  2.806174e+00    4.880034e-01   6.017339e-03
  2.808385e+00    4.666466e-01   5.877460e-03
  2.810595e+00    4.723864e-01   5.906623e-03
  2.812806e+00    4.817848e-01   5.958453e-03
  2.815016e+00    4.667449e-01   5.860006e-03
  2.817227e+00    4.656940e-01   5.879106e-03
  2.819437e+00    4.761937e-01   5.956099e-03
  2.821648e+00    4.851039e-01   6.013902e-03
  2.823858e+00    4.792528e-01   5.982895e-03
  2.826068e+00    4.716438e-01   5.940182e-03
  2.828279e+00    4.645272e-01   5.899202e-03
  2.830489e+00    4.613252e-01   5.882128e-03
  2.832700e+00    4.559887e-01   5.850522e-03
  2.834910e+00    4.739911e-01   5.966957e-03
  2.837121e+00    4.781225e-01   5.994635e-03
  2.839331e+00    4.731095e-01   5.964357e-03
  2.841542e+00    4.737490e-01   5.969413e-03
  2.843752e+00    4.723540e-01   5.961388e-03
  2.845963e+00    4.766481e-01   5.988832e-03
  2.848173e+00    4.768463e-01   5.990176e-03
  2.850383e+00    4.621214e-01   5.897244e-03
  2.852594e+00    4.762772e-01   5.986806e-03
  2.854804e+00    4.572849e-01   5.865733e-03
  2.857015e+00    4.746078e-01   5.975349e-03
  2.859225e+00    4.824373e-01   6.024186e-03
  2.861436e+00    4.620815e-01   5.895103e-03
  2.863646e+00    4.637600e-01   5.905803e-03
  2.865857e+00    4.685103e-01   5.936320e-03
  2.868067e+00    4.580713e-01   5.870044e-03
  2.870278e+00    4.531191e-01   5.837877e-03
  2.872488e+00    4.687408e-01   5.936476e-03
  2.874698e+00    4.653510e-01   5.913934e-03
  2.876909e+00    4.646743e-01   5.908313e-03
  2.879119e+00    4.646454e-01   5.906484e-03
  2.881330e+00    4.741055e-01   5.964839e-03
  2.883540e+00    4.671822e-01   5.919717e-03
  2.885751e+00    4.703047e-01   5.937816e-03
  2.887961e+00    4.618882e-01   5.882556e-03
  2.890172e+00    4.681515e-01   5.920698e-03
  2.892382e+00    4.755820e-01   5.965651e-03
  2.894593e+00    4.767684e-01   5.971266e-03
  2.896803e+00    4.648379e-01   5.894076e-03
  2.899014e+00    4.752073e-01   5.957503e-03
  2.901224e+00    4.774469e-01   5.969515e-03
  2.903434e+00    4.653497e-01   5.891441e-03
  2.905645e+00    4.591149e-01   5.849626e-03
  2.907855e+00    4.668051e-01   5.896288e-03
  2.910066e+00    4.658125e-01   5.887923e-03
  2.912276e+00    4.639825e-01   5.874216e-03
  2.914487e+00    4.599449e-01   5.846137e-03
  2.916697e+00    4.631256e-01   5.864075e-03
  2.918908e+00    4.636135e-01   5.865165e-03
  2.921118e+00    4.681530e-01   5.891070e-03
  2.923329e+00    4.699868e-01   5.900266e-03
  2.925539e+00    4.504297e-01   5.773931e-03
  2.927749e+00    4.645122e-01   5.861156e-03
  2.929960e+00    4.620278e-01   5.842668e-03
  2.932170e+00    4.660145e-01   5.865491e-03
  2.934381e+00    4.660269e-01   5.863080e-03
  2.936591e+00    4.699202e-01   5.884919e-03
  2.938802e+00    4.649149e-01   5.850764e-03
  2.941012e+00    4.579270e-01   5.804266e-03
  2.943223e+00    4.753397e-01   5.910844e-03
  2.945433e+00    4.686307e-01   5.865211e-03
  2.947644e+00    4.699651e-01   5.869338e-03
  2.949854e+00    4.608586e-01   5.807909e-03
  2.952064e+00    4.591973e-01   5.793186e-03
  2.954275e+00    4.539602e-01   5.755661e-03
  2.956485e+00    4.661632e-01   5.828236e-03
  2.958696e+00    4.641252e-01   5.811098e-03
  2.960906e+00    4.526689e-01   5.734751e-03
  2.963117e+00    4.596286e-01   5.774156e-03
  2.965327e+00    4.633399e-01   5.793477e-03
  2.967538e+00    4.697801e-01   5.830647e-03
  2.969748e+00    4.608004e-01   5.771812e-03
  2.971959e+00    4.546717e-01   5.730162e-03
  2.974169e+00    4.633411e-01   5.781938e-03
  2.976379e+00    4.522325e-01   5.709282e-03
  2.978590e+00    4.612746e-01   5.762909e-03
  2.980800e+00    4.612680e-01   5.760060e-03
  2.983011e+00    4.660586e-01   5.787049e-03
  2.985221e+00    4.576392e-01   5.731395e-03
  2.987432e+00    4.497804e-01   5.678853e-03
  2.989642e+00    4.622918e-01   5.754658e-03
  2.991853e+00    4.543249e-01   5.701576e-03
  2.994063e+00    4.607283e-01   5.738662e-03
  2.996274e+00    4.656762e-01   5.766205e-03
  2.998484e+00    4.562869e-01   5.705047e-03
  3.000694e+00    4.595688e-01   5.722060e-03
  3.002905e+00    4.584537e-01   5.712159e-03
  3.005115e+00    4.660584e-01   5.756307e-03
  3.007326e+00    4.665307e-01   5.756042e-03
  3.009536e+00    4.576527e-01   5.697741e-03
  3.011747e+00    4.611457e-01   5.716490e-03
  3.013957e+00    4.658087e-01   5.742100e-03
  3.016168e+00    4.564838e-01   5.681062e-03
  3.018378e+00    4.619634e-01   5.711994e-03
  3.020589e+00    4.528883e-01   5.652390e-03
  3.022799e+00    4.525591e-01   5.647178e-03
  3.025010e+00    4.527855e-01   5.645347e-03
  3.027220e+00    4.568040e-01   5.667213e-03
  3.029430e+00    4.717812e-01   5.756060e-03
  3.031641e+00    4.662763e-01   5.719182e-03
  3.033851e+00    4.659248e-01   5.713484e-03
  3.036062e+00    4.646077e-01   5.702549e-03
  3.038272e+00    4.624792e-01   5.685883e-03
  3.040483e+00    4.541468e-01   5.631167e-03
  3.042693e+00    4.597798e-01   5.662707e-03
  3.044904e+00    4.570998e-01   5.642121e-03
  3.047114e+00    4.445395e-01   5.559302e-03
  3.049325e+00    4.538947e-01   5.613071e-03
  3.051535e+00    4.453457e-01   5.555611e-03
  3.053745e+00    4.511278e-01   5.586778e-03
  3.055956e+00    4.593483e-01   5.632855e-03
  3.058166e+00    4.573426e-01   5.616244e-03
  3.060377e+00    4.526150e-01   5.582351e-03
  3.062587e+00    4.626830e-01   5.639425e-03
  3.064798e+00    4.444628e-01   5.523024e-03
  3.067008e+00    4.533820e-01   5.573424e-03
  3.069219e+00    4.446189e-01   5.514809e-03
  3.071429e+00    4.527120e-01   5.561237e-03
  3.073640e+00    4.606396e-01   5.606373e-03
  3.075850e+00    4.552048e-01   5.569572e-03
  3.078060e+00    4.592749e-01   5.591298e-03
  3.080271e+00    4.449400e-01   5.499875e-03
  3.082481e+00    4.441679e-01   5.491669e-03
  3.084692e+00    4.444093e-01   5.489797e-03
  3.086902e+00    4.564966e-01   5.560686e-03
  3.089113e+00    4.539692e-01   5.541679e-03
  3.091323e+00    4.521889e-01   5.527406e-03
  3.093534e+00    4.520058e-01   5.522903e-03
  3.095744e+00    4.500246e-01   5.507407e-03
  3.097955e+00    4.362108e-01   5.418717e-03
  3.100165e+00    4.423878e-01   5.453627e-03
  3.102375e+00    4.528750e-01   5.514440e-03
  3.104586e+00    4.539974e-01   5.517759e-03
  3.106796e+00    4.588628e-01   5.543668e-03
  3.109007e+00    4.540700e-01   5.511416e-03
  3.111217e+00    4.415722e-01   5.431348e-03
  3.113428e+00    4.495376e-01   5.476689e-03
  3.115638e+00    4.580388e-01   5.524955e-03
  3.117849e+00    4.611348e-01   5.539804e-03
  3.120059e+00    4.619648e-01   5.541257e-03
  3.122270e+00    4.494680e-01   5.462549e-03
  3.124480e+00    4.451783e-01   5.432694e-03
  3.126691e+00    4.620935e-01   5.531310e-03
  3.128901e+00    4.586735e-01   5.507665e-03
  3.131111e+00    4.408253e-01   5.395607e-03
  3.133322e+00    4.488575e-01   5.441063e-03
  3.135532e+00    4.558351e-01   5.479741e-03
  3.137743e+00    4.534088e-01   5.461651e-03
  3.139953e+00    4.312643e-01   5.322954e-03
  3.142164e+00    4.474972e-01   5.434290e-03
  3.144374e+00    4.448348e-01   5.446584e-03
  3.146585e+00    4.329273e-01   5.387604e-03
  3.148795e+00    4.333706e-01   5.401012e-03
  3.151006e+00    4.393500e-01   5.446678e-03
  3.153216e+00    4.412488e-01   5.465564e-03
  3.155426e+00    4.459048e-01   5.500670e-03
  3.157637e+00    4.390075e-01   5.463482e-03
  3.159847e+00    4.379721e-01   5.461874e-03
  3.162058e+00    4.558802e-01   5.576959e-03
  3.164268e+00    4.367309e-01   5.462585e-03
  3.166479e+00    4.458336e-01   5.522919e-03
  3.168689e+00    4.419416e-01   5.502140e-03
  3.170900e+00    4.354926e-01   5.465012e-03
  3.173110e+00    4.344351e-01   5.461209e-03
  3.175321e+00    4.435575e-01   5.520768e-03
  3.177531e+00    4.433126e-01   5.521990e-03
  3.179741e+00    4.451432e-01   5.535484e-03
  3.181952e+00    4.469898e-01   5.549074e-03
  3.184162e+00    4.430753e-01   5.526936e-03
  3.186373e+00    4.541942e-01   5.597487e-03
  3.188583e+00    4.385377e-01   5.501949e-03
  3.190794e+00    4.353646e-01   5.483776e-03
  3.193004e+00    4.367205e-01   5.493532e-03
  3.195215e+00    4.442145e-01   5.541994e-03
  3.197425e+00    4.351152e-01   5.486140e-03
  3.199636e+00    4.448393e-01   5.546329e-03
  3.201846e+00    4.394631e-01   5.512117e-03
  3.204056e+00    4.328282e-01   5.471229e-03
  3.206267e+00    4.340058e-01   5.479499e-03
  3.208477e+00    4.445983e-01   5.546908e-03
  3.210688e+00    4.446335e-01   5.547991e-03
  3.212898e+00    4.297069e-01   5.454645e-03
  3.215109e+00    4.407071e-01   5.524769e-03
  3.217319e+00    4.349109e-01   5.488966e-03
  3.219530e+00    4.371353e-01   5.503389e-03
  3.221740e+00    4.256625e-01   5.431236e-03
  3.223951e+00    4.317915e-01   5.470667e-03
  3.226161e+00    4.273376e-01   5.442572e-03
  3.228372e+00    4.275508e-01   5.444459e-03
  3.230582e+00    4.276273e-01   5.445078e-03
  3.232792e+00    4.296973e-01   5.458461e-03
  3.235003e+00    4.241632e-01   5.423458e-03
  3.237213e+00    4.312114e-01   5.468420e-03
  3.239424e+00    4.282070e-01   5.449336e-03
  3.241634e+00    4.357232e-01   5.497080e-03
  3.243845e+00    4.456700e-01   5.559543e-03
  3.246055e+00    4.320434e-01   5.473626e-03
  3.248266e+00    4.277585e-01   5.446611e-03
  3.250476e+00    4.424015e-01   5.538735e-03
  3.252687e+00    4.327720e-01   5.478053e-03
  3.254897e+00    4.243866e-01   5.424608e-03
  3.257107e+00    4.211223e-01   5.403383e-03
  3.259318e+00    4.300679e-01   5.460237e-03
  3.261528e+00    4.301397e-01   5.460551e-03
  3.263739e+00    4.255960e-01   5.431090e-03
  3.265949e+00    4.304617e-01   5.461900e-03
  3.268160e+00    4.364126e-01   5.499114e-03
  3.270370e+00    4.246398e-01   5.423936e-03
  3.272581e+00    4.324978e-01   5.473593e-03
  3.274791e+00    4.397832e-01   5.518978e-03
  3.277002e+00    4.203911e-01   5.395378e-03
  3.279212e+00    4.201211e-01   5.393246e-03
  3.281422e+00    4.295344e-01   5.452749e-03
  3.283633e+00    4.366644e-01   5.497127e-03
  3.285843e+00    4.478297e-01   5.566640e-03
  3.288054e+00    4.334979e-01   5.475900e-03
  3.290264e+00    4.258217e-01   5.426857e-03
  3.292475e+00    4.328549e-01   5.470671e-03
  3.294685e+00    4.279032e-01   5.438642e-03
  3.296896e+00    4.238399e-01   5.411994e-03
  3.299106e+00    4.324174e-01   5.465916e-03
  3.301317e+00    4.382626e-01   5.501719e-03
  3.303527e+00    4.220422e-01   5.398463e-03
  3.305737e+00    4.400131e-01   5.511123e-03
  3.307948e+00    4.423501e-01   5.525089e-03
  3.310158e+00    4.213634e-01   5.391555e-03
  3.312369e+00    4.235035e-01   5.404371e-03
  3.314579e+00    4.151807e-01   5.350062e-03
  3.316790e+00    4.482832e-01   5.558554e-03
  3.319000e+00    4.294958e-01   5.439636e-03
  3.321211e+00    4.140684e-01   5.340444e-03
  3.323421e+00    4.309356e-01   5.446888e-03
  3.325632e+00    4.323822e-01   5.455149e-03
  3.327842e+00    4.368902e-01   5.482589e-03
  3.330052e+00    4.069370e-01   5.290258e-03
  3.332263e+00    4.187830e-01   5.365680e-03
  3.334473e+00    4.285611e-01   5.427015e-03
  3.336684e+00    4.341320e-01   5.460943e-03
  3.338894e+00    4.379035e-01   5.483720e-03
  3.341105e+00    4.314146e-01   5.441730e-03
  3.343315e+00    4.146595e-01   5.333894e-03
  3.345526e+00    4.138737e-01   5.327917e-03
  3.347736e+00    4.223701e-01   5.380926e-03
  3.349947e+00    4.250622e-01   5.397098e-03
  3.352157e+00    4.332968e-01   5.447950e-03
  3.354368e+00    4.211338e-01   5.369655e-03
  3.356578e+00    4.296059e-01   5.422330e-03
  3.358788e+00    4.189081e-01   5.353097e-03
  3.360999e+00    4.183458e-01   5.348241e-03
  3.363209e+00    4.177823e-01   5.343610e-03
  3.365420e+00    4.265074e-01   5.397606e-03
  3.367630e+00    4.248149e-01   5.385870e-03
  3.369841e+00    4.153238e-01   5.323924e-03
  3.372051e+00    4.327855e-01   5.432674e-03
  3.374262e+00    4.275846e-01   5.397474e-03
  3.376472e+00    4.164291e-01   5.324154e-03
  3.378683e+00    4.302190e-01   5.409027e-03
  3.380893e+00    4.317529e-01   5.416294e-03
  3.383103e+00    4.256051e-01   5.374842e-03
  3.385314e+00    4.256441e-01   5.372860e-03
  3.387524e+00    4.302996e-01   5.399353e-03
  3.389735e+00    4.119883e-01   5.280626e-03
  3.391945e+00    4.057333e-01   5.236717e-03
  3.394156e+00    4.147921e-01   5.290627e-03
  3.396366e+00    4.211950e-01   5.327865e-03
  3.398577e+00    4.174165e-01   5.300851e-03
  3.400787e+00    4.053453e-01   5.235476e-03
  3.402998e+00    4.041848e-01   5.265744e-03
  3.405208e+00    4.066490e-01   5.302479e-03
  3.407418e+00    4.163474e-01   5.381416e-03
  3.409629e+00    3.915902e-01   5.232776e-03
  3.411839e+00    3.957467e-01   5.272170e-03
  3.414050e+00    3.968796e-01   5.290728e-03
  3.416260e+00    3.978522e-01   5.306893e-03
  3.418471e+00    3.796908e-01   5.193589e-03
  3.420681e+00    3.833587e-01   5.226999e-03
  3.422892e+00    3.866967e-01   5.257681e-03
  3.425102e+00    3.768446e-01   5.197954e-03
  3.427313e+00    3.922460e-01   5.310324e-03
  3.429523e+00    3.942738e-01   5.331163e-03
  3.431733e+00    3.850785e-01   5.275291e-03
  3.433944e+00    3.978091e-01   5.368372e-03
  3.436154e+00    3.803960e-01   5.255810e-03
  3.438365e+00    3.818371e-01   5.271629e-03
  3.440575e+00    3.843218e-01   5.294780e-03
  3.442786e+00    3.703085e-01   5.202853e-03
  3.444996e+00    3.769143e-01   5.254565e-03
  3.447207e+00    3.765047e-01   5.256998e-03
  3.449417e+00    3.951175e-01   5.427462e-03
  3.451628e+00    3.864425e-01   5.397722e-03
  3.453838e+00    3.804636e-01   5.377280e-03
  3.456049e+00    3.943205e-01   5.499140e-03
  3.458259e+00    3.690445e-01   5.341984e-03
  3.460469e+00    3.682872e-01   5.356324e-03
  3.462680e+00    3.694505e-01   5.383923e-03
  3.464890e+00    3.711373e-01   5.414120e-03
  3.467101e+00    3.816714e-01   5.508199e-03
  3.469311e+00    3.838770e-01   5.540946e-03
  3.471522e+00    3.890819e-01   5.595088e-03
  3.473732e+00    4.001082e-01   5.690204e-03
  3.475943e+00    4.029028e-01   5.726169e-03
  3.478153e+00    4.122244e-01   5.807941e-03
  3.480364e+00    4.107154e-01   5.812776e-03
  3.482574e+00    4.127778e-01   5.842860e-03
  3.484784e+00    4.153145e-01   5.875747e-03
  3.486995e+00    4.404228e-01   6.066268e-03
  3.489205e+00    4.386674e-01   6.069135e-03
  3.491416e+00    4.480771e-01   6.149150e-03
  3.493626e+00    4.315414e-01   6.049175e-03
  3.495837e+00    4.433280e-01   6.145996e-03
  3.498047e+00    4.626256e-01   6.293107e-03
  3.500258e+00    4.653759e-01   6.326617e-03
  3.502468e+00    4.515067e-01   6.245990e-03
  3.504679e+00    4.600495e-01   6.319297e-03
  3.506889e+00    4.633589e-01   6.356355e-03
  3.509099e+00    4.842808e-01   6.512860e-03
  3.511310e+00    4.719893e-01   6.444070e-03
  3.513520e+00    5.037761e-01   6.672238e-03
  3.515731e+00    5.138341e-01   6.753329e-03
  3.517941e+00    5.093819e-01   6.738652e-03
  3.520152e+00    4.888130e-01   6.615438e-03
  3.522362e+00    5.111814e-01   6.779688e-03
  3.524573e+00    5.239931e-01   6.878691e-03
  3.526783e+00    5.207617e-01   6.870942e-03
  3.528994e+00    5.231657e-01   6.899070e-03
  3.531204e+00    5.316361e-01   6.967302e-03
  3.533414e+00    5.300574e-01   6.969066e-03
  3.535625e+00    5.260456e-01   6.955001e-03
  3.537835e+00    5.446794e-01   7.089322e-03
  3.540046e+00    5.442102e-01   7.095325e-03
  3.542256e+00    5.501545e-01   7.141574e-03
  3.544467e+00    5.513913e-01   7.157354e-03
  3.546677e+00    5.484704e-01   7.146003e-03
  3.548888e+00    5.450110e-01   7.131020e-03
  3.551098e+00    5.478796e-01   7.157105e-03
  3.553309e+00    5.426005e-01   7.130776e-03
  3.555519e+00    5.323208e-01   7.074161e-03
  3.557729e+00    5.464971e-01   7.179557e-03
  3.559940e+00    5.570993e-01   7.260649e-03
  3.562150e+00    5.484786e-01   7.216114e-03
  3.564361e+00    5.512040e-01   7.247506e-03
  3.566571e+00    5.417255e-01   7.198854e-03
  3.568782e+00    5.388505e-01   7.193841e-03
  3.570992e+00    5.563659e-01   7.323868e-03
  3.573203e+00    5.470611e-01   7.276636e-03
  3.575413e+00    5.491732e-01   7.304634e-03
  3.577624e+00    5.477694e-01   7.309566e-03
  3.579834e+00    5.219723e-01   7.149065e-03
  3.582045e+00    5.353652e-01   7.254214e-03
  3.584255e+00    5.272708e-01   7.213129e-03
  3.586465e+00    5.422660e-01   7.328957e-03
  3.588676e+00    5.335141e-01   7.283754e-03
  3.590886e+00    5.587213e-01   7.467827e-03
  3.593097e+00    5.309280e-01   7.294158e-03
  3.595307e+00    5.432874e-01   7.392579e-03
  3.597518e+00    5.583633e-01   7.508987e-03
  3.599728e+00    5.333586e-01   7.352976e-03
  3.601939e+00    5.350240e-01   7.378520e-03
  3.604149e+00    5.365711e-01   7.403581e-03
  3.606360e+00    5.344054e-01   7.402789e-03
  3.608570e+00    5.205442e-01   7.320071e-03
  3.610780e+00    5.507679e-01   7.540836e-03
  3.612991e+00    5.273769e-01   7.388913e-03
  3.615201e+00    5.308579e-01   7.422984e-03
  3.617412e+00    5.417070e-01   7.505809e-03
  3.619622e+00    5.598684e-01   7.636658e-03
  3.621833e+00    5.496625e-01   7.573565e-03
  3.624043e+00    5.523070e-01   7.601426e-03
  3.626254e+00    5.376343e-01   7.509517e-03
  3.628464e+00    5.531075e-01   7.627938e-03
  3.630675e+00    5.433445e-01   7.574598e-03
  3.632885e+00    5.237393e-01   7.450986e-03
  3.635095e+00    5.409259e-01   7.586738e-03
  3.637306e+00    5.525171e-01   7.682228e-03
  3.639516e+00    5.471233e-01   7.659361e-03
  3.641727e+00    5.430121e-01   7.645207e-03
  3.643937e+00    5.466416e-01   7.685464e-03
  3.646148e+00    5.517119e-01   7.735882e-03
  3.648358e+00    5.418324e-01   7.681294e-03
  3.650569e+00    5.395024e-01   7.679573e-03
  3.652779e+00    5.471900e-01   7.749054e-03
  3.654990e+00    5.613942e-01   7.864306e-03
  3.657200e+00    5.403700e-01   7.730631e-03
  3.659410e+00    5.596527e-01   7.882684e-03
  3.661621e+00    5.467879e-01   7.806916e-03
  3.663831e+00    5.368301e-01   7.750681e-03
  3.666042e+00    5.389917e-01   7.781525e-03
  3.668252e+00    5.255256e-01   7.698841e-03
  3.670463e+00    5.433293e-01   7.843594e-03
  3.672673e+00    5.407035e-01   7.840174e-03
  3.674884e+00    5.399243e-01   7.850067e-03
  3.677094e+00    5.429954e-01   7.888028e-03
  3.679305e+00    5.489596e-01   7.947088e-03
  3.681515e+00    5.376711e-01   7.880674e-03
  3.683726e+00    5.470634e-01   7.965256e-03
  3.685936e+00    5.483060e-01   7.990309e-03
  3.688146e+00    5.354015e-01   7.911594e-03
  3.690357e+00    5.400142e-01   7.961738e-03
  3.692567e+00    5.369409e-01   7.955315e-03
  3.694778e+00    5.364472e-01   7.967846e-03
  3.696988e+00    5.359459e-01   7.980298e-03
  3.699199e+00    5.078965e-01   7.784588e-03
  3.701409e+00    5.313528e-01   7.978796e-03
  3.703620e+00    5.253044e-01   7.949564e-03
  3.705830e+00    5.449005e-01   8.113222e-03
  3.708041e+00    5.205063e-01   7.946088e-03
  3.710251e+00    5.160466e-01   7.928550e-03
  3.712461e+00    5.268101e-01   8.027578e-03
  3.714672e+00    5.423043e-01   8.161857e-03
  3.716882e+00    5.427608e-01   8.182365e-03
  3.719093e+00    5.146858e-01   7.984987e-03
  3.721303e+00    5.169517e-01   8.019436e-03
  3.723514e+00    5.318930e-01   8.151953e-03
  3.725724e+00    5.231737e-01   8.102141e-03
  3.727935e+00    5.482811e-01   8.312198e-03
  3.730145e+00    5.375419e-01   8.248109e-03
  3.732356e+00    5.364770e-01   8.257778e-03
  3.734566e+00    5.266140e-01   8.199272e-03
  3.736776e+00    5.219243e-01   8.180530e-03
  3.738987e+00    5.211942e-01   8.192694e-03
  3.741197e+00    5.255695e-01   8.245209e-03
  3.743408e+00    5.163985e-01   8.191075e-03
  3.745618e+00    5.077085e-01   8.140069e-03
  3.747829e+00    5.156199e-01   8.221396e-03
  3.750039e+00    5.325870e-01   8.374338e-03
  3.752250e+00    5.090546e-01   8.205703e-03
  3.754460e+00    5.134720e-01   8.259770e-03
  3.756671e+00    5.242591e-01   8.365187e-03
  3.758881e+00    5.069181e-01   8.244320e-03
  3.761091e+00    5.183083e-01   8.355655e-03
  3.763302e+00    5.380362e-01   8.532901e-03
  3.765512e+00    5.237404e-01   8.438330e-03
  3.767723e+00    5.148550e-01   8.385917e-03
  3.769933e+00    5.257132e-01   8.493593e-03
  3.772144e+00    5.217996e-01   8.481805e-03
  3.774354e+00    5.130948e-01   8.430749e-03
  3.776565e+00    4.984730e-01   8.329430e-03
  3.778775e+00    5.166179e-01   8.499929e-03
  3.780986e+00    5.223601e-01   8.567663e-03
  3.783196e+00    5.096976e-01   8.483585e-03
  3.785407e+00    5.112203e-01   8.516805e-03
  3.787617e+00    5.209345e-01   8.618494e-03
  3.789827e+00    5.106155e-01   8.553417e-03
  3.792038e+00    4.999910e-01   8.484734e-03
  3.794248e+00    4.945629e-01   8.459597e-03
  3.796459e+00    4.973631e-01   8.504716e-03
  3.798669e+00    5.127734e-01   8.657170e-03
  3.800880e+00    5.076819e-01   8.635657e-03
  3.803090e+00    5.049236e-01   8.634092e-03
  3.805301e+00    5.201247e-01   8.785626e-03
  3.807511e+00    4.917454e-01   8.564400e-03
  3.809722e+00    5.009029e-01   8.666012e-03
  3.811932e+00    5.133901e-01   8.795916e-03
  3.814142e+00    5.041787e-01   8.739660e-03
  3.816353e+00    5.009741e-01   8.734709e-03
  3.818563e+00    5.087542e-01   8.825576e-03
  3.820774e+00    4.832783e-01   8.624626e-03
  3.822984e+00    5.155213e-01   8.931404e-03
  3.825195e+00    5.236483e-01   9.025934e-03
  3.827405e+00    5.152793e-01   8.977757e-03
  3.829616e+00    4.994693e-01   8.863125e-03
  3.831826e+00    5.099092e-01   8.979707e-03
  3.834037e+00    5.119910e-01   9.022918e-03
  3.836247e+00    5.103927e-01   9.033808e-03
  3.838457e+00    5.080430e-01   9.038339e-03
  3.840668e+00    5.123016e-01   9.101733e-03
  3.842878e+00    4.941810e-01   8.964779e-03
  3.845089e+00    4.943033e-01   8.991446e-03
  3.847299e+00    5.101612e-01   9.160637e-03
  3.849510e+00    5.076378e-01   9.164183e-03
  3.851720e+00    5.083659e-01   9.192459e-03
  3.853931e+00    4.948818e-01   9.088694e-03
  3.856141e+00    4.855874e-01   9.021793e-03
  3.858352e+00    5.435770e-01   9.565456e-03
  3.860562e+00    5.275517e-01   9.443454e-03
  3.862772e+00    5.008276e-01   9.220795e-03
  3.864983e+00    4.832539e-01   9.077081e-03
  3.867193e+00    4.878445e-01   9.139704e-03
  3.869404e+00    5.024821e-01   9.295847e-03
  3.871614e+00    5.015471e-01   9.307255e-03
  3.873825e+00    5.271670e-01   9.563084e-03
  3.876035e+00    4.838111e-01   9.181802e-03
  3.878246e+00    5.139778e-01   9.489965e-03
  3.880456e+00    5.153094e-01   9.531991e-03
  3.882667e+00    5.348627e-01   9.741689e-03
  3.884877e+00    5.279372e-01   9.709246e-03
  3.887087e+00    5.063837e-01   9.539427e-03
  3.889298e+00    4.862214e-01   9.377730e-03
  3.891508e+00    5.006492e-01   9.546706e-03
  3.893719e+00    4.851295e-01   9.428362e-03
  3.895929e+00    5.155079e-01   9.751300e-03
  3.898140e+00    5.098535e-01   9.730030e-03
  3.900350e+00    4.905559e-01   9.576201e-03
  3.902561e+00    5.119819e-01   9.816173e-03
  3.904771e+00    5.156661e-01   9.885128e-03
  3.906982e+00    4.963032e-01   9.731138e-03
  3.909192e+00    5.053397e-01   9.853384e-03
  3.911403e+00    4.735049e-01   9.571424e-03
  3.913613e+00    4.967358e-01   9.837925e-03
  3.915823e+00    5.159484e-01   1.006215e-02
  3.918034e+00    5.082485e-01   1.002279e-02
  3.920244e+00    5.136142e-01   1.011214e-02
  3.922455e+00    5.053962e-01   1.006772e-02
  3.924665e+00    5.049450e-01   1.010022e-02
  3.926876e+00    4.870722e-01   9.956997e-03
  3.929086e+00    4.721355e-01   9.839826e-03
  3.931297e+00    4.914040e-01   1.007356e-02
  3.933507e+00    4.881304e-01   1.006884e-02
  3.935718e+00    4.992835e-01   1.021243e-02
  3.937928e+00    5.204687e-01   1.045726e-02
  3.940138e+00    4.756688e-01   1.002599e-02
  3.942349e+00    4.975045e-01   1.028385e-02
  3.944559e+00    4.771794e-01   1.010113e-02
  3.946770e+00    4.999780e-01   1.037026e-02
  3.948980e+00    4.842935e-01   1.023698e-02
  3.951191e+00    4.777700e-01   1.019833e-02
  3.953401e+00    5.177668e-01   1.064895e-02
  3.955612e+00    5.248076e-01   1.075409e-02
  3.957822e+00    4.998074e-01   1.052688e-02
  3.960033e+00    4.562693e-01   1.008959e-02
  3.962243e+00    4.984474e-01   1.057875e-02
  3.964453e+00    5.058460e-01   1.069098e-02
  3.966664e+00    4.778849e-01   1.042433e-02
  3.968874e+00    4.821219e-01   1.049874e-02
  3.971085e+00    5.152135e-01   1.087566e-02
  3.973295e+00    4.931068e-01   1.066139e-02
  3.975506e+00    4.986987e-01   1.074367e-02
  3.977716e+00    4.626345e-01   1.036926e-02
  3.979927e+00    4.665661e-01   1.043501e-02
  3.982137e+00    4.895065e-01   1.071074e-02
  3.984348e+00    4.929621e-01   1.077133e-02
  3.986558e+00    4.931571e-01   1.079590e-02
  3.988768e+00    5.061843e-01   1.096103e-02
  3.990979e+00    4.947163e-01   1.085931e-02
  3.993189e+00    4.542688e-01   1.042807e-02
  3.995400e+00    4.918008e-01   1.087410e-02
  3.997610e+00    4.864985e-01   1.084514e-02
  3.999821e+00    5.035806e-01   1.107212e-02
  4.002031e+00    4.935953e-01   1.100066e-02
  4.004242e+00    4.400769e-01   1.042373e-02
  4.006452e+00    4.734553e-01   1.085075e-02
  4.008663e+00    4.579070e-01   1.070991e-02
  4.010873e+00    4.755780e-01   1.095434e-02
  4.013084e+00    4.932055e-01   1.119668e-02
  4.015294e+00    4.945908e-01   1.125392e-02
  4.017504e+00    4.859266e-01   1.119675e-02
  4.019715e+00    5.139856e-01   1.155932e-02
  4.021925e+00    4.723112e-01   1.112326e-02
  4.024136e+00    4.715619e-01   1.115757e-02
  4.026346e+00    4.985406e-01   1.151700e-02
  4.028557e+00    4.990439e-01   1.156783e-02
  4.030767e+00    4.999448e-01   1.162469e-02
  4.032978e+00    4.950136e-01   1.161420e-02
  4.035188e+00    4.565915e-01   1.119911e-02
  4.037399e+00    4.713764e-01   1.142592e-02
  4.039609e+00    4.594022e-01   1.132657e-02
  4.041819e+00    4.801280e-01   1.162763e-02
  4.044030e+00    4.597721e-01   1.142723e-02
  4.046240e+00    4.974045e-01   1.193619e-02
  4.048451e+00    5.225601e-01   1.228745e-02
  4.050661e+00    4.784613e-01   1.180869e-02
  4.052872e+00    4.893376e-01   1.199522e-02
  4.055082e+00    4.560725e-01   1.163246e-02
  4.057293e+00    4.917864e-01   1.213342e-02
  4.059503e+00    4.688588e-01   1.190111e-02
  4.061714e+00    4.978145e-01   1.232054e-02
  4.063924e+00    4.953237e-01   1.234720e-02
  4.066134e+00    5.042531e-01   1.251674e-02
  4.068345e+00    4.552048e-01   1.194958e-02
  4.070555e+00    5.053252e-01   1.265114e-02
  4.072766e+00    4.803023e-01   1.239462e-02
  4.074976e+00    4.736443e-01   1.236980e-02
  4.077187e+00    4.757493e-01   1.245892e-02
  4.079397e+00    5.057910e-01   1.291163e-02
  4.081608e+00    5.069548e-01   1.299405e-02
  4.083818e+00    5.158308e-01   1.317519e-02
  4.086029e+00    4.957183e-01   1.298402e-02
  4.088239e+00    5.034320e-01   1.315512e-02
  4.090449e+00    5.167944e-01   1.340084e-02
  4.092660e+00    5.093715e-01   1.337739e-02
  4.094870e+00    4.717308e-01   1.294538e-02
  4.097081e+00    4.758569e-01   1.307285e-02
  4.099291e+00    5.216421e-01   1.374404e-02
  4.101502e+00    5.046016e-01   1.356829e-02
  4.103712e+00    4.675514e-01   1.310924e-02
  4.105923e+00    4.834959e-01   1.338243e-02
  4.108133e+00    5.039005e-01   1.371461e-02
  4.110344e+00    4.906101e-01   1.358431e-02
  4.112554e+00    4.990265e-01   1.375452e-02
  4.114764e+00    4.907656e-01   1.369490e-02
  4.116975e+00    4.548477e-01   1.323640e-02
  4.119185e+00    4.654587e-01   1.344389e-02
  4.121396e+00    5.103824e-01   1.413618e-02
  4.123606e+00    5.297403e-01   1.446067e-02
  4.125817e+00    5.067681e-01   1.420316e-02
  4.128027e+00    4.758188e-01   1.382038e-02
  4.130238e+00    4.977443e-01   1.419590e-02
  4.132448e+00    4.906999e-01   1.415633e-02
  4.134659e+00    4.665129e-01   1.386232e-02
  4.136869e+00    4.828089e-01   1.416534e-02
  4.139080e+00    4.310452e-01   1.344476e-02
  4.141290e+00    4.102528e-01   1.317454e-02
  4.143500e+00    4.430898e-01   1.375462e-02
  4.145711e+00    5.065522e-01   1.477558e-02
  4.147921e+00    4.840334e-01   1.450974e-02
  4.150132e+00    4.857789e-01   1.460512e-02
  4.152342e+00    4.887246e-01   1.472035e-02
  4.154553e+00    4.769618e-01   1.461134e-02
  4.156763e+00    5.426384e-01   1.566199e-02
  4.158974e+00    5.134429e-01   1.531131e-02
  4.161184e+00    5.011311e-01   1.520186e-02
  4.163395e+00    5.081987e-01   1.538662e-02
  4.165605e+00    5.250515e-01   1.572104e-02
  4.167815e+00    5.539173e-01   1.623170e-02
  4.170026e+00    5.376863e-01   1.607641e-02
  4.172236e+00    5.281202e-01   1.601906e-02
  4.174447e+00    4.990269e-01   1.565586e-02
  4.176657e+00    5.499852e-01   1.652614e-02
  4.178868e+00    4.810199e-01   1.554222e-02
  4.181078e+00    5.134166e-01   1.614819e-02
  4.183289e+00    4.780988e-01   1.567164e-02
  4.185499e+00    5.036220e-01   1.617952e-02
  4.187710e+00    5.223718e-01   1.657449e-02
  4.189920e+00    5.046153e-01   1.638839e-02
  4.192130e+00    5.374541e-01   1.701658e-02
  4.194341e+00    5.019567e-01   1.654623e-02
  4.196551e+00    5.066329e-01   1.672798e-02
  4.198762e+00    4.528804e-01   1.591634e-02
  4.200972e+00    4.562438e-01   1.607860e-02
  4.203183e+00    4.317527e-01   1.574413e-02
  4.205393e+00    4.624987e-01   1.640360e-02
  4.207604e+00    5.279092e-01   1.764477e-02
  4.209814e+00    4.715686e-01   1.679131e-02
  4.212025e+00    4.661613e-01   1.681289e-02
  4.214235e+00    5.189713e-01   1.786539e-02
  4.216445e+00    4.861611e-01   1.741645e-02
  4.218656e+00    4.393036e-01   1.667999e-02
  4.220866e+00    4.843128e-01   1.764347e-02
  4.223077e+00    4.524031e-01   1.718330e-02
  4.225287e+00    5.075855e-01   1.834409e-02
  4.227498e+00    5.348925e-01   1.897922e-02
  4.229708e+00    5.078543e-01   1.864342e-02
  4.231919e+00    5.612082e-01   1.976039e-02
  4.234129e+00    4.831427e-01   1.848885e-02
  4.236340e+00    4.910563e-01   1.879852e-02
  4.238550e+00    4.631745e-01   1.841856e-02
  4.240761e+00    4.931096e-01   1.917198e-02
  4.242971e+00    5.709437e-01   2.081865e-02
  4.245181e+00    5.594656e-01   2.080232e-02
  4.247392e+00    4.836383e-01   1.952151e-02
  4.249602e+00    5.461335e-01   2.095080e-02
  4.251813e+00    5.300280e-01   2.084359e-02
  4.254023e+00    3.582163e-01   1.730772e-02
  4.256234e+00    4.576348e-01   1.977141e-02
  4.258444e+00    4.881248e-01   2.063330e-02
  4.260655e+00    4.777940e-01   2.063830e-02
  4.262865e+00    4.023446e-01   1.915349e-02
  4.265076e+00    4.877700e-01   2.132913e-02
  4.267286e+00    4.705965e-01   2.119832e-02
  4.269496e+00    4.387961e-01   2.071976e-02
  4.271707e+00    4.921634e-01   2.221420e-02
  4.273917e+00    4.437554e-01   2.136657e-02
  4.276128e+00    4.913356e-01   2.278147e-02
  4.278338e+00    4.861809e-01   2.296423e-02
  4.280549e+00    3.995546e-01   2.111648e-02
  4.282759e+00    4.220813e-01   2.201574e-02
  4.284970e+00    4.610935e-01   2.335105e-02
  4.287180e+00    4.663793e-01   2.376614e-02
  4.289391e+00    4.617521e-01   2.382521e-02
  4.291601e+00    4.103114e-01   2.263890e-02
  4.293811e+00    4.470915e-01   2.381569e-02
  4.296022e+00    4.428983e-01   2.389465e-02
  4.298232e+00    5.094358e-01   2.584143e-02
  4.300443e+00    4.976874e-01   2.575255e-02
  4.302653e+00    4.494752e-01   2.468530e-02
  4.304864e+00    3.778829e-01   2.283005e-02
  4.307074e+00    4.206059e-01   2.430242e-02
  4.309285e+00    4.376942e-01   2.501734e-02
  4.311495e+00    4.563891e-01   2.578328e-02
  4.313706e+00    4.850696e-01   2.683201e-02
  4.315916e+00    5.772215e-01   2.955768e-02
  4.318126e+00    4.275436e-01   2.569028e-02
  4.320337e+00    5.070421e-01   2.825970e-02
  4.322547e+00    5.031525e-01   2.844993e-02
  4.324758e+00    4.364091e-01   2.677105e-02
  4.326968e+00    4.363591e-01   2.707124e-02
  4.329179e+00    4.327787e-01   2.725683e-02
  4.331389e+00    4.546522e-01   2.825949e-02
  4.333600e+00    5.717133e-01   3.206684e-02
  4.335810e+00    5.970147e-01   3.316006e-02
  4.338021e+00    5.008107e-01   3.075878e-02
  4.340231e+00    4.669908e-01   3.007567e-02
  4.342442e+00    4.690990e-01   3.054724e-02
  4.344652e+00    4.202510e-01   2.930520e-02
  4.346862e+00    4.192590e-01   2.968157e-02
  4.349073e+00    5.378196e-01   3.410558e-02
  4.351283e+00    3.884852e-01   2.942089e-02
  4.353494e+00    3.213275e-01   2.716951e-02
  4.355704e+00    4.157468e-01   3.140184e-02
  4.357915e+00    4.331663e-01   3.258626e-02
  4.360125e+00    5.542539e-01   3.749070e-02
  4.362336e+00    6.054870e-01   3.989980e-02
  4.364546e+00    4.474484e-01   3.492320e-02
  4.366757e+00    4.945748e-01   3.744736e-02
  4.368967e+00    4.393439e-01   3.599860e-02
  4.371177e+00    4.736555e-01   3.817240e-02
  4.373388e+00    3.917799e-01   3.549188e-02
  4.375598e+00    4.833854e-01   4.032390e-02
  4.377809e+00    4.138556e-01   3.825549e-02
  4.380019e+00    4.441453e-01   4.062765e-02
  4.382230e+00    2.097068e-01   2.869754e-02
  4.384440e+00    3.085862e-01   3.580941e-02
  4.386651e+00    4.764589e-01   4.586957e-02
  4.388861e+00    4.123408e-01   4.410532e-02
  4.391072e+00    3.623949e-01   4.279948e-02
  4.393282e+00    3.566639e-01   4.410267e-02
  4.395492e+00    5.482475e-01   5.694717e-02
  4.397703e+00    4.260217e-01   5.250002e-02
  4.399913e+00    4.553744e-01   5.702282e-02
  4.402124e+00    3.502935e-01   5.284807e-02
  4.404334e+00    3.795463e-01   5.847208e-02
  4.406545e+00    3.811214e-01   6.295975e-02
  4.408755e+00    4.388690e-01   7.326666e-02
  4.410966e+00    6.897395e-01   1.016522e-01
  4.413176e+00    2.082693e-01   6.325315e-02
  4.415387e+00   -8.894041e-01            nan
  4.417597e+00   -2.044852e+00            nan
  4.419807e+00   -3.766224e-01            nan
