# == pyFAI calibration ==
# Distance Sample to Detector: 0.216 m
# PONI: 1.166e-01, 1.308e-01 m
# Rotations: 0.000000 0.000000 0.000000 rad
# 
# == Fit2d calibration ==
# Distance Sample-beamCenter: 216.000 mm
# Center: x=1744.293, y=1555.000 pix
# Tilt: 0.000 deg  TiltPlanRot: 0.000 deg
# 
# Detector Eiger 9M	 PixelSize= 7.500e-05, 7.500e-05 m
#    Detector has a mask: True 
#    Detector has a dark current: False 
#    detector has a flat field: False 
# 
# Wavelength: 9.8e-11 m
# Mask applied: from detector
# Dark current applied: False
# Flat field applied: False
# Polarization factor: None
# Normalization factor: 1.0
# 
# Headers of the input frame:
# {
# "_array_data.header_convention": "SLS_1.0",
# "_array_data.header_contents": "# Detector: Dectris Eiger 9M, S/N E-18-0102\r\n# Pixel_size 75e-6 m x 75e-6 m\r\n# Silicon sensor, thickness 0.000450 m\r\n# Exposure_time 0.024997 s\r\n# Exposure_period 0.025000 s\r\n# Count_cutoff 62318 counts\r\n# Wavelength 0.980106 A\r\n# Detector_distance 0.215992 m\r\n# Beam_xy (1555, 1744) pixels\r\n# Start_angle 0.000000 deg.\r\n# Angle_increment 0.000000 deg.",
# "Content-Type": "application/octet-stream;",
# "conversions": "x-CBF_BYTE_OFFSET",
# "Content-Transfer-Encoding": "BINARY",
# "X-Binary-Size": "10166614",
# "X-Binary-ID": "1",
# "X-Binary-Element-Type": "signed 32-bit integer",
# "X-Binary-Element-Byte-Order": "LITTLE_ENDIAN",
# "Content-MD5": "83irU2Tb2iFrriNhj4k6vw==",
# "X-Binary-Number-of-Elements": "10166590",
# "X-Binary-Size-Fastest-Dimension": "3110",
# "X-Binary-Size-Second-Dimension": "3269",
# "X-Binary-Size-Padding": "4095"
# }
# --> H:/Proxima2a_2019-04-05/RAW_DATA/C5_gel17_position5/C5_mesh_1_data.cbf/C5_mesh_1_data.cbf000103.dat
#        q_A^-1              I           sigma 
  1.105228e-03    2.304126e+00   8.213723e-01
  3.315685e-03    1.396549e+00   3.887528e-01
  5.526141e-03    1.420681e+00   3.031939e-01
  7.736597e-03    1.661734e+00   2.770135e-01
  9.947054e-03    1.237140e+00   2.107104e-01
  1.215751e-02    1.249816e+00   1.915101e-01
  1.436797e-02    1.296931e+00   1.794462e-01
  1.657842e-02    1.316111e+00   1.682638e-01
  1.878888e-02    1.341410e+00   1.595674e-01
  2.099934e-02    1.329989e+00   1.503232e-01
  2.320979e-02    1.453002e+00   1.494397e-01
  2.542025e-02    1.416896e+00   1.410193e-01
  2.763070e-02    1.537451e+00   1.408935e-01
  2.984116e-02    1.396395e+00   1.292054e-01
  3.205162e-02    1.366260e+00   1.233255e-01
  3.426207e-02    1.398215e+00   1.206596e-01
  3.647253e-02    1.298519e+00   1.126974e-01
  3.868299e-02    1.521808e+00   1.184747e-01
  4.089344e-02    1.659778e+00   1.203388e-01
  4.310390e-02    1.401133e+00   1.076871e-01
  4.531436e-02    1.369170e+00   1.038232e-01
  4.752481e-02    1.356956e+00   1.009257e-01
  4.973527e-02    1.359030e+00   9.873391e-02
  5.194572e-02    1.487527e+00   1.010731e-01
  5.415618e-02    1.381830e+00   9.540390e-02
  5.636664e-02    1.418788e+00   9.475976e-02
  5.857709e-02    1.512676e+00   9.598149e-02
  6.078755e-02    1.515626e+00   9.430906e-02
  6.299801e-02    1.463520e+00   9.103236e-02
  6.520846e-02    1.347092e+00   8.584388e-02
  6.741892e-02    1.410611e+00   8.638801e-02
  6.962938e-02    1.482572e+00   8.715136e-02
  7.183983e-02    1.511272e+00   8.662503e-02
  7.405029e-02    1.501850e+00   8.505397e-02
  7.626074e-02    1.367357e+00   7.997076e-02
  7.847120e-02    1.377928e+00   7.913840e-02
  8.068166e-02    1.566949e+00   8.322727e-02
  8.289211e-02    1.533913e+00   8.123947e-02
  8.510257e-02    1.525781e+00   7.996418e-02
  8.731303e-02    1.510348e+00   7.854222e-02
  8.952348e-02    1.701828e+00   8.233897e-02
  9.173394e-02    1.570067e+00   7.812554e-02
  9.394439e-02    1.423774e+00   7.351397e-02
  9.615485e-02    1.478938e+00   7.405674e-02
  9.836531e-02    1.482810e+00   7.331371e-02
  1.005758e-01    1.509261e+00   7.314785e-02
  1.027862e-01    1.551413e+00   7.335868e-02
  1.049967e-01    1.612879e+00   7.400496e-02
  1.072071e-01    1.547592e+00   7.173961e-02
  1.094176e-01    1.471777e+00   6.924899e-02
  1.116280e-01    1.491934e+00   6.902628e-02
  1.138385e-01    1.499660e+00   6.852827e-02
  1.160490e-01    1.468902e+00   6.717202e-02
  1.182594e-01    1.473590e+00   6.664594e-02
  1.204699e-01    1.515774e+00   6.696962e-02
  1.226803e-01    1.555362e+00   6.722179e-02
  1.248908e-01    1.661141e+00   6.885171e-02
  1.271012e-01    1.621934e+00   6.743881e-02
  1.293117e-01    1.637891e+00   6.718715e-02
  1.315222e-01    1.571586e+00   6.525630e-02
  1.337326e-01    1.524871e+00   6.374441e-02
  1.359431e-01    1.593993e+00   6.521133e-02
  1.381535e-01    1.537379e+00   6.490243e-02
  1.403640e-01    1.535448e+00   6.514173e-02
  1.425744e-01    1.598611e+00   6.657425e-02
  1.447849e-01    1.540761e+00   6.537363e-02
  1.469953e-01    1.557387e+00   6.568422e-02
  1.492058e-01    1.580153e+00   6.608570e-02
  1.514163e-01    1.606045e+00   6.651429e-02
  1.536267e-01    1.559428e+00   6.541389e-02
  1.558372e-01    1.626437e+00   6.665706e-02
  1.580476e-01    1.646390e+00   6.690191e-02
  1.602581e-01    1.711969e+00   6.804810e-02
  1.624685e-01    1.684100e+00   6.730715e-02
  1.646790e-01    1.681605e+00   6.706417e-02
  1.668895e-01    1.675246e+00   6.674391e-02
  1.690999e-01    1.735966e+00   6.773870e-02
  1.713104e-01    1.741036e+00   6.762704e-02
  1.735208e-01    1.836616e+00   6.924253e-02
  1.757313e-01    1.912479e+00   7.043668e-02
  1.779417e-01    1.807099e+00   6.824533e-02
  1.801522e-01    1.816600e+00   6.820653e-02
  1.823626e-01    1.960773e+00   7.062557e-02
  1.845731e-01    1.918426e+00   6.963245e-02
  1.867836e-01    2.019214e+00   7.119708e-02
  1.889940e-01    2.007508e+00   7.075843e-02
  1.912045e-01    2.051098e+00   7.128368e-02
  1.934149e-01    1.965600e+00   6.954863e-02
  1.956254e-01    1.934147e+00   6.876238e-02
  1.978358e-01    1.911015e+00   6.811573e-02
  2.000463e-01    1.994769e+00   6.936172e-02
  2.022568e-01    1.982682e+00   6.892433e-02
  2.044672e-01    1.898960e+00   6.722232e-02
  2.066777e-01    1.905763e+00   6.711908e-02
  2.088881e-01    2.089296e+00   7.004682e-02
  2.110986e-01    2.046846e+00   6.909384e-02
  2.133090e-01    2.046070e+00   6.885616e-02
  2.155195e-01    2.006043e+00   6.795318e-02
  2.177300e-01    1.923529e+00   6.601819e-02
  2.199404e-01    1.957579e+00   6.484504e-02
  2.221509e-01    1.914939e+00   6.308182e-02
  2.243613e-01    1.925059e+00   6.244644e-02
  2.265718e-01    2.104860e+00   6.457790e-02
  2.287822e-01    2.120599e+00   6.417732e-02
  2.309927e-01    2.119247e+00   6.357241e-02
  2.332031e-01    2.183596e+00   6.397804e-02
  2.354136e-01    2.182132e+00   6.343826e-02
  2.376241e-01    2.170885e+00   6.278342e-02
  2.398345e-01    2.218621e+00   6.300022e-02
  2.420450e-01    2.247404e+00   6.295440e-02
  2.442554e-01    2.207289e+00   6.196020e-02
  2.464659e-01    2.186630e+00   6.125556e-02
  2.486763e-01    2.114751e+00   5.984432e-02
  2.508868e-01    2.157194e+00   6.006061e-02
  2.530973e-01    2.240652e+00   6.083190e-02
  2.553077e-01    2.087515e+00   5.836020e-02
  2.575182e-01    2.081371e+00   5.792944e-02
  2.597286e-01    2.120777e+00   5.813537e-02
  2.619391e-01    2.021325e+00   5.642914e-02
  2.641495e-01    2.093821e+00   5.711425e-02
  2.663600e-01    2.116778e+00   5.711075e-02
  2.685704e-01    2.056087e+00   5.598096e-02
  2.707809e-01    2.021245e+00   5.520997e-02
  2.729914e-01    2.033863e+00   5.509342e-02
  2.752018e-01    1.972245e+00   5.397007e-02
  2.774123e-01    2.031379e+00   5.449339e-02
  2.796227e-01    2.080954e+00   5.488154e-02
  2.818332e-01    1.997845e+00   5.350615e-02
  2.840436e-01    2.009621e+00   5.340351e-02
  2.862541e-01    1.969339e+00   5.261142e-02
  2.884646e-01    2.045303e+00   5.336210e-02
  2.906750e-01    1.967661e+00   5.209127e-02
  2.928855e-01    1.965040e+00   5.181537e-02
  2.950959e-01    1.984833e+00   5.183645e-02
  2.973064e-01    2.018063e+00   5.203366e-02
  2.995168e-01    1.971092e+00   5.119163e-02
  3.017273e-01    1.985546e+00   5.115248e-02
  3.039377e-01    1.905686e+00   4.989379e-02
  3.061482e-01    1.914386e+00   4.979122e-02
  3.083587e-01    1.940974e+00   4.991877e-02
  3.105691e-01    1.950550e+00   4.982802e-02
  3.127796e-01    1.927203e+00   4.932069e-02
  3.149900e-01    1.926903e+00   4.911136e-02
  3.172005e-01    1.924941e+00   4.888564e-02
  3.194109e-01    1.889394e+00   4.823223e-02
  3.216214e-01    1.912089e+00   4.832306e-02
  3.238319e-01    1.899649e+00   4.797479e-02
  3.260423e-01    1.839444e+00   4.702040e-02
  3.282528e-01    1.894564e+00   4.752972e-02
  3.304632e-01    1.922535e+00   4.769382e-02
  3.326737e-01    1.942788e+00   4.775731e-02
  3.348841e-01    1.864899e+00   4.660875e-02
  3.370946e-01    1.856069e+00   4.632331e-02
  3.393050e-01    1.872471e+00   4.635131e-02
  3.415155e-01    1.802444e+00   4.530532e-02
  3.437260e-01    1.860426e+00   4.585765e-02
  3.459364e-01    1.887528e+00   4.601962e-02
  3.481469e-01    1.794149e+00   4.470307e-02
  3.503573e-01    1.821079e+00   4.487325e-02
  3.525678e-01    1.851535e+00   4.508568e-02
  3.547782e-01    1.867311e+00   4.511371e-02
  3.569887e-01    1.817420e+00   4.434925e-02
  3.591992e-01    1.855532e+00   4.465327e-02
  3.614096e-01    1.871525e+00   4.468983e-02
  3.636201e-01    1.795032e+00   4.361320e-02
  3.658305e-01    1.845858e+00   4.407548e-02
  3.680410e-01    1.868119e+00   4.418796e-02
  3.702514e-01    1.792821e+00   4.314268e-02
  3.724619e-01    1.803045e+00   4.311820e-02
  3.746724e-01    1.823617e+00   4.321879e-02
  3.768828e-01    1.810582e+00   4.291914e-02
  3.790933e-01    1.841278e+00   4.314039e-02
  3.813037e-01    1.933631e+00   4.406441e-02
  3.835142e-01    1.834331e+00   4.277712e-02
  3.857246e-01    1.787375e+00   4.208937e-02
  3.879351e-01    1.787673e+00   4.195664e-02
  3.901455e-01    1.774597e+00   4.166984e-02
  3.923560e-01    1.742536e+00   4.116045e-02
  3.945665e-01    1.809290e+00   4.180844e-02
  3.967769e-01    1.810927e+00   4.169637e-02
  3.989874e-01    1.783537e+00   4.125063e-02
  4.011978e-01    1.774066e+00   4.101444e-02
  4.034083e-01    1.758479e+00   4.070851e-02
  4.056187e-01    1.816805e+00   4.125065e-02
  4.078292e-01    1.820518e+00   4.116783e-02
  4.100397e-01    1.829226e+00   4.114016e-02
  4.122501e-01    1.810537e+00   4.080702e-02
  4.144606e-01    1.799444e+00   4.056117e-02
  4.166710e-01    1.839444e+00   4.088758e-02
  4.188815e-01    1.827327e+00   4.063229e-02
  4.210919e-01    1.803078e+00   4.024354e-02
  4.233024e-01    1.752399e+00   3.955721e-02
  4.255128e-01    1.839176e+00   4.040767e-02
  4.277233e-01    1.799144e+00   3.985066e-02
  4.299338e-01    1.856086e+00   4.035989e-02
  4.321442e-01    1.846700e+00   4.014254e-02
  4.343547e-01    1.758425e+00   3.906060e-02
  4.365651e-01    1.769806e+00   3.907545e-02
  4.387756e-01    1.733765e+00   3.856724e-02
  4.409860e-01    1.735472e+00   3.847932e-02
  4.431965e-01    1.739710e+00   3.841974e-02
  4.454070e-01    1.701516e+00   3.788995e-02
  4.476174e-01    1.695542e+00   3.771954e-02
  4.498279e-01    1.705181e+00   3.772367e-02
  4.520383e-01    1.715755e+00   3.773661e-02
  4.542488e-01    1.722510e+00   3.770887e-02
  4.564592e-01    1.707276e+00   3.744103e-02
  4.586697e-01    1.755370e+00   3.786395e-02
  4.608801e-01    1.724841e+00   3.743274e-02
  4.630906e-01    1.691741e+00   3.697367e-02
  4.653011e-01    1.670505e+00   3.664424e-02
  4.675115e-01    1.683836e+00   3.669326e-02
  4.697220e-01    1.748332e+00   3.729149e-02
  4.719324e-01    1.734307e+00   3.704558e-02
  4.741429e-01    1.714438e+00   3.673782e-02
  4.763533e-01    1.721803e+00   3.672228e-02
  4.785638e-01    1.749538e+00   3.692124e-02
  4.807743e-01    1.731901e+00   3.664124e-02
  4.829847e-01    1.728833e+00   3.651629e-02
  4.851952e-01    1.752650e+00   3.667392e-02
  4.874056e-01    1.696506e+00   3.599078e-02
  4.896161e-01    1.689629e+00   3.582866e-02
  4.918265e-01    1.671863e+00   3.555130e-02
  4.940370e-01    1.698053e+00   3.574020e-02
  4.962475e-01    1.683322e+00   3.549699e-02
  4.984579e-01    1.710557e+00   3.569479e-02
  5.006684e-01    1.688995e+00   3.538264e-02
  5.028788e-01    1.716824e+00   3.558649e-02
  5.050893e-01    1.694527e+00   3.526868e-02
  5.072997e-01    1.669163e+00   3.491916e-02
  5.095102e-01    1.694603e+00   3.510001e-02
  5.117206e-01    1.697136e+00   3.504271e-02
  5.139311e-01    1.655662e+00   3.452996e-02
  5.161416e-01    1.639552e+00   3.428037e-02
  5.183520e-01    1.645139e+00   3.425710e-02
  5.205625e-01    1.668671e+00   3.442043e-02
  5.227729e-01    1.656766e+00   3.421743e-02
  5.249834e-01    1.657687e+00   3.414748e-02
  5.271938e-01    1.695449e+00   3.445364e-02
  5.294043e-01    1.729553e+00   3.471812e-02
  5.316148e-01    1.727722e+00   3.462029e-02
  5.338252e-01    1.771844e+00   3.497942e-02
  5.360357e-01    1.728594e+00   3.447122e-02
  5.382461e-01    1.720607e+00   3.431374e-02
  5.404566e-01    1.753028e+00   3.455669e-02
  5.426670e-01    1.757542e+00   3.452320e-02
  5.448775e-01    1.766698e+00   3.453567e-02
  5.470879e-01    1.796128e+00   3.474449e-02
  5.492984e-01    1.763953e+00   3.435532e-02
  5.515089e-01    1.761292e+00   3.425325e-02
  5.537193e-01    1.759061e+00   3.415613e-02
  5.559298e-01    1.839063e+00   3.484761e-02
  5.581402e-01    1.778806e+00   3.419708e-02
  5.603507e-01    1.790172e+00   3.423149e-02
  5.625611e-01    1.786885e+00   3.412583e-02
  5.647716e-01    1.787916e+00   3.406156e-02
  5.669821e-01    1.784141e+00   3.395224e-02
  5.691925e-01    1.820135e+00   3.421938e-02
  5.714030e-01    1.806336e+00   3.401677e-02
  5.736134e-01    1.759699e+00   3.350334e-02
  5.758239e-01    1.769488e+00   3.352470e-02
  5.780343e-01    1.729275e+00   3.307146e-02
  5.802448e-01    1.693052e+00   3.265476e-02
  5.824552e-01    1.672294e+00   3.238585e-02
  5.846657e-01    1.643659e+00   3.204047e-02
  5.868762e-01    1.612064e+00   3.166495e-02
  5.890866e-01    1.679548e+00   3.225387e-02
  5.912971e-01    1.635211e+00   3.175943e-02
  5.935075e-01    1.640924e+00   3.174908e-02
  5.957180e-01    1.644496e+00   3.171843e-02
  5.979284e-01    1.630285e+00   3.151660e-02
  6.001389e-01    1.646326e+00   3.160678e-02
  6.023494e-01    1.626463e+00   3.135177e-02
  6.045598e-01    1.625842e+00   3.128193e-02
  6.067703e-01    1.631434e+00   3.127269e-02
  6.089807e-01    1.666312e+00   3.154163e-02
  6.111912e-01    1.715071e+00   3.193592e-02
  6.134016e-01    1.741784e+00   3.211947e-02
  6.156121e-01    1.681194e+00   3.149315e-02
  6.178226e-01    1.706380e+00   3.166534e-02
  6.200330e-01    1.704096e+00   3.158173e-02
  6.222435e-01    1.716757e+00   3.163603e-02
  6.244539e-01    1.732217e+00   3.171596e-02
  6.266644e-01    1.732927e+00   3.166056e-02
  6.288748e-01    1.752680e+00   3.177852e-02
  6.310853e-01    1.745450e+00   3.165135e-02
  6.332957e-01    1.735114e+00   3.149655e-02
  6.355062e-01    1.731947e+00   3.140666e-02
  6.377167e-01    1.779133e+00   3.177055e-02
  6.399271e-01    1.746243e+00   3.141521e-02
  6.421376e-01    1.724030e+00   3.115517e-02
  6.443480e-01    1.753730e+00   3.136260e-02
  6.465585e-01    1.743205e+00   3.120913e-02
  6.487689e-01    1.682113e+00   3.059948e-02
  6.509794e-01    1.687563e+00   3.059120e-02
  6.531899e-01    1.645261e+00   3.014857e-02
  6.554003e-01    1.645191e+00   3.009123e-02
  6.576108e-01    1.634215e+00   2.993486e-02
  6.598212e-01    1.606212e+00   2.962213e-02
  6.620317e-01    1.623479e+00   2.972571e-02
  6.642421e-01    1.617681e+00   2.961769e-02
  6.664526e-01    1.633825e+00   2.971027e-02
  6.686630e-01    1.633967e+00   2.965663e-02
  6.708735e-01    1.637269e+00   2.963213e-02
  6.730840e-01    1.622498e+00   2.944437e-02
  6.752944e-01    1.647694e+00   2.961816e-02
  6.775049e-01    1.628738e+00   2.939383e-02
  6.797153e-01    1.609170e+00   2.916382e-02
  6.819258e-01    1.618610e+00   2.919647e-02
  6.841362e-01    1.627642e+00   2.922518e-02
  6.863467e-01    1.567726e+00   2.863085e-02
  6.885572e-01    1.573698e+00   2.863394e-02
  6.907676e-01    1.570263e+00   2.855140e-02
  6.929781e-01    1.638396e+00   2.911240e-02
  6.951885e-01    1.624647e+00   2.893868e-02
  6.973990e-01    1.587658e+00   2.855675e-02
  6.996094e-01    1.610944e+00   2.871479e-02
  7.018199e-01    1.632087e+00   2.885191e-02
  7.040303e-01    1.596133e+00   2.848220e-02
  7.062408e-01    1.614933e+00   2.859928e-02
  7.084513e-01    1.620097e+00   2.859514e-02
  7.106617e-01    1.627183e+00   2.860780e-02
  7.128722e-01    1.630432e+00   2.858682e-02
  7.150826e-01    1.599536e+00   2.826585e-02
  7.172931e-01    1.577523e+00   2.802230e-02
  7.195035e-01    1.578465e+00   2.798246e-02
  7.217140e-01    1.618154e+00   2.838221e-02
  7.239245e-01    1.594578e+00   2.840287e-02
  7.261349e-01    1.546688e+00   2.808074e-02
  7.283454e-01    1.568656e+00   2.835173e-02
  7.305558e-01    1.570383e+00   2.842123e-02
  7.327663e-01    1.612272e+00   2.884081e-02
  7.349767e-01    1.584784e+00   2.861034e-02
  7.371872e-01    1.569206e+00   2.845819e-02
  7.393976e-01    1.610031e+00   2.881158e-02
  7.416081e-01    1.595595e+00   2.866588e-02
  7.438186e-01    1.551656e+00   2.812514e-02
  7.460290e-01    1.548476e+00   2.780453e-02
  7.482395e-01    1.574922e+00   2.786976e-02
  7.504499e-01    1.591540e+00   2.787942e-02
  7.526604e-01    1.564275e+00   2.752341e-02
  7.548708e-01    1.568590e+00   2.747210e-02
  7.570813e-01    1.562487e+00   2.736783e-02
  7.592918e-01    1.554422e+00   2.726216e-02
  7.615022e-01    1.546997e+00   2.716347e-02
  7.637127e-01    1.537182e+00   2.704477e-02
  7.659231e-01    1.546573e+00   2.709553e-02
  7.681336e-01    1.589880e+00   2.744053e-02
  7.703440e-01    1.599438e+00   2.749142e-02
  7.725545e-01    1.616574e+00   2.760701e-02
  7.747650e-01    1.628725e+00   2.767172e-02
  7.769754e-01    1.605015e+00   2.741638e-02
  7.791859e-01    1.616066e+00   2.745643e-02
  7.813963e-01    1.592171e+00   2.719987e-02
  7.836068e-01    1.609071e+00   2.729145e-02
  7.858172e-01    1.616929e+00   2.730685e-02
  7.880277e-01    1.623358e+00   2.730906e-02
  7.902381e-01    1.590985e+00   2.698626e-02
  7.924486e-01    1.596776e+00   2.698523e-02
  7.946591e-01    1.626790e+00   2.718897e-02
  7.968695e-01    1.639323e+00   2.724470e-02
  7.990800e-01    1.618078e+00   2.701919e-02
  8.012904e-01    1.724171e+00   2.784263e-02
  8.035009e-01    1.844340e+00   2.874535e-02
  8.057113e-01    1.765207e+00   2.807334e-02
  8.079218e-01    1.664721e+00   2.721550e-02
  8.101323e-01    1.673614e+00   2.724176e-02
  8.123427e-01    1.657161e+00   2.706131e-02
  8.145532e-01    1.652412e+00   2.697628e-02
  8.167636e-01    1.652064e+00   2.692808e-02
  8.189741e-01    1.634938e+00   2.674348e-02
  8.211845e-01    1.653863e+00   2.685274e-02
  8.233950e-01    1.650288e+00   2.678009e-02
  8.256054e-01    1.642907e+00   2.667584e-02
  8.278159e-01    1.636000e+00   2.657575e-02
  8.300264e-01    1.671207e+00   2.681668e-02
  8.322368e-01    1.650012e+00   2.660282e-02
  8.344473e-01    1.677874e+00   2.678258e-02
  8.366577e-01    1.733345e+00   2.717792e-02
  8.388682e-01    1.791304e+00   2.758441e-02
  8.410786e-01    1.809665e+00   2.768124e-02
  8.432891e-01    1.690518e+00   2.671199e-02
  8.454996e-01    1.662722e+00   2.644951e-02
  8.477100e-01    1.678023e+00   2.652877e-02
  8.499205e-01    1.689004e+00   2.657364e-02
  8.521309e-01    1.652669e+00   2.624526e-02
  8.543414e-01    1.626226e+00   2.599383e-02
  8.565518e-01    1.635512e+00   2.602736e-02
  8.587623e-01    1.627074e+00   2.591970e-02
  8.609727e-01    1.635939e+00   2.594992e-02
  8.631832e-01    1.656021e+00   2.606845e-02
  8.653937e-01    1.681142e+00   2.622508e-02
  8.676041e-01    1.653159e+00   2.596667e-02
  8.698146e-01    1.628930e+00   2.573626e-02
  8.720250e-01    1.628236e+00   2.569157e-02
  8.742355e-01    1.612877e+00   2.553119e-02
  8.764459e-01    1.621023e+00   2.555653e-02
  8.786564e-01    1.610316e+00   2.543402e-02
  8.808669e-01    1.636652e+00   2.560227e-02
  8.830773e-01    1.639163e+00   2.558336e-02
  8.852878e-01    1.606029e+00   2.528549e-02
  8.874982e-01    1.600536e+00   2.520557e-02
  8.897087e-01    1.582994e+00   2.502961e-02
  8.919191e-01    1.563733e+00   2.483953e-02
  8.941296e-01    1.612922e+00   2.518975e-02
  8.963401e-01    1.609771e+00   2.512862e-02
  8.985505e-01    1.624467e+00   2.520580e-02
  9.007610e-01    1.600055e+00   2.497896e-02
  9.029714e-01    1.595684e+00   2.490901e-02
  9.051819e-01    1.589101e+00   2.482050e-02
  9.073923e-01    1.607884e+00   2.493008e-02
  9.096028e-01    1.594245e+00   2.478927e-02
  9.118132e-01    1.617787e+00   2.493521e-02
  9.140237e-01    1.595438e+00   2.472580e-02
  9.162342e-01    1.651874e+00   2.512419e-02
  9.184446e-01    1.630788e+00   2.492726e-02
  9.206551e-01    1.620806e+00   2.481500e-02
  9.228655e-01    1.630207e+00   2.485130e-02
  9.250760e-01    1.627710e+00   2.479662e-02
  9.272864e-01    1.664762e+00   2.504234e-02
  9.294969e-01    1.655876e+00   2.493902e-02
  9.317074e-01    1.662000e+00   2.494978e-02
  9.339178e-01    1.660313e+00   2.490307e-02
  9.361283e-01    1.646761e+00   2.476467e-02
  9.383387e-01    1.660826e+00   2.483636e-02
  9.405492e-01    1.631509e+00   2.458181e-02
  9.427596e-01    1.647384e+00   2.466555e-02
  9.449701e-01    1.665200e+00   2.476486e-02
  9.471805e-01    1.692447e+00   2.493130e-02
  9.493910e-01    1.680146e+00   2.480644e-02
  9.516015e-01    1.701087e+00   2.492570e-02
  9.538119e-01    1.716233e+00   2.500211e-02
  9.560224e-01    1.715250e+00   2.495978e-02
  9.582328e-01    1.726562e+00   2.500834e-02
  9.604433e-01    1.740141e+00   2.507095e-02
  9.626537e-01    1.755264e+00   2.514577e-02
  9.648642e-01    1.791567e+00   2.536971e-02
  9.670747e-01    1.764022e+00   2.513920e-02
  9.692851e-01    1.800064e+00   2.536096e-02
  9.714956e-01    1.818583e+00   2.545515e-02
  9.737060e-01    1.804479e+00   2.532295e-02
  9.759165e-01    1.823413e+00   2.541954e-02
  9.781269e-01    1.825320e+00   2.539959e-02
  9.803374e-01    1.803581e+00   2.521294e-02
  9.825478e-01    1.809484e+00   2.522086e-02
  9.847583e-01    1.816908e+00   2.523823e-02
  9.869688e-01    1.777853e+00   2.493209e-02
  9.891792e-01    1.790009e+00   2.498392e-02
  9.913897e-01    1.779332e+00   2.487570e-02
  9.936001e-01    1.733842e+00   2.452350e-02
  9.958106e-01    1.742096e+00   2.454841e-02
  9.980210e-01    1.671733e+00   2.401633e-02
  1.000231e+00    1.644631e+00   2.395136e-02
  1.002442e+00    1.638681e+00   2.403500e-02
  1.004652e+00    1.629047e+00   2.403112e-02
  1.006863e+00    1.614060e+00   2.396995e-02
  1.009073e+00    1.592693e+00   2.384721e-02
  1.011284e+00    1.555633e+00   2.359963e-02
  1.013494e+00    1.558101e+00   2.364177e-02
  1.015705e+00    1.555944e+00   2.364772e-02
  1.017915e+00    1.570589e+00   2.377512e-02
  1.020126e+00    1.567344e+00   2.376662e-02
  1.022336e+00    1.538523e+00   2.355867e-02
  1.024547e+00    1.561981e+00   2.374885e-02
  1.026757e+00    1.562243e+00   2.375927e-02
  1.028967e+00    1.525713e+00   2.348747e-02
  1.031178e+00    1.527446e+00   2.350695e-02
  1.033388e+00    1.529206e+00   2.352554e-02
  1.035599e+00    1.537721e+00   2.359437e-02
  1.037809e+00    1.564550e+00   2.380264e-02
  1.040020e+00    1.539871e+00   2.361543e-02
  1.042230e+00    1.545120e+00   2.365759e-02
  1.044441e+00    1.563654e+00   2.379883e-02
  1.046651e+00    1.571118e+00   2.385574e-02
  1.048862e+00    1.591759e+00   2.401113e-02
  1.051072e+00    1.533892e+00   2.356829e-02
  1.053282e+00    1.473597e+00   2.309945e-02
  1.055493e+00    1.497586e+00   2.328238e-02
  1.057703e+00    1.529719e+00   2.352932e-02
  1.059914e+00    1.516771e+00   2.342524e-02
  1.062124e+00    1.495923e+00   2.325962e-02
  1.064335e+00    1.517452e+00   2.342291e-02
  1.066545e+00    1.543217e+00   2.361482e-02
  1.068756e+00    1.578593e+00   2.388007e-02
  1.070966e+00    1.746936e+00   2.511396e-02
  1.073177e+00    2.036959e+00   2.711154e-02
  1.075387e+00    2.122798e+00   2.767069e-02
  1.077597e+00    1.871238e+00   2.597137e-02
  1.079808e+00    1.596868e+00   2.385323e-02
  1.082018e+00    1.576939e+00   2.350755e-02
  1.084229e+00    1.522432e+00   2.298541e-02
  1.086439e+00    1.457772e+00   2.240445e-02
  1.088650e+00    1.466300e+00   2.239392e-02
  1.090860e+00    1.430750e+00   2.205371e-02
  1.093071e+00    1.412168e+00   2.184867e-02
  1.095281e+00    1.406453e+00   2.174794e-02
  1.097492e+00    1.411312e+00   2.173122e-02
  1.099702e+00    1.400238e+00   2.159512e-02
  1.101912e+00    1.419510e+00   2.169473e-02
  1.104123e+00    1.407324e+00   2.155365e-02
  1.106333e+00    1.423555e+00   2.163331e-02
  1.108544e+00    1.426502e+00   2.161149e-02
  1.110754e+00    1.413557e+00   2.147039e-02
  1.112965e+00    1.395888e+00   2.129561e-02
  1.115175e+00    1.398465e+00   2.127440e-02
  1.117386e+00    1.402902e+00   2.126903e-02
  1.119596e+00    1.372199e+00   2.099767e-02
  1.121807e+00    1.376311e+00   2.099075e-02
  1.124017e+00    1.376300e+00   2.095442e-02
  1.126228e+00    1.386599e+00   2.099713e-02
  1.128438e+00    1.420573e+00   2.121581e-02
  1.130648e+00    1.389427e+00   2.094775e-02
  1.132859e+00    1.402887e+00   2.101451e-02
  1.135069e+00    1.430447e+00   2.118474e-02
  1.137280e+00    1.380227e+00   2.077669e-02
  1.139490e+00    1.349729e+00   2.051322e-02
  1.141701e+00    1.381491e+00   2.072009e-02
  1.143911e+00    1.371768e+00   2.061534e-02
  1.146122e+00    1.357207e+00   2.047387e-02
  1.148332e+00    1.384888e+00   2.064968e-02
  1.150543e+00    1.357736e+00   2.041564e-02
  1.152753e+00    1.371620e+00   2.048896e-02
  1.154963e+00    1.370830e+00   2.045205e-02
  1.157174e+00    1.386563e+00   2.053876e-02
  1.159384e+00    1.407760e+00   2.066493e-02
  1.161595e+00    1.451207e+00   2.095067e-02
  1.163805e+00    1.468306e+00   2.104343e-02
  1.166016e+00    1.467745e+00   2.100894e-02
  1.168226e+00    1.562184e+00   2.164328e-02
  1.170437e+00    1.642886e+00   2.216394e-02
  1.172647e+00    1.543661e+00   2.145354e-02
  1.174858e+00    1.462804e+00   2.085497e-02
  1.177068e+00    1.438687e+00   2.065331e-02
  1.179278e+00    1.461661e+00   2.078793e-02
  1.181489e+00    1.461867e+00   2.076140e-02
  1.183699e+00    1.455841e+00   2.069005e-02
  1.185910e+00    1.412483e+00   2.035129e-02
  1.188120e+00    1.390644e+00   2.016632e-02
  1.190331e+00    1.354950e+00   1.987908e-02
  1.192541e+00    1.361876e+00   1.990235e-02
  1.194752e+00    1.376413e+00   1.998102e-02
  1.196962e+00    1.351278e+00   1.977200e-02
  1.199173e+00    1.337026e+00   1.964108e-02
  1.201383e+00    1.370279e+00   1.985645e-02
  1.203593e+00    1.383005e+00   1.992334e-02
  1.205804e+00    1.360250e+00   1.973273e-02
  1.208014e+00    1.345428e+00   1.959813e-02
  1.210225e+00    1.358508e+00   1.966774e-02
  1.212435e+00    1.358982e+00   1.964633e-02
  1.214646e+00    1.350259e+00   1.955704e-02
  1.216856e+00    1.368558e+00   1.966347e-02
  1.219067e+00    1.353471e+00   1.953030e-02
  1.221277e+00    1.348777e+00   1.947136e-02
  1.223488e+00    1.362332e+00   1.954314e-02
  1.225698e+00    1.317753e+00   1.919411e-02
  1.227909e+00    1.365085e+00   1.950546e-02
  1.230119e+00    1.399246e+00   1.971555e-02
  1.232329e+00    1.450817e+00   2.004377e-02
  1.234540e+00    1.455419e+00   2.004411e-02
  1.236750e+00    1.386109e+00   1.953036e-02
  1.238961e+00    1.338703e+00   1.916660e-02
  1.241171e+00    1.350652e+00   1.922774e-02
  1.243382e+00    1.357237e+00   1.925100e-02
  1.245592e+00    1.352631e+00   1.919418e-02
  1.247803e+00    1.347035e+00   1.913081e-02
  1.250013e+00    1.367448e+00   1.925150e-02
  1.252224e+00    1.357825e+00   1.916036e-02
  1.254434e+00    1.344356e+00   1.904137e-02
  1.256644e+00    1.347366e+00   1.903950e-02
  1.258855e+00    1.345376e+00   1.900221e-02
  1.261065e+00    1.349704e+00   1.900938e-02
  1.263276e+00    1.350215e+00   1.899004e-02
  1.265486e+00    1.342458e+00   1.891260e-02
  1.267697e+00    1.333930e+00   1.882954e-02
  1.269907e+00    1.335820e+00   1.882031e-02
  1.272118e+00    1.317467e+00   1.866827e-02
  1.274328e+00    1.328651e+00   1.872478e-02
  1.276539e+00    1.325660e+00   1.868112e-02
  1.278749e+00    1.331866e+00   1.870265e-02
  1.280959e+00    1.334149e+00   1.869628e-02
  1.283170e+00    1.330695e+00   1.864979e-02
  1.285380e+00    1.344660e+00   1.872499e-02
  1.287591e+00    1.351639e+00   1.875147e-02
  1.289801e+00    1.367912e+00   1.884264e-02
  1.292012e+00    1.367677e+00   1.882384e-02
  1.294222e+00    1.362045e+00   1.876872e-02
  1.296433e+00    1.336141e+00   1.857387e-02
  1.298643e+00    1.333913e+00   1.854200e-02
  1.300854e+00    1.353016e+00   1.865786e-02
  1.303064e+00    1.394111e+00   1.891955e-02
  1.305274e+00    1.379806e+00   1.880057e-02
  1.307485e+00    1.393761e+00   1.887350e-02
  1.309695e+00    1.408977e+00   1.895355e-02
  1.311906e+00    1.362789e+00   1.861848e-02
  1.314116e+00    1.360327e+00   1.858078e-02
  1.316327e+00    1.334688e+00   1.838328e-02
  1.318537e+00    1.321337e+00   1.826945e-02
  1.320748e+00    1.347459e+00   1.842760e-02
  1.322958e+00    1.377190e+00   1.860909e-02
  1.325169e+00    1.357054e+00   1.845146e-02
  1.327379e+00    1.387037e+00   1.863207e-02
  1.329589e+00    1.382097e+00   1.857756e-02
  1.331800e+00    1.392088e+00   1.862356e-02
  1.334010e+00    1.372103e+00   1.846859e-02
  1.336221e+00    1.346717e+00   1.827520e-02
  1.338431e+00    1.342782e+00   1.822768e-02
  1.340642e+00    1.329315e+00   1.819970e-02
  1.342852e+00    1.353237e+00   1.846354e-02
  1.345063e+00    1.343956e+00   1.844947e-02
  1.347273e+00    1.361354e+00   1.860391e-02
  1.349484e+00    1.347050e+00   1.853357e-02
  1.351694e+00    1.383644e+00   1.880659e-02
  1.353905e+00    1.396252e+00   1.891040e-02
  1.356115e+00    1.363433e+00   1.870196e-02
  1.358325e+00    1.306717e+00   1.832195e-02
  1.360536e+00    1.356209e+00   1.867732e-02
  1.362746e+00    1.340888e+00   1.858109e-02
  1.364957e+00    1.311450e+00   1.838353e-02
  1.367167e+00    1.332817e+00   1.853979e-02
  1.369378e+00    1.339371e+00   1.859133e-02
  1.371588e+00    1.343614e+00   1.862589e-02
  1.373799e+00    1.339356e+00   1.860001e-02
  1.376009e+00    1.349084e+00   1.867086e-02
  1.378220e+00    1.334014e+00   1.856881e-02
  1.380430e+00    1.314114e+00   1.843249e-02
  1.382640e+00    1.291054e+00   1.827094e-02
  1.384851e+00    1.288608e+00   1.825448e-02
  1.387061e+00    1.284978e+00   1.822904e-02
  1.389272e+00    1.295658e+00   1.830485e-02
  1.391482e+00    1.291695e+00   1.827616e-02
  1.393693e+00    1.318308e+00   1.846258e-02
  1.395903e+00    1.296987e+00   1.831119e-02
  1.398114e+00    1.284968e+00   1.822476e-02
  1.400324e+00    1.258457e+00   1.803367e-02
  1.402535e+00    1.250901e+00   1.797715e-02
  1.404745e+00    1.255513e+00   1.800792e-02
  1.406955e+00    1.255395e+00   1.800439e-02
  1.409166e+00    1.269598e+00   1.810266e-02
  1.411376e+00    1.276825e+00   1.815097e-02
  1.413587e+00    1.286257e+00   1.821405e-02
  1.415797e+00    1.275850e+00   1.813668e-02
  1.418008e+00    1.296142e+00   1.823803e-02
  1.420218e+00    1.275244e+00   1.794038e-02
  1.422429e+00    1.262903e+00   1.776827e-02
  1.424639e+00    1.285963e+00   1.786468e-02
  1.426850e+00    1.276972e+00   1.774726e-02
  1.429060e+00    1.276218e+00   1.769293e-02
  1.431270e+00    1.268087e+00   1.759219e-02
  1.433481e+00    1.270214e+00   1.756597e-02
  1.435691e+00    1.304310e+00   1.776123e-02
  1.437902e+00    1.301976e+00   1.770842e-02
  1.440112e+00    1.279562e+00   1.751984e-02
  1.442323e+00    1.289079e+00   1.755160e-02
  1.444533e+00    1.268848e+00   1.738077e-02
  1.446744e+00    1.284823e+00   1.745853e-02
  1.448954e+00    1.275722e+00   1.736633e-02
  1.451165e+00    1.259403e+00   1.722528e-02
  1.453375e+00    1.257587e+00   1.718494e-02
  1.455586e+00    1.266826e+00   1.721981e-02
  1.457796e+00    1.274261e+00   1.724273e-02
  1.460006e+00    1.278161e+00   1.724175e-02
  1.462217e+00    1.252581e+00   1.704229e-02
  1.464427e+00    1.269803e+00   1.713345e-02
  1.466638e+00    1.291425e+00   1.725315e-02
  1.468848e+00    1.289622e+00   1.721560e-02
  1.471059e+00    1.258715e+00   1.698305e-02
  1.473269e+00    1.254220e+00   1.692845e-02
  1.475480e+00    1.277056e+00   1.705804e-02
  1.477690e+00    1.260843e+00   1.692565e-02
  1.479901e+00    1.257769e+00   1.688126e-02
  1.482111e+00    1.254604e+00   1.683680e-02
  1.484321e+00    1.270831e+00   1.692216e-02
  1.486532e+00    1.268607e+00   1.688502e-02
  1.488742e+00    1.271817e+00   1.688365e-02
  1.490953e+00    1.281677e+00   1.692621e-02
  1.493163e+00    1.282196e+00   1.690718e-02
  1.495374e+00    1.292723e+00   1.695472e-02
  1.497584e+00    1.294620e+00   1.694520e-02
  1.499795e+00    1.298268e+00   1.694711e-02
  1.502005e+00    1.288725e+00   1.686277e-02
  1.504216e+00    1.277319e+00   1.676681e-02
  1.506426e+00    1.256185e+00   1.660672e-02
  1.508636e+00    1.257826e+00   1.659710e-02
  1.510847e+00    1.271478e+00   1.666498e-02
  1.513057e+00    1.275945e+00   1.666895e-02
  1.515268e+00    1.273942e+00   1.662994e-02
  1.517478e+00    1.286155e+00   1.668399e-02
  1.519689e+00    1.278339e+00   1.660804e-02
  1.521899e+00    1.270399e+00   1.653310e-02
  1.524110e+00    1.274194e+00   1.653727e-02
  1.526320e+00    1.259685e+00   1.642322e-02
  1.528531e+00    1.252408e+00   1.635593e-02
  1.530741e+00    1.260115e+00   1.638694e-02
  1.532951e+00    1.268299e+00   1.642036e-02
  1.535162e+00    1.241456e+00   1.633198e-02
  1.537372e+00    1.234253e+00   1.635103e-02
  1.539583e+00    1.232931e+00   1.637628e-02
  1.541793e+00    1.243304e+00   1.645198e-02
  1.544004e+00    1.234552e+00   1.639423e-02
  1.546214e+00    1.232851e+00   1.638142e-02
  1.548425e+00    1.261960e+00   1.657394e-02
  1.550635e+00    1.302536e+00   1.684820e-02
  1.552846e+00    1.269470e+00   1.664273e-02
  1.555056e+00    1.254599e+00   1.650332e-02
  1.557266e+00    1.231979e+00   1.624397e-02
  1.559477e+00    1.243331e+00   1.625953e-02
  1.561687e+00    1.267339e+00   1.638482e-02
  1.563898e+00    1.265309e+00   1.635439e-02
  1.566108e+00    1.278104e+00   1.642069e-02
  1.568319e+00    1.303882e+00   1.656947e-02
  1.570529e+00    1.307735e+00   1.656818e-02
  1.572740e+00    1.282058e+00   1.637669e-02
  1.574950e+00    1.264857e+00   1.623993e-02
  1.577161e+00    1.257801e+00   1.616896e-02
  1.579371e+00    1.240945e+00   1.603661e-02
  1.581582e+00    1.259171e+00   1.613406e-02
  1.583792e+00    1.270767e+00   1.618998e-02
  1.586002e+00    1.234728e+00   1.594121e-02
  1.588213e+00    1.219342e+00   1.582450e-02
  1.590423e+00    1.258376e+00   1.605560e-02
  1.592634e+00    1.252344e+00   1.599539e-02
  1.594844e+00    1.239877e+00   1.589421e-02
  1.597055e+00    1.235748e+00   1.584728e-02
  1.599265e+00    1.231588e+00   1.579994e-02
  1.601476e+00    1.222645e+00   1.572232e-02
  1.603686e+00    1.233119e+00   1.576981e-02
  1.605897e+00    1.207925e+00   1.558798e-02
  1.608107e+00    1.207237e+00   1.556420e-02
  1.610317e+00    1.223912e+00   1.565214e-02
  1.612528e+00    1.205780e+00   1.551681e-02
  1.614738e+00    1.203471e+00   1.548322e-02
  1.616949e+00    1.184888e+00   1.534456e-02
  1.619159e+00    1.203347e+00   1.544504e-02
  1.621370e+00    1.221222e+00   1.554087e-02
  1.623580e+00    1.205582e+00   1.542277e-02
  1.625791e+00    1.189107e+00   1.529892e-02
  1.628001e+00    1.174138e+00   1.518427e-02
  1.630212e+00    1.167518e+00   1.512383e-02
  1.632422e+00    1.189041e+00   1.524469e-02
  1.634632e+00    1.170764e+00   1.510984e-02
  1.636843e+00    1.179473e+00   1.514838e-02
  1.639053e+00    1.154165e+00   1.496784e-02
  1.641264e+00    1.171684e+00   1.506389e-02
  1.643474e+00    1.166494e+00   1.501307e-02
  1.645685e+00    1.159793e+00   1.495323e-02
  1.647895e+00    1.143669e+00   1.483239e-02
  1.650106e+00    1.145221e+00   1.482550e-02
  1.652316e+00    1.114829e+00   1.461122e-02
  1.654527e+00    1.118083e+00   1.461605e-02
  1.656737e+00    1.105401e+00   1.451655e-02
  1.658947e+00    1.104310e+00   1.449334e-02
  1.661158e+00    1.098935e+00   1.444193e-02
  1.663368e+00    1.102386e+00   1.444874e-02
  1.665579e+00    1.101257e+00   1.442531e-02
  1.667789e+00    1.087471e+00   1.431871e-02
  1.670000e+00    1.073205e+00   1.420928e-02
  1.672210e+00    1.064790e+00   1.413789e-02
  1.674421e+00    1.070329e+00   1.415953e-02
  1.676631e+00    1.060828e+00   1.408097e-02
  1.678842e+00    1.062643e+00   1.407749e-02
  1.681052e+00    1.086692e+00   1.422057e-02
  1.683263e+00    1.077836e+00   1.414746e-02
  1.685473e+00    1.074966e+00   1.411353e-02
  1.687683e+00    1.077225e+00   1.411297e-02
  1.689894e+00    1.072446e+00   1.406593e-02
  1.692104e+00    1.052103e+00   1.391713e-02
  1.694315e+00    1.082348e+00   1.410117e-02
  1.696525e+00    1.127643e+00   1.437765e-02
  1.698736e+00    1.117224e+00   1.429591e-02
  1.700946e+00    1.069572e+00   1.397250e-02
  1.703157e+00    1.066164e+00   1.393552e-02
  1.705367e+00    1.052321e+00   1.383026e-02
  1.707578e+00    1.043458e+00   1.375737e-02
  1.709788e+00    1.018289e+00   1.357650e-02
  1.711998e+00    1.033576e+00   1.366308e-02
  1.714209e+00    1.008749e+00   1.348377e-02
  1.716419e+00    1.003996e+00   1.343790e-02
  1.718630e+00    1.010025e+00   1.346406e-02
  1.720840e+00    1.016959e+00   1.349611e-02
  1.723051e+00    1.006910e+00   1.341552e-02
  1.725261e+00    9.863231e-01   1.326323e-02
  1.727472e+00    1.019603e+00   1.347094e-02
  1.729682e+00    9.982311e-01   1.331569e-02
  1.731893e+00    9.755473e-01   1.314985e-02
  1.734103e+00    1.028982e+00   1.349125e-02
  1.736313e+00    1.064338e+00   1.370667e-02
  1.738524e+00    1.079970e+00   1.379262e-02
  1.740734e+00    1.042349e+00   1.353628e-02
  1.742945e+00    1.029431e+00   1.343843e-02
  1.745155e+00    1.035126e+00   1.346184e-02
  1.747366e+00    1.037202e+00   1.346116e-02
  1.749576e+00    9.993618e-01   1.319959e-02
  1.751787e+00    9.805873e-01   1.306168e-02
  1.753997e+00    9.958947e-01   1.314974e-02
  1.756208e+00    9.871992e-01   1.307891e-02
  1.758418e+00    9.789065e-01   1.301072e-02
  1.760628e+00    9.616724e-01   1.288238e-02
  1.762839e+00    9.440291e-01   1.275059e-02
  1.765049e+00    9.348010e-01   1.267517e-02
  1.767260e+00    9.607948e-01   1.283738e-02
  1.769470e+00    9.328683e-01   1.263661e-02
  1.771681e+00    9.383702e-01   1.266076e-02
  1.773891e+00    9.374027e-01   1.264129e-02
  1.776102e+00    9.210747e-01   1.251801e-02
  1.778312e+00    9.292853e-01   1.256105e-02
  1.780523e+00    9.389252e-01   1.261332e-02
  1.782733e+00    9.482887e-01   1.266331e-02
  1.784944e+00    9.337314e-01   1.255287e-02
  1.787154e+00    9.065104e-01   1.235617e-02
  1.789364e+00    9.287513e-01   1.249436e-02
  1.791575e+00    9.461135e-01   1.259793e-02
  1.793785e+00    1.002907e+00   1.295758e-02
  1.795996e+00    1.096524e+00   1.353521e-02
  1.798206e+00    1.218699e+00   1.425494e-02
  1.800417e+00    1.174735e+00   1.398119e-02
  1.802627e+00    9.697983e-01   1.269093e-02
  1.804838e+00    9.738124e-01   1.270462e-02
  1.807048e+00    9.804546e-01   1.273452e-02
  1.809259e+00    1.017314e+00   1.295729e-02
  1.811469e+00    1.025321e+00   1.299229e-02
  1.813679e+00    9.624817e-01   1.257238e-02
  1.815890e+00    9.127327e-01   1.222828e-02
  1.818100e+00    9.071157e-01   1.217539e-02
  1.820311e+00    8.875333e-01   1.202855e-02
  1.822521e+00    8.787022e-01   1.195379e-02
  1.824732e+00    8.769025e-01   1.192685e-02
  1.826942e+00    8.620726e-01   1.181340e-02
  1.829153e+00    8.750182e-01   1.189014e-02
  1.831363e+00    8.801647e-01   1.191306e-02
  1.833574e+00    9.342194e-01   1.226135e-02
  1.835784e+00    9.811434e-01   1.255350e-02
  1.837994e+00    9.229438e-01   1.216349e-02
  1.840205e+00    8.747147e-01   1.183022e-02
  1.842415e+00    8.751563e-01   1.182142e-02
  1.844626e+00    8.608341e-01   1.171279e-02
  1.846836e+00    8.555649e-01   1.166556e-02
  1.849047e+00    8.516743e-01   1.162748e-02
  1.851257e+00    8.396432e-01   1.153562e-02
  1.853468e+00    8.512266e-01   1.160617e-02
  1.855678e+00    8.413728e-01   1.153002e-02
  1.857889e+00    8.531230e-01   1.160178e-02
  1.860099e+00    8.367343e-01   1.148128e-02
  1.862309e+00    8.426819e-01   1.151356e-02
  1.864520e+00    8.399856e-01   1.148664e-02
  1.866730e+00    8.626387e-01   1.163106e-02
  1.868941e+00    8.704386e-01   1.167249e-02
  1.871151e+00    8.479596e-01   1.150941e-02
  1.873362e+00    8.539401e-01   1.153856e-02
  1.875572e+00    8.425980e-01   1.145077e-02
  1.877783e+00    8.449971e-01   1.145564e-02
  1.879993e+00    8.736666e-01   1.163704e-02
  1.882204e+00    8.666872e-01   1.157944e-02
  1.884414e+00    8.473545e-01   1.143845e-02
  1.886624e+00    8.559457e-01   1.148515e-02
  1.888835e+00    8.435645e-01   1.139079e-02
  1.891045e+00    8.370427e-01   1.133581e-02
  1.893256e+00    8.301783e-01   1.127820e-02
  1.895466e+00    8.251572e-01   1.123295e-02
  1.897677e+00    8.206197e-01   1.119119e-02
  1.899887e+00    8.318995e-01   1.125688e-02
  1.902098e+00    8.403205e-01   1.130282e-02
  1.904308e+00    8.150634e-01   1.112119e-02
  1.906519e+00    8.195475e-01   1.114094e-02
  1.908729e+00    8.365274e-01   1.124513e-02
  1.910940e+00    8.214874e-01   1.113249e-02
  1.913150e+00    8.093469e-01   1.103945e-02
  1.915360e+00    8.179252e-01   1.108720e-02
  1.917571e+00    8.481393e-01   1.127908e-02
  1.919781e+00    8.682922e-01   1.140132e-02
  1.921992e+00    8.641426e-01   1.136315e-02
  1.924202e+00    8.362870e-01   1.116764e-02
  1.926413e+00    8.233989e-01   1.107089e-02
  1.928623e+00    8.081411e-01   1.095732e-02
  1.930834e+00    8.306025e-01   1.109802e-02
  1.933044e+00    7.964061e-01   1.085661e-02
  1.935255e+00    7.862651e-01   1.077707e-02
  1.937465e+00    8.038135e-01   1.088631e-02
  1.939675e+00    7.843965e-01   1.074334e-02
  1.941886e+00    7.851999e-01   1.073867e-02
  1.944096e+00    7.864715e-01   1.073729e-02
  1.946307e+00    7.829778e-01   1.070319e-02
  1.948517e+00    8.139285e-01   1.090215e-02
  1.950728e+00    8.069884e-01   1.084528e-02
  1.952938e+00    8.032093e-01   1.080974e-02
  1.955149e+00    7.931338e-01   1.073150e-02
  1.957359e+00    7.904021e-01   1.070300e-02
  1.959570e+00    7.836058e-01   1.064610e-02
  1.961780e+00    7.737195e-01   1.056892e-02
  1.963990e+00    7.746443e-01   1.056524e-02
  1.966201e+00    7.891193e-01   1.065343e-02
  1.968411e+00    7.850212e-01   1.061562e-02
  1.970622e+00    7.770864e-01   1.055181e-02
  1.972832e+00    7.767351e-01   1.053951e-02
  1.975043e+00    8.008952e-01   1.069203e-02
  1.977253e+00    7.990422e-01   1.066964e-02
  1.979464e+00    7.843946e-01   1.056133e-02
  1.981674e+00    7.864437e-01   1.056485e-02
  1.983885e+00    7.752873e-01   1.047966e-02
  1.986095e+00    7.625390e-01   1.038355e-02
  1.988305e+00    7.760375e-01   1.046517e-02
  1.990516e+00    7.731063e-01   1.043552e-02
  1.992726e+00    7.496110e-01   1.026623e-02
  1.994937e+00    7.498541e-01   1.025793e-02
  1.997147e+00    7.804610e-01   1.045542e-02
  1.999358e+00    7.889501e-01   1.050222e-02
  2.001568e+00    7.619951e-01   1.031051e-02
  2.003779e+00    7.493883e-01   1.021312e-02
  2.005989e+00    7.623219e-01   1.028892e-02
  2.008200e+00    7.664481e-01   1.030523e-02
  2.010410e+00    7.792251e-01   1.037896e-02
  2.012621e+00    7.598496e-01   1.023748e-02
  2.014831e+00    7.484068e-01   1.014876e-02
  2.017041e+00    7.389100e-01   1.007399e-02
  2.019252e+00    7.489705e-01   1.013246e-02
  2.021462e+00    7.577366e-01   1.018214e-02
  2.023673e+00    7.596920e-01   1.018590e-02
  2.025883e+00    7.728987e-01   1.026448e-02
  2.028094e+00    7.666731e-01   1.021339e-02
  2.030304e+00    7.655196e-01   1.019615e-02
  2.032515e+00    7.564638e-01   1.012638e-02
  2.034725e+00    7.604312e-01   1.014345e-02
  2.036936e+00    7.650465e-01   1.016480e-02
  2.039146e+00    7.806908e-01   1.025849e-02
  2.041356e+00    7.776051e-01   1.022843e-02
  2.043567e+00    7.586842e-01   1.009390e-02
  2.045777e+00    7.526093e-01   1.004417e-02
  2.047988e+00    7.514434e-01   1.002702e-02
  2.050198e+00    7.817636e-01   1.021873e-02
  2.052409e+00    7.671025e-01   1.011474e-02
  2.054619e+00    7.633244e-01   1.008238e-02
  2.056830e+00    7.311249e-01   9.860346e-03
  2.059040e+00    7.392292e-01   9.907387e-03
  2.061251e+00    7.504352e-01   9.974943e-03
  2.063461e+00    7.585267e-01   1.002093e-02
  2.065671e+00    7.461262e-01   9.930003e-03
  2.067882e+00    7.385362e-01   9.870401e-03
  2.070092e+00    7.438629e-01   9.896760e-03
  2.072303e+00    7.550718e-01   9.961867e-03
  2.074513e+00    7.347569e-01   9.817684e-03
  2.076724e+00    7.510199e-01   9.916222e-03
  2.078934e+00    7.507671e-01   9.905527e-03
  2.081145e+00    7.336453e-01   9.782888e-03
  2.083355e+00    7.394639e-01   9.812457e-03
  2.085566e+00    7.270323e-01   9.720792e-03
  2.087776e+00    7.400541e-01   9.797933e-03
  2.089986e+00    7.526063e-01   9.871843e-03
  2.092197e+00    7.276641e-01   9.697971e-03
  2.094407e+00    7.293246e-01   9.699838e-03
  2.096618e+00    7.235941e-01   9.652836e-03
  2.098828e+00    7.264682e-01   9.662721e-03
  2.101039e+00    7.224933e-01   9.627350e-03
  2.103249e+00    7.056965e-01   9.506253e-03
  2.105460e+00    7.260428e-01   9.633321e-03
  2.107670e+00    7.154409e-01   9.554088e-03
  2.109881e+00    7.047690e-01   9.473535e-03
  2.112091e+00    7.165716e-01   9.543600e-03
  2.114301e+00    7.164640e-01   9.534153e-03
  2.116512e+00    6.947480e-01   9.379941e-03
  2.118722e+00    7.081949e-01   9.461524e-03
  2.120933e+00    7.309107e-01   9.603144e-03
  2.123143e+00    7.294302e-01   9.584446e-03
  2.125354e+00    7.172994e-01   9.495899e-03
  2.127564e+00    7.048622e-01   9.404550e-03
  2.129775e+00    7.012672e-01   9.371888e-03
  2.131985e+00    7.171983e-01   9.468661e-03
  2.134196e+00    7.184821e-01   9.468537e-03
  2.136406e+00    6.989044e-01   9.329960e-03
  2.138617e+00    7.163812e-01   9.437410e-03
  2.140827e+00    7.234284e-01   9.499933e-03
  2.143037e+00    7.134119e-01   9.479622e-03
  2.145248e+00    7.165183e-01   9.522401e-03
  2.147458e+00    7.053488e-01   9.463057e-03
  2.149669e+00    6.938916e-01   9.397639e-03
  2.151879e+00    6.944634e-01   9.410691e-03
  2.154090e+00    7.006770e-01   9.460007e-03
  2.156300e+00    7.117740e-01   9.541283e-03
  2.158511e+00    6.908956e-01   9.405584e-03
  2.160721e+00    6.960071e-01   9.445101e-03
  2.162932e+00    6.932155e-01   9.429892e-03
  2.165142e+00    6.991876e-01   9.473424e-03
  2.167352e+00    6.999080e-01   9.481247e-03
  2.169563e+00    6.940868e-01   9.443681e-03
  2.171773e+00    6.849012e-01   9.383415e-03
  2.173984e+00    7.079905e-01   9.541672e-03
  2.176194e+00    7.106663e-01   9.560935e-03
  2.178405e+00    7.026104e-01   9.507288e-03
  2.180615e+00    6.963938e-01   9.465820e-03
  2.182826e+00    6.828229e-01   9.373797e-03
  2.185036e+00    6.890876e-01   9.416761e-03
  2.187247e+00    6.961017e-01   9.464510e-03
  2.189457e+00    6.695354e-01   9.281758e-03
  2.191667e+00    6.825582e-01   9.371391e-03
  2.193878e+00    7.016488e-01   9.500991e-03
  2.196088e+00    6.846514e-01   9.384520e-03
  2.198299e+00    6.819826e-01   9.365126e-03
  2.200509e+00    6.893858e-01   9.414740e-03
  2.202720e+00    6.945139e-01   9.448548e-03
  2.204930e+00    6.807001e-01   9.352880e-03
  2.207141e+00    6.677094e-01   9.262073e-03
  2.209351e+00    6.828105e-01   9.364355e-03
  2.211562e+00    6.841946e-01   9.372195e-03
  2.213772e+00    6.918082e-01   9.368129e-03
  2.215982e+00    6.587711e-01   9.098066e-03
  2.218193e+00    6.560230e-01   9.049854e-03
  2.220403e+00    6.646530e-01   9.084777e-03
  2.222614e+00    6.718111e-01   9.112663e-03
  2.224824e+00    6.866469e-01   9.193141e-03
  2.227035e+00    6.966473e-01   9.242114e-03
  2.229245e+00    6.842168e-01   9.142157e-03
  2.231456e+00    6.822269e-01   9.113120e-03
  2.233666e+00    6.579022e-01   8.934239e-03
  2.235877e+00    6.553934e-01   8.903065e-03
  2.238087e+00    6.775169e-01   9.038527e-03
  2.240298e+00    6.698285e-01   8.973337e-03
  2.242508e+00    6.666763e-01   8.937088e-03
  2.244718e+00    6.719545e-01   8.956545e-03
  2.246929e+00    6.823570e-01   9.011046e-03
  2.249139e+00    6.731449e-01   8.937573e-03
  2.251350e+00    6.632536e-01   8.859992e-03
  2.253560e+00    6.704581e-01   8.896367e-03
  2.255771e+00    6.889942e-01   9.006911e-03
  2.257981e+00    7.011114e-01   9.074294e-03
  2.260192e+00    6.852006e-01   8.959464e-03
  2.262402e+00    6.882099e-01   8.968057e-03
  2.264613e+00    7.130406e-01   9.117168e-03
  2.266823e+00    7.013602e-01   9.031519e-03
  2.269033e+00    6.994557e-01   9.008576e-03
  2.271244e+00    7.129109e-01   9.084007e-03
  2.273454e+00    7.509549e-01   9.312326e-03
  2.275665e+00    7.760196e-01   9.455297e-03
  2.277875e+00    7.486894e-01   9.276781e-03
  2.280086e+00    7.087236e-01   9.015376e-03
  2.282296e+00    6.793297e-01   8.816877e-03
  2.284507e+00    6.538782e-01   8.640044e-03
  2.286717e+00    6.525495e-01   8.621827e-03
  2.288928e+00    6.420990e-01   8.542758e-03
  2.291138e+00    6.540206e-01   8.612286e-03
  2.293348e+00    6.572900e-01   8.624237e-03
  2.295559e+00    6.520176e-01   8.580301e-03
  2.297769e+00    6.429239e-01   8.511074e-03
  2.299980e+00    6.687025e-01   8.670582e-03
  2.302190e+00    6.542458e-01   8.567240e-03
  2.304401e+00    6.432302e-01   8.485528e-03
  2.306611e+00    6.549347e-01   8.553177e-03
  2.308822e+00    6.526591e-01   8.529897e-03
  2.311032e+00    6.600091e-01   8.571301e-03
  2.313243e+00    6.736559e-01   8.653062e-03
  2.315453e+00    6.739216e-01   8.647087e-03
  2.317663e+00    6.453844e-01   8.452894e-03
  2.319874e+00    6.425827e-01   8.425828e-03
  2.322084e+00    6.474725e-01   8.448847e-03
  2.324295e+00    6.554393e-01   8.492375e-03
  2.326505e+00    6.551628e-01   8.481450e-03
  2.328716e+00    6.614773e-01   8.513575e-03
  2.330926e+00    6.528917e-01   8.449262e-03
  2.333137e+00    6.419138e-01   8.369573e-03
  2.335347e+00    6.429633e-01   8.367516e-03
  2.337558e+00    6.453815e-01   8.374986e-03
  2.339768e+00    6.201181e-01   8.200986e-03
  2.341979e+00    6.306445e-01   8.261976e-03
  2.344189e+00    6.425959e-01   8.331470e-03
  2.346399e+00    6.478838e-01   8.357109e-03
  2.348610e+00    6.426238e-01   8.314622e-03
  2.350820e+00    6.276190e-01   8.208839e-03
  2.353031e+00    6.287592e-01   8.208038e-03
  2.355241e+00    6.323443e-01   8.223363e-03
  2.357452e+00    6.273932e-01   8.182714e-03
  2.359662e+00    6.295264e-01   8.188398e-03
  2.361873e+00    6.313737e-01   8.192183e-03
  2.364083e+00    6.283031e-01   8.164237e-03
  2.366294e+00    6.255754e-01   8.138417e-03
  2.368504e+00    6.173797e-01   8.076902e-03
  2.370714e+00    6.308233e-01   8.156275e-03
  2.372925e+00    6.357166e-01   8.179735e-03
  2.375135e+00    6.298680e-01   8.133928e-03
  2.377346e+00    6.320488e-01   8.140009e-03
  2.379556e+00    6.193865e-01   8.050170e-03
  2.381767e+00    6.173454e-01   8.029069e-03
  2.383977e+00    6.206228e-01   8.042406e-03
  2.386188e+00    6.202999e-01   8.032396e-03
  2.388398e+00    6.311831e-01   8.094525e-03
  2.390609e+00    6.185118e-01   8.005125e-03
  2.392819e+00    6.134837e-01   7.964763e-03
  2.395029e+00    6.073212e-01   7.917049e-03
  2.397240e+00    6.195371e-01   7.988373e-03
  2.399450e+00    6.171770e-01   7.965313e-03
  2.401661e+00    6.121317e-01   7.925015e-03
  2.403871e+00    6.156957e-01   7.940258e-03
  2.406082e+00    6.029282e-01   7.850112e-03
  2.408292e+00    5.999741e-01   7.823122e-03
  2.410503e+00    6.043900e-01   7.844401e-03
  2.412713e+00    6.184356e-01   7.927143e-03
  2.414924e+00    6.290987e-01   7.987576e-03
  2.417134e+00    6.219710e-01   7.934466e-03
  2.419344e+00    6.037126e-01   7.809716e-03
  2.421555e+00    6.070053e-01   7.823437e-03
  2.423765e+00    6.080140e-01   7.822497e-03
  2.425976e+00    5.925079e-01   7.714334e-03
  2.428186e+00    6.052307e-01   7.789464e-03
  2.430397e+00    6.012980e-01   7.756612e-03
  2.432607e+00    5.845004e-01   7.640306e-03
  2.434818e+00    5.888596e-01   7.661218e-03
  2.437028e+00    5.863269e-01   7.637640e-03
  2.439239e+00    5.931334e-01   7.674179e-03
  2.441449e+00    5.874318e-01   7.630056e-03
  2.443659e+00    5.810321e-01   7.581075e-03
  2.445870e+00    5.876259e-01   7.636204e-03
  2.448080e+00    5.731206e-01   7.575874e-03
  2.450291e+00    5.746621e-01   7.602633e-03
  2.452501e+00    5.730483e-01   7.603074e-03
  2.454712e+00    5.646832e-01   7.555746e-03
  2.456922e+00    5.809942e-01   7.670773e-03
  2.459133e+00    5.658386e-01   7.575490e-03
  2.461343e+00    5.759231e-01   7.647067e-03
  2.463554e+00    5.750445e-01   7.644753e-03
  2.465764e+00    5.764447e-01   7.657228e-03
  2.467975e+00    5.694201e-01   7.612734e-03
  2.470185e+00    5.518301e-01   7.496476e-03
  2.472395e+00    5.472869e-01   7.466746e-03
  2.474606e+00    5.468453e-01   7.465300e-03
  2.476816e+00    5.602743e-01   7.557125e-03
  2.479027e+00    5.569310e-01   7.535433e-03
  2.481237e+00    5.551330e-01   7.523519e-03
  2.483448e+00    5.419807e-01   7.434168e-03
  2.485658e+00    5.389178e-01   7.412989e-03
  2.487869e+00    5.457736e-01   7.460014e-03
  2.490079e+00    5.454991e-01   7.457627e-03
  2.492290e+00    5.554754e-01   7.525076e-03
  2.494500e+00    5.437738e-01   7.444657e-03
  2.496710e+00    5.469485e-01   7.465653e-03
  2.498921e+00    5.415218e-01   7.427529e-03
  2.501131e+00    5.328435e-01   7.366830e-03
  2.503342e+00    5.333560e-01   7.369092e-03
  2.505552e+00    5.340317e-01   7.372636e-03
  2.507763e+00    5.187820e-01   7.265210e-03
  2.509973e+00    5.188673e-01   7.264415e-03
  2.512184e+00    5.297926e-01   7.338887e-03
  2.514394e+00    5.109854e-01   7.198225e-03
  2.516605e+00    5.277290e-01   7.268084e-03
  2.518815e+00    5.341133e-01   7.283368e-03
  2.521025e+00    5.420648e-01   7.316111e-03
  2.523236e+00    5.198996e-01   7.147088e-03
  2.525446e+00    5.303818e-01   7.203071e-03
  2.527657e+00    5.434986e-01   7.276767e-03
  2.529867e+00    5.411522e-01   7.246637e-03
  2.532078e+00    5.348998e-01   7.189486e-03
  2.534288e+00    5.154873e-01   7.044059e-03
  2.536499e+00    5.312128e-01   7.138653e-03
  2.538709e+00    5.339376e-01   7.145871e-03
  2.540920e+00    5.206687e-01   7.045911e-03
  2.543130e+00    5.230662e-01   7.051738e-03
  2.545340e+00    5.340306e-01   7.115107e-03
  2.547551e+00    5.319565e-01   7.091268e-03
  2.549761e+00    5.152622e-01   6.969575e-03
  2.551972e+00    5.301585e-01   7.060180e-03
  2.554182e+00    5.224804e-01   6.999684e-03
  2.556393e+00    5.197579e-01   6.972344e-03
  2.558603e+00    5.028496e-01   6.849074e-03
  2.560814e+00    5.141057e-01   6.916641e-03
  2.563024e+00    5.175307e-01   6.931088e-03
  2.565235e+00    5.189695e-01   6.931205e-03
  2.567445e+00    5.221781e-01   6.943013e-03
  2.569656e+00    5.185471e-01   6.909106e-03
  2.571866e+00    5.058212e-01   6.814519e-03
  2.574076e+00    5.221095e-01   6.914066e-03
  2.576287e+00    5.293671e-01   6.953518e-03
  2.578497e+00    5.322546e-01   6.964506e-03
  2.580708e+00    5.101777e-01   6.810491e-03
  2.582918e+00    5.062613e-01   6.776595e-03
  2.585129e+00    5.065908e-01   6.771121e-03
  2.587339e+00    5.060836e-01   6.760091e-03
  2.589550e+00    5.145692e-01   6.808980e-03
  2.591760e+00    5.142088e-01   6.798832e-03
  2.593971e+00    5.141262e-01   6.790749e-03
  2.596181e+00    5.142303e-01   6.785200e-03
  2.598391e+00    5.082944e-01   6.740754e-03
  2.600602e+00    5.098965e-01   6.745432e-03
  2.602812e+00    5.033567e-01   6.694572e-03
  2.605023e+00    5.084898e-01   6.721420e-03
  2.607233e+00    5.207484e-01   6.794744e-03
  2.609444e+00    5.169339e-01   6.762533e-03
  2.611654e+00    5.078019e-01   6.695181e-03
  2.613865e+00    5.236878e-01   6.791948e-03
  2.616075e+00    5.001083e-01   6.630207e-03
  2.618286e+00    5.114583e-01   6.697952e-03
  2.620496e+00    5.076186e-01   6.666078e-03
  2.622706e+00    4.978797e-01   6.596096e-03
  2.624917e+00    5.127909e-01   6.688253e-03
  2.627127e+00    5.048651e-01   6.630630e-03
  2.629338e+00    5.080034e-01   6.645177e-03
  2.631548e+00    5.354428e-01   6.815936e-03
  2.633759e+00    5.119855e-01   6.657764e-03
  2.635969e+00    5.029342e-01   6.591946e-03
  2.638180e+00    4.935648e-01   6.523325e-03
  2.640390e+00    5.030156e-01   6.578864e-03
  2.642601e+00    5.028441e-01   6.571069e-03
  2.644811e+00    5.010879e-01   6.552506e-03
  2.647021e+00    5.015408e-01   6.548875e-03
  2.649232e+00    5.200484e-01   6.661763e-03
  2.651442e+00    4.992762e-01   6.520881e-03
  2.653653e+00    5.076275e-01   6.568315e-03
  2.655863e+00    5.053189e-01   6.546644e-03
  2.658074e+00    5.000842e-01   6.506024e-03
  2.660284e+00    5.034199e-01   6.521279e-03
  2.662495e+00    5.054076e-01   6.527348e-03
  2.664705e+00    5.035676e-01   6.508833e-03
  2.666916e+00    5.121859e-01   6.557728e-03
  2.669126e+00    5.100487e-01   6.537492e-03
  2.671337e+00    5.068158e-01   6.510084e-03
  2.673547e+00    5.021878e-01   6.473867e-03
  2.675757e+00    4.881120e-01   6.376089e-03
  2.677968e+00    4.978071e-01   6.432544e-03
  2.680178e+00    5.068964e-01   6.484522e-03
  2.682389e+00    4.991165e-01   6.428141e-03
  2.684599e+00    4.868813e-01   6.342716e-03
  2.686810e+00    4.938487e-01   6.381307e-03
  2.689020e+00    4.956906e-01   6.386888e-03
  2.691231e+00    5.013033e-01   6.416587e-03
  2.693441e+00    4.940584e-01   6.363886e-03
  2.695652e+00    4.929536e-01   6.350241e-03
  2.697862e+00    4.835000e-01   6.282744e-03
  2.700072e+00    5.001051e-01   6.383563e-03
  2.702283e+00    4.992937e-01   6.372124e-03
  2.704493e+00    4.916393e-01   6.316783e-03
  2.706704e+00    4.834240e-01   6.257404e-03
  2.708914e+00    4.890724e-01   6.287886e-03
  2.711125e+00    4.843314e-01   6.251107e-03
  2.713335e+00    4.942968e-01   6.308952e-03
  2.715546e+00    4.912850e-01   6.283229e-03
  2.717756e+00    4.720350e-01   6.153100e-03
  2.719967e+00    4.763203e-01   6.174811e-03
  2.722177e+00    4.808123e-01   6.197760e-03
  2.724387e+00    4.808535e-01   6.191955e-03
  2.726598e+00    4.864742e-01   6.221973e-03
  2.728808e+00    4.864385e-01   6.215590e-03
  2.731019e+00    4.759747e-01   6.142308e-03
  2.733229e+00    4.778810e-01   6.148819e-03
  2.735440e+00    4.853120e-01   6.190175e-03
  2.737650e+00    4.835359e-01   6.172817e-03
  2.739861e+00    4.870171e-01   6.188904e-03
  2.742071e+00    4.764475e-01   6.115670e-03
  2.744282e+00    4.854029e-01   6.166621e-03
  2.746492e+00    4.776522e-01   6.111186e-03
  2.748702e+00    4.788001e-01   6.112632e-03
  2.750913e+00    4.791166e-01   6.108876e-03
  2.753123e+00    4.877578e-01   6.157558e-03
  2.755334e+00    4.865700e-01   6.143955e-03
  2.757544e+00    4.815547e-01   6.106462e-03
  2.759755e+00    4.721567e-01   6.040745e-03
  2.761965e+00    4.875128e-01   6.132163e-03
  2.764176e+00    4.767521e-01   6.058158e-03
  2.766386e+00    4.813073e-01   6.081195e-03
  2.768597e+00    4.960665e-01   6.167810e-03
  2.770807e+00    4.791916e-01   6.056099e-03
  2.773017e+00    4.704362e-01   5.994599e-03
  2.775228e+00    4.780521e-01   6.037157e-03
  2.777438e+00    4.772803e-01   6.026478e-03
  2.779649e+00    4.885049e-01   6.090967e-03
  2.781859e+00    4.822953e-01   6.046352e-03
  2.784070e+00    4.760555e-01   6.001249e-03
  2.786280e+00    4.830216e-01   6.039200e-03
  2.788491e+00    4.788515e-01   6.007229e-03
  2.790701e+00    4.670620e-01   5.927226e-03
  2.792912e+00    4.800048e-01   6.002790e-03
  2.795122e+00    4.865398e-01   6.037734e-03
  2.797333e+00    4.709415e-01   5.934629e-03
  2.799543e+00    4.735720e-01   5.945323e-03
  2.801753e+00    4.792864e-01   5.975216e-03
  2.803964e+00    4.710932e-01   5.918274e-03
  2.806174e+00    4.765608e-01   5.946368e-03
  2.808385e+00    4.626069e-01   5.851960e-03
  2.810595e+00    4.713694e-01   5.900277e-03
  2.812806e+00    4.787359e-01   5.939562e-03
  2.815016e+00    4.686934e-01   5.872228e-03
  2.817227e+00    4.690120e-01   5.899997e-03
  2.819437e+00    4.894702e-01   6.038569e-03
  2.821648e+00    4.583719e-01   5.845866e-03
  2.823858e+00    4.750544e-01   5.956615e-03
  2.826068e+00    4.687640e-01   5.922027e-03
  2.828279e+00    4.670014e-01   5.914891e-03
  2.830489e+00    4.691606e-01   5.931867e-03
  2.832700e+00    4.666274e-01   5.918372e-03
  2.834910e+00    4.713558e-01   5.950356e-03
  2.837121e+00    4.797566e-01   6.004870e-03
  2.839331e+00    4.722578e-01   5.958984e-03
  2.841542e+00    4.776495e-01   5.993936e-03
  2.843752e+00    4.670513e-01   5.927846e-03
  2.845963e+00    4.681499e-01   5.935207e-03
  2.848173e+00    4.658612e-01   5.920758e-03
  2.850383e+00    4.773154e-01   5.993400e-03
  2.852594e+00    4.742661e-01   5.974165e-03
  2.854804e+00    4.586433e-01   5.874439e-03
  2.857015e+00    4.753053e-01   5.979738e-03
  2.859225e+00    4.682577e-01   5.935010e-03
  2.861436e+00    4.664698e-01   5.923006e-03
  2.863646e+00    4.702795e-01   5.947174e-03
  2.865857e+00    4.695947e-01   5.943194e-03
  2.868067e+00    4.669279e-01   5.926518e-03
  2.870278e+00    4.642199e-01   5.908945e-03
  2.872488e+00    4.742657e-01   5.971365e-03
  2.874698e+00    4.711637e-01   5.950762e-03
  2.876909e+00    4.444146e-01   5.778086e-03
  2.879119e+00    4.463533e-01   5.789058e-03
  2.881330e+00    4.572294e-01   5.857694e-03
  2.883540e+00    4.723422e-01   5.952327e-03
  2.885751e+00    4.678318e-01   5.922185e-03
  2.887961e+00    4.547459e-01   5.836907e-03
  2.890172e+00    4.579467e-01   5.855798e-03
  2.892382e+00    4.719979e-01   5.943133e-03
  2.894593e+00    4.674526e-01   5.912629e-03
  2.896803e+00    4.725667e-01   5.942882e-03
  2.899014e+00    4.481900e-01   5.785694e-03
  2.901224e+00    4.455214e-01   5.766471e-03
  2.903434e+00    4.607058e-01   5.861961e-03
  2.905645e+00    4.600883e-01   5.855825e-03
  2.907855e+00    4.585404e-01   5.843859e-03
  2.910066e+00    4.563505e-01   5.827820e-03
  2.912276e+00    4.533800e-01   5.806695e-03
  2.914487e+00    4.638832e-01   5.871130e-03
  2.916697e+00    4.440882e-01   5.742296e-03
  2.918908e+00    4.552789e-01   5.812188e-03
  2.921118e+00    4.546572e-01   5.805545e-03
  2.923329e+00    4.468779e-01   5.753382e-03
  2.925539e+00    4.503489e-01   5.773398e-03
  2.927749e+00    4.757741e-01   5.931776e-03
  2.929960e+00    4.954783e-01   6.050477e-03
  2.932170e+00    4.886659e-01   6.006354e-03
  2.934381e+00    4.720904e-01   5.901115e-03
  2.936591e+00    4.552000e-01   5.792025e-03
  2.938802e+00    4.476232e-01   5.740912e-03
  2.941012e+00    4.586155e-01   5.808637e-03
  2.943223e+00    4.612100e-01   5.822329e-03
  2.945433e+00    4.645627e-01   5.839696e-03
  2.947644e+00    4.621744e-01   5.820491e-03
  2.949854e+00    4.534123e-01   5.760794e-03
  2.952064e+00    4.538894e-01   5.759611e-03
  2.954275e+00    4.508200e-01   5.735709e-03
  2.956485e+00    4.561320e-01   5.765191e-03
  2.958696e+00    4.670351e-01   5.829278e-03
  2.960906e+00    4.633372e-01   5.801937e-03
  2.963117e+00    4.590183e-01   5.770322e-03
  2.965327e+00    4.524924e-01   5.725265e-03
  2.967538e+00    4.540810e-01   5.732385e-03
  2.969748e+00    4.574308e-01   5.750677e-03
  2.971959e+00    4.489370e-01   5.693904e-03
  2.974169e+00    4.693616e-01   5.819372e-03
  2.976379e+00    4.541324e-01   5.721268e-03
  2.978590e+00    4.522144e-01   5.706045e-03
  2.980800e+00    4.564951e-01   5.730189e-03
  2.983011e+00    4.429773e-01   5.641920e-03
  2.985221e+00    4.606601e-01   5.750262e-03
  2.987432e+00    4.572256e-01   5.725680e-03
  2.989642e+00    4.508890e-01   5.683235e-03
  2.991853e+00    4.569446e-01   5.717990e-03
  2.994063e+00    4.421081e-01   5.621526e-03
  2.996274e+00    4.364408e-01   5.582253e-03
  2.998484e+00    4.527144e-01   5.682664e-03
  3.000694e+00    4.617717e-01   5.735764e-03
  3.002905e+00    4.563431e-01   5.698991e-03
  3.005115e+00    4.686825e-01   5.772494e-03
  3.007326e+00    4.583415e-01   5.705308e-03
  3.009536e+00    4.635516e-01   5.734323e-03
  3.011747e+00    4.588207e-01   5.702076e-03
  3.013957e+00    4.496581e-01   5.641673e-03
  3.016168e+00    4.563404e-01   5.680179e-03
  3.018378e+00    4.539395e-01   5.662154e-03
  3.020589e+00    4.596678e-01   5.694541e-03
  3.022799e+00    4.471191e-01   5.613141e-03
  3.025010e+00    4.516732e-01   5.638396e-03
  3.027220e+00    4.577587e-01   5.673139e-03
  3.029430e+00    4.527929e-01   5.639043e-03
  3.031641e+00    4.558393e-01   5.654806e-03
  3.033851e+00    4.534940e-01   5.636751e-03
  3.036062e+00    4.441902e-01   5.575844e-03
  3.038272e+00    4.454574e-01   5.580259e-03
  3.040483e+00    4.433113e-01   5.563589e-03
  3.042693e+00    4.627290e-01   5.680826e-03
  3.044904e+00    4.588258e-01   5.652777e-03
  3.047114e+00    4.491030e-01   5.587757e-03
  3.049325e+00    4.554481e-01   5.622672e-03
  3.051535e+00    4.419953e-01   5.534667e-03
  3.053745e+00    4.525314e-01   5.595473e-03
  3.055956e+00    4.605927e-01   5.640474e-03
  3.058166e+00    4.519920e-01   5.583301e-03
  3.060377e+00    4.514665e-01   5.575271e-03
  3.062587e+00    4.517516e-01   5.572396e-03
  3.064798e+00    4.366615e-01   5.474343e-03
  3.067008e+00    4.469173e-01   5.533535e-03
  3.069219e+00    4.605467e-01   5.612718e-03
  3.071429e+00    4.583104e-01   5.595534e-03
  3.073640e+00    4.534879e-01   5.562675e-03
  3.075850e+00    4.562934e-01   5.576226e-03
  3.078060e+00    4.539683e-01   5.558893e-03
  3.080271e+00    4.446101e-01   5.497846e-03
  3.082481e+00    4.424106e-01   5.480789e-03
  3.084692e+00    4.536529e-01   5.546599e-03
  3.086902e+00    4.499562e-01   5.520714e-03
  3.089113e+00    4.396946e-01   5.453854e-03
  3.091323e+00    4.480312e-01   5.501931e-03
  3.093534e+00    4.513084e-01   5.518653e-03
  3.095744e+00    4.474383e-01   5.491550e-03
  3.097955e+00    4.469018e-01   5.484707e-03
  3.100165e+00    4.495951e-01   5.497877e-03
  3.102375e+00    4.607856e-01   5.562407e-03
  3.104586e+00    4.361089e-01   5.407972e-03
  3.106796e+00    4.339348e-01   5.390986e-03
  3.109007e+00    4.516977e-01   5.496982e-03
  3.111217e+00    4.409456e-01   5.427505e-03
  3.113428e+00    4.433720e-01   5.439009e-03
  3.115638e+00    4.395784e-01   5.412461e-03
  3.117849e+00    4.471186e-01   5.454973e-03
  3.120059e+00    4.482679e-01   5.458491e-03
  3.122270e+00    4.565937e-01   5.505642e-03
  3.124480e+00    4.681834e-01   5.571310e-03
  3.126691e+00    4.596207e-01   5.516511e-03
  3.128901e+00    4.533112e-01   5.475358e-03
  3.131111e+00    4.468928e-01   5.432610e-03
  3.133322e+00    4.603175e-01   5.510091e-03
  3.135532e+00    4.444805e-01   5.411080e-03
  3.137743e+00    4.389037e-01   5.373558e-03
  3.139953e+00    4.508566e-01   5.442525e-03
  3.142164e+00    4.474683e-01   5.434117e-03
  3.144374e+00    4.489653e-01   5.471819e-03
  3.146585e+00    4.447000e-01   5.460354e-03
  3.148795e+00    4.403793e-01   5.444515e-03
  3.151006e+00    4.443182e-01   5.477396e-03
  3.153216e+00    4.466248e-01   5.498752e-03
  3.155426e+00    4.463297e-01   5.503291e-03
  3.157637e+00    4.363541e-01   5.446943e-03
  3.159847e+00    4.281642e-01   5.400393e-03
  3.162058e+00    4.345064e-01   5.444629e-03
  3.164268e+00    4.476748e-01   5.530613e-03
  3.166479e+00    4.401260e-01   5.487468e-03
  3.168689e+00    4.402313e-01   5.491467e-03
  3.170900e+00    4.387634e-01   5.485493e-03
  3.173110e+00    4.336624e-01   5.456357e-03
  3.175321e+00    4.386865e-01   5.490363e-03
  3.177531e+00    4.338859e-01   5.462977e-03
  3.179741e+00    4.158107e-01   5.350008e-03
  3.181952e+00    4.149623e-01   5.346572e-03
  3.184162e+00    4.286933e-01   5.436494e-03
  3.186373e+00    4.335092e-01   5.468528e-03
  3.188583e+00    4.433317e-01   5.531939e-03
  3.190794e+00    4.419063e-01   5.524823e-03
  3.193004e+00    4.292078e-01   5.446084e-03
  3.195215e+00    4.228602e-01   5.407132e-03
  3.197425e+00    4.373370e-01   5.500137e-03
  3.199636e+00    4.338416e-01   5.477352e-03
  3.201846e+00    4.294655e-01   5.449047e-03
  3.204056e+00    4.243002e-01   5.417050e-03
  3.206267e+00    4.399983e-01   5.517213e-03
  3.208477e+00    4.390708e-01   5.512303e-03
  3.210688e+00    4.550416e-01   5.612554e-03
  3.212898e+00    4.366737e-01   5.498694e-03
  3.215109e+00    4.248725e-01   5.424617e-03
  3.217319e+00    4.274070e-01   5.441403e-03
  3.219530e+00    4.310038e-01   5.464640e-03
  3.221740e+00    4.305230e-01   5.462161e-03
  3.223951e+00    4.270600e-01   5.440617e-03
  3.226161e+00    4.237889e-01   5.419915e-03
  3.228372e+00    4.339761e-01   5.485217e-03
  3.230582e+00    4.236329e-01   5.419601e-03
  3.232792e+00    4.148136e-01   5.363096e-03
  3.235003e+00    4.148023e-01   5.363275e-03
  3.237213e+00    4.117121e-01   5.343348e-03
  3.239424e+00    4.336715e-01   5.483990e-03
  3.241634e+00    4.268414e-01   5.440772e-03
  3.243845e+00    4.273542e-01   5.444103e-03
  3.246055e+00    4.272353e-01   5.443081e-03
  3.248266e+00    4.283473e-01   5.450354e-03
  3.250476e+00    4.306737e-01   5.464849e-03
  3.252687e+00    4.213368e-01   5.405184e-03
  3.254897e+00    4.284245e-01   5.450344e-03
  3.257107e+00    4.175844e-01   5.380647e-03
  3.259318e+00    4.156018e-01   5.367619e-03
  3.261528e+00    4.170458e-01   5.376799e-03
  3.263739e+00    4.225562e-01   5.411646e-03
  3.265949e+00    4.246952e-01   5.425206e-03
  3.268160e+00    4.357820e-01   5.495129e-03
  3.270370e+00    4.385948e-01   5.512337e-03
  3.272581e+00    4.404044e-01   5.523405e-03
  3.274791e+00    4.234907e-01   5.415804e-03
  3.277002e+00    4.191532e-01   5.387407e-03
  3.279212e+00    4.288909e-01   5.449245e-03
  3.281422e+00    4.330668e-01   5.475139e-03
  3.283633e+00    4.284595e-01   5.445244e-03
  3.285843e+00    4.174061e-01   5.374223e-03
  3.288054e+00    4.326902e-01   5.470777e-03
  3.290264e+00    4.349924e-01   5.484997e-03
  3.292475e+00    4.303411e-01   5.454744e-03
  3.294685e+00    4.403611e-01   5.517247e-03
  3.296896e+00    4.296485e-01   5.448957e-03
  3.299106e+00    4.364367e-01   5.491280e-03
  3.301317e+00    4.266441e-01   5.428287e-03
  3.303527e+00    4.187395e-01   5.377314e-03
  3.305737e+00    4.355791e-01   5.483276e-03
  3.307948e+00    4.581301e-01   5.622751e-03
  3.310158e+00    4.530856e-01   5.590846e-03
  3.312369e+00    4.298812e-01   5.444906e-03
  3.314579e+00    4.224895e-01   5.396958e-03
  3.316790e+00    4.417993e-01   5.518208e-03
  3.319000e+00    4.284008e-01   5.432686e-03
  3.321211e+00    4.258535e-01   5.415921e-03
  3.323421e+00    4.178020e-01   5.363252e-03
  3.325632e+00    4.295683e-01   5.437372e-03
  3.327842e+00    4.309098e-01   5.444916e-03
  3.330052e+00    4.280795e-01   5.425937e-03
  3.332263e+00    4.389549e-01   5.493389e-03
  3.334473e+00    4.354892e-01   5.470748e-03
  3.336684e+00    4.159463e-01   5.345322e-03
  3.338894e+00    4.110079e-01   5.312662e-03
  3.341105e+00    4.041525e-01   5.266991e-03
  3.343315e+00    4.162455e-01   5.344055e-03
  3.345526e+00    4.155186e-01   5.338502e-03
  3.347736e+00    4.199421e-01   5.365444e-03
  3.349947e+00    4.247704e-01   5.395250e-03
  3.352157e+00    4.386512e-01   5.481493e-03
  3.354368e+00    4.205179e-01   5.365737e-03
  3.356578e+00    4.270020e-01   5.405874e-03
  3.358788e+00    4.248335e-01   5.390813e-03
  3.360999e+00    4.211551e-01   5.366173e-03
  3.363209e+00    4.309125e-01   5.426934e-03
  3.365420e+00    4.198548e-01   5.355341e-03
  3.367630e+00    4.323623e-01   5.433496e-03
  3.369841e+00    4.140781e-01   5.315949e-03
  3.372051e+00    4.082093e-01   5.276179e-03
  3.374262e+00    4.091222e-01   5.279659e-03
  3.376472e+00    4.147598e-01   5.313445e-03
  3.378683e+00    4.218273e-01   5.356028e-03
  3.380893e+00    4.195599e-01   5.339287e-03
  3.383103e+00    4.034750e-01   5.233237e-03
  3.385314e+00    4.155832e-01   5.308961e-03
  3.387524e+00    4.146817e-01   5.300472e-03
  3.389735e+00    4.091932e-01   5.262664e-03
  3.391945e+00    4.227546e-01   5.345443e-03
  3.394156e+00    4.066931e-01   5.238731e-03
  3.396366e+00    4.197501e-01   5.318711e-03
  3.398577e+00    4.036915e-01   5.212980e-03
  3.400787e+00    3.941376e-01   5.162580e-03
  3.402998e+00    4.008236e-01   5.243799e-03
  3.405208e+00    3.987204e-01   5.250539e-03
  3.407418e+00    3.984129e-01   5.264243e-03
  3.409629e+00    3.991883e-01   5.283289e-03
  3.411839e+00    3.732507e-01   5.120146e-03
  3.414050e+00    3.961917e-01   5.286121e-03
  3.416260e+00    3.868827e-01   5.233226e-03
  3.418471e+00    3.958906e-01   5.303205e-03
  3.420681e+00    3.909298e-01   5.278389e-03
  3.422892e+00    3.796080e-01   5.209252e-03
  3.425102e+00    4.008124e-01   5.360698e-03
  3.427313e+00    3.897929e-01   5.293703e-03
  3.429523e+00    3.899056e-01   5.301539e-03
  3.431733e+00    3.922976e-01   5.324517e-03
  3.433944e+00    3.952160e-01   5.350852e-03
  3.436154e+00    3.885121e-01   5.311558e-03
  3.438365e+00    3.922518e-01   5.343071e-03
  3.440575e+00    3.770297e-01   5.244289e-03
  3.442786e+00    3.736300e-01   5.226138e-03
  3.444996e+00    3.667417e-01   5.183194e-03
  3.447207e+00    3.651558e-01   5.177134e-03
  3.449417e+00    3.816777e-01   5.334386e-03
  3.451628e+00    3.732629e-01   5.304836e-03
  3.453838e+00    3.658649e-01   5.273163e-03
  3.456049e+00    3.540545e-01   5.210790e-03
  3.458259e+00    3.664399e-01   5.323085e-03
  3.460469e+00    3.595610e-01   5.292481e-03
  3.462680e+00    3.737188e-01   5.414945e-03
  3.464890e+00    3.672394e-01   5.385596e-03
  3.467101e+00    3.832712e-01   5.519726e-03
  3.469311e+00    3.937502e-01   5.611748e-03
  3.471522e+00    3.932861e-01   5.625245e-03
  3.473732e+00    3.887417e-01   5.608816e-03
  3.475943e+00    3.936129e-01   5.659763e-03
  3.478153e+00    4.039246e-01   5.749168e-03
  3.480364e+00    4.114595e-01   5.818032e-03
  3.482574e+00    4.063045e-01   5.796885e-03
  3.484784e+00    4.098194e-01   5.836736e-03
  3.486995e+00    4.417148e-01   6.075156e-03
  3.489205e+00    4.419476e-01   6.091794e-03
  3.491416e+00    4.339841e-01   6.051659e-03
  3.493626e+00    4.421152e-01   6.122824e-03
  3.495837e+00    4.479072e-01   6.177663e-03
  3.498047e+00    4.405503e-01   6.141161e-03
  3.500258e+00    4.504699e-01   6.224445e-03
  3.502468e+00    4.545946e-01   6.267335e-03
  3.504679e+00    4.755501e-01   6.424821e-03
  3.506889e+00    4.866191e-01   6.513959e-03
  3.509099e+00    5.103327e-01   6.685734e-03
  3.511310e+00    4.875398e-01   6.549383e-03
  3.513520e+00    4.808179e-01   6.518466e-03
  3.515731e+00    4.916322e-01   6.605803e-03
  3.517941e+00    5.007627e-01   6.681381e-03
  3.520152e+00    5.042685e-01   6.719191e-03
  3.522362e+00    5.026571e-01   6.722952e-03
  3.524573e+00    5.188348e-01   6.844740e-03
  3.526783e+00    5.322288e-01   6.946163e-03
  3.528994e+00    5.276914e-01   6.928890e-03
  3.531204e+00    5.179288e-01   6.876866e-03
  3.533414e+00    5.334058e-01   6.991055e-03
  3.535625e+00    5.182243e-01   6.903105e-03
  3.537835e+00    5.357834e-01   7.031190e-03
  3.540046e+00    5.417341e-01   7.079164e-03
  3.542256e+00    5.395917e-01   7.072677e-03
  3.544467e+00    5.549820e-01   7.180609e-03
  3.546677e+00    5.595075e-01   7.217556e-03
  3.548888e+00    5.380445e-01   7.085300e-03
  3.551098e+00    5.389325e-01   7.098439e-03
  3.553309e+00    5.460215e-01   7.153208e-03
  3.555519e+00    5.390694e-01   7.118872e-03
  3.557729e+00    5.409185e-01   7.142809e-03
  3.559940e+00    5.496935e-01   7.212236e-03
  3.562150e+00    5.497453e-01   7.224435e-03
  3.564361e+00    5.420637e-01   7.187173e-03
  3.566571e+00    5.371694e-01   7.168486e-03
  3.568782e+00    5.448416e-01   7.233758e-03
  3.570992e+00    5.364842e-01   7.191796e-03
  3.573203e+00    5.290274e-01   7.155722e-03
  3.575413e+00    5.523471e-01   7.325688e-03
  3.577624e+00    5.352738e-01   7.225711e-03
  3.579834e+00    5.368388e-01   7.250151e-03
  3.582045e+00    5.380974e-01   7.272721e-03
  3.584255e+00    5.265577e-01   7.208231e-03
  3.586465e+00    5.373449e-01   7.295623e-03
  3.588676e+00    5.341406e-01   7.288049e-03
  3.590886e+00    5.394654e-01   7.337993e-03
  3.593097e+00    5.453863e-01   7.392824e-03
  3.595307e+00    5.324411e-01   7.318424e-03
  3.597518e+00    5.400784e-01   7.385004e-03
  3.599728e+00    5.346870e-01   7.362134e-03
  3.601939e+00    5.396731e-01   7.410496e-03
  3.604149e+00    5.389678e-01   7.420097e-03
  3.606360e+00    5.382069e-01   7.429057e-03
  3.608570e+00    5.392200e-01   7.450235e-03
  3.610780e+00    5.547326e-01   7.567929e-03
  3.612991e+00    5.445826e-01   7.508476e-03
  3.615201e+00    5.295836e-01   7.414096e-03
  3.617412e+00    5.455301e-01   7.532220e-03
  3.619622e+00    5.336922e-01   7.456047e-03
  3.621833e+00    5.206105e-01   7.370684e-03
  3.624043e+00    5.312842e-01   7.455343e-03
  3.626254e+00    5.356064e-01   7.495326e-03
  3.628464e+00    5.253429e-01   7.434040e-03
  3.630675e+00    5.404732e-01   7.554555e-03
  3.632885e+00    5.386088e-01   7.555996e-03
  3.635095e+00    5.581238e-01   7.706408e-03
  3.637306e+00    5.334604e-01   7.548588e-03
  3.639516e+00    5.355211e-01   7.577709e-03
  3.641727e+00    5.392603e-01   7.618773e-03
  3.643937e+00    5.322312e-01   7.583467e-03
  3.646148e+00    5.269363e-01   7.560172e-03
  3.648358e+00    5.418992e-01   7.681772e-03
  3.650569e+00    5.284095e-01   7.600234e-03
  3.652779e+00    5.272184e-01   7.606327e-03
  3.654990e+00    5.422848e-01   7.729275e-03
  3.657200e+00    5.507479e-01   7.804511e-03
  3.659410e+00    5.527447e-01   7.833896e-03
  3.661621e+00    5.394042e-01   7.754011e-03
  3.663831e+00    5.380500e-01   7.759458e-03
  3.666042e+00    5.449640e-01   7.824526e-03
  3.668252e+00    5.352360e-01   7.769663e-03
  3.670463e+00    5.395598e-01   7.816327e-03
  3.672673e+00    5.446752e-01   7.868926e-03
  3.674884e+00    5.354437e-01   7.817414e-03
  3.677094e+00    5.304158e-01   7.796151e-03
  3.679305e+00    5.471579e-01   7.934012e-03
  3.681515e+00    5.247443e-01   7.785391e-03
  3.683726e+00    5.190058e-01   7.758304e-03
  3.685936e+00    5.340415e-01   7.885663e-03
  3.688146e+00    5.249084e-01   7.833683e-03
  3.690357e+00    5.296739e-01   7.885151e-03
  3.692567e+00    5.200189e-01   7.828934e-03
  3.694778e+00    5.458616e-01   8.037474e-03
  3.696988e+00    5.276206e-01   7.918050e-03
  3.699199e+00    5.319325e-01   7.966678e-03
  3.701409e+00    5.461254e-01   8.088935e-03
  3.703620e+00    5.309375e-01   7.992117e-03
  3.705830e+00    5.309751e-01   8.008895e-03
  3.708041e+00    5.209299e-01   7.949251e-03
  3.710251e+00    5.260370e-01   8.004959e-03
  3.712461e+00    5.462449e-01   8.174307e-03
  3.714672e+00    5.353591e-01   8.109432e-03
  3.716882e+00    5.514755e-01   8.247775e-03
  3.719093e+00    5.231073e-01   8.050042e-03
  3.721303e+00    5.468736e-01   8.248261e-03
  3.723514e+00    5.140535e-01   8.014162e-03
  3.725724e+00    4.988911e-01   7.911838e-03
  3.727935e+00    5.125766e-01   8.037025e-03
  3.730145e+00    5.087720e-01   8.024315e-03
  3.732356e+00    5.190822e-01   8.122783e-03
  3.734566e+00    5.365640e-01   8.276350e-03
  3.736776e+00    5.306726e-01   8.248817e-03
  3.738987e+00    5.259267e-01   8.229802e-03
  3.741197e+00    5.128186e-01   8.144587e-03
  3.743408e+00    5.016097e-01   8.072931e-03
  3.745618e+00    4.845743e-01   7.952456e-03
  3.747829e+00    5.127842e-01   8.198766e-03
  3.750039e+00    4.956960e-01   8.079105e-03
  3.752250e+00    5.062587e-01   8.183131e-03
  3.754460e+00    5.088874e-01   8.222791e-03
  3.756671e+00    5.387283e-01   8.479853e-03
  3.758881e+00    5.305201e-01   8.434042e-03
  3.761091e+00    5.172767e-01   8.347397e-03
  3.763302e+00    5.082361e-01   8.293215e-03
  3.765512e+00    5.091037e-01   8.319558e-03
  3.767723e+00    5.198351e-01   8.426384e-03
  3.769933e+00    4.906439e-01   8.205411e-03
  3.772144e+00    4.778189e-01   8.116511e-03
  3.774354e+00    4.817134e-01   8.168855e-03
  3.776565e+00    4.845153e-01   8.211978e-03
  3.778775e+00    5.111575e-01   8.454877e-03
  3.780986e+00    5.233579e-01   8.575858e-03
  3.783196e+00    5.154099e-01   8.530983e-03
  3.785407e+00    4.809841e-01   8.261161e-03
  3.787617e+00    5.030608e-01   8.469283e-03
  3.789827e+00    5.257817e-01   8.679492e-03
  3.792038e+00    5.003839e-01   8.488103e-03
  3.794248e+00    4.986750e-01   8.494684e-03
  3.796459e+00    5.105419e-01   8.616682e-03
  3.798669e+00    5.002841e-01   8.551083e-03
  3.800880e+00    5.107055e-01   8.661319e-03
  3.803090e+00    5.065693e-01   8.648154e-03
  3.805301e+00    5.001878e-01   8.615615e-03
  3.807511e+00    4.888001e-01   8.538710e-03
  3.809722e+00    4.847988e-01   8.525604e-03
  3.811932e+00    4.771363e-01   8.479648e-03
  3.814142e+00    5.221182e-01   8.893728e-03
  3.816353e+00    4.998537e-01   8.724998e-03
  3.818563e+00    4.861909e-01   8.627630e-03
  3.820774e+00    5.025600e-01   8.794971e-03
  3.822984e+00    5.144828e-01   8.922422e-03
  3.825195e+00    5.104216e-01   8.911203e-03
  3.827405e+00    4.953816e-01   8.802738e-03
  3.829616e+00    5.101618e-01   8.957441e-03
  3.831826e+00    5.073650e-01   8.957286e-03
  3.834037e+00    5.055690e-01   8.966191e-03
  3.836247e+00    4.969513e-01   8.914061e-03
  3.838457e+00    4.778475e-01   8.765646e-03
  3.840668e+00    4.843967e-01   8.850321e-03
  3.842878e+00    5.135610e-01   9.138868e-03
  3.845089e+00    5.025414e-01   9.066055e-03
  3.847299e+00    5.092691e-01   9.152665e-03
  3.849510e+00    4.802954e-01   8.913951e-03
  3.851720e+00    5.168998e-01   9.269259e-03
  3.853931e+00    5.254510e-01   9.365206e-03
  3.856141e+00    4.950678e-01   9.109449e-03
  3.858352e+00    5.279707e-01   9.427191e-03
  3.860562e+00    5.054177e-01   9.243172e-03
  3.862772e+00    5.141332e-01   9.342498e-03
  3.864983e+00    4.940776e-01   9.178165e-03
  3.867193e+00    4.825798e-01   9.090262e-03
  3.869404e+00    4.775091e-01   9.061872e-03
  3.871614e+00    4.696399e-01   9.006441e-03
  3.873825e+00    4.694874e-01   9.024678e-03
  3.876035e+00    5.111580e-01   9.437714e-03
  3.878246e+00    5.101553e-01   9.454631e-03
  3.880456e+00    5.534682e-01   9.878621e-03
  3.882667e+00    4.774670e-01   9.204217e-03
  3.884877e+00    4.803143e-01   9.260948e-03
  3.887087e+00    5.157022e-01   9.626736e-03
  3.889298e+00    4.787075e-01   9.305068e-03
  3.891508e+00    5.043243e-01   9.581651e-03
  3.893719e+00    4.838930e-01   9.416389e-03
  3.895929e+00    4.947672e-01   9.553039e-03
  3.898140e+00    5.327066e-01   9.945683e-03
  3.900350e+00    4.913813e-01   9.584314e-03
  3.902561e+00    5.058358e-01   9.757103e-03
  3.904771e+00    4.779502e-01   9.516762e-03
  3.906982e+00    4.832546e-01   9.602370e-03
  3.909192e+00    4.885259e-01   9.688003e-03
  3.911403e+00    5.232709e-01   1.006182e-02
  3.913613e+00    5.031795e-01   9.901584e-03
  3.915823e+00    4.702457e-01   9.606188e-03
  3.918034e+00    5.107234e-01   1.004710e-02
  3.920244e+00    4.976580e-01   9.953920e-03
  3.922455e+00    4.652466e-01   9.659505e-03
  3.924665e+00    4.713814e-01   9.758798e-03
  3.926876e+00    4.539839e-01   9.612774e-03
  3.929086e+00    4.713305e-01   9.831469e-03
  3.931297e+00    4.813545e-01   9.969994e-03
  3.933507e+00    4.794302e-01   9.978812e-03
  3.935718e+00    4.471755e-01   9.664820e-03
  3.937928e+00    4.813483e-01   1.005650e-02
  3.940138e+00    4.869805e-01   1.014455e-02
  3.942349e+00    4.871985e-01   1.017668e-02
  3.944559e+00    5.214784e-01   1.055964e-02
  3.946770e+00    5.084934e-01   1.045827e-02
  3.948980e+00    4.878991e-01   1.027498e-02
  3.951191e+00    5.193832e-01   1.063313e-02
  3.953401e+00    4.932534e-01   1.039395e-02
  3.955612e+00    5.015727e-01   1.051319e-02
  3.957822e+00    4.900599e-01   1.042375e-02
  3.960033e+00    5.071422e-01   1.063719e-02
  3.962243e+00    5.092912e-01   1.069332e-02
  3.964453e+00    5.143262e-01   1.078014e-02
  3.966664e+00    5.196071e-01   1.086991e-02
  3.968874e+00    4.806326e-01   1.048255e-02
  3.971085e+00    4.752620e-01   1.044546e-02
  3.973295e+00    4.734243e-01   1.044648e-02
  3.975506e+00    4.983722e-01   1.074004e-02
  3.977716e+00    5.288617e-01   1.108664e-02
  3.979927e+00    5.015098e-01   1.081874e-02
  3.982137e+00    4.703720e-01   1.049940e-02
  3.984348e+00    4.751745e-01   1.057518e-02
  3.986558e+00    5.033143e-01   1.090653e-02
  3.988768e+00    4.590006e-01   1.043769e-02
  3.990979e+00    5.059315e-01   1.098163e-02
  3.993189e+00    4.925806e-01   1.085888e-02
  3.995400e+00    4.827361e-01   1.077349e-02
  3.997610e+00    5.003061e-01   1.099788e-02
  3.999821e+00    5.017071e-01   1.105160e-02
  4.002031e+00    4.900110e-01   1.096055e-02
  4.004242e+00    4.926076e-01   1.102832e-02
  4.006452e+00    4.678865e-01   1.078682e-02
  4.008663e+00    4.894857e-01   1.107307e-02
  4.010873e+00    4.814043e-01   1.102111e-02
  4.013084e+00    4.831365e-01   1.108198e-02
  4.015294e+00    4.863259e-01   1.115933e-02
  4.017504e+00    4.944094e-01   1.129410e-02
  4.019715e+00    4.933479e-01   1.132489e-02
  4.021925e+00    4.695887e-01   1.109119e-02
  4.024136e+00    4.846026e-01   1.131069e-02
  4.026346e+00    4.982753e-01   1.151398e-02
  4.028557e+00    4.752392e-01   1.128862e-02
  4.030767e+00    4.902035e-01   1.151086e-02
  4.032978e+00    4.940364e-01   1.160269e-02
  4.035188e+00    4.842651e-01   1.153350e-02
  4.037399e+00    4.999010e-01   1.176663e-02
  4.039609e+00    4.785157e-01   1.155959e-02
  4.041819e+00    4.994850e-01   1.185982e-02
  4.044030e+00    5.060410e-01   1.198840e-02
  4.046240e+00    4.866322e-01   1.180646e-02
  4.048451e+00    4.692341e-01   1.164342e-02
  4.050661e+00    4.806027e-01   1.183513e-02
  4.052872e+00    5.070341e-01   1.221019e-02
  4.055082e+00    5.050743e-01   1.224141e-02
  4.057293e+00    4.507351e-01   1.161606e-02
  4.059503e+00    4.892568e-01   1.215720e-02
  4.061714e+00    4.678075e-01   1.194352e-02
  4.063924e+00    4.576818e-01   1.186878e-02
  4.066134e+00    4.842491e-01   1.226588e-02
  4.068345e+00    4.587588e-01   1.199627e-02
  4.070555e+00    4.758209e-01   1.227614e-02
  4.072766e+00    4.859727e-01   1.246756e-02
  4.074976e+00    5.079203e-01   1.280954e-02
  4.077187e+00    4.947259e-01   1.270493e-02
  4.079397e+00    4.828157e-01   1.261519e-02
  4.081608e+00    4.844645e-01   1.270229e-02
  4.083818e+00    4.960983e-01   1.292080e-02
  4.086029e+00    5.189618e-01   1.328500e-02
  4.088239e+00    4.427642e-01   1.233702e-02
  4.090449e+00    4.864420e-01   1.300136e-02
  4.092660e+00    4.744423e-01   1.291060e-02
  4.094870e+00    4.737248e-01   1.297249e-02
  4.097081e+00    4.900360e-01   1.326634e-02
  4.099291e+00    4.911884e-01   1.333687e-02
  4.101502e+00    4.758701e-01   1.317624e-02
  4.103712e+00    5.145565e-01   1.375246e-02
  4.105923e+00    4.960496e-01   1.355508e-02
  4.108133e+00    4.853161e-01   1.345927e-02
  4.110344e+00    4.737537e-01   1.334905e-02
  4.112554e+00    4.574440e-01   1.316879e-02
  4.114764e+00    4.996144e-01   1.381788e-02
  4.116975e+00    4.835887e-01   1.364806e-02
  4.119185e+00    4.923249e-01   1.382658e-02
  4.121396e+00    5.033979e-01   1.403909e-02
  4.123606e+00    4.563447e-01   1.342179e-02
  4.125817e+00    4.835845e-01   1.387430e-02
  4.128027e+00    4.911891e-01   1.404180e-02
  4.130238e+00    5.183071e-01   1.448618e-02
  4.132448e+00    4.801515e-01   1.400334e-02
  4.134659e+00    5.072683e-01   1.445505e-02
  4.136869e+00    5.050455e-01   1.448787e-02
  4.139080e+00    5.196772e-01   1.476220e-02
  4.141290e+00    4.830520e-01   1.429597e-02
  4.143500e+00    4.736497e-01   1.422116e-02
  4.145711e+00    4.668812e-01   1.418528e-02
  4.147921e+00    4.357303e-01   1.376657e-02
  4.150132e+00    5.024557e-01   1.485379e-02
  4.152342e+00    4.767972e-01   1.453960e-02
  4.154553e+00    5.102314e-01   1.511225e-02
  4.156763e+00    5.038040e-01   1.509112e-02
  4.158974e+00    5.497297e-01   1.584321e-02
  4.161184e+00    5.336109e-01   1.568666e-02
  4.163395e+00    4.991261e-01   1.524880e-02
  4.165605e+00    4.535410e-01   1.461135e-02
  4.167815e+00    5.011938e-01   1.543988e-02
  4.170026e+00    4.687645e-01   1.501056e-02
  4.172236e+00    5.021148e-01   1.561964e-02
  4.174447e+00    5.118418e-01   1.585571e-02
  4.176657e+00    5.395411e-01   1.636822e-02
  4.178868e+00    5.140796e-01   1.606777e-02
  4.181078e+00    5.170633e-01   1.620523e-02
  4.183289e+00    5.251927e-01   1.642549e-02
  4.185499e+00    4.984182e-01   1.609565e-02
  4.187710e+00    5.118523e-01   1.640689e-02
  4.189920e+00    4.633970e-01   1.570496e-02
  4.192130e+00    5.028876e-01   1.646025e-02
  4.194341e+00    4.742063e-01   1.608223e-02
  4.196551e+00    5.117644e-01   1.681253e-02
  4.198762e+00    5.043469e-01   1.679645e-02
  4.200972e+00    5.083216e-01   1.697141e-02
  4.203183e+00    4.924804e-01   1.681502e-02
  4.205393e+00    5.197666e-01   1.738958e-02
  4.207604e+00    4.680224e-01   1.661405e-02
  4.209814e+00    4.661755e-01   1.669477e-02
  4.212025e+00    4.561003e-01   1.663049e-02
  4.214235e+00    4.536422e-01   1.670317e-02
  4.216445e+00    4.562764e-01   1.687261e-02
  4.218656e+00    4.231134e-01   1.636989e-02
  4.220866e+00    4.755486e-01   1.748283e-02
  4.223077e+00    4.863183e-01   1.781578e-02
  4.225287e+00    4.484752e-01   1.724308e-02
  4.227498e+00    4.650365e-01   1.769640e-02
  4.229708e+00    4.892517e-01   1.829874e-02
  4.231919e+00    5.192478e-01   1.900717e-02
  4.234129e+00    4.967118e-01   1.874657e-02
  4.236340e+00    4.448493e-01   1.789232e-02
  4.238550e+00    5.191935e-01   1.950040e-02
  4.240761e+00    5.424014e-01   2.010751e-02
  4.242971e+00    5.048305e-01   1.957655e-02
  4.245181e+00    4.400858e-01   1.844966e-02
  4.247392e+00    5.057412e-01   1.996300e-02
  4.249602e+00    4.736212e-01   1.951052e-02
  4.251813e+00    4.816857e-01   1.986979e-02
  4.254023e+00    4.640298e-01   1.969876e-02
  4.256234e+00    4.610849e-01   1.984641e-02
  4.258444e+00    4.366584e-01   1.951495e-02
  4.260655e+00    4.657552e-01   2.037664e-02
  4.262865e+00    5.082076e-01   2.152650e-02
  4.265076e+00    3.844280e-01   1.893521e-02
  4.267286e+00    4.467111e-01   2.065379e-02
  4.269496e+00    4.417191e-01   2.078810e-02
  4.271707e+00    5.382065e-01   2.323034e-02
  4.273917e+00    5.222694e-01   2.318006e-02
  4.276128e+00    4.421833e-01   2.161136e-02
  4.278338e+00    5.539756e-01   2.451310e-02
  4.280549e+00    4.926595e-01   2.344853e-02
  4.282759e+00    4.670442e-01   2.315854e-02
  4.284970e+00    4.972803e-01   2.425055e-02
  4.287180e+00    4.408872e-01   2.310706e-02
  4.289391e+00    4.462404e-01   2.342161e-02
  4.291601e+00    4.804159e-01   2.449639e-02
  4.293811e+00    5.151044e-01   2.556348e-02
  4.296022e+00    4.559537e-01   2.424440e-02
  4.298232e+00    4.945454e-01   2.546041e-02
  4.300443e+00    4.745381e-01   2.514664e-02
  4.302653e+00    4.777128e-01   2.544914e-02
  4.304864e+00    4.540725e-01   2.502580e-02
  4.307074e+00    4.625433e-01   2.548515e-02
  4.309285e+00    5.148722e-01   2.713297e-02
  4.311495e+00    4.541809e-01   2.572148e-02
  4.313706e+00    4.952544e-01   2.711180e-02
  4.315916e+00    5.212701e-01   2.808914e-02
  4.318126e+00    3.887642e-01   2.449795e-02
  4.320337e+00    4.671705e-01   2.712533e-02
  4.322547e+00    5.010589e-01   2.839067e-02
  4.324758e+00    5.113779e-01   2.897922e-02
  4.326968e+00    5.908211e-01   3.150044e-02
  4.329179e+00    5.025962e-01   2.937376e-02
  4.331389e+00    4.570233e-01   2.833317e-02
  4.333600e+00    3.941190e-01   2.662439e-02
  4.335810e+00    5.522064e-01   3.189047e-02
  4.338021e+00    5.666189e-01   3.271832e-02
  4.340231e+00    5.042262e-01   3.125078e-02
  4.342442e+00    5.142675e-01   3.198437e-02
  4.344652e+00    3.511176e-01   2.678727e-02
  4.346862e+00    3.708118e-01   2.791390e-02
  4.349073e+00    4.515867e-01   3.125166e-02
  4.351283e+00    4.268836e-01   3.083938e-02
  4.353494e+00    3.780960e-01   2.947277e-02
  4.355704e+00    3.594134e-01   2.919653e-02
  4.357915e+00    4.213627e-01   3.214162e-02
  4.360125e+00    4.831492e-01   3.500223e-02
  4.362336e+00    4.556256e-01   3.461069e-02
  4.364546e+00    4.983856e-01   3.685664e-02
  4.366757e+00    6.127558e-01   4.168250e-02
  4.368967e+00    5.262998e-01   3.940024e-02
  4.371177e+00    4.155317e-01   3.575383e-02
  4.373388e+00    6.453456e-01   4.555263e-02
  4.375598e+00    5.020841e-01   4.109574e-02
  4.377809e+00    5.720601e-01   4.497721e-02
  4.380019e+00    4.109763e-01   3.908228e-02
  4.382230e+00    2.694646e-01   3.252704e-02
  4.384440e+00    3.169892e-01   3.629727e-02
  4.386651e+00    4.101849e-01   4.255883e-02
  4.388861e+00    4.179863e-01   4.440403e-02
  4.391072e+00    5.429073e-01   5.238692e-02
  4.393282e+00    3.690317e-01   4.485946e-02
  4.395492e+00    7.738051e-01   6.765609e-02
  4.397703e+00    6.950834e-01   6.705575e-02
  4.399913e+00    3.695820e-01   5.137260e-02
  4.402124e+00    4.903723e-01   6.252735e-02
  4.404334e+00    2.923437e-01   5.132053e-02
  4.406545e+00    2.914359e-01   5.505287e-02
  4.408755e+00    6.902357e-01   9.188402e-02
  4.410966e+00    9.288368e-01   1.179689e-01
  4.413176e+00    3.934679e-01   8.692326e-02
  4.415387e+00   -6.338472e-01            nan
  4.417597e+00   -1.854566e+00            nan
  4.419807e+00    1.431295e-01   1.358686e-01
